Data from hue_28_FLMS001491_00023.txt Node
Date: Tue Feb 07 17:17:03 GMT 2017
User: dcchb
Spectrometer: FLMS00149
Trigger mode: 0
Integration Time (sec): 2.000000E-2
Scans to average: 10
Electric dark correction enabled: true
Nonlinearity correction enabled: false
Boxcar width: 0
XAxis mode: Wavelengths
Number of Pixels in Spectrum: 2048
>>>>>Begin Spectral Data<<<<<
341.393	-4.49
341.776	-4.49
342.16	-4.49
342.543	-61.67
342.927	-40.65
343.31	-60.31
343.693	-77.48
344.077	-75
344.46	-43.36
344.843	-54.89
345.226	-44.04
345.61	-25.96
345.993	-22.12
346.376	-3.36
346.759	20.82
347.142	30.08
347.525	32.34
347.908	70.53
348.291	79.35
348.674	77.31
349.057	96.07
349.44	141.04
349.823	144.66
350.206	155.96
350.588	192.34
350.971	220.81
351.354	219.23
351.737	237.76
352.119	257.2
352.502	269.4
352.884	287.7
353.267	290.64
353.65	289.06
354.032	310.3
354.414	305.33
354.797	312.34
355.179	317.53
355.562	297.65
355.944	325.44
356.326	323.64
356.709	336.74
357.091	364.54
357.473	333.35
357.855	332.9
358.238	348.95
358.62	346.91
359.002	342.39
359.384	341.49
359.766	326.35
360.148	332.9
360.53	349.17
360.912	349.4
361.294	325.22
361.676	353.47
362.057	329.74
362.439	344.43
362.821	344.65
363.203	324.77
363.584	332.22
363.966	318.66
364.348	330.42
364.729	325.22
365.111	330.19
365.493	344.2
365.874	318.44
366.256	316.63
366.637	316.63
367.019	328.61
367.4	323.64
367.781	340.58
368.163	288.16
368.544	309.17
368.925	335.84
369.306	328.16
369.688	324.99
370.069	318.44
370.45	324.31
370.831	330.64
371.212	320.25
371.593	311.88
371.974	310.53
372.355	304.88
372.736	318.89
373.117	296.74
373.498	323.41
373.879	322.51
374.26	330.87
374.641	328.61
375.021	339.91
375.402	322.51
375.783	319.34
376.163	340.36
376.544	350.08
376.925	332.67
377.305	331.54
377.686	348.72
378.066	343.97
378.447	293.13
378.827	331.54
379.208	350.08
379.588	319.12
379.968	352.34
380.349	342.39
380.729	348.49
381.109	342.39
381.489	364.54
381.87	345.33
382.25	371.09
382.63	347.36
383.01	328.83
383.39	375.39
383.77	347.36
384.15	353.24
384.53	357.53
384.91	370.19
385.29	348.27
385.67	367.25
386.049	372.9
386.429	352.56
386.809	359.79
387.189	372
387.568	383.97
387.948	366.35
388.328	375.16
388.707	374.26
389.087	368.38
389.466	384.2
389.846	385.55
390.225	369.28
390.605	366.8
390.984	344.88
391.363	364.54
391.743	355.5
392.122	405.89
392.501	388.27
392.881	377.19
393.26	393.01
393.639	397.31
394.018	370.87
394.397	394.59
394.776	391.2
395.155	395.72
395.534	385.1
395.913	397.08
396.292	387.14
396.671	400.92
397.05	371.77
397.429	395.27
397.808	420.81
398.186	397.76
398.565	408.61
398.944	412.9
399.323	403.18
399.701	416.97
400.08	394.14
400.458	400.02
400.837	421.03
401.215	396.4
401.594	425.55
401.972	411.32
402.351	400.47
402.729	415.61
403.107	424.65
403.486	404.09
403.864	424.88
404.242	421.71
404.62	425.33
404.999	431.66
405.377	448.83
405.755	430.3
406.133	419.9
406.511	419.23
406.889	439.56
407.267	452.67
407.645	463.29
408.023	444.99
408.401	463.97
408.779	462.39
409.156	461.49
409.534	443.86
409.912	472.11
410.29	454.48
410.667	492.22
411.045	450.64
411.422	474.37
411.8	479.11
412.178	502.84
412.555	496.51
412.933	489.05
413.31	503.97
413.687	478.66
414.065	503.97
414.442	514.37
414.819	508.26
415.197	523.63
415.574	508.26
415.951	500.58
416.328	523.86
416.705	514.37
417.082	503.97
417.46	528.6
417.837	522.27
418.214	520.01
418.591	546.23
418.967	526.12
419.344	546.68
419.721	547.81
420.098	569.96
420.475	544.87
420.852	534.25
421.228	561.37
421.605	568.83
421.982	552.1
422.358	552.33
422.735	562.27
423.111	566.12
423.488	560.24
423.864	583.29
424.241	578.09
424.617	576.51
424.994	566.57
425.37	599.11
425.746	585.1
426.123	596.4
426.499	609.96
426.875	621.48
427.251	597.3
427.627	594.81
428.003	604.08
428.379	643.18
428.756	664.87
429.132	641.37
429.507	640.01
429.883	669.39
430.259	645.21
430.635	659.9
431.011	679.11
431.387	681.14
431.763	668.71
432.138	670.97
432.514	683.63
432.89	687.92
433.265	694.25
433.641	709.84
434.016	724.98
434.392	723.17
434.767	720.91
435.143	713.91
435.518	734.47
435.894	751.42
436.269	754.13
436.644	767.69
437.02	780.12
437.395	750.07
437.77	790.06
438.145	777.86
438.52	784.41
438.895	805.43
439.271	785.77
439.646	804.75
440.021	805.66
440.395	816.28
440.77	805.66
441.145	813.79
441.52	820.57
441.895	848.82
442.27	819.44
442.645	834.36
443.019	839.55
443.394	867.12
443.769	865.09
444.143	843.62
444.518	856.5
444.892	857.63
445.267	887.91
445.641	889.95
446.016	870.74
446.39	882.26
446.764	891.3
447.139	889.04
447.513	896.5
447.887	890.85
448.262	893.34
448.636	919.55
449.01	920.23
449.384	930.63
449.758	927.69
450.132	928.59
450.506	943.51
450.88	947.12
451.254	954.81
451.628	963.84
452.002	958.65
452.376	986.67
452.75	1012.21
453.123	982.83
453.497	1018.31
453.871	991.64
454.244	1040
454.618	1010.85
454.992	1054.92
455.365	1048.36
455.739	1060.11
456.112	1089.72
456.486	1082.26
456.859	1105.99
457.232	1117.74
457.606	1117.51
457.979	1117.74
458.352	1175.36
458.725	1149.6
459.099	1146.21
459.472	1170.17
459.845	1201.35
460.218	1203.39
460.591	1198.87
460.964	1231.18
461.337	1216.49
461.71	1255.14
462.083	1263.5
462.456	1272.09
462.829	1308.69
463.201	1291.29
463.574	1308.69
463.947	1349.15
464.32	1360.44
464.692	1357.73
465.065	1388.69
465.438	1378.52
465.81	1412.42
466.183	1390.27
466.555	1448.35
466.928	1437.73
467.3	1454.91
467.672	1496.71
468.045	1526.99
468.417	1569.03
468.789	1543.26
469.161	1551.17
469.534	1595.01
469.906	1609.7
470.278	1617.84
470.65	1637.05
471.022	1674.33
471.394	1686.09
471.766	1718.85
472.138	1743.49
472.51	1743.26
472.882	1799.98
473.253	1842.47
473.625	1841.34
473.997	1909.13
474.369	1933.76
474.74	1946.87
475.112	1972.41
475.484	2016.7
475.855	2033.87
476.227	2025.96
476.598	2095.57
476.97	2149.12
477.341	2192.29
477.713	2221.66
478.084	2250.36
478.455	2354.09
478.827	2371.94
479.198	2420.3
479.569	2413.98
479.94	2506.63
480.311	2542.79
480.682	2570.58
481.053	2661.88
481.424	2717.7
481.795	2744.36
482.166	2815.1
482.537	2836.11
482.908	2927.18
483.279	2928.31
483.65	2981.42
484.021	3090.34
484.391	3130.12
484.762	3156.33
485.133	3202.66
485.503	3283.56
485.874	3363.1
486.244	3368.08
486.615	3457.11
486.985	3533.27
487.356	3585.02
487.726	3603.32
488.097	3720.16
488.467	3761.74
488.837	3851.45
489.207	3857.33
489.578	3909.08
489.948	3987.95
490.318	4052.8
490.688	4061.39
491.058	4123.54
491.428	4231.56
491.798	4278.56
492.168	4374.15
492.538	4396.52
492.908	4457.76
493.278	4547.93
493.648	4547.93
494.017	4629.29
494.387	4697.76
494.757	4694.14
495.126	4765.78
495.496	4811.65
495.866	4869.28
496.235	4865.66
496.605	4949.5
496.974	5000.12
497.344	5049.16
497.713	5097.75
498.082	5150.18
498.452	5208.7
498.821	5186.78
499.19	5269.95
499.559	5318.98
499.928	5317.63
500.298	5361.02
500.667	5388.81
501.036	5399.89
501.405	5525.08
501.774	5544.74
502.143	5623.16
502.512	5568.47
502.88	5650.28
503.249	5645.08
503.618	5711.52
503.987	5711.74
504.356	5792.42
504.724	5853.43
505.093	5826.09
505.462	5862.02
505.83	5882.36
506.199	5961
506.567	6023.37
506.936	5987.22
507.304	6059.53
507.672	6107.44
508.041	6078.29
508.409	6128
508.777	6216.14
509.145	6271.5
509.514	6207.32
509.882	6302.69
510.25	6306.76
510.618	6342.01
510.986	6320.54
511.354	6386.98
511.722	6478.28
512.09	6513.76
512.458	6530.48
512.826	6603.24
513.193	6599.63
513.561	6616.35
513.929	6684.15
514.297	6712.39
514.664	6793.97
515.032	6816.57
515.4	6857.7
515.767	6830.58
516.135	6830.81
516.502	6857.93
516.869	6920.3
517.237	6957.36
517.604	6926.63
517.972	7006.62
518.339	7073.29
518.706	7030.8
519.073	7067.19
519.44	7123.68
519.808	7144.47
520.175	7163.91
520.542	7202.32
520.909	7270.12
521.276	7247.3
521.643	7337.24
522.009	7306.5
522.376	7390.79
522.743	7465.14
523.11	7526.61
523.477	7522.32
523.843	7587.63
524.21	7603.67
524.577	7666.49
524.943	7708.53
525.31	7744.46
525.676	7886.83
526.043	7869.65
526.409	7856.32
526.776	7993.72
527.142	7974.51
527.508	8054.28
527.874	8090.44
528.241	8128.63
528.607	8117.78
528.973	8299.92
529.339	8269.87
529.705	8239.59
530.071	8372.92
530.437	8416.3
530.803	8443.65
531.169	8502.4
531.535	8453.59
531.901	8499.69
532.267	8594.83
532.632	8621.27
532.998	8585.79
533.364	8695.62
533.73	8671.66
534.095	8753.47
534.461	8797.31
534.826	8864.65
535.192	8865.78
535.557	8946.69
535.923	8897.42
536.288	9019.45
536.653	9002.5
537.019	9031.88
537.384	8998.89
537.749	9106
538.114	9029.62
538.479	9160.92
538.845	9173.35
539.21	9158.88
539.575	9255.15
539.94	9321.82
540.305	9378.99
540.67	9263.06
541.034	9439.55
541.399	9438.42
541.764	9473.9
542.129	9480.91
542.494	9521.13
542.858	9582.6
543.223	9593.22
543.587	9668.7
543.952	9727
544.316	9697.4
544.681	9747.79
545.045	9817.4
545.41	9846.77
545.774	9876.83
546.138	9863.72
546.503	9963.83
546.867	10000.22
547.231	10082.02
547.595	9999.09
547.959	10091.74
548.324	10038.63
548.688	10145.07
549.052	10178.07
549.416	10220.1
549.779	10230.49
550.143	10140.1
550.507	10312.98
550.871	10279.76
551.235	10276.14
551.599	10446.99
551.962	10370.15
552.326	10434.78
552.689	10537.6
553.053	10449.92
553.417	10555
553.78	10707.32
554.143	10594.33
554.507	10643.82
554.87	10693.08
555.234	10881.1
555.597	10796.13
555.96	10856.92
556.323	10879.74
556.686	10846.75
557.05	10934.88
557.413	10902.57
557.776	10942.57
558.139	11066.4
558.502	11076.57
558.865	11042.9
559.228	11154.09
559.59	11199.51
559.953	11203.35
560.316	11291.93
560.679	11350.01
561.041	11390.24
561.404	11427.07
561.767	11472.49
562.129	11433.63
562.492	11584.58
562.854	11605.37
563.217	11568.76
563.579	11623.23
563.941	11607.63
564.304	11688.31
564.666	11791.81
565.028	11732.38
565.39	11808.76
565.753	11864.12
566.115	11937.79
566.477	11997
566.839	12086.04
567.201	12089.2
567.563	12065.25
567.925	12167.39
568.287	12143.89
568.648	12203.55
569.01	12262.98
569.372	12373.94
569.734	12342.75
570.095	12478.8
570.457	12492.13
570.819	12573.71
571.18	12511.79
571.542	12547.27
571.903	12597.66
572.265	12679.69
572.626	12723.31
572.987	12844.89
573.349	12890.76
573.71	12929.86
574.071	12997.88
574.432	13051.66
574.794	13188.38
575.155	13150.87
575.516	13253.01
575.877	13350.19
576.238	13437.87
576.599	13497.53
576.96	13584.08
577.32	13632.66
577.681	13766.45
578.042	13885.99
578.403	14010.28
578.763	14038.98
579.124	14114.46
579.485	14300.22
579.845	14423.15
580.206	14535.92
580.566	14652.98
580.927	14785.18
581.287	14932.97
581.648	15080.76
582.008	15280.3
582.368	15376.35
582.728	15621.76
583.089	15797.8
583.449	15946.5
583.809	16006.39
584.169	16284.8
584.529	16441.18
584.889	16690.44
585.249	16827.16
585.609	17015.63
585.969	17292.23
586.329	17459.23
586.688	17731.54
587.048	17975.83
587.408	18171.98
587.768	18433.89
588.127	18635.7
588.487	18879.76
588.846	19214.44
589.206	19370.14
589.565	19648.55
589.925	20022.78
590.284	20205.15
590.643	20413.5
591.003	20808.07
591.362	21115.18
591.721	21357.66
592.08	21593.81
592.44	21939.56
592.799	22221.14
593.158	22396.28
593.517	22817.51
593.876	23098.86
594.235	23369.13
594.593	23724.6
594.952	24121.65
595.311	24336.56
595.67	24674.18
596.029	25068.3
596.387	25305.58
596.746	25598
597.104	25865.11
597.463	26141.71
597.822	26617.86
598.18	26784.63
598.538	26997.06
598.897	27413.32
599.255	27482.92
599.613	28134.43
599.972	28310.47
600.33	28594.08
600.688	28837.91
601.046	29108.19
601.404	29461.17
601.762	29751.56
602.12	30081.27
602.478	30443.97
602.836	30590.86
603.194	30836.51
603.552	31168.47
603.91	31238.75
604.268	31756.03
604.625	31967.1
604.983	32325.96
605.341	32317.82
605.698	32783.57
606.056	32943.57
606.413	33361.64
606.771	33525.47
607.128	33830.1
607.485	33886.37
607.843	34084.1
608.2	34539.01
608.557	34839.56
608.914	34938.32
609.272	35392.32
609.629	35527.46
609.986	35719.77
610.343	35871.85
610.7	36311.84
611.057	36350.71
611.414	36611.49
611.771	36764.94
612.127	37023.91
612.484	37150.69
612.841	37554.97
613.198	37603.56
613.554	37659.83
613.911	38175.97
614.267	38276.31
614.624	38268.63
614.98	38517.21
615.337	38836.52
615.693	38857.76
616.05	39155.38
616.406	39426.34
616.762	39475.6
617.118	39639.21
617.475	39631.53
617.831	40057.73
618.187	40050.5
618.543	40142.48
618.899	40523.71
619.255	40671.28
619.611	40654.55
619.967	40853.87
620.323	40999.63
620.678	40916.92
621.034	40927.99
621.39	41086.18
621.746	41221.54
622.101	41702.21
622.457	41460.18
622.812	41470.58
623.168	41823.34
623.523	41785.37
623.879	42038.24
624.234	41756.67
624.589	42180.16
624.945	42232.82
625.3	42300.84
625.655	42261.06
626.01	42538.12
626.365	42538.8
626.72	42577.44
627.075	42553.26
627.43	42687.27
627.785	42575.86
628.14	42742.18
628.495	42887.71
628.85	43026.24
629.205	42668.51
629.559	43005.45
629.914	42839.58
630.269	43093.36
630.623	42835.51
630.978	42979.69
631.332	43231.21
631.687	43280.7
632.041	43154.83
632.396	43385.78
632.75	43139.91
633.104	43350.75
633.459	43117.09
633.813	43130.42
634.167	43166.58
634.521	43233.24
634.875	43311.66
635.229	43128.61
635.583	43189.18
635.937	43180.36
636.291	43091.55
636.645	43269.17
636.999	43026.24
637.352	43301.26
637.706	43076.86
638.06	43204.32
638.413	43136.07
638.767	43061.04
639.121	43165.45
639.474	42940.82
639.828	43100.14
640.181	43091.32
640.534	43220.81
640.888	43032.34
641.241	42956.86
641.594	43047.03
641.947	43127.71
642.301	42980.59
642.654	43103.08
643.007	43023.98
643.36	42986.69
643.713	42966.81
644.066	43169.51
644.419	42832.8
644.771	42657.89
645.124	42398.46
645.477	42184
645.83	42085.7
646.182	41949.43
646.535	41769.33
646.888	41903.11
647.24	41624.7
647.593	41910.56
647.945	41900.85
648.298	41633.51
648.65	41638.71
649.002	41426.51
649.355	41774.98
649.707	41711.93
650.059	41817.46
650.411	42223.55
650.763	42255.87
651.115	42669.87
651.467	42640.49
651.819	42468.97
652.171	42568.17
652.523	42403.21
652.875	42500.15
653.227	42311.01
653.578	42591.9
653.93	42416.77
654.282	42426.71
654.633	42239.37
654.985	42322.76
655.337	42383.77
655.688	42314.85
656.039	42536.99
656.391	42278.46
656.742	42346.26
657.094	42277.79
657.445	42600.49
657.796	42369.08
658.147	42294.74
658.498	42217.45
658.849	42358.24
659.2	42274.4
659.551	42268.07
659.902	42331.12
660.253	42242.08
660.604	42360.95
660.955	42161.18
661.306	42309.2
661.656	42222.87
662.007	42267.84
662.358	42134.51
662.708	42264.68
663.059	42189.65
663.409	41791.47
663.76	42218.13
664.11	42242.53
664.461	42147.85
664.811	42114.85
665.161	42236.43
665.511	42058.81
665.862	42200.73
666.212	42210.22
666.562	42212.7
666.912	42065.36
667.262	42078.47
667.612	42069.43
667.962	42199.37
668.312	42030.79
668.662	42228.07
669.011	42104.91
669.361	42125.7
669.711	42047.28
670.06	42030.79
670.41	41935.42
670.76	41952.37
671.109	42082.09
671.459	42000.28
671.808	41836.67
672.157	41913.28
672.507	41744.69
672.856	41701.3
673.205	41798.25
673.554	41984.91
673.904	41680.74
674.253	42053.39
674.602	41759.61
674.951	41218.61
675.3	41050.7
675.649	41664.24
675.998	41579.27
676.346	41666.73
676.695	41682.55
677.044	41560.97
677.393	41665.37
677.741	41821.3
678.09	41532.5
678.438	41479.62
678.787	41532.72
679.135	41503.8
679.484	41347.19
679.832	41543.12
680.181	41285.5
680.529	41389
680.877	41237.14
681.225	41271.03
681.573	41345.61
681.922	41114.65
682.27	41123.24
682.618	41096.12
682.966	41006.18
683.314	41095.9
683.661	41071.49
684.009	40803.02
684.357	40701.56
684.705	40738.62
685.053	40679.18
685.4	40781.33
685.748	40553.09
686.095	40321.23
686.443	40278.52
686.79	40161.91
687.138	40275.13
687.485	40330.27
687.832	40092.99
688.18	40175.92
688.527	39990.84
688.874	39943.84
689.221	39773.45
689.568	39821.35
689.915	39725.54
690.262	39716.5
690.609	39521.25
690.956	39480.35
691.303	39345.66
691.65	39334.81
691.997	39213.69
692.344	39082.62
692.69	39082.84
693.037	39073.58
693.383	38739.57
693.73	38863.64
694.077	38674.49
694.423	38544.78
694.769	38544.1
695.116	38434.5
695.462	38522.18
695.808	38219.81
696.155	38420.71
696.501	38118.8
696.847	38006.94
697.193	37854.85
697.539	38053.26
697.885	37666.83
698.231	37531.24
698.577	37700.05
698.923	37502.54
699.269	37342.1
699.614	37110.46
699.96	37229.78
700.306	37142.33
700.651	36919.74
700.997	36903.92
701.342	36915.22
701.688	36715.9
702.033	36658.5
702.379	36705.05
702.724	36496.24
703.069	36583.93
703.415	36193.65
703.76	36286.76
704.105	36318.85
704.45	36014.9
704.795	35997.27
705.14	35732.87
705.485	35822.14
705.83	35596.83
706.175	35743.5
706.52	35582.6
706.865	35489.04
707.209	35385.54
707.554	35305.99
707.899	35280.91
708.243	35125.88
708.588	35182.83
708.932	34794.82
709.277	35007.47
709.621	34908.04
709.966	34726.8
710.31	34782.39
710.654	34439.35
710.998	34566.13
711.342	34509.63
711.687	34362.74
712.031	34387.6
712.375	34238.9
712.719	34218.56
713.063	34217.21
713.407	34326.81
713.75	34053.6
714.094	33954.39
714.438	33872.81
714.782	33895.18
715.125	33843.21
715.469	33791.91
715.812	33641.86
716.156	33511.69
716.499	33709.65
716.843	33654.28
717.186	33231.24
717.53	33530.22
717.873	33275.54
718.216	33306.72
718.559	33310.56
718.902	33090.01
719.246	33123.45
719.589	33013.4
719.932	32935.21
720.275	32887.75
720.617	32765.27
720.96	32845.04
721.303	32759.39
721.646	32666.97
721.989	32506.52
722.331	32641.66
722.674	32567.31
723.016	32492.73
723.359	32342
723.701	32415.22
724.044	32263.59
724.386	32206.87
724.729	32390.36
725.071	32271.72
725.413	32395.11
725.755	32110.37
726.097	32035.8
726.439	31939.75
726.782	31835.8
727.124	32003.93
727.465	31721.45
727.807	31828.12
728.149	31695.01
728.491	31636.03
728.833	31742.02
729.175	31660.44
729.516	31531.85
729.858	31565.53
730.199	31472.87
730.541	31551.52
730.882	31257.96
731.224	31625.64
731.565	31335.7
731.906	31313.1
732.248	31321.24
732.589	31095.26
732.93	31016.39
733.271	30963.06
733.612	30937.52
733.953	31038.08
734.294	31018.2
734.635	30992.89
734.976	30932.1
735.317	30791.08
735.658	30687.81
735.999	30729.16
736.339	30614.59
736.68	30715.83
737.021	30538.21
737.361	30272.9
737.702	30639.67
738.042	30477.64
738.383	30549.96
738.723	30568.72
739.063	30361.94
739.404	30435.39
739.744	30282.85
740.084	30200.36
740.424	30356.52
740.764	30106.13
741.104	30282.17
741.444	30046.7
741.784	29931.9
742.124	30153.59
742.464	30052.8
742.804	30091.67
743.143	29778.68
743.483	29879.92
743.823	29769.87
744.162	29694.16
744.502	29668.17
744.841	29611.91
745.181	29677.21
745.52	29634.96
745.86	29673.82
746.199	29524.68
746.538	29454.62
746.877	29378.46
747.216	29425.47
747.556	29375.75
747.895	29392.93
748.234	29245.36
748.573	29304.12
748.911	29254.17
749.25	29171.01
749.589	29118.13
749.928	29149.32
750.267	29083.33
750.605	29082.88
750.944	29014.18
751.283	29060.51
751.621	28952.94
751.96	28926.95
752.298	28840.17
752.636	28861.87
752.975	28777.35
753.313	28646.05
753.651	28790.91
753.989	28557.02
754.327	28492.61
754.666	28366.97
755.004	28434.76
755.342	28511.82
755.679	28328.1
756.017	28262.11
756.355	28305.72
756.693	28131.49
757.031	28177.59
757.368	28060.31
757.706	28127.65
758.044	27932.85
758.381	27807.21
758.719	27921.78
759.056	27830.03
759.394	27664.39
759.731	27546.2
760.068	27505.97
760.405	27386.43
760.743	27197.73
761.08	27377.39
761.417	27184.62
761.754	27214.45
762.091	27190.73
762.428	27082.03
762.765	26864.63
763.102	26983.73
763.438	26795.26
763.775	26665.54
764.112	26743.28
764.449	26697.63
764.785	26593.68
765.122	26367.47
765.458	26269.39
765.795	26228.49
766.131	26244.99
766.467	26213.8
766.804	25997.99
767.14	25819.46
767.476	25884.09
767.812	25763.42
768.148	25734.49
768.485	25623.08
768.821	25513.71
769.157	25414.5
769.492	25384.22
769.828	25254.51
770.164	25100.39
770.5	25161.4
770.836	25044.57
771.171	24909.88
771.507	24966.6
771.842	24780.39
772.178	24704.92
772.513	24573.62
772.849	24610.68
773.184	24463.11
773.519	24367.75
773.855	24450.91
774.19	24196.45
774.525	24289.33
774.86	24095.44
775.195	24097.93
775.53	23903.58
775.865	23928.66
776.2	23742
776.535	23608.45
776.87	23553.53
777.205	23472.63
777.539	23365.74
777.874	23372.52
778.209	23115.13
778.543	23108.35
778.878	22960.33
779.212	22926.21
779.547	22827.22
779.881	22885.98
780.215	22730.96
780.55	22839.2
780.884	22566.89
781.218	22641.01
781.552	22416.16
781.886	22404.64
782.22	22224.3
782.554	22169.39
782.888	22030.41
783.222	22011.65
783.556	21827.48
783.889	21795.61
784.223	21585
784.557	21598.1
784.89	21611.66
785.224	21531.44
785.557	21407.83
785.891	21349.75
786.224	21281.73
786.558	21275.4
786.891	21091.9
787.224	20902.76
787.557	20983.88
787.891	20851.23
788.224	20924.68
788.557	20790.44
788.89	20737.11
789.223	20664.34
789.556	20548.64
789.888	20460.96
790.221	20429.32
790.554	20293.05
790.887	20284.47
791.219	20195.43
791.552	20100.74
791.884	20013.74
792.217	20049.22
792.549	19883.12
792.882	19867.08
793.214	19738.94
793.546	19776.46
793.879	19661.88
794.211	19519.74
794.543	19675.67
794.875	19486.52
795.207	19577.14
795.539	19462.34
795.871	19429.57
796.203	19282.46
796.535	19128.11
796.867	19054.89
797.198	19117.72
797.53	18977.16
797.862	18885.18
798.193	18983.26
798.525	18780.78
798.856	18774.9
799.188	18649.93
799.519	18534.46
799.85	18441.35
800.182	18498.75
800.513	18502.82
800.844	18290.62
801.175	18423.5
801.506	18298.3
801.837	18211.98
802.168	18213.79
802.499	18211.53
802.83	18024.41
803.161	17989.61
803.491	18032.1
803.822	18059.89
804.153	17877.98
804.483	17790.52
804.814	17710.3
805.145	17809.5
805.475	17607.02
805.805	17613.8
806.136	17486.12
806.466	17538.32
806.796	17522.73
807.126	17295.39
807.457	17377.88
807.787	17309.86
808.117	17266.69
808.447	17252.23
808.777	17254.04
809.107	17072.57
809.436	17049.07
809.766	17059.92
810.096	16942.41
810.426	16907.61
810.755	16889.08
811.085	16765.01
811.414	16814.05
811.744	16658.8
812.073	16709.42
812.403	16615.41
812.732	16619.25
813.061	16612.7
813.39	16430.1
813.719	16447.05
814.049	16547.62
814.378	16399.6
814.707	16290.22
815.036	16249.09
815.365	16247.51
815.693	16173.16
816.022	16119.15
816.351	16192.82
816.68	16016.1
817.008	16065.37
817.337	15883.9
817.665	15819.27
817.994	15908.31
818.322	15896.33
818.651	15777.24
818.979	15737.69
819.307	15860.85
819.636	15777.92
819.964	15630.58
820.292	15728.88
820.62	15702.67
820.948	15640.75
821.276	15621.31
821.604	15623.8
821.932	15624.48
822.259	15611.6
822.587	15608.43
822.915	15577.47
823.243	15522.11
823.57	15537.25
823.898	15577.25
824.225	15498.38
824.553	15487.3
824.88	15565.95
825.207	15481.88
825.535	15415.89
825.862	15553.07
826.189	15445.72
826.516	15477.36
826.843	15570.47
827.17	15538.6
827.497	15439.17
827.824	15513.52
828.151	15553.29
828.478	15384.93
828.805	15543.35
829.131	15479.85
829.458	15422.22
829.785	15405.27
830.111	15464.03
830.438	15467.64
830.764	15375.22
831.09	15484.14
831.417	15352.62
831.743	15504.93
832.069	15489.34
832.395	15397.36
832.722	15453.18
833.048	15386.06
833.374	15362.79
833.7	15279.63
834.026	15273.52
834.351	15345.84
834.677	15351.71
835.003	15334.31
835.329	15296.58
835.654	15318.04
835.98	15157.6
836.306	15207.99
836.631	15177.26
836.956	15104.94
837.282	15197.37
837.607	15084.6
837.932	15075.56
838.258	15032.18
838.583	15038.05
838.908	15003.48
839.233	14984.72
839.558	14937.04
839.883	14923.7
840.208	14861.78
840.533	14869.47
840.858	14880.09
841.182	14732.3
841.507	14817.49
841.832	14869.47
842.156	14757.38
842.481	14690.72
842.805	14624.5
843.13	14568.23
843.454	14608.46
843.778	14601.45
844.103	14601
844.427	14476.26
844.751	14527.56
845.075	14467.9
845.399	14456.82
845.723	14394.68
846.047	14391.29
846.371	14228.35
846.695	14215.02
847.019	14082.14
847.343	14113.56
847.666	13976.84
847.99	13972.77
848.313	13967.34
848.637	13865.43
848.96	13821.36
849.284	13827.24
849.607	13662.27
849.931	13606.45
850.254	13572.78
850.577	13390.41
850.9	13361.48
851.223	13373.01
851.546	13313.35
851.869	13215.27
852.192	13297.98
852.515	13130.08
852.838	13124.65
853.161	13119.91
853.483	13067.93
853.806	13024.54
854.129	12984.09
854.451	12905.9
854.774	12877.43
855.096	12815.06
855.419	12812.57
855.741	12759.69
856.063	12671.79
856.385	12750.88
856.708	12664.78
857.03	12560.38
857.352	12534.84
857.674	12460.04
857.996	12451.68
858.318	12413.71
858.64	12464.11
858.961	12330.33
859.283	12281.74
859.605	12245.36
859.926	12262.98
860.248	12241.97
860.57	12193.83
860.891	12144.12
861.212	12152.25
861.534	12137.79
861.855	12071.35
862.176	12106.38
862.498	12014.85
862.819	12073.16
863.14	11956.78
863.461	11926.27
863.782	11971.69
864.103	11921.75
864.424	11868.19
864.745	11898.02
865.065	11818.7
865.386	11775.09
865.707	11732.15
866.027	11862.09
866.348	11715.43
866.668	11715.43
866.989	11733.96
867.309	11598.37
867.63	11679.27
867.95	11673.39
868.27	11619.84
868.59	11616.9
868.91	11574.87
869.23	11513.62
869.55	11586.16
869.87	11529.67
870.19	11515.66
870.51	11545.94
870.83	11486.96
871.15	11429.56
871.469	11490.12
871.789	11493.51
872.109	11407.64
872.428	11307.3
872.748	11304.59
873.067	11301.88
873.386	11334.42
873.706	11253.97
874.025	11189.56
874.344	11233.63
874.663	11233.18
874.982	11246.29
875.301	11198.15
875.62	11173.07
875.939	11163.58
876.258	11173.97
876.577	11112.5
876.896	11061.43
877.214	11007.87
877.533	11044.71
877.852	11010.13
878.17	11068.89
878.489	10999.29
878.807	11019.63
879.125	11002.45
879.444	10927.88
879.762	10960.19
880.08	10966.97
880.398	10853.53
880.716	10912.74
881.034	10842.91
881.352	10872.06
881.67	10810.14
881.988	10765.62
882.306	10733.08
882.624	10666.87
882.941	10689.92
883.259	10730.82
883.577	10669.58
883.894	10634.78
884.212	10630.03
884.529	10658.28
884.846	10617.38
885.164	10586.87
885.481	10564.5
885.798	10554.33
886.115	10449.92
886.432	10444.5
886.75	10477.72
887.067	10374.67
887.383	10352.98
887.7	10336.93
888.017	10299.19
888.334	10296.25
888.651	10293.54
888.967	10232.08
889.284	10203.38
889.6	10201.34
889.917	10081.35
890.233	10107.33
890.55	10068.46
890.866	10071.18
891.182	10033.66
891.498	10062.14
891.815	9955.25
892.131	9982.82
892.447	9896.94
892.763	9867.57
893.079	9902.59
893.395	9849.49
893.71	9829.6
894.026	9843.61
894.342	9753.22
894.657	9708.02
894.973	9616.95
895.289	9689.49
895.604	9622.37
895.92	9564.75
896.235	9521.81
896.55	9507.12
896.865	9532.21
897.181	9463.96
897.496	9415.83
897.811	9383.96
898.126	9383.28
898.441	9385.09
898.756	9328.82
899.071	9272.78
899.386	9265.55
899.7	9218.77
900.015	9171.54
900.33	9084.54
900.644	9153.69
900.959	9111.43
901.273	9043.41
901.588	9070.52
901.902	8938.32
902.216	8921.83
902.531	8885.9
902.845	8902.62
903.159	8812
903.473	8820.14
903.787	8796.18
904.101	8739.69
904.415	8693.13
904.729	8699.46
905.042	8700.14
905.356	8634.38
905.67	8573.36
905.984	8645.9
906.297	8521.61
906.611	8550.99
906.924	8500.14
907.237	8414.04
907.551	8431.9
907.864	8395.74
908.177	8353.25
908.491	8326.59
908.804	8314.84
909.117	8242.52
909.43	8196.2
909.743	8172.92
910.056	8122.3
910.368	8102.64
910.681	8033.49
910.994	8035.07
911.307	7975.86
911.619	7994.85
911.932	7967.95
912.244	7894.96
912.557	7901.74
912.869	7861.97
913.181	7798.02
913.494	7762.31
913.806	7770.45
914.118	7733.16
914.43	7675.98
914.742	7640.51
915.054	7599.6
915.366	7569.55
915.678	7555.08
915.99	7507.18
916.302	7475.76
916.613	7466.95
916.925	7461.53
917.236	7391.92
917.548	7372.26
917.859	7325.49
918.171	7281.42
918.482	7237.58
918.794	7214.98
919.105	7254.98
919.416	7108.99
919.727	7141.76
920.038	7113.74
920.349	7072.61
920.66	7002.1
920.971	6996.68
921.282	6995.1
921.593	6942.9
921.903	6942.9
922.214	6886.4
922.525	6881.2
922.835	6896.8
923.146	6776.12
923.456	6761.43
923.767	6732.05
924.077	6725.05
924.387	6686.18
924.697	6690.47
925.008	6673.07
925.318	6630.81
925.628	6631.94
925.938	6593.53
926.248	6508.11
926.558	6534.55
926.867	6491.83
927.177	6454.77
927.487	6461.78
927.796	6421.55
928.106	6331.39
928.416	6341.56
928.725	6326.19
929.034	6354.44
929.344	6270.37
929.653	6259.3
929.962	6248.45
930.271	6183.37
930.581	6170.04
930.89	6120.09
931.199	6089.13
931.508	6054.56
931.817	6092.52
932.125	6016.37
932.434	5982.02
932.743	5955.13
933.051	5961.23
933.36	5951.28
933.669	5874.22
933.977	5881.91
934.286	5797.84
934.594	5793.55
934.902	5763.94
935.21	5729.14
935.519	5680.78
935.827	5687.11
936.135	5703.61
936.443	5618.41
936.751	5634.46
937.059	5650.28
937.367	5571.63
937.674	5549.71
937.982	5479.88
938.29	5556.72
938.597	5513.1
938.905	5435.37
939.213	5434.24
939.52	5474.69
939.827	5429.94
940.135	5380.23
940.442	5384.75
940.749	5324.86
941.056	5380.9
941.363	5297.29
941.67	5315.14
941.977	5210.29
942.284	5229.04
942.591	5185.88
942.898	5217.29
943.205	5183.17
943.511	5134.13
943.818	5110.85
944.125	5061.82
944.431	5083.51
944.738	5024.98
945.044	5029.5
945.35	5045.32
945.657	4981.37
945.963	4978.88
946.269	4928.71
946.575	4921.48
946.881	4886.91
947.187	4850.07
947.493	4842.61
947.799	4892.78
948.105	4851.65
948.41	4801.03
948.716	4792.44
949.022	4765.1
949.327	4735.72
949.633	4640.13
949.938	4702.96
950.244	4687.14
950.549	4647.82
950.854	4631.54
951.16	4606.01
951.465	4616.4
951.77	4608.49
952.075	4537.08
952.38	4518.55
952.685	4504.32
952.99	4471.32
953.294	4462.06
953.599	4461.15
953.904	4392.68
954.209	4393.36
954.513	4396.75
954.818	4352.68
955.122	4333.47
955.426	4355.62
955.731	4342.29
956.035	4329.63
956.339	4295.06
956.643	4293.47
956.948	4226.13
957.252	4245.79
957.556	4222.74
957.86	4151.56
958.163	4176.42
958.467	4145
958.771	4175.06
959.075	4088.28
959.378	4083.76
959.682	4102.29
959.985	4073.59
960.289	4023.2
960.592	4037.89
960.896	4005.35
961.199	3994.27
961.502	3978.91
961.805	3954.95
962.108	3955.18
962.411	3970.55
962.714	3900.72
963.017	3894.62
963.32	3871.56
963.623	3872.92
963.926	3863.43
964.228	3851.45
964.531	3785.24
964.833	3808.06
965.136	3771.23
965.438	3753.15
965.741	3737.33
966.043	3747.05
966.345	3750.44
966.648	3718.57
966.95	3630.67
967.252	3652.59
967.554	3640.61
967.856	3632.93
968.158	3617.79
968.46	3615.07
968.761	3604.68
969.063	3579.82
969.365	3596.77
969.666	3528.52
969.968	3500.95
970.269	3479.03
970.571	3470.22
970.872	3503.44
971.174	3462.99
971.475	3436.1
971.776	3432.48
972.077	3440.39
972.378	3438.81
972.679	3427.96
972.98	3335.99
973.281	3331.69
973.582	3358.36
973.883	3303.67
974.183	3308.64
974.484	3310.68
974.785	3321.97
975.085	3255.31
975.386	3236.78
975.686	3288.08
975.986	3196.55
976.287	3256.21
976.587	3191.13
976.887	3168.08
977.187	3193.62
977.487	3145.03
977.787	3119.72
978.087	3148.65
978.387	3136.67
978.687	3111.81
978.987	3121.3
979.286	3035.88
979.586	3089.21
979.885	3030.46
980.185	3046.73
980.484	2996.79
980.784	3025.94
981.083	2989.55
981.382	2971.02
981.682	2982.55
981.981	2971.93
982.28	2942.78
982.579	2913.4
982.878	2898.48
983.177	2895.55
983.475	2917.47
983.774	2896.9
984.073	2848.31
984.372	2834.76
984.67	2865.72
984.969	2831.37
985.267	2827.75
985.566	2801.99
985.864	2781.88
986.162	2779.62
986.461	2746.17
986.759	2746.62
987.057	2750.01
987.355	2703.23
987.653	2732.84
987.951	2699.62
988.249	2701.43
988.547	2667.08
988.844	2648.77
989.142	2654.42
989.44	2650.58
989.737	2640.64
990.035	2588.89
990.332	2631.15
990.63	2582.33
990.927	2573.97
991.224	2573.07
991.521	2569.23
991.819	2540.75
992.116	2513.41
992.413	2486.52
992.71	2504.6
993.006	2483.35
993.303	2466.4
993.6	2512.28
993.897	2473.18
994.193	2492.84
994.49	2442.68
994.787	2417.59
995.083	2422.34
995.379	2428.21
995.676	2417.14
995.972	2405.16
996.268	2384.6
996.565	2357.48
996.861	2340.31
997.157	2358.84
997.453	2339.4
997.749	2316.13
998.044	2292.85
998.34	2282.68
998.636	2254.88
998.932	2264.83
999.227	2254.88
999.523	2247.43
999.818	2217.15
1000.114	2220.08
1000.409	2209.91
1000.704	2199.07
1001	2165.85
1001.295	2155
1001.59	2149.58
1001.885	2151.84
1002.18	2156.36
1002.475	2125.17
1002.77	2122.23
1003.065	2072.74
1003.359	2091.95
1003.654	2060.99
1003.949	2064.61
1004.243	2070.71
1004.538	2024.38
1004.832	2041.78
1005.127	2040.43
1005.421	2023.03
1005.715	2002.46
1006.009	1979.86
1006.304	1974.44
1006.598	1940.77
1006.892	1938.06
1007.186	1937.15
1007.48	1916.36
1007.773	1935.12
1008.067	1884.5
1008.361	1919.07
1008.655	1874.78
1008.948	1865.74
1009.242	1893.54
1009.535	1866.65
1009.829	1838.85
1010.122	1815.35
1010.415	1823.71
1010.708	1796.14
1011.001	1812.41
1011.295	1800.43
1011.588	1776.25
1011.881	1788.46
1012.173	1764.05
1012.466	1771.73
1012.759	1751.17
1013.052	1746.65
1013.344	1733.09
1013.637	1732.19
1013.93	1699.42
1014.222	1724.5
1014.514	1677.05
1014.807	1698.97
1015.099	1671.17
1015.391	1670.72
1015.683	1637.73
1015.976	1647.44
1016.268	1627.78
1016.56	1605.86
1016.851	1609.93
1017.143	1653.09
1017.435	1583.94
1017.727	1616.03
1018.018	1559.31
1018.31	1566.09
1018.602	1553.66
1018.893	1526.32
1019.185	1550.5
1019.476	1528.35
1019.767	1555.02
1020.058	1524.96
1020.35	1457.84
1020.641	1477.96
1020.932	1459.88
1021.223	1480.22
1021.514	1437.28
1021.804	1428.24
1022.095	1433.89
1022.386	1423.04
1022.677	1431.86
1022.967	1410.84
1023.258	1358.64
1023.548	1363.16
1023.839	1382.36
1024.129	1380.56
1024.419	1363.83
1024.709	1362.48
1025	1362.25
1025.29	1347.34
1025.58	1321.8
1025.87	1317.06
1026.16	1310.95
1026.449	1281.12
1026.739	1317.06
1027.029	1263.05
1027.319	1260.56
1027.608	1282.03
1027.898	1255.59
1028.187	1260.11
1028.477	1254.91
1028.766	1247.68
1029.055	1225.76
1029.344	1228.47
1029.634	1216.04
1029.923	1212.65
1030.212	1199.54
1030.501	1191.18
1030.79	1191.64
1031.078	1145.31
1031.367	1157.74
1031.656	1168.59
1031.945	1143.05
1032.233	1144.86
1032.522	1136.95
1032.81	1141.24
1033.099	1103.73
1033.387	1087.91
1033.675	1108.02
1033.963	1080.9
1034.251	1093.11
1034.54	1082.03
1034.828	1099.66
1035.116	1057.4
1035.403	1026.89
1035.691	1047.46
1035.979	1026.44
1036.267	1040.45
1036.554	1007.91
1036.842	1020.57
1037.129	1032.09
1037.417	1012.43
1037.704	1021.02
1037.992	982.15
1038.279	996.16
1038.566	972.43
1038.853	972.43
1039.14	972.43
