Data from hue_330_FLMS001491_31.txt Node
Date: Mon Feb 06 15:45:17 GMT 2017
User: dcchb
Spectrometer: FLMS00149
Trigger mode: 0
Integration Time (sec): 2.000000E-2
Scans to average: 10
Electric dark correction enabled: true
Nonlinearity correction enabled: false
Boxcar width: 0
XAxis mode: Wavelengths
Number of Pixels in Spectrum: 2048
>>>>>Begin Spectral Data<<<<<
341.393	-2.44
341.776	-2.44
342.16	-2.44
342.543	-65.27
342.927	-57.58
343.31	-77.47
343.693	-64.81
344.077	-79.96
344.46	-50.13
344.843	-48.32
345.226	-31.6
345.61	-20.75
345.993	-15.78
346.376	-16.23
346.759	6.37
347.142	13.38
347.525	57.44
347.908	46.14
348.291	61.96
348.674	104.9
349.057	114.84
349.44	143.54
349.823	148.97
350.206	163.65
350.588	198
350.971	217.21
351.354	225.57
351.737	248.85
352.119	247.95
352.502	273.48
352.884	287.04
353.267	268.96
353.65	304.89
354.032	280.94
354.414	309.86
354.797	296.31
355.179	314.38
355.562	320.49
355.944	332.46
356.326	325.23
356.709	339.92
357.091	350.99
357.473	340.15
357.855	341.28
358.238	342.18
358.62	350.54
359.002	335.4
359.384	327.04
359.766	355.06
360.148	344.44
360.53	335.17
360.912	338.79
361.294	342.18
361.676	315.51
362.057	323.65
362.439	304.67
362.821	315.51
363.203	332.46
363.584	319.81
363.966	312.35
364.348	328.85
364.729	318.45
365.111	326.14
365.493	334.72
365.874	299.92
366.256	320.71
366.637	307.83
367.019	313.48
367.4	320.71
367.781	307.38
368.163	316.64
368.544	287.27
368.925	328.4
369.306	316.64
369.688	319.81
370.069	305.12
370.45	304.67
370.831	317.55
371.212	312.58
371.593	305.12
371.974	309.19
372.355	312.58
372.736	328.85
373.117	313.48
373.498	302.86
373.879	306.7
374.26	316.19
374.641	315.29
375.021	305.57
375.402	312.58
375.783	325.23
376.163	311.22
376.544	331.56
376.925	307.15
377.305	331.33
377.686	327.04
378.066	339.24
378.447	325.01
378.827	325.91
379.208	318.45
379.588	320.49
379.968	336.08
380.349	317.32
380.729	356.87
381.109	335.85
381.489	318.68
381.87	315.97
382.25	322.97
382.63	332.01
383.01	337.21
383.39	331.79
383.77	330.2
384.15	338.34
384.53	349.86
384.91	341.05
385.29	341.05
385.67	349.86
386.049	365.91
386.429	334.27
386.809	349.19
387.189	350.77
387.568	348.28
387.948	337.89
388.328	367.04
388.707	360.71
389.087	331.79
389.466	366.59
389.846	376.3
390.225	343.99
390.605	349.86
390.984	349.41
391.363	375.4
391.743	368.85
392.122	345.12
392.501	377.89
392.881	360.94
393.26	363.65
393.639	368.62
394.018	377.66
394.397	355.97
394.776	373.59
395.155	360.71
395.534	370.2
395.913	384.44
396.292	398.45
396.671	363.65
397.05	369.3
397.429	373.37
397.808	376.3
398.186	372.91
398.565	387.15
398.944	372.24
399.323	403.65
399.701	400.48
400.08	395.29
400.458	396.42
400.837	392.35
401.215	398.22
401.594	400.71
401.972	420.37
402.351	391.22
402.729	407.94
403.107	405.23
403.486	404.1
403.864	388.28
404.242	421.5
404.62	408.17
404.999	406.81
405.377	417.66
405.755	441.61
406.133	435.06
406.511	435.51
406.889	423.99
407.267	437.77
407.645	431.44
408.023	436.64
408.401	431.9
408.779	442.74
409.156	457.21
409.534	458.79
409.912	470.54
410.29	455.85
410.667	456.53
411.045	469.86
411.422	475.06
411.8	480.03
412.178	458.79
412.555	479.8
412.933	506.92
413.31	503.76
413.687	478.67
414.065	511.44
414.442	503.98
414.819	543.76
415.197	519.12
415.574	511.44
415.951	547.15
416.328	525
416.705	550.76
417.082	565.23
417.46	569.52
417.837	553.7
418.214	586.69
418.591	573.36
418.967	589.63
419.344	586.24
419.721	601.61
420.098	595.96
420.475	579.01
420.852	598.44
421.228	618.78
421.605	612.46
421.982	622.4
422.358	630.76
422.735	628.27
423.111	668.73
423.488	645.22
423.864	655.84
424.241	642.29
424.617	666.47
424.994	639.35
425.37	654.71
425.746	664.43
426.123	703.75
426.499	698.78
426.875	699.23
427.251	688.84
427.627	689.06
428.003	717.76
428.379	740.59
428.756	736.07
429.132	725.22
429.507	726.35
429.883	732
430.259	743.75
430.635	765.22
431.011	770.42
431.387	776.97
431.763	796.18
432.138	788.5
432.514	793.24
432.89	796.63
433.265	804.09
433.641	815.39
434.016	817.2
434.392	839.79
434.767	866.46
435.143	846.8
435.518	866.23
435.894	875.95
436.269	867.59
436.644	898.1
437.02	896.52
437.395	908.04
437.77	900.36
438.145	915.5
438.52	927.7
438.895	923.63
439.271	929.51
439.646	969.51
440.021	959.11
440.395	967.02
440.77	938.55
441.145	971.99
441.52	994.82
441.895	987.36
442.27	982.62
442.645	973.8
443.019	1009.06
443.394	1001.6
443.769	980.81
444.143	1001.37
444.518	1013.12
444.892	1021.94
445.267	997.53
445.641	1032.78
446.016	1044.31
446.39	1045.66
446.764	1037.76
447.139	1010.19
447.513	1046.12
447.887	1054.48
448.262	1051.77
448.636	1013.12
449.01	1031.88
449.384	1059
449.758	1085.21
450.132	1046.12
450.506	1070.3
450.88	1080.69
451.254	1060.58
451.628	1084.08
452.002	1116.85
452.376	1115.72
452.75	1123.18
453.123	1097.19
453.497	1115.04
453.871	1120.92
454.244	1161.14
454.618	1106.91
454.992	1153.68
455.365	1126.79
455.739	1187.13
456.112	1184.87
456.486	1184.42
456.859	1202.5
457.232	1231.42
457.606	1221.93
457.979	1209.05
458.352	1237.07
458.725	1263.06
459.099	1252.21
459.472	1255.38
459.845	1288.14
460.218	1268.48
460.591	1251.31
460.964	1288.14
461.337	1290.4
461.71	1325.21
462.083	1328.6
462.456	1306.67
462.829	1346.67
463.201	1386.67
463.574	1355.71
463.947	1368.14
464.32	1389.61
464.692	1439.55
465.065	1392.32
465.438	1396.84
465.81	1448.82
466.183	1449.04
466.555	1455.37
466.928	1477.74
467.3	1472.55
467.672	1458.08
468.045	1521.81
468.417	1514.8
468.789	1512.54
469.161	1542.83
469.534	1556.16
469.906	1575.59
470.278	1595.93
470.65	1636.38
471.022	1595.93
471.394	1670.05
471.766	1662.82
472.138	1668.25
472.51	1639.32
472.882	1697.62
473.253	1717.51
473.625	1739.43
473.997	1762.26
474.369	1758.64
474.74	1785.76
475.112	1840.22
475.484	1822.14
475.855	1851.52
476.227	1870.28
476.598	1922.25
476.97	1922.25
477.341	1972.87
477.713	1985.53
478.084	1972.87
478.455	2022.14
478.827	2048.35
479.198	2061.68
479.569	2079.31
479.94	2140.1
480.311	2162.02
480.682	2192.3
481.053	2208.57
481.424	2245.63
481.795	2238.18
482.166	2284.5
482.537	2286.31
482.908	2342.58
483.279	2352.97
483.65	2395.46
484.021	2444.72
484.391	2452.41
484.762	2495.8
485.133	2491.28
485.503	2513.2
485.874	2538.51
486.244	2541.22
486.615	2613.98
486.985	2652.85
487.356	2681.55
487.726	2687.88
488.097	2717.49
488.467	2773.08
488.837	2779.4
489.207	2832.96
489.578	2802.91
489.948	2868.67
490.318	2880.64
490.688	2914.99
491.058	2907.76
491.428	2968.1
491.798	2959.96
492.168	3053.3
492.538	3027.08
492.908	3072.73
493.278	3119.28
493.648	3129.45
494.017	3142.56
494.387	3182.33
494.757	3197.02
495.126	3226.85
495.496	3245.15
495.866	3246.96
496.235	3258.49
496.605	3270.92
496.974	3290.8
497.344	3329.67
497.713	3345.27
498.082	3311.14
498.452	3342.33
498.821	3382.78
499.19	3404.25
499.559	3436.34
499.928	3453.96
500.298	3432.04
500.667	3460.29
501.036	3527.18
501.405	3515.66
501.774	3486.05
502.143	3496
502.512	3509.1
502.88	3556.56
503.249	3548.88
503.618	3623.68
503.987	3613.05
504.356	3580.29
504.724	3578.93
505.093	3644.47
505.462	3637.46
505.83	3662.77
506.199	3642.21
506.567	3697.8
506.936	3694.63
507.304	3709.1
507.672	3763.79
508.041	3801.52
508.409	3745.93
508.777	3771.02
509.145	3786.38
509.514	3808.08
509.882	3790.45
510.25	3805.82
510.618	3799.26
510.986	3849.66
511.354	3878.58
511.722	3872.48
512.09	3893.95
512.458	3883.33
512.826	3869.55
513.193	3930.79
513.561	3930.79
513.929	3938.47
514.297	3964.91
514.664	3971.92
515.032	3956.55
515.4	3980.28
515.767	3969.43
516.135	3995.87
516.502	4012.59
516.869	4103.66
517.237	4034.29
517.604	4041.07
517.972	4067.96
518.339	4100.05
518.706	4057.34
519.073	4077
519.44	4027.28
519.808	4106.38
520.175	4137.11
520.542	4131.91
520.909	4159.93
521.276	4127.39
521.643	4146.15
522.009	4207.39
522.376	4210.55
522.743	4215.75
523.11	4212.14
523.477	4248.29
523.843	4314.51
524.21	4312.47
524.577	4330.32
524.943	4307.5
525.31	4350.89
525.676	4412.81
526.043	4402.86
526.409	4412.13
526.776	4462.52
527.142	4452.13
527.508	4443.99
527.874	4513.82
528.241	4496.42
528.607	4490.32
528.973	4561.73
529.339	4547.72
529.705	4656.19
530.071	4594.05
530.437	4693.93
530.803	4658.22
531.169	4678.34
531.535	4636.76
531.901	4662.07
532.267	4719.24
532.632	4756.53
532.998	4766.47
533.364	4792.46
533.73	4738
534.095	4832.68
534.461	4821.16
534.826	4848.05
535.192	4902.29
535.557	4868.61
535.923	4932.79
536.288	4943.87
536.653	4999.23
537.019	4934.38
537.384	4983.41
537.749	5003.98
538.114	5007.82
538.479	5020.02
538.845	5042.17
539.21	5053.92
539.575	5063.41
539.94	5115.39
540.305	5132.56
540.67	5139.12
541.034	5139.12
541.399	5183.41
541.764	5228.15
542.129	5228.83
542.494	5280.36
542.858	5308.38
543.223	5297.76
543.587	5339.34
543.952	5328.72
544.316	5330.3
544.681	5324.42
545.045	5397.87
545.41	5377.53
545.774	5445.77
546.138	5469.28
546.503	5460.46
546.867	5467.47
547.231	5492.1
547.595	5594.25
547.959	5563.96
548.324	5561.25
548.688	5526.22
549.052	5603.96
549.416	5597.64
549.779	5627.69
550.143	5671.76
550.507	5719.21
550.871	5730.06
551.235	5703.85
551.599	5715.15
551.962	5760.12
552.326	5769.61
552.689	5836.5
553.053	5808.48
553.417	5758.54
553.78	5864.29
554.143	5818.87
554.507	5820.91
554.87	5848.25
555.234	5933.45
555.597	5887.57
555.96	5901.36
556.323	5949.04
556.686	5980.9
557.05	5974.12
557.413	5972.31
557.776	6041.47
558.139	6033.56
558.502	6071.97
558.865	6074.91
559.228	6126.21
559.59	6116.27
559.953	6135.47
560.316	6187.45
560.679	6177.06
561.041	6180.44
561.404	6237.17
561.767	6205.98
562.129	6205.3
562.492	6311.06
562.854	6238.97
563.217	6307.22
563.579	6271.52
563.941	6349.71
564.304	6381.8
564.666	6364.17
565.028	6393.77
565.39	6367.33
565.753	6460.21
566.115	6384.96
566.477	6464.51
566.839	6496.82
567.201	6513.54
567.563	6527.1
567.925	6575.46
568.287	6576.14
568.648	6638.06
569.01	6656.14
569.372	6723.26
569.734	6692.07
570.095	6701.56
570.457	6722.58
570.819	6809.13
571.18	6813.87
571.542	6821.56
571.903	6828.56
572.265	6979.52
572.626	6918.96
572.987	6971.61
573.349	7067.2
573.71	7123.47
574.071	7144.71
574.432	7166.63
574.794	7262
575.155	7252.73
575.516	7259.96
575.877	7353.75
576.238	7417.7
576.599	7466.06
576.96	7559.62
577.32	7582.67
577.681	7687.52
578.042	7755.32
578.403	7843.9
578.763	7942.21
579.124	8060.85
579.485	8161.41
579.845	8261.75
580.206	8263.78
580.566	8414.74
580.927	8455.87
581.287	8667.61
581.648	8787.61
582.008	8845.23
582.368	9025.12
582.728	9195.73
583.089	9278.22
583.449	9467.36
583.809	9611.77
584.169	9777.64
584.529	9901.93
584.889	10164.29
585.249	10247.23
585.609	10456.94
585.969	10690.61
586.329	10874.11
586.688	11127.89
587.048	11269.58
587.408	11532.39
587.768	11706.63
588.127	11949.78
588.487	12181.42
588.846	12525.81
589.206	12637.45
589.565	12869.08
589.925	13145.91
590.284	13444.89
590.643	13674.94
591.003	14008.94
591.362	14274.02
591.721	14432.21
592.08	14718.07
592.44	15043.71
592.799	15270.15
593.158	15624.26
593.517	15909.45
593.876	16191.26
594.235	16383.57
594.593	16606.61
594.952	17033.04
595.311	17254.73
595.67	17619.92
596.029	18001.15
596.387	18237.08
596.746	18553.68
597.104	18745.31
597.463	19033.21
597.822	19455.12
598.18	19611.28
598.538	19856.02
598.897	20320.41
599.255	20430.69
599.613	20968.98
599.972	21019.38
600.33	21419.37
600.688	21609.64
601.046	21950.88
601.404	22306.8
601.762	22527.59
602.12	22863.4
602.478	23091.41
602.836	23458.41
603.194	23558.29
603.552	23868.12
603.91	24031.27
604.268	24469
604.625	24555.1
604.983	24871.7
605.341	25088.65
605.698	25304.69
606.056	25630.33
606.413	25811.34
606.771	26176.08
607.128	26399.12
607.485	26482.96
607.843	26788.94
608.2	27053.34
608.557	27203.85
608.914	27465.76
609.272	27833.43
609.629	28148.23
609.986	28345.74
610.343	28358.39
610.7	28767.2
611.057	28916.8
611.414	28977.36
611.771	29399.04
612.127	29501.41
612.484	29714.29
612.841	29968.97
613.198	29913.15
613.554	30101.4
613.911	30483.31
614.267	30573.93
614.624	30787.26
614.98	31028.15
615.337	31351.31
615.693	31330.97
616.05	31549.04
616.406	31667.68
616.762	31818.41
617.118	31892.31
617.475	31986.55
617.831	32319.42
618.187	32457.95
618.543	32596.25
618.899	32850.7
619.255	32870.14
619.611	33056.12
619.967	33201.43
620.323	33283.69
620.678	33292.95
621.034	33361.65
621.39	33506.05
621.746	33567.75
622.101	33892.71
622.457	33860.85
622.812	33977
623.168	34119.15
623.523	34192.82
623.879	34290.21
624.234	34290.89
624.589	34534.73
624.945	34531.56
625.3	34751.67
625.655	34753.48
626.01	34833.93
626.365	34918.67
626.72	34923.42
627.075	35044.77
627.43	34971.78
627.785	35099.01
628.14	35189.4
628.495	35297.87
628.85	35270.53
629.205	35259.45
629.559	35545.1
629.914	35368.38
630.269	35484.99
630.623	35503.74
630.978	35400.92
631.332	35680.46
631.687	35771.98
632.041	35561.82
632.396	35658.77
632.75	35615.15
633.104	35754.58
633.459	35518.43
633.813	35814.47
634.167	35709.39
634.521	35686.56
634.875	35854.47
635.229	35717.52
635.583	35676.39
635.937	35701.93
636.291	35649.73
636.645	35873.9
636.999	35647.69
637.352	35834.35
637.706	35562.05
638.06	35807.24
638.413	35726.11
638.767	35798.2
639.121	35846.33
639.474	35580.58
639.828	35649.05
640.181	35833
640.534	35787.8
640.888	35645.21
641.241	35581.03
641.594	35686.11
641.947	35756.16
642.301	35617.86
642.654	35785.32
643.007	35697.41
643.36	35697.63
643.713	35676.84
644.066	35784.19
644.419	35535.15
644.771	35529.28
645.124	35005.22
645.477	35087.26
645.83	34910.54
646.182	34655.4
646.535	34675.74
646.888	34723.65
647.24	34580.15
647.593	34703.54
647.945	34654.5
648.298	34515.74
648.65	34461.06
649.002	34427.61
649.355	34650.2
649.707	34414.05
650.059	34703.31
650.411	35039.57
650.763	35098.1
651.115	35466.23
651.467	35427.59
651.819	35375.61
652.171	35344.2
652.523	35271.88
652.875	35316.63
653.227	35033.47
653.578	35431.2
653.93	35261.26
654.282	35028.27
654.633	34995.28
654.985	35061.72
655.337	35087.03
655.688	35030.76
656.039	35278.66
656.391	34975.39
656.742	35009.97
657.094	35068.95
657.445	35157.76
657.796	35050.65
658.147	35034.15
658.498	35111.89
658.849	35161.38
659.2	35138.1
659.551	34989.18
659.902	35225.1
660.253	35079.8
660.604	35066.69
660.955	34910.31
661.306	35129.97
661.656	34916.64
662.007	35174.71
662.358	34909.86
662.708	35029.18
663.059	34966.58
663.409	34894.04
663.76	35088.16
664.11	34972
664.461	34965.68
664.811	35001.38
665.161	34914.38
665.511	34931.78
665.862	34899.69
666.212	35040.48
666.562	34856.75
666.912	34901.95
667.262	34864.66
667.612	34925
667.962	35048.39
668.312	34811.78
668.662	35048.16
669.011	34942.63
669.361	34806.58
669.711	34689.07
670.06	34788.96
670.41	34832.8
670.76	34839.8
671.109	34984.21
671.459	34735.85
671.808	34741.5
672.157	34835.28
672.507	34606.82
672.856	34607.49
673.205	34748.73
673.554	34772.24
673.904	34650.66
674.253	34844.1
674.602	34698.57
674.951	34224.91
675.3	34134.06
675.649	34523.2
675.998	34501.96
676.346	34629.64
676.695	34698.57
677.044	34300.16
677.393	34466.93
677.741	34558.46
678.09	34407.5
678.438	34490.89
678.787	34472.13
679.135	34461.96
679.484	34123.44
679.832	34438.01
680.181	34228.75
680.529	34331.34
680.877	34147.85
681.225	34245.7
681.573	34437.1
681.922	34069.43
682.27	34029.66
682.618	34025.59
682.966	34013.39
683.314	33927.51
683.661	33907.63
684.009	33778.14
684.357	33722.32
684.705	33646.16
685.053	33727.74
685.4	33602.55
685.748	33435.1
686.095	33508.54
686.443	33419.5
686.79	33387.64
687.138	33387.41
687.485	33280.52
687.832	33346.28
688.18	33310.13
688.527	33085.05
688.874	33112.84
689.221	33002.79
689.568	32934.32
689.915	32994.2
690.262	32804.15
690.609	32862.23
690.956	32806.64
691.303	32582.91
691.65	32495.91
691.997	32459.53
692.344	32394.67
692.69	32356.25
693.037	32361.9
693.383	32045.53
693.73	32076.26
694.077	31986.32
694.423	32068.58
694.769	31975.02
695.116	31843.27
695.462	31788.59
695.808	31703.84
696.155	31767.79
696.501	31540.46
696.847	31559.21
697.193	31369.16
697.539	31428.37
697.885	31190.18
698.231	31135.95
698.577	31195.83
698.923	31105.21
699.269	30918.55
699.614	30824.77
699.96	30707.03
700.306	30757.88
700.651	30592.01
700.997	30519.92
701.342	30489.64
701.688	30452.35
702.033	30342.07
702.379	30310.88
702.724	30233.82
703.069	30218.46
703.415	29931.68
703.76	29940.27
704.105	30004.9
704.45	29845.81
704.795	29767.17
705.14	29644.23
705.485	29665.7
705.83	29527.63
706.175	29533.73
706.52	29422.32
706.865	29447.18
707.209	29308.88
707.554	29321.08
707.899	29249.44
708.243	29048.09
708.588	29017.81
708.932	28891.94
709.277	28904.82
709.621	29059.17
709.966	28666.86
710.31	28850.36
710.654	28511.84
710.998	28619.18
711.342	28707.54
711.687	28513.19
712.031	28401.78
712.375	28386.41
712.719	28306.42
713.063	28219.87
713.407	28311.84
713.75	28118.17
714.094	28179.19
714.438	28084.5
714.782	27992.07
715.125	27896.94
715.469	27976.71
715.812	27887.9
716.156	27741.46
716.499	27754.57
716.843	27680.44
717.186	27625.08
717.53	27726.09
717.873	27724.06
718.216	27487.46
718.559	27368.81
718.902	27342.37
719.246	27303.05
719.589	27250.63
719.932	27189.84
720.275	27142.38
720.617	27098.09
720.96	27047.24
721.303	27030.29
721.646	27032.33
721.989	26835.27
722.331	27044.08
722.674	26823.74
723.016	26850.41
723.359	26846.79
723.701	26858.77
724.044	26727.93
724.386	26591.21
724.729	26702.17
725.071	26526.12
725.413	26657.42
725.755	26552.56
726.097	26360.03
726.439	26213.59
726.782	26325.45
727.124	26509.18
727.465	26279.58
727.807	26319.35
728.149	26210.88
728.491	26076.19
728.833	26122.97
729.175	26182.4
729.516	26027.15
729.858	26040.94
730.199	26052.24
730.541	25975.4
730.882	25930.66
731.224	26006.59
731.565	25710.33
731.906	25822.19
732.248	25868.74
732.589	25668.97
732.93	25631.91
733.271	25542.65
733.612	25582.19
733.953	25549.43
734.294	25448.41
734.635	25418.36
734.976	25549.88
735.317	25320.51
735.658	25440.96
735.999	25295.42
736.339	25183.56
736.68	25356.89
737.021	25226.05
737.361	25217.46
737.702	25353.27
738.042	25201.19
738.383	25007.97
738.723	25078.48
739.063	25047.97
739.404	25039.16
739.744	24958.26
740.084	24852.72
740.424	24966.39
740.764	24891.14
741.104	24943.79
741.444	24784.02
741.784	24675.1
742.124	24732.05
742.464	24730.47
742.804	24586.74
743.143	24665.83
743.483	24600.3
743.823	24478.27
744.162	24521.66
744.502	24442.34
744.841	24402.79
745.181	24437.14
745.52	24373.41
745.86	24331.15
746.199	24221.1
746.538	24268.56
746.877	24235.56
747.216	24258.16
747.556	24256.35
747.895	24147.43
748.234	24106.08
748.573	23963.71
748.911	23991.28
749.25	24064.72
749.589	23989.47
749.928	23874.67
750.267	23833.54
750.605	23732.75
750.944	23816.14
751.283	23650.27
751.621	23723.49
751.96	23608.46
752.298	23632.19
752.636	23601.46
752.975	23469.71
753.313	23418.18
753.651	23452.31
753.989	23423.83
754.327	23429.93
754.666	23200.56
755.004	23188.36
755.342	23157.63
755.679	23177.74
756.017	22945.88
756.355	23054.8
756.693	22902.94
757.031	23076.72
757.368	22821.36
757.706	22822.95
758.044	22770.74
758.381	22800.8
758.719	22667.92
759.056	22588.83
759.394	22610.97
759.731	22484.65
760.068	22510.41
760.405	22274.48
760.743	22317.65
761.08	22205.79
761.417	22192.91
761.754	22148.84
762.091	22112.23
762.428	22017.32
762.765	21834.04
763.102	21995.4
763.438	21832.24
763.775	21692.58
764.112	21744.33
764.449	21745.01
764.785	21561.96
765.122	21461.4
765.458	21322.65
765.795	21407.84
766.131	21282.87
766.467	21180.05
766.804	21097.11
767.14	21065.7
767.476	21139.83
767.812	20965.37
768.148	21015.53
768.485	20897.8
768.821	20696.9
769.157	20736.22
769.492	20665.94
769.828	20619.16
770.164	20387.75
770.5	20372.84
770.836	20435.66
771.171	20265.05
771.507	20266.18
771.842	20029.57
772.178	20045.84
772.513	20079.74
772.849	20024.37
773.184	19836.58
773.519	19855.57
773.855	19811.05
774.19	19567.89
774.525	19609.92
774.86	19533.31
775.195	19543.94
775.53	19399.08
775.865	19295.35
776.2	19289.25
776.535	19080.9
776.87	19013.55
777.205	19015.81
777.539	18935.36
777.874	18869.15
778.209	18829.6
778.543	18780.57
778.878	18623.06
779.212	18656.73
779.547	18496.05
779.881	18546.9
780.215	18393.68
780.55	18458.09
780.884	18211.77
781.218	18262.84
781.552	18287.92
781.886	18106.23
782.22	18108.94
782.554	18051.32
782.888	17865.34
783.222	17739.69
783.556	17756.86
783.889	17706.47
784.223	17578.79
784.557	17500.37
784.89	17693.81
785.224	17482.97
785.557	17395.52
785.891	17289.08
786.224	17229.87
786.558	17200.04
786.891	17136.77
787.224	17063.1
787.557	17009.99
787.891	16948.52
788.224	16951.91
788.557	16959.14
788.89	16841.18
789.223	16812.26
789.556	16741.3
789.888	16624.69
790.221	16623.11
790.554	16388.54
790.887	16453.85
791.219	16465.6
791.552	16475.77
791.884	16280.74
792.217	16255.21
792.549	16210.92
792.882	16054.99
793.214	16055.67
793.546	16015.67
793.879	15999.17
794.211	15844.82
794.543	15861.55
794.875	15867.65
795.207	15849.12
795.539	15689.35
795.871	15675.11
796.203	15563.47
796.535	15533.87
796.867	15539.75
797.198	15470.14
797.53	15387.66
797.862	15295.91
798.193	15249.13
798.525	15188.34
798.856	15280.77
799.188	15073.77
799.519	15023.83
799.85	14956.71
800.182	14938.86
800.513	14986.77
800.844	14878.52
801.175	14934.79
801.506	14864.74
801.837	14752.42
802.168	14762.37
802.499	14734.57
802.83	14574.35
803.161	14543.16
803.491	14549.49
803.822	14595.59
804.153	14423.17
804.483	14319.67
804.814	14307.46
805.145	14313.79
805.475	14224.08
805.805	14300.46
806.136	14198.09
806.466	14230.4
806.796	14223.17
807.126	14064.08
807.457	14034.93
807.787	14020.24
808.117	13942.95
808.447	13936.63
808.777	13961.03
809.107	13846.23
809.436	13815.72
809.766	13771.66
810.096	13783.86
810.426	13669.51
810.755	13673.81
811.085	13646.01
811.414	13644.43
811.744	13466.81
812.073	13460.48
812.403	13472
812.732	13434.72
813.061	13358.79
813.39	13379.8
813.719	13321.5
814.049	13387.04
814.378	13295.06
814.707	13244.89
815.036	13239.24
815.365	13151.11
815.693	13037.44
816.022	12975.75
816.351	13003.77
816.68	12944.33
817.008	13051.22
817.337	12870.44
817.665	12841.74
817.994	12814.17
818.322	12869.99
818.651	12796.99
818.979	12724.91
819.307	12786.15
819.636	12710.22
819.964	12742.53
820.292	12674.29
820.62	12784.56
820.948	12645.13
821.276	12739.59
821.604	12633.38
821.932	12702.08
822.259	12642.65
822.587	12584.12
822.915	12626.38
823.243	12708.63
823.57	12574.85
823.898	12665.25
824.225	12576.21
824.553	12620.5
824.88	12622.31
825.207	12544.8
825.535	12553.61
825.862	12602.87
826.189	12485.59
826.516	12568.3
826.843	12563.1
827.17	12580.28
827.497	12581.86
827.824	12551.58
828.151	12582.31
828.478	12591.8
828.805	12586.83
829.131	12578.02
829.458	12539.83
829.785	12443.78
830.111	12524.91
830.438	12602.42
830.764	12588.64
831.09	12543.67
831.417	12515.65
831.743	12522.42
832.069	12529.66
832.395	12392.48
832.722	12484.91
833.048	12455.53
833.374	12497.11
833.7	12459.38
834.026	12467.74
834.351	12435.42
834.677	12401.3
835.003	12436.33
835.329	12372.6
835.654	12341.64
835.98	12324.92
836.306	12311.58
836.631	12239.95
836.956	12310.68
837.282	12288.08
837.607	12265.93
837.932	12177.8
838.258	12222.09
838.583	12164.02
838.908	12141.64
839.233	12225.03
839.558	12138.03
839.883	12044.7
840.208	12077.24
840.533	12048.54
840.858	12084.24
841.182	12074.08
841.507	12010.12
841.832	11972.61
842.156	11919.28
842.481	11955.66
842.805	11825.04
843.13	11848.32
843.454	11883.35
843.778	11823.23
844.103	11770.13
844.427	11712.05
844.751	11724.03
845.075	11678.15
845.399	11582.34
845.723	11606.06
846.047	11643.8
846.371	11496.69
846.695	11512.51
847.019	11425.73
847.343	11439.06
847.666	11381.66
847.99	11261.22
848.313	11292.63
848.637	11192.74
848.96	11201.78
849.284	11060.54
849.607	11050.15
849.931	11065.06
850.254	10927.89
850.577	10886.76
850.9	10861.9
851.223	10828.01
851.546	10783.71
851.869	10698.52
852.192	10750.95
852.515	10670.72
852.838	10661.68
853.161	10615.58
853.483	10632.98
853.806	10546.43
854.129	10516.38
854.451	10431.41
854.774	10388.47
855.096	10355.7
855.419	10399.54
855.741	10318.64
856.063	10270.05
856.385	10340.56
856.708	10220.34
857.03	10137.18
857.352	10161.13
857.674	10184.18
857.996	10115.03
858.318	10084.07
858.64	10016.28
858.961	9990.74
859.283	9992.55
859.605	9859.44
859.926	9981.7
860.248	9902.15
860.57	9947.35
860.891	9894.25
861.212	9874.13
861.534	9810.63
861.855	9845.66
862.176	9833.91
862.498	9802.72
862.819	9847.47
863.14	9711.88
863.461	9730.86
863.782	9734.02
864.103	9667.36
864.424	9623.97
864.745	9634.82
865.065	9552.56
865.386	9564.54
865.707	9574.48
866.027	9548.94
866.348	9553.69
866.668	9535.38
866.989	9431.88
867.309	9366.35
867.63	9431.66
867.95	9481.37
868.27	9351.89
868.59	9437.08
868.91	9422.62
869.23	9341.94
869.55	9341.27
869.87	9398.44
870.19	9388.95
870.51	9385.33
870.83	9333.36
871.15	9298.78
871.469	9254.04
871.789	9279.35
872.109	9236.64
872.428	9211.1
872.748	9294.71
873.067	9234.83
873.386	9187.82
873.706	9216.98
874.025	9126.36
874.344	9129.75
874.663	9100.37
874.982	9076.41
875.301	9098.79
875.62	9114.6
875.939	9038.67
876.258	9052.69
876.577	8982.18
876.896	9029.41
877.214	8962.74
877.533	9020.37
877.852	8979.47
878.17	8915.97
878.489	8939.47
878.807	8931.78
879.125	8899.7
879.444	8950.54
879.762	8826.7
880.08	8903.09
880.398	8809.3
880.716	8834.84
881.034	8839.36
881.352	8880.26
881.67	8767.5
881.988	8806.14
882.306	8762.3
882.624	8728.85
882.941	8666.48
883.259	8627.84
883.577	8617.89
883.894	8666.93
884.212	8610.21
884.529	8579.7
884.846	8567.95
885.164	8610.89
885.481	8524.34
885.798	8548.97
886.115	8482.76
886.432	8494.28
886.75	8449.99
887.067	8517.78
887.383	8439.14
887.7	8356.21
888.017	8351.24
888.334	8387.84
888.651	8353.95
888.967	8333.38
889.284	8245.02
889.6	8313.04
889.917	8271.24
890.233	8231.24
890.55	8146.27
890.866	8243.67
891.182	8197.11
891.498	8172.93
891.815	8070.11
892.131	8078.47
892.447	8068.53
892.763	8039.83
893.079	8015.2
893.395	7995.76
893.71	8054.75
894.026	7952.38
894.342	7923.68
894.657	7895.88
894.973	7883.22
895.289	7866.5
895.604	7857.69
895.92	7791.93
896.235	7769.1
896.55	7743.57
896.865	7739.5
897.181	7718.71
897.496	7701.76
897.811	7675.09
898.126	7621.08
898.441	7566.62
898.756	7563.91
899.071	7483.24
899.386	7534.08
899.7	7407.53
900.015	7426.97
900.33	7399.85
900.644	7429.23
900.959	7407.53
901.273	7334.54
901.588	7303.35
901.902	7303.58
902.216	7234.2
902.531	7206.63
902.845	7187.42
903.159	7109.46
903.473	7113.08
903.787	7123.7
904.101	7048.9
904.415	7067.88
904.729	7046.18
905.042	7035.11
905.356	6994.43
905.67	6948.79
905.984	6989.46
906.297	6980.88
906.611	6890.93
906.924	6865.85
907.237	6860.2
907.551	6847.09
907.864	6817.26
908.177	6766.87
908.491	6747.89
908.804	6803.71
909.117	6716.02
909.43	6673.54
909.743	6580.43
910.056	6611.62
910.368	6558.29
910.681	6548.34
910.994	6554.22
911.307	6541.57
911.619	6437.39
911.932	6469.02
912.244	6408.91
912.557	6420.21
912.869	6376.15
913.181	6307
913.494	6332.76
913.806	6281.46
914.118	6309.71
914.43	6231.06
914.742	6209.14
915.054	6216.38
915.366	6168.02
915.678	6158.75
915.99	6114.68
916.302	6075.36
916.613	6088.24
916.925	6087.34
917.236	6072.88
917.548	6034.46
917.859	6005.08
918.171	5907.46
918.482	5891.41
918.794	5934.8
919.105	5888.25
919.416	5847.8
919.727	5837.63
920.038	5808.25
920.349	5751.3
920.66	5816.84
920.971	5745.65
921.282	5751.53
921.593	5667.01
921.903	5652.78
922.214	5600.35
922.525	5636.5
922.835	5569.39
923.146	5581.14
923.456	5540.01
923.767	5544.3
924.077	5508.6
924.387	5484.87
924.697	5522.38
925.008	5435.61
925.318	5440.35
925.628	5417.75
925.938	5408.26
926.248	5313.35
926.558	5335.72
926.867	5287.36
927.177	5291.2
927.487	5250.3
927.796	5211.66
928.106	5192.67
928.416	5174.6
928.725	5124.43
929.034	5160.13
929.344	5154.71
929.653	5123.52
929.962	5052.56
930.271	5063.41
930.581	5070.64
930.89	4994.26
931.199	5032
931.508	5023.19
931.817	4973.47
932.125	4928.27
932.434	4925.56
932.743	4854.15
933.051	4845.34
933.36	4832.01
933.669	4876.75
933.977	4803.76
934.286	4795.62
934.594	4807.15
934.902	4762.63
935.21	4761.05
935.519	4730.54
935.827	4711.1
936.135	4689.41
936.443	4650.09
936.751	4577.32
937.059	4606.25
937.367	4592.69
937.674	4573.71
937.982	4589.75
938.29	4537.55
938.597	4511.34
938.905	4472.69
939.213	4484.67
939.52	4452.13
939.827	4499.36
940.135	4432.24
940.442	4429.53
940.749	4417.78
941.056	4364.67
941.363	4365.8
941.67	4318.8
941.977	4327.16
942.284	4322.64
942.591	4295.3
942.898	4281.06
943.205	4251
943.511	4228.86
943.818	4187.73
944.125	4208.07
944.431	4195.41
944.738	4145.02
945.044	4158.8
945.35	4140.72
945.657	4085.13
945.963	4105.92
946.269	4079.26
946.575	4049.88
946.881	4040.39
947.187	3999.26
947.493	3974.18
947.799	3966.94
948.105	3968.98
948.41	3952.71
948.716	3950
949.022	3929.88
949.327	3916.55
949.633	3862.31
949.938	3874.29
950.244	3874.97
950.549	3812.37
950.854	3792.26
951.16	3807.63
951.465	3819.6
951.77	3757.46
952.075	3735.76
952.38	3746.84
952.685	3728.08
952.99	3686.5
953.294	3704.13
953.599	3659.38
953.904	3648.08
954.209	3606.28
954.513	3596.78
954.818	3561.3
955.122	3606.28
955.426	3533.51
955.731	3551.14
956.035	3535.99
956.339	3503.91
956.643	3548.2
956.948	3488.99
957.252	3472.95
957.556	3475.21
957.86	3449.67
958.163	3458.26
958.467	3423.46
958.771	3410.8
959.075	3423
959.378	3379.16
959.682	3387.3
959.985	3320.18
960.289	3376.45
960.592	3339.39
960.896	3334.19
961.199	3290.8
961.502	3270.24
961.805	3280.18
962.108	3240.86
962.411	3273.63
962.714	3222.1
963.017	3216.23
963.32	3214.42
963.623	3157.25
963.926	3147.08
964.228	3157.93
964.531	3127.87
964.833	3147.08
965.136	3120.41
965.438	3106.18
965.741	3070.47
966.043	3054.2
966.345	3044.71
966.648	3041.32
966.95	3061.88
967.252	3019.85
967.554	3024.37
967.856	2959.06
968.158	2953.41
968.46	2940.53
968.761	2973.98
969.063	2945.05
969.365	2924.26
969.666	2912.96
969.968	2909.12
970.269	2876.35
970.571	2904.15
970.872	2866.63
971.174	2881.1
971.475	2866.18
971.776	2837.71
972.077	2828.22
972.378	2822.12
972.679	2785.51
972.98	2784.38
973.281	2781.89
973.582	2729.69
973.883	2745.05
974.183	2745.28
974.484	2718.16
974.785	2704.83
975.085	2728.11
975.386	2704.38
975.686	2671.16
975.986	2654.21
976.287	2638.84
976.587	2646.3
976.887	2618.96
977.187	2628.22
977.487	2618.5
977.787	2592.06
978.087	2586.42
978.387	2548
978.687	2551.16
978.987	2567.66
979.286	2562.23
979.586	2529.47
979.885	2513.65
980.185	2516.59
980.484	2475.68
980.784	2481.11
981.083	2495.34
981.382	2449.47
981.682	2480.66
981.981	2461.45
982.28	2477.72
982.579	2439.75
982.878	2433.65
983.177	2385.29
983.475	2386.19
983.774	2366.53
984.073	2366.08
984.372	2329.92
984.67	2363.82
984.969	2367.66
985.267	2349.36
985.566	2343.48
985.864	2347.55
986.162	2304.39
986.461	2295.58
986.759	2265.52
987.057	2280.89
987.355	2262.81
987.653	2249.25
987.951	2256.03
988.249	2263.26
988.547	2249.7
988.844	2202.47
989.142	2218.29
989.44	2204.28
989.737	2176.71
990.035	2153.66
990.332	2183.94
990.63	2162.25
990.927	2135.58
991.224	2136.26
991.521	2121.57
991.819	2129.48
992.116	2118.63
992.413	2084.96
992.71	2079.99
993.006	2083.38
993.303	2090.83
993.6	2074.79
993.897	2037.05
994.193	2035.92
994.49	2031.85
994.787	2018.29
995.083	2030.95
995.379	1998.63
995.676	1988.24
995.972	1943.49
996.268	1985.75
996.565	1963.15
996.861	1958.18
997.157	1959.09
997.453	1947.79
997.749	1916.38
998.044	1945.53
998.34	1935.36
998.636	1931.97
998.932	1902.59
999.227	1918.18
999.523	1870.5
999.818	1869.6
1000.114	1873.89
1000.409	1846.77
1000.704	1858.52
1001	1823.5
1001.295	1805.19
1001.59	1828.92
1001.885	1801.12
1002.18	1783.05
1002.475	1779.88
1002.77	1793.44
1003.065	1736.49
1003.359	1740.56
1003.654	1718.64
1003.949	1732.65
1004.243	1716.16
1004.538	1729.49
1004.832	1715.25
1005.127	1695.82
1005.421	1710.96
1005.715	1691.52
1006.009	1675.25
1006.304	1635.48
1006.598	1663.5
1006.892	1678.19
1007.186	1634.35
1007.48	1632.99
1007.773	1626.89
1008.067	1623.5
1008.361	1606.78
1008.655	1602.49
1008.948	1586.89
1009.242	1564.52
1009.535	1596.61
1009.829	1561.36
1010.122	1562.49
1010.415	1563.39
1010.708	1544.63
1011.001	1546.89
1011.295	1542.15
1011.588	1508.48
1011.881	1513
1012.173	1508.25
1012.466	1507.8
1012.759	1497.63
1013.052	1477.74
1013.344	1446.33
1013.637	1442.26
1013.93	1440
1014.222	1429.16
1014.514	1444.75
1014.807	1420.8
1015.099	1408.59
1015.391	1422.6
1015.683	1374.47
1015.976	1413.56
1016.268	1376.28
1016.56	1370.4
1016.851	1352.32
1017.143	1361.14
1017.435	1349.16
1017.727	1368.37
1018.018	1323.62
1018.31	1338.99
1018.602	1316.39
1018.893	1304.41
1019.185	1302.83
1019.476	1292.66
1019.767	1281.59
1020.058	1264.64
1020.35	1284.08
1020.641	1240.91
1020.932	1255.6
1021.223	1215.38
1021.514	1213.57
1021.804	1244.08
1022.095	1217.64
1022.386	1240.91
1022.677	1228.03
1022.967	1186.68
1023.258	1197.75
1023.548	1190.97
1023.839	1172.67
1024.129	1154.81
1024.419	1160.01
1024.709	1158.88
1025	1143.29
1025.29	1140.8
1025.58	1149.62
1025.87	1109.62
1026.16	1109.17
1026.449	1143.97
1026.739	1094.02
1027.029	1101.26
1027.319	1080.47
1027.608	1084.99
1027.898	1096.06
1028.187	1055.83
1028.477	1049.73
1028.766	1073.46
1029.055	1033.24
1029.344	1044.53
1029.634	1029.17
1029.923	1011.32
1030.212	1022.61
1030.501	1018.55
1030.79	1029.62
1031.078	1006.12
1031.367	1007.02
1031.656	970.41
1031.945	1004.31
1032.233	986.23
1032.522	988.26
1032.81	974.93
1033.099	939.68
1033.387	953.69
1033.675	973.12
1033.963	962.05
1034.251	970.41
1034.54	946.91
1034.828	914.59
1035.116	921.83
1035.403	933.13
1035.691	902.17
1035.979	906.91
1036.267	911.66
1036.554	899.45
1036.842	880.92
1037.129	898.1
1037.417	867.36
1037.704	887.7
1037.992	866.69
1038.279	872.11
1038.566	864.43
1038.853	864.43
1039.14	864.43
