Data from hue_38_FLMS001491_00062.txt Node
Date: Tue Feb 07 17:31:48 GMT 2017
User: dcchb
Spectrometer: FLMS00149
Trigger mode: 0
Integration Time (sec): 2.000000E-2
Scans to average: 10
Electric dark correction enabled: true
Nonlinearity correction enabled: false
Boxcar width: 0
XAxis mode: Wavelengths
Number of Pixels in Spectrum: 2048
>>>>>Begin Spectral Data<<<<<
341.393	-10.56
341.776	-10.56
342.16	-10.56
342.543	-43.56
342.927	-55.54
343.31	-65.93
343.693	-69.55
344.077	-64.35
344.46	-65.25
344.843	-55.08
345.226	-40.85
345.61	-10.11
345.993	-26.38
346.376	-2.66
346.759	6.16
347.142	24.91
347.525	30.56
347.908	60.62
348.291	73.05
348.674	86.16
349.057	118.7
349.44	131.35
349.823	128.87
350.206	147.85
350.588	200.73
350.971	207.96
351.354	223.33
351.737	238.02
352.119	252.48
352.502	263.78
352.884	259.71
353.267	303.33
353.65	281.18
354.032	306.49
354.414	305.81
354.797	322.08
355.179	325.02
355.562	313.49
355.944	338.35
356.326	316.21
356.709	342.87
357.091	336.32
357.473	364.57
357.855	339.48
358.238	343.78
358.62	343.78
359.002	364.11
359.384	328.64
359.766	346.26
360.148	351.91
360.53	348.75
360.912	360.95
361.294	340.84
361.676	331.57
362.057	336.54
362.439	321.63
362.821	330.67
363.203	343.32
363.584	312.36
363.966	341.74
364.348	328.64
364.729	334.28
365.111	322.31
365.493	328.86
365.874	322.31
366.256	331.12
366.637	333.38
367.019	316.43
367.4	318.92
367.781	313.49
368.163	338.35
368.544	338.13
368.925	322.53
369.306	353.27
369.688	323.89
370.069	323.66
370.45	321.86
370.831	346.04
371.212	323.21
371.593	334.51
371.974	318.47
372.355	328.86
372.736	305.36
373.117	307.17
373.498	329.09
373.879	329.31
374.26	337
374.641	315.75
375.021	321.86
375.402	330.44
375.783	327.73
376.163	350.78
376.544	342.87
376.925	327.96
377.305	330.9
377.686	325.92
378.066	322.99
378.447	345.58
378.827	343.78
379.208	331.35
379.588	358.01
379.968	338.13
380.349	341.74
380.729	331.12
381.109	331.12
381.489	341.74
381.87	354.62
382.25	340.39
382.63	340.84
383.01	362.76
383.39	346.49
383.77	333.83
384.15	362.76
384.53	352.59
384.91	352.36
385.29	346.04
385.67	370.67
386.049	363.21
386.429	382.42
386.809	358.69
387.189	357.34
387.568	349.2
387.948	363.66
388.328	373.15
388.707	374.28
389.087	378.58
389.466	376.77
389.846	378.35
390.225	377.9
390.605	375.41
390.984	368.41
391.363	370.67
391.743	387.62
392.122	392.59
392.501	400.05
392.881	397.56
393.26	363.44
393.639	392.36
394.018	374.74
394.397	395.98
394.776	398.46
395.155	384.45
395.534	401.4
395.913	392.59
396.292	399.59
396.671	412.25
397.05	390.33
397.429	395.07
397.808	406.83
398.186	400.05
398.565	378.58
398.944	400.95
399.323	420.38
399.701	403.66
400.08	399.14
400.458	409.31
400.837	415.41
401.215	417.67
401.594	395.3
401.972	406.83
402.351	420.16
402.729	412.7
403.107	428.29
403.486	433.27
403.864	450.67
404.242	424.9
404.62	434.62
404.999	439.37
405.377	439.82
405.755	434.4
406.133	427.62
406.511	440.5
406.889	451.34
407.267	441.63
407.645	460.61
408.023	453.6
408.401	457.45
408.779	455.86
409.156	456.09
409.534	468.74
409.912	441.63
410.29	446.6
410.667	474.85
411.045	474.85
411.422	482.08
411.8	487.28
412.178	493.6
412.555	496.54
412.933	491.34
413.31	508.52
413.687	496.31
414.065	518.69
414.442	516.65
414.819	506.03
415.197	527.27
415.574	519.36
415.951	511
416.328	517.56
416.705	524.79
417.082	548.52
417.46	533.15
417.837	551
418.214	545.8
418.591	520.27
418.967	544.45
419.344	544.45
419.721	547.61
420.098	549.42
420.475	546.26
420.852	574.96
421.228	571.34
421.605	565.47
421.982	558.46
422.358	571.11
422.735	577.22
423.111	572.47
423.488	582.64
423.864	590.32
424.241	576.31
424.617	595.52
424.994	614.28
425.37	592.58
425.746	602.75
426.123	610.66
426.499	603.43
426.875	619.93
427.251	604.56
427.627	635.97
428.003	623.54
428.379	627.84
428.756	655.86
429.132	639.81
429.507	647.95
429.883	652.02
430.259	655.18
430.635	661.51
431.011	659.47
431.387	681.62
431.763	692.24
432.138	685.69
432.514	708.06
432.89	689.08
433.265	698.34
433.641	702.86
434.016	721.39
434.392	719.13
434.767	715.07
435.143	723.2
435.518	758.68
435.894	741.73
436.269	757.1
436.644	787.61
437.02	772.47
437.395	749.87
437.77	794.39
438.145	768.62
438.52	793.71
438.895	776.08
439.271	787.61
439.646	800.71
440.021	803.65
440.395	821.73
440.77	789.87
441.145	823.09
441.52	841.16
441.895	831.9
442.27	847.72
442.645	814.05
443.019	877.77
443.394	839.81
443.769	855.4
444.143	841.62
444.518	868.73
444.892	886.36
445.267	874.61
445.641	885.46
446.016	897.21
446.39	879.36
446.764	875.51
447.139	911.9
447.513	920.26
447.887	892.46
448.262	886.81
448.636	922.29
449.01	922.52
449.384	957.32
449.758	922.07
450.132	958.22
450.506	933.59
450.88	954.61
451.254	956.19
451.628	983.76
452.002	969.3
452.376	1003.42
452.75	995.74
453.123	993.25
453.497	983.53
453.871	1009.75
454.244	1034.61
454.618	1045.68
454.992	1042.29
455.365	1033.02
455.739	1049.29
456.112	1091.33
456.486	1087.26
456.859	1099.01
457.232	1118.45
457.606	1112.8
457.979	1113.93
458.352	1160.7
458.725	1160.03
459.099	1155.28
459.472	1160.93
459.845	1168.84
460.218	1188.95
460.591	1208.39
460.964	1204.77
461.337	1251.55
461.71	1275.5
462.083	1267.82
462.456	1275.73
462.829	1276.18
463.201	1302.17
463.574	1319.57
463.947	1332.45
464.32	1376.07
464.692	1381.72
465.065	1405.22
465.438	1436.4
465.81	1450.19
466.183	1469.4
466.555	1474.14
466.928	1464.2
467.3	1496.29
467.672	1524.76
468.045	1564.08
468.417	1596.17
468.789	1581.94
469.161	1593.91
469.534	1631.88
469.906	1654.93
470.278	1701.93
470.65	1720.01
471.022	1720.92
471.394	1774.93
471.766	1813.79
472.138	1824.42
472.51	1857.41
472.882	1880.46
473.253	1917.29
473.625	1940.57
473.997	2038.65
474.369	2031.64
474.74	2066.22
475.112	2107.12
475.484	2141.24
475.855	2188.47
476.227	2220.11
476.598	2275.25
476.97	2315.7
477.341	2386.43
477.713	2447.45
478.084	2454
478.455	2599.31
478.827	2626.88
479.198	2664.39
479.569	2717.05
479.94	2806.99
480.311	2853.31
480.682	2914.56
481.053	3029.81
481.424	3072.74
481.795	3163.36
482.166	3212.18
482.537	3300.76
482.908	3420.08
483.279	3433.86
483.65	3525.16
484.021	3652.62
484.391	3671.37
484.762	3824.81
485.133	3858.71
485.503	3945.72
485.874	4084.02
486.244	4150.91
486.615	4249.44
486.985	4321.3
487.356	4418.25
487.726	4498.24
488.097	4665.92
488.467	4740.72
488.837	4854.17
489.207	4944.56
489.578	5036.99
489.948	5124.22
490.318	5270.65
490.688	5343.87
491.058	5436.75
491.428	5566.24
491.798	5639.46
492.168	5796.29
492.538	5875.38
492.908	5984.08
493.278	6082.16
493.648	6172.55
494.017	6280.8
494.387	6382.94
494.757	6456.84
495.126	6582.03
495.496	6669.94
495.866	6793.78
496.235	6871.06
496.605	6991.74
496.974	7029.25
497.344	7117.84
497.713	7226.76
498.082	7302.24
498.452	7459.07
498.821	7559.63
499.19	7557.6
499.559	7683.47
499.928	7796.01
500.298	7834.2
500.667	8054.99
501.036	8033.97
501.405	8150.58
501.774	8162.33
502.143	8255.88
502.512	8338.59
502.88	8413.85
503.249	8470.12
503.618	8566.61
503.987	8673.5
504.356	8729.09
504.724	8806.6
505.093	8877.56
505.462	8974.28
505.83	9049.76
506.199	9111.23
506.567	9276.2
506.936	9295.41
507.304	9377.44
507.672	9442.29
508.041	9562.74
508.409	9621.05
508.777	9684.77
509.145	9766.81
509.514	9847.93
509.882	9923.64
510.25	9964.99
510.618	10079.79
510.986	10018.55
511.354	10174.25
511.722	10239.56
512.09	10345.32
512.458	10333.8
512.826	10471.65
513.193	10492.66
513.561	10555.94
513.929	10688.59
514.297	10771.3
514.664	10849.94
515.032	10957.28
515.4	11072.31
515.767	11061.23
516.135	11082.48
516.502	11081.8
516.869	11232.53
517.237	11317.5
517.604	11272.08
517.972	11404.28
518.339	11453.09
518.706	11529.24
519.073	11527.44
519.44	11636.36
519.808	11739.63
520.175	11720.43
520.542	12015.11
520.909	11918.61
521.276	11984.37
521.643	12167.19
522.009	12201.32
522.376	12267.08
522.743	12332.16
523.11	12424.36
523.477	12580.06
523.843	12594.3
524.21	12760.85
524.577	12881.07
524.943	12940.73
525.31	12963.33
525.676	13059.6
526.043	13130.11
526.409	13220.95
526.776	13285.58
527.142	13314.73
527.508	13347.73
527.874	13614.84
528.241	13624.11
528.607	13680.15
528.973	13815.74
529.339	13844.66
529.705	13876.53
530.071	14077.65
530.437	14108.39
530.803	14219.34
531.169	14201.94
531.535	14196.52
531.901	14256.4
532.267	14332.11
532.632	14448.94
532.998	14511.54
533.364	14667.69
533.73	14643.74
534.095	14805.09
534.461	14861.13
534.826	14870.17
535.192	14912.88
535.557	15080.11
535.923	15085.99
536.288	15185.42
536.653	15196.27
537.019	15203.5
537.384	15256.6
537.749	15310.61
538.114	15431.74
538.479	15459.31
538.845	15478.29
539.21	15520.1
539.575	15582.92
539.94	15697.72
540.305	15752.86
540.67	15812.3
541.034	15773.88
541.399	15895.91
541.764	16000.54
542.129	15913.54
542.494	16010.48
542.858	16128.45
543.223	16145.85
543.587	16344.71
543.952	16310.36
544.316	16339.51
544.681	16401.89
545.045	16471.94
545.41	16511.94
545.774	16672.16
546.138	16729.11
546.503	16725.27
546.867	16715.1
547.231	16889.78
547.595	16912.83
547.959	16950.8
548.324	16990.34
548.688	17078.25
549.052	17084.13
549.416	17124.8
549.779	17282.09
550.143	17240.73
550.507	17356.21
550.871	17464.91
551.235	17505.58
551.599	17655.41
551.962	17605.7
552.326	17688.4
552.689	17748.06
553.053	17738.12
553.417	17708.74
553.78	17961.62
554.143	17967.95
554.507	18023.54
554.87	18003.65
555.234	18230.31
555.597	18208.84
555.96	18204.55
556.323	18299.01
556.686	18373.81
557.05	18511.21
557.413	18476.63
557.776	18630.53
558.139	18642.5
558.502	18637.31
558.865	18833.23
559.228	18830.75
559.59	18881.82
559.953	18965.21
560.316	19188.48
560.679	19075.26
561.041	19255.6
561.404	19355.48
561.767	19464.18
562.129	19294.69
562.492	19566.77
562.854	19524.97
563.217	19559.09
563.579	19692.19
563.941	19668.01
564.304	19794.79
564.666	19958.4
565.028	19979.87
565.39	20035.24
565.753	20158.17
566.115	20080.21
566.477	20356.81
566.839	20335.57
567.201	20462.12
567.563	20437.94
567.925	20646.75
568.287	20668.21
568.648	20705.05
569.01	20824.59
569.372	20983.23
569.734	20971.03
570.095	21135.55
570.457	21137.35
570.819	21247.18
571.18	21318.37
571.542	21429.32
571.903	21370.12
572.265	21535.99
572.626	21628.87
572.987	21572.82
573.349	21774.4
573.71	21952.47
574.071	21931.68
574.432	22139.36
574.794	22291.22
575.155	22274.73
575.516	22216.65
575.877	22463.87
576.238	22559.46
576.599	22643.53
576.96	22772.57
577.32	22884.88
577.681	23072.22
578.042	23184.98
578.403	23288.94
578.763	23447.58
579.124	23552.21
579.485	23828.58
579.845	23933.44
580.206	23995.58
580.566	24140.66
580.927	24337.72
581.287	24455.68
581.648	24577.49
582.008	24886.18
582.368	24893.19
582.728	25134.08
583.089	25255.89
583.449	25349.45
583.809	25568.2
584.169	25748.53
584.529	25997.34
584.889	26294.05
585.249	26191.01
585.609	26436.65
585.969	26708.28
586.329	26981.95
586.688	27173.35
587.048	27252.45
587.408	27463.29
587.768	27590.29
588.127	27829.83
588.487	28072.31
588.846	28373.77
589.206	28395.69
589.565	28558.63
589.925	28931.95
590.284	29040.65
590.643	29249.68
591.003	29585.72
591.362	29772.61
591.721	29971.92
592.08	30193.16
592.44	30406.26
592.799	30599.93
593.158	30762.64
593.517	30788.4
593.876	31181.84
594.235	31283.3
594.593	31542.73
594.952	31781.82
595.311	31940.91
595.67	32254.35
596.029	32578.41
596.387	32681.46
596.746	32960.77
597.104	33023.82
597.463	33265.62
597.822	33640.75
598.18	33560.76
598.538	33822.9
598.897	34069.44
599.255	34086.62
599.613	34672.59
599.972	34695.19
600.33	34772.93
600.688	34992.36
601.046	35130.43
601.404	35437.54
601.762	35724.99
602.12	35833.69
602.478	36051.09
602.836	36130.86
603.194	36115.72
603.552	36295.37
603.91	36391.64
604.268	36761.35
604.625	36788.24
604.983	36968.35
605.341	37035.69
605.698	37239.53
606.056	37385.74
606.413	37595
606.771	37802.23
607.128	37909.34
607.485	37977.81
607.843	38037.7
608.2	38433.17
608.557	38553.39
608.914	38487.63
609.272	38800.62
609.629	39042.19
609.986	39177.33
610.343	39000.39
610.7	39425.01
611.057	39491.45
611.414	39580.26
611.771	39829.52
612.127	39914.26
612.484	39884.43
612.841	40187.93
613.198	40168.94
613.554	40244.2
613.911	40535.26
614.267	40602.6
614.624	40605.54
614.98	40792.43
615.337	40951.75
615.693	40993.78
616.05	41239.2
616.406	41329.82
616.762	41304.96
617.118	41463.37
617.475	41419.76
617.831	41588.57
618.187	41761.22
618.543	41710.6
618.899	41908.11
619.255	41991.72
619.611	42026.97
619.967	42203.01
620.323	42319.4
620.678	42209.57
621.034	42405.5
621.39	42352.84
621.746	42263.13
622.101	42902.66
622.457	42433.07
622.812	42654.75
623.168	42887.74
623.523	42811.13
623.879	42929.78
624.234	42752.15
624.589	43069.43
624.945	43038.02
625.3	43124.35
625.655	43101.07
626.01	43144.68
626.365	43167.51
626.72	43146.04
627.075	43088.64
627.43	43220.16
627.785	43149.88
628.14	43353.94
628.495	43394.62
628.85	43356.66
629.205	43179.49
629.559	43488.86
629.914	43277.11
630.269	43331.57
630.623	43287.73
630.978	43354.4
631.332	43327.96
631.687	43405.69
632.041	43346.71
632.396	43479.82
632.75	43366.83
633.104	43439.14
633.459	43243.67
633.813	43256.77
634.167	43326.6
634.521	43412.02
634.875	43393.72
635.229	43388.52
635.583	43124.12
635.937	43289.31
636.291	43234.63
636.645	43255.64
636.999	43202.08
637.352	43377.22
637.706	43102.2
638.06	43199.6
638.413	43166.83
638.767	43100.84
639.121	42992.82
639.474	42964.35
639.828	42998.7
640.181	43105.36
640.534	43051.13
640.888	43019.72
641.241	42846.61
641.594	42949.66
641.947	43043.44
642.301	43000.28
642.654	42977.01
643.007	42883.9
643.36	42836.44
643.713	42894.75
644.066	42952.83
644.419	42739.27
644.771	42440.97
645.124	42104.94
645.477	41988.78
645.83	41915.11
646.182	41581.56
646.535	41613.88
646.888	41716.25
647.24	41562.35
647.593	41740.88
647.945	41684.84
648.298	41562.81
648.65	41349.25
649.002	41399.87
649.355	41503.82
649.707	41541.34
650.059	41759.86
650.411	42186.29
650.763	42191.49
651.115	42614.76
651.467	42518.26
651.819	42412.27
652.171	42375.44
652.523	42341.99
652.875	42222.22
653.227	42130.25
653.578	42332.28
653.93	42220.87
654.282	42035.79
654.633	41878.28
654.985	42111.72
655.337	42166.18
655.688	42162.79
656.039	42255.22
656.391	41926.86
656.742	42125.28
657.094	42171.38
657.445	42183.81
657.796	41972.51
658.147	42019.74
658.498	41997.37
658.849	41957.15
659.2	42006.41
659.551	41982.46
659.902	41920.54
660.253	41940.65
660.604	41996.47
660.955	41863.59
661.306	41850.48
661.656	41956.47
662.007	41829.47
662.358	41806.19
662.708	41816.58
663.059	41817.94
663.409	41555.35
663.76	42057.93
664.11	42007.77
664.461	41934.32
664.811	41895.68
665.161	41761.9
665.511	41690.71
665.862	41782.23
666.212	41795.34
666.562	41713.31
666.912	41733.87
667.262	41652.29
667.612	41626.98
667.962	41744.72
668.312	41777.94
668.662	41792.4
669.011	41696.81
669.361	41722.12
669.711	41780.43
670.06	41737.26
670.41	41566.2
670.76	41586.99
671.109	41658.17
671.459	41530.72
671.808	41579.08
672.157	41751.05
672.507	41468.8
672.856	41461.57
673.205	41534.33
673.554	41702.46
673.904	41455.69
674.253	41648.23
674.602	41635.12
674.951	41034.68
675.3	40823.39
675.649	41377.95
675.998	41306.09
676.346	41275.36
676.695	41467.44
677.044	41086.66
677.393	41204.17
677.741	41389.02
678.09	41189.93
678.438	41141.12
678.787	41157.39
679.135	41174.79
679.484	41016.61
679.832	41103.83
680.181	40870.39
680.529	40983.84
680.877	40894.12
681.225	40814.35
681.573	41133.89
681.922	40810.73
682.27	40579.33
682.618	40686.67
682.966	40551.31
683.314	40540.46
683.661	40476.05
684.009	40368.71
684.357	40367.81
684.705	40370.29
685.053	40327.81
685.4	40265.89
685.748	39965.79
686.095	40010.08
686.443	39924.66
686.79	39724.44
687.138	39990.64
687.485	39931.44
687.832	39757.43
688.18	39747.94
688.527	39623.87
688.874	39618
689.221	39506.36
689.568	39569.41
689.915	39267.72
690.262	39290.1
690.609	39246.48
690.956	39086.03
691.303	39161.06
691.65	38801.3
691.997	38900.73
692.344	38705.48
692.69	38591.81
693.037	38759.04
693.383	38393.62
693.73	38500.29
694.077	38232.72
694.423	38417.58
694.769	38165.83
695.116	38130.58
695.462	38056.46
695.808	37956.57
696.155	38025.05
696.501	37785.5
696.847	37740.31
697.193	37505.29
697.539	37509.58
697.885	37276.14
698.231	37222.35
698.577	37228.46
698.923	37204.73
699.269	36964.06
699.614	36801.8
699.96	36851.52
700.306	36802.48
700.651	36524.52
700.997	36402.72
701.342	36538.53
701.688	36378.08
702.033	36201.14
702.379	36243.17
702.724	36129.73
703.069	36273.9
703.415	35945.78
703.76	35855.61
704.105	35933.8
704.45	35729.06
704.795	35522.74
705.14	35576.3
705.485	35506.47
705.83	35355.06
706.175	35335.17
706.52	35411.1
706.865	35216.53
707.209	35187.38
707.554	35009.53
707.899	35114.84
708.243	34867.61
708.588	34898.12
708.932	34693.83
709.277	34635.53
709.621	34721.4
709.966	34289.1
710.31	34420.62
710.654	34061.99
710.998	34054.75
711.342	34281.41
711.687	34069.44
712.031	34028.31
712.375	33833.97
712.719	33862.22
713.063	33898.15
713.407	33943.12
713.75	33762.11
714.094	33802.56
714.438	33593.98
714.782	33691.37
715.125	33512.62
715.469	33483.02
715.812	33367.09
716.156	33245.96
716.499	33234.21
716.843	33327.32
717.186	32951.05
717.53	33265.4
717.873	33071.5
718.216	33065.4
718.559	32893.88
718.902	32716.94
719.246	32807.1
719.589	32604.17
719.932	32488.69
720.275	32552.19
720.617	32501.35
720.96	32321.69
721.303	32402.14
721.646	32479.88
721.989	32163.96
722.331	32266.55
722.674	32286.89
723.016	32313.11
723.359	32189.27
723.701	32196.27
724.044	32025.2
724.386	31752.44
724.729	31989.95
725.071	31905.21
725.413	31879.9
725.755	31916.51
726.097	31741.14
726.439	31601.71
726.782	31515.39
727.124	31699.11
727.465	31389.97
727.807	31431.09
728.149	31330.08
728.491	31330.98
728.833	31296.41
729.175	31285.79
729.516	31168.5
729.858	31114.72
730.199	31187.03
730.541	31032.01
730.882	31136.86
731.224	31190.87
731.565	30867.95
731.906	30909.75
732.248	30942.75
732.589	30765.58
732.93	30678.12
733.271	30717.21
733.612	30837.21
733.953	30779.13
734.294	30583.89
734.635	30545.24
734.976	30574.85
735.317	30399.03
735.658	30491.23
735.999	30480.38
736.339	30305.7
736.68	30382.53
737.021	30290.11
737.361	30225.25
737.702	30374.17
738.042	30221.63
738.383	30120.85
738.723	30093.05
739.063	29992.04
739.404	30105.25
739.744	30036.78
740.084	29926.28
740.424	29940.74
740.764	29806.73
741.104	30044.24
741.444	29693.51
741.784	29631.82
742.124	29743.91
742.464	29507.53
742.804	29572.16
743.143	29579.62
743.483	29557.25
743.823	29397.48
744.162	29402
744.502	29275.67
744.841	29292.85
745.181	29303.01
745.52	29265.05
745.86	29151.38
746.199	29291.49
746.538	29220.08
746.877	29184.15
747.216	29096.01
747.556	29049.01
747.895	29148.67
748.234	28841.33
748.573	28925.85
748.911	28853.99
749.25	28774.89
749.589	28715.01
749.928	28799.07
750.267	28817.83
750.605	28655.8
750.944	28551.62
751.283	28484.05
751.621	28590.04
751.96	28441.79
752.298	28359.76
752.636	28353.66
752.975	28372.87
753.313	28058.08
753.651	28286.09
753.989	28029.38
754.327	28175.81
754.666	27914.12
755.004	28012.65
755.342	28089.04
755.679	27899.21
756.017	27757.29
756.355	27833
756.693	27727.24
757.031	27668.26
757.368	27483.85
757.706	27496.28
758.044	27430.75
758.381	27513.23
758.719	27365.44
759.056	27386.23
759.394	27231.43
759.731	26990.99
760.068	27150.08
760.405	26893.59
760.743	26742.63
761.08	26907.15
761.417	26796.64
761.754	26752.57
762.091	26670.54
762.428	26596.87
762.765	26349.65
763.102	26482.98
763.438	26326.14
763.775	26170.44
764.112	26270.78
764.449	26326.6
764.785	26079.6
765.122	25991.69
765.458	25875.76
765.795	25844.35
766.131	25748.76
766.467	25690
766.804	25465.83
767.14	25414.3
767.476	25444.13
767.812	25392.61
768.148	25360.07
768.485	25155.78
768.821	25128.21
769.157	24901.1
769.492	24945.62
769.828	24949.46
770.164	24682.12
770.5	24675.57
770.836	24616.36
771.171	24442.58
771.507	24404.16
771.842	24210.49
772.178	24178.86
772.513	24106.77
772.849	24132.53
773.184	24031.74
773.519	24040.78
773.855	23875.59
774.19	23718.53
774.525	23703.84
774.86	23608.48
775.195	23663.16
775.53	23560.11
775.865	23380.68
776.2	23265.43
776.535	23055.5
776.87	23091.88
777.205	23046
777.539	22906.35
777.874	23021.6
778.209	22831.55
778.543	22734.83
778.878	22580.93
779.212	22644.43
779.547	22404.21
779.881	22466.36
780.215	22327.38
780.55	22369.41
780.884	22186.14
781.218	22114.05
781.552	22156.31
781.886	22068.85
782.22	21915.86
782.554	21794.96
782.888	21618.47
783.222	21533.05
783.556	21386.61
783.889	21345.26
784.223	21231.14
784.557	21191.59
784.89	21213.96
785.224	21117.92
785.557	20975.55
785.891	20846.74
786.224	20860.07
786.558	20850.13
786.891	20706.18
787.224	20449.91
787.557	20587.31
787.891	20576.69
788.224	20473.64
788.557	20464.15
788.89	20358.17
789.223	20353.65
789.556	20209.47
789.888	20151.62
790.221	20060.32
790.554	19903.26
790.887	19948.23
791.219	19902.13
791.552	19730.16
791.884	19762.47
792.217	19586.66
792.549	19565.87
792.882	19468.92
793.214	19234.58
793.546	19487.23
793.879	19252.66
794.211	19177.86
794.543	19321.81
794.875	19076.39
795.207	19154.13
795.539	18965.21
795.871	19014.92
796.203	18868.49
796.535	18713.46
796.867	18694.93
797.198	18729.06
797.53	18628.27
797.862	18460.81
798.193	18571.77
798.525	18460.59
798.856	18457.42
799.188	18237.32
799.519	18200.71
799.85	18026.93
800.182	18122.74
800.513	18176.75
800.844	17934.05
801.175	18003.88
801.506	17898.12
801.837	17832.36
802.168	17800.27
802.499	17818.12
802.83	17736.09
803.161	17677.78
803.491	17605.92
803.822	17593.27
804.153	17596.88
804.483	17327.28
804.814	17262.2
805.145	17339.26
805.475	17309.88
805.805	17286.83
806.136	17203.9
806.466	17186.05
806.796	17071.25
807.126	17026.28
807.457	17026.73
807.787	16969.55
808.117	16877.58
808.447	16875.09
808.777	16873.96
809.107	16724.14
809.436	16783.12
809.766	16602.11
810.096	16668.09
810.426	16607.08
810.755	16548.55
811.085	16539.73
811.414	16425.84
811.744	16334.77
812.073	16354.65
812.403	16287.54
812.732	16152.63
813.061	16273.75
813.39	16202.79
813.719	16151.04
814.049	16158.73
814.378	16083.7
814.707	15988.56
815.036	15928.23
815.365	15835.12
815.693	15772.07
816.022	15744.05
816.351	15723.26
816.68	15688.46
817.008	15716.03
817.337	15632.19
817.665	15544.28
817.994	15499.99
818.322	15561.68
818.651	15482.14
818.979	15422.93
819.307	15443.04
819.636	15387.67
819.964	15242.14
820.292	15375.47
820.62	15286.21
820.948	15181.35
821.276	15322.37
821.604	15287.11
821.932	15296.6
822.259	15257.96
822.587	15220.9
822.915	15222.71
823.243	15320.56
823.57	15263.61
823.898	15241.69
824.225	15170.28
824.553	15233.78
824.88	15209.15
825.207	15271.97
825.535	15204.63
825.862	15208.92
826.189	15230.16
826.516	15304.29
826.843	15219.54
827.17	15194.23
827.497	15260.45
827.824	15228.36
828.151	15264.06
828.478	15129.38
828.805	15242.14
829.131	15162.14
829.458	15182.71
829.785	15097.74
830.111	15181.8
830.438	15241.92
830.764	15181.35
831.09	15191.97
831.417	15147.91
831.743	15174.35
832.069	15143.16
832.395	15077.17
832.722	15130.73
833.048	15079.21
833.374	15019.1
833.7	14989.72
834.026	15018.19
834.351	15029.04
834.677	15010.28
835.003	15048.93
835.329	15001.47
835.654	14892.77
835.98	14923.73
836.306	14913.34
836.631	14888.7
836.956	14925.54
837.282	14952.21
837.607	14729.16
837.932	14807.8
838.258	14751.08
838.583	14759.44
838.908	14645.32
839.233	14659.11
839.558	14687.35
839.883	14627.24
840.208	14586.11
840.533	14507.02
840.858	14517.19
841.182	14526.23
841.507	14507.7
841.832	14386.8
842.156	14373.01
842.481	14314.71
842.805	14432.22
843.13	14333.69
843.454	14354.03
843.778	14238.33
844.103	14149.29
844.427	14167.37
844.751	14204.43
845.075	14186.58
845.399	14045.34
845.723	14055.73
846.047	14052.34
846.371	13908.17
846.695	13891.89
847.019	13785.46
847.343	13776.64
847.666	13647.61
847.99	13666.36
848.313	13597.21
848.637	13542.53
848.96	13504.56
849.284	13456.88
849.607	13445.13
849.931	13361.29
850.254	13299.59
850.577	13209.2
850.9	13159.48
851.223	13192.48
851.546	13025.7
851.869	12971.01
852.192	13011.01
852.515	12877.01
852.838	12845.37
853.161	12847.63
853.483	12745.71
853.806	12747.52
854.129	12738.48
854.451	12653.28
854.774	12562.21
855.096	12564.92
855.419	12515.43
855.741	12594.75
856.063	12463.91
856.385	12396.79
856.708	12343.01
857.03	12381.2
857.352	12243.35
857.674	12193.63
857.996	12237.7
858.318	12098.27
858.64	12129
858.961	12087.87
859.283	12055.11
859.605	12058.95
859.926	12086.52
860.248	12016.24
860.57	11906.41
860.891	11985.5
861.212	11881.1
861.534	11874.32
861.855	11808.56
862.176	11787.77
862.498	11747.09
862.819	11819.86
863.14	11749.13
863.461	11714.78
863.782	11671.16
864.103	11663.93
864.424	11667.32
864.745	11623.48
865.065	11543.03
865.386	11543.26
865.707	11561.79
866.027	11549.36
866.348	11510.49
866.668	11456.03
866.989	11505.74
867.309	11404.95
867.63	11421.9
867.95	11418.29
868.27	11312.3
868.59	11362.47
868.91	11369.48
869.23	11343.26
869.55	11255.13
869.87	11388.68
870.19	11325.63
870.51	11296.71
870.83	11242.25
871.15	11231.63
871.469	11221.46
871.789	11248.35
872.109	11135.36
872.428	11126.32
872.748	11096.49
873.067	11150.5
873.386	11200.44
873.706	11056.94
874.025	11049.94
874.344	11013.33
874.663	11029.15
874.982	10925.19
875.301	11002.25
875.62	10969.03
875.939	10991.86
876.258	10897.17
876.577	10832.54
876.896	10823.5
877.214	10821.92
877.533	10853.1
877.852	10810.17
878.17	10799.32
878.489	10747.12
878.807	10772.43
879.125	10756.84
879.444	10793.67
879.762	10709.38
880.08	10748.02
880.398	10667.35
880.716	10678.87
881.034	10617.4
881.352	10599.1
881.67	10629.61
881.988	10654.24
882.306	10550.97
882.624	10495.15
882.941	10490.4
883.259	10349.39
883.577	10404.75
883.894	10475.04
884.212	10410.86
884.529	10357.52
884.846	10410.4
885.164	10303.06
885.481	10332.67
885.798	10230.97
886.115	10164.76
886.432	10253.8
886.75	10201.6
887.067	10260.35
887.383	10081.37
887.7	10108.04
888.017	10077.98
888.334	10112.33
888.651	10083.41
888.967	10090.41
889.284	9954.82
889.6	9924.09
889.917	9920.93
890.233	9908.95
890.55	9802.74
890.866	9828.05
891.182	9845.67
891.498	9833.7
891.815	9803.19
892.131	9765.45
892.447	9721.83
892.763	9660.82
893.079	9632.8
893.395	9614.49
893.71	9600.26
894.026	9616.75
894.342	9588.28
894.657	9516.19
894.973	9527.72
895.289	9516.87
895.604	9530.43
895.92	9358.68
896.235	9291.79
896.55	9356.42
896.865	9316.87
897.181	9270.55
897.496	9312.58
897.811	9233.49
898.126	9168.18
898.441	9118.23
898.756	9138.35
899.071	9088.41
899.386	9106.48
899.7	8968.86
900.015	8972.25
900.33	8908.07
900.644	8891.57
900.959	8983.1
901.273	8905.59
901.588	8813.84
901.902	8831.46
902.216	8756.89
902.531	8747.17
902.845	8694.52
903.159	8639.38
903.473	8633.05
903.787	8603.45
904.101	8556.22
904.415	8564.35
904.729	8508.53
905.042	8459.72
905.356	8492.04
905.67	8466.05
905.984	8435.31
906.297	8391.7
906.611	8320.29
906.924	8345.6
907.237	8256.56
907.551	8258.37
907.864	8259.27
908.177	8174.53
908.491	8149.45
908.804	8089.56
909.117	8135.89
909.43	7995.1
909.743	7990.35
910.056	7965.04
910.368	7940.41
910.681	7912.84
910.994	7899.06
911.307	7844.82
911.619	7766.63
911.932	7810.25
912.244	7785.16
912.557	7790.59
912.869	7724.6
913.181	7618.39
913.494	7625.84
913.806	7617.71
914.118	7575.45
914.43	7501.78
914.742	7500.42
915.054	7474.44
915.366	7410.48
915.678	7385.4
915.99	7316.7
916.302	7267.89
916.613	7301.79
916.925	7286.19
917.236	7275.35
917.548	7227.66
917.859	7182.24
918.171	7141.79
918.482	7115.58
918.794	7100.21
919.105	7050.72
919.416	6944.96
919.727	7025.63
920.038	6981.12
920.349	6938.41
920.66	6979.99
920.971	6946.31
921.282	6923.94
921.593	6858.41
921.903	6796.04
922.214	6761.46
922.525	6770.73
922.835	6734.79
923.146	6668.13
923.456	6704.06
923.767	6608.47
924.077	6660.45
924.387	6563.95
924.697	6549.94
925.008	6532.99
925.318	6480.79
925.628	6477.85
925.938	6422.26
926.248	6419.55
926.558	6387.69
926.867	6378.19
927.177	6340.91
927.487	6310.85
927.796	6218.65
928.106	6266.56
928.416	6235.37
928.725	6222.94
929.034	6145.21
929.344	6161.7
929.653	6183.17
929.962	6056.62
930.271	6035.83
930.581	6048.94
930.89	6024.3
931.199	5988.6
931.508	5957.64
931.817	5979.56
932.125	5889.62
932.434	5934.14
932.743	5862.05
933.051	5828.83
933.36	5827.02
933.669	5781.37
933.977	5692.56
934.286	5772.56
934.594	5715.61
934.902	5704.54
935.21	5680.81
935.519	5670.64
935.827	5613.69
936.135	5604.88
936.443	5613.92
936.751	5574.15
937.059	5487.6
937.367	5521.72
937.674	5502.96
937.982	5464.55
938.29	5390.2
938.597	5439.46
938.905	5408.28
939.213	5314.27
939.52	5340.48
939.827	5345.68
940.135	5321.5
940.442	5247.15
940.749	5268.84
941.056	5239.47
941.363	5153.59
941.67	5222.74
941.977	5168.28
942.284	5139.13
942.591	5086.02
942.898	5113.59
943.205	5077.66
943.511	5013.94
943.818	5087.61
944.125	5047.61
944.431	4980.04
944.738	5004.22
945.044	4932.81
945.35	4920.38
945.657	4895.97
945.963	4892.13
946.269	4818.01
946.575	4872.92
946.881	4832.47
947.187	4788.86
947.493	4820.72
947.799	4762.19
948.105	4739.37
948.41	4709.09
948.716	4720.61
949.022	4703.21
949.327	4660.95
949.633	4617.79
949.938	4620.5
950.244	4663.21
950.549	4567.85
950.854	4570.11
951.16	4554.51
951.465	4513.16
951.77	4486.27
952.075	4447.85
952.38	4494.63
952.685	4455.08
952.99	4378.92
953.294	4388.19
953.599	4369.66
953.904	4367.17
954.209	4354.97
954.513	4331.02
954.818	4252.83
955.122	4277.91
955.426	4246.72
955.731	4250.79
956.035	4202.66
956.339	4206.73
956.643	4154.98
956.948	4159.04
957.252	4100.06
957.556	4130.8
957.86	4109.1
958.163	4109.33
958.467	4078.37
958.771	4028.43
959.075	4087.63
959.378	4024.36
959.682	4015.54
959.985	3999.27
960.289	3956.11
960.592	3976
960.896	3939.16
961.199	3924.7
961.502	3951.14
961.805	3857.81
962.108	3878.15
962.411	3805.83
962.714	3847.41
963.017	3807.19
963.32	3825.49
963.623	3779.17
963.926	3799.28
964.228	3774.65
964.531	3735.78
964.833	3750.69
965.136	3713.41
965.438	3683.8
965.741	3663.69
966.043	3674.76
966.345	3660.75
966.648	3597.48
966.95	3643.8
967.252	3604.71
967.554	3566.06
967.856	3608.78
968.158	3602.67
968.46	3554.31
968.761	3488.33
969.063	3509.34
969.365	3487.42
969.666	3478.38
969.968	3442.9
970.269	3442.23
970.571	3440.64
970.872	3427.99
971.174	3349.12
971.475	3360.65
971.776	3366.97
972.077	3336.47
972.378	3344.83
972.679	3344.38
972.98	3317.03
973.281	3304.15
973.582	3268.9
973.883	3293.53
974.183	3243.14
974.484	3273.87
974.785	3200.65
975.085	3208.11
975.386	3198.84
975.686	3190.26
975.986	3163.36
976.287	3152.06
976.587	3153.42
976.887	3130.82
977.187	3145.06
977.487	3115.91
977.787	3058.96
978.087	3089.69
978.387	3020.99
978.687	3037.26
978.987	3063.03
979.286	2973.54
979.586	3007.44
979.885	3015.57
980.185	2990.71
980.484	2978.51
980.784	2946.42
981.083	2928.34
981.382	2914.56
981.682	2924.05
981.981	2871.39
982.28	2894.9
982.579	2882.24
982.878	2878.85
983.177	2813.77
983.475	2818.97
983.774	2823.26
984.073	2806.76
984.372	2823.94
984.67	2795.69
984.969	2754.33
985.267	2763.83
985.566	2734.9
985.864	2733.54
986.162	2713.21
986.461	2722.7
986.759	2675.69
987.057	2682.92
987.355	2650.83
987.653	2672.98
987.951	2651.51
988.249	2668.69
988.547	2670.27
988.844	2602.7
989.142	2595.47
989.44	2594.56
989.737	2563.83
990.035	2537.39
990.332	2572.19
990.63	2522.25
990.927	2558.63
991.224	2516.6
991.521	2539.2
991.819	2491.29
992.116	2514.57
992.413	2513.89
992.71	2488.58
993.006	2451.07
993.303	2437.05
993.6	2425.3
993.897	2436.6
994.193	2402.71
994.49	2373.55
994.787	2355.47
995.083	2351.18
995.379	2356.15
995.676	2346.21
995.972	2372.65
996.268	2288.81
996.565	2328.81
996.861	2284.06
997.157	2325.42
997.453	2273.44
997.749	2272.99
998.044	2259.66
998.34	2268.02
998.636	2271.86
998.932	2210.17
999.227	2207
999.523	2214.91
999.818	2191.19
1000.114	2184.41
1000.409	2153.67
1000.704	2147.8
1001	2134.01
1001.295	2146.21
1001.59	2096.27
1001.885	2118.64
1002.18	2116.84
1002.475	2090.17
1002.77	2071.87
1003.065	2081.13
1003.359	2045.65
1003.654	1992.77
1003.949	2019.66
1004.243	2007.91
1004.538	2005.65
1004.832	1978.76
1005.127	1978.08
1005.421	1989.38
1005.715	1976.5
1006.009	1961.59
1006.304	1948.03
1006.598	1911.87
1006.892	1933.34
1007.186	1913.68
1007.48	1889.95
1007.773	1885.88
1008.067	1860.8
1008.361	1915.94
1008.655	1866.67
1008.948	1842.95
1009.242	1825.32
1009.535	1832.32
1009.829	1792.33
1010.122	1820.12
1010.415	1808.37
1010.708	1780.57
1011.001	1771.08
1011.295	1776.96
1011.588	1764.53
1011.881	1735.6
1012.173	1728.37
1012.466	1750.29
1012.759	1710.52
1013.052	1711.65
1013.344	1692.89
1013.637	1685.89
1013.93	1674.81
1014.222	1657.87
1014.514	1648.83
1014.807	1656.28
1015.099	1634.59
1015.391	1628.26
1015.683	1634.14
1015.976	1609.51
1016.268	1607.7
1016.56	1587.13
1016.851	1602.27
1017.143	1596.85
1017.435	1584.42
1017.727	1555.5
1018.018	1545.1
1018.31	1521.15
1018.602	1518.43
1018.893	1509.85
1019.185	1499.45
1019.476	1480.24
1019.767	1477.53
1020.058	1488.15
1020.35	1479.11
1020.641	1453.35
1020.932	1418.32
1021.223	1391.21
1021.514	1425.78
1021.804	1411.77
1022.095	1421.04
1022.386	1387.36
1022.677	1408.61
1022.967	1361.38
1023.258	1353.69
1023.548	1367.25
1023.839	1360.02
1024.129	1350.3
1024.419	1322.28
1024.709	1327.03
1025	1321.15
1025.29	1302.17
1025.58	1308.04
1025.87	1288.38
1026.16	1279.8
1026.449	1259.68
1026.739	1277.99
1027.029	1277.09
1027.319	1288.38
1027.608	1246.8
1027.898	1247.48
1028.187	1226.92
1028.477	1255.16
1028.766	1181.49
1029.055	1208.61
1029.344	1205
1029.634	1179.01
1029.923	1184.43
1030.212	1169.74
1030.501	1174.94
1030.79	1163.64
1031.078	1178.33
1031.367	1136.07
1031.656	1138.33
1031.945	1134.94
1032.233	1133.81
1032.522	1120.25
1032.81	1107.37
1033.099	1112.34
1033.387	1107.82
1033.675	1080.03
1033.963	1090.65
1034.251	1076.86
1034.54	1071.21
1034.828	1041.16
1035.116	1074.38
1035.403	1051.1
1035.691	1020.59
1035.979	1052.01
1036.267	1028.05
1036.554	1030.09
1036.842	1010.2
1037.129	1000.71
1037.417	989.41
1037.704	993.93
1037.992	986.25
1038.279	977.66
1038.566	964.55
1038.853	964.55
1039.14	964.55
