Data from hue_310_FLMS001491_97.txt Node
Date: Mon Feb 06 15:50:29 GMT 2017
User: dcchb
Spectrometer: FLMS00149
Trigger mode: 0
Integration Time (sec): 2.000000E-2
Scans to average: 10
Electric dark correction enabled: true
Nonlinearity correction enabled: false
Boxcar width: 0
XAxis mode: Wavelengths
Number of Pixels in Spectrum: 2048
>>>>>Begin Spectral Data<<<<<
341.393	-22.36
341.776	-22.36
342.16	-22.36
342.543	-68.01
342.927	-74.11
343.31	-64.62
343.693	-38.4
344.077	-46.09
344.46	-61.45
344.843	-60.78
345.226	-63.94
345.61	-50.15
345.993	-15.8
346.376	-16.03
346.759	22.16
347.142	26.45
347.525	42.05
347.908	44.31
348.291	79.79
348.674	87.02
349.057	115.49
349.44	120.91
349.823	133.12
350.206	158.65
350.588	187.13
350.971	213.34
351.354	223.29
351.737	245.43
352.119	239.33
352.502	282.04
352.884	270.29
353.267	283.62
353.65	298.54
354.032	281.14
354.414	307.12
354.797	324.53
355.179	310.97
355.562	320.68
355.944	325.66
356.326	320.46
356.709	334.02
357.091	330.17
357.473	339.21
357.855	339.89
358.238	348.93
358.62	335.6
359.002	349.61
359.384	344.64
359.766	336.73
360.148	356.16
360.53	314.81
360.912	343.06
361.294	311.87
361.676	324.98
362.057	333.79
362.439	346.67
362.821	343.06
363.203	314.81
363.584	349.84
363.966	318.65
364.348	311.19
364.729	328.14
365.111	315.26
365.493	308.25
365.874	310.29
366.256	312.77
366.637	309.38
367.019	338.54
367.4	314.81
367.781	325.66
368.163	308.03
368.544	315.71
368.925	296.5
369.306	317.29
369.688	305.54
370.069	308.48
370.45	331.08
370.831	322.72
371.212	305.99
371.593	316.84
371.974	313.23
372.355	300.57
372.736	305.09
373.117	324.53
373.498	307.12
373.879	317.07
374.26	306.67
374.641	312.1
375.021	313
375.402	331.98
375.783	333.79
376.163	343.06
376.544	314.81
376.925	335.82
377.305	341.47
377.686	318.88
378.066	334.69
378.447	325.2
378.827	328.82
379.208	317.75
379.588	349.61
379.968	329.72
380.349	347.58
380.729	315.94
381.109	337.18
381.489	328.14
381.87	326.11
382.25	336.5
382.63	362.26
383.01	343.06
383.39	322.72
383.77	335.82
384.15	341.25
384.53	327.92
384.91	335.82
385.29	335.15
385.67	347.8
386.049	333.11
386.429	358.65
386.809	361.13
387.189	351.64
387.568	355.49
387.948	367.01
388.328	359.78
388.707	342.6
389.087	338.31
389.466	329.27
389.846	349.38
390.225	372.66
390.605	352.32
390.984	359.1
391.363	376.73
391.743	360.46
392.122	375.82
392.501	381.92
392.881	374.92
393.26	386.9
393.639	375.37
394.018	389.16
394.397	371.98
394.776	378.76
395.155	381.25
395.534	373.34
395.913	374.24
396.292	370.63
396.671	397.29
397.05	395.26
397.429	398.42
397.808	408.36
398.186	401.36
398.565	398.2
398.944	400
399.323	405.2
399.701	382.38
400.08	402.26
400.458	385.99
400.837	430.96
401.215	406.33
401.594	426.9
401.972	407.01
402.351	403.39
402.729	423.05
403.107	444.07
403.486	435.93
403.864	433.9
404.242	445.2
404.62	440.45
404.999	410.4
405.377	443.17
405.755	455.37
406.133	451.75
406.511	471.64
406.889	463.05
407.267	461.24
407.645	455.82
408.023	477.29
408.401	472.77
408.779	482.94
409.156	483.39
409.534	488.14
409.912	478.87
410.29	505.76
410.667	513.67
411.045	518.64
411.422	529.72
411.8	502.15
412.178	517.97
412.555	534.01
412.933	528.36
413.31	535.59
413.687	557.06
414.065	567.68
414.442	586.89
414.819	575.82
415.197	563.62
415.574	611.98
415.951	604.29
416.328	616.27
416.705	618.98
417.082	617.4
417.46	619.88
417.837	635.03
418.214	660.34
418.591	663.73
418.967	649.71
419.344	668.92
419.721	668.02
420.098	686.32
420.475	676.83
420.852	690.39
421.228	712.31
421.605	698.75
421.982	745.31
422.358	717.74
422.735	711.18
423.111	727.9
423.488	734.91
423.864	747.34
424.241	785.53
424.617	783.04
424.994	806.55
425.37	785.53
425.746	806.77
426.123	826.89
426.499	827.56
426.875	823.5
427.251	841.8
427.627	867.34
428.003	865.3
428.379	865.53
428.756	867.56
429.132	893.78
429.507	896.94
429.883	918.63
430.259	903.27
430.635	943.72
431.011	922.7
431.387	947.11
431.763	967.22
432.138	962.25
432.514	991.85
432.89	966.54
433.265	997.95
433.641	1009.71
434.016	1016.26
434.392	1006.99
434.767	1040.89
435.143	1045.41
435.518	1056.26
435.894	1054.9
436.269	1091.28
436.644	1090.38
437.02	1115.24
437.395	1116.82
437.77	1131.06
438.145	1146.2
438.52	1144.39
438.895	1157.27
439.271	1149.36
439.646	1173.77
440.021	1192.3
440.395	1175.8
440.77	1187.78
441.145	1193.88
441.52	1224.84
441.895	1214.22
442.27	1203.15
442.645	1243.37
443.019	1239.76
443.394	1253.54
443.769	1251.05
444.143	1246.54
444.518	1291.96
444.892	1239.08
445.267	1259.42
445.641	1291.96
446.016	1289.02
446.39	1274.33
446.764	1298.51
447.139	1293.54
447.513	1310.26
447.887	1286.31
448.262	1328.11
448.636	1304.16
449.01	1302.13
449.384	1333.09
449.758	1325.85
450.132	1326.31
450.506	1329.92
450.88	1350.49
451.254	1322.69
451.628	1337.61
452.002	1369.92
452.376	1386.64
452.75	1379.41
453.123	1392.29
453.497	1383.71
453.871	1415.12
454.244	1421.67
454.618	1439.52
454.992	1453.76
455.365	1417.38
455.739	1474.1
456.112	1499.64
456.486	1497.15
456.859	1498.05
457.232	1494.66
457.606	1465.29
457.979	1503.25
458.352	1513.42
458.725	1552.97
459.099	1576.24
459.472	1594.55
459.845	1586.87
460.218	1609.46
460.591	1603.81
460.964	1604.27
461.337	1620.99
461.71	1672.06
462.083	1660.99
462.456	1688.56
462.829	1639.52
463.201	1706.41
463.574	1688.78
463.947	1704.6
464.32	1709.57
464.692	1743.92
465.065	1721.1
465.438	1751.83
465.81	1768.78
466.183	1812.17
466.555	1818.05
466.928	1837.25
467.3	1826.63
467.672	1859.17
468.045	1889.68
468.417	1908.89
468.789	1880.42
469.161	1881.77
469.534	1904.82
469.906	1933.97
470.278	1908.44
470.65	1961.77
471.022	1999.06
471.394	2030.47
471.766	2018.27
472.138	2034.76
472.51	2063.24
472.882	2079.96
473.253	2083.8
473.625	2105.04
473.997	2142.78
474.369	2147.98
474.74	2136.68
475.112	2197.24
475.484	2206.06
475.855	2260.75
476.227	2257.58
476.598	2304.59
476.97	2298.71
477.341	2367.64
477.713	2366.51
478.084	2381.65
478.455	2424.36
478.827	2437.92
479.198	2459.61
479.569	2489.44
479.94	2550
480.311	2554.98
480.682	2609.89
481.053	2642.43
481.424	2647.85
481.795	2689.89
482.166	2722.65
482.537	2732.15
482.908	2761.52
483.279	2780.28
483.65	2839.94
484.021	2882.42
484.391	2907.28
484.762	2901.18
485.133	2898.47
485.503	2937.11
485.874	2953.61
486.244	3029.76
486.615	3004
486.985	3044
487.356	3125.58
487.726	3130.78
488.097	3178.24
488.467	3150.67
488.837	3225.47
489.207	3262.53
489.578	3304.56
489.948	3358.12
490.318	3361.51
490.688	3379.59
491.058	3356.08
491.428	3434.73
491.798	3400.83
492.168	3490.77
492.538	3489.19
492.908	3516.53
493.278	3551.33
493.648	3571.45
494.017	3570.09
494.387	3615.06
494.757	3624.33
495.126	3656.87
495.496	3638.79
495.866	3671.56
496.235	3716.07
496.605	3737.54
496.974	3761.5
497.344	3794.94
497.713	3738.45
498.082	3812.57
498.452	3847.14
498.821	3839.46
499.19	3863.19
499.559	3883.3
499.928	3857.99
500.298	3853.02
500.667	3934.15
501.036	3916.3
501.405	3914.94
501.774	3927.59
502.143	3982.51
502.512	3980.02
502.88	3993.58
503.249	3998.55
503.618	4063.86
503.987	4058.89
504.356	4068.16
504.724	4094.6
505.093	4097.08
505.462	4088.72
505.83	4127.82
506.199	4108.38
506.567	4199.45
506.936	4213.46
507.304	4202.84
507.672	4169.85
508.041	4192.9
508.409	4249.17
508.777	4231.99
509.145	4324.87
509.514	4280.13
509.882	4251.88
510.25	4297.53
510.618	4309.05
510.986	4367.36
511.354	4351.76
511.722	4344.53
512.09	4395.6
512.458	4378.66
512.826	4404.87
513.193	4419.56
513.561	4467.92
513.929	4445.32
514.297	4447.35
514.664	4485.32
515.032	4505.43
515.4	4551.31
515.767	4514.02
516.135	4511.76
516.502	4507.69
516.869	4531.65
517.237	4567.58
517.604	4544.75
517.972	4567.58
518.339	4580.46
518.706	4625.43
519.073	4610.29
519.44	4620.91
519.808	4718.76
520.175	4667.24
520.542	4693.9
520.909	4677.63
521.276	4668.82
521.643	4711.98
522.009	4763.5
522.376	4769.38
522.743	4791.07
523.11	4807.12
523.477	4844.63
523.843	4884.18
524.21	4896.16
524.577	4912.65
524.943	4895.25
525.31	4941.58
525.676	4998.3
526.043	4977.28
526.409	4997.62
526.776	5039.2
527.142	5112.87
527.508	5086.66
527.874	5133.66
528.241	5121.69
528.607	5163.95
528.973	5208.46
529.339	5147.22
529.705	5227.9
530.071	5251.85
530.437	5274.68
530.803	5305.19
531.169	5284.62
531.535	5339.76
531.901	5390.61
532.267	5359.87
532.632	5362.81
532.998	5380.44
533.364	5465.41
533.73	5454.56
534.095	5485.29
534.461	5540.21
534.826	5566.65
535.192	5528.46
535.557	5606.19
535.923	5565.97
536.288	5602.8
536.653	5623.82
537.019	5612.75
537.384	5702.69
537.749	5643.93
538.114	5739.07
538.479	5695.68
538.845	5732.29
539.21	5799.86
539.575	5775.68
539.94	5815
540.305	5882.57
540.67	5824.95
541.034	5856.81
541.399	5911.95
541.764	5909.46
542.129	5967.77
542.494	5973.42
542.858	5982.68
543.223	6041.66
543.587	6009.35
543.952	6082.79
544.316	6059.74
544.681	6118.27
545.045	6157.82
545.41	6190.59
545.774	6194.43
546.138	6188.1
546.503	6235.1
546.867	6222.45
547.231	6300.64
547.595	6306.29
547.959	6323.01
548.324	6342.9
548.688	6380.41
549.052	6432.61
549.416	6453.63
549.779	6431.94
550.143	6413.18
550.507	6469.9
550.871	6524.59
551.235	6499.5
551.599	6597.13
551.962	6554.64
552.326	6580.63
552.689	6635.32
553.053	6597.81
553.417	6572.72
553.78	6709.22
554.143	6599.16
554.507	6684.81
554.87	6699.95
555.234	6779.95
555.597	6762.1
555.96	6781.53
556.323	6795.54
556.686	6812.04
557.05	6805.48
557.413	6857.69
557.776	6881.64
558.139	6911.47
558.502	6909.66
558.865	6946.72
559.228	6954.86
559.59	7007.51
559.953	7007.97
560.316	7083.44
560.679	7040.51
561.041	7123.22
561.404	7151.69
561.767	7219.94
562.129	7100.84
562.492	7146.04
562.854	7195.98
563.217	7184.46
563.579	7219.71
563.941	7263.78
564.304	7292.7
564.666	7307.17
565.028	7329.54
565.39	7308.52
565.753	7358.01
566.115	7387.62
566.477	7421.29
566.839	7478.69
567.201	7483.66
567.563	7489.31
567.925	7510.55
568.287	7534.05
568.648	7544.22
569.01	7659.93
569.372	7716.87
569.734	7630.55
570.095	7699.92
570.457	7757.32
570.819	7818.57
571.18	7801.84
571.542	7899.47
571.903	7917.55
572.265	7953.03
572.626	7933.59
572.987	7976.53
573.349	8033.7
573.71	8087.71
574.071	8109.41
574.432	8183.98
574.794	8294.94
575.155	8320.47
575.516	8285.22
575.877	8472.33
576.238	8494.03
576.599	8539.68
576.96	8608.83
577.32	8719.56
577.681	8787.58
578.042	8849.72
578.403	8864.64
578.763	9051.98
579.124	9101.92
579.485	9202.71
579.845	9287
580.206	9426.43
580.566	9497.84
580.927	9668.69
581.287	9742.81
581.648	9883.6
582.008	10044.5
582.368	10184.38
582.728	10328.1
583.089	10429.57
583.449	10670.47
583.809	10841.54
584.169	11055.99
584.529	11193.39
584.889	11534.63
585.249	11592.48
585.609	11760.83
585.969	11970.32
586.329	12242.4
586.688	12447.14
587.048	12681.71
587.408	12913.12
587.768	13088.03
588.127	13345.2
588.487	13527.34
588.846	13961.91
589.206	14132.52
589.565	14354.21
589.925	14815.67
590.284	14956.46
590.643	15197.58
591.003	15557.12
591.362	15878.24
591.721	16077.78
592.08	16321.84
592.44	16734.49
592.799	16924.99
593.158	17182.39
593.517	17442.49
593.876	17919.54
594.235	18131.06
594.593	18474.78
594.952	18855.11
595.311	19085.16
595.67	19479.28
596.029	19824.58
596.387	20144.12
596.746	20487.84
597.104	20602.41
597.463	20970.08
597.822	21306.12
598.18	21555.15
598.538	21791.08
598.897	22379.76
599.255	22424.96
599.613	23052.29
599.972	23093.64
600.33	23526.4
600.688	23749.67
601.046	24232.15
601.404	24486.38
601.762	24604.79
602.12	25077.32
602.478	25376.07
602.836	25613.35
603.194	25751.2
603.552	26077.75
603.91	26340.11
604.268	26633.89
604.625	26821.68
604.983	27167.66
605.341	27303.03
605.698	27736.46
606.056	28016.9
606.413	28196.56
606.771	28590.67
607.128	28697.34
607.485	28953.15
607.843	29116.76
608.2	29602.85
608.557	29929.62
608.914	29979.79
609.272	30211.2
609.629	30508.14
609.986	30964.62
610.343	30847.79
610.7	31372.07
611.057	31461.79
611.414	31674.44
611.771	31894.77
612.127	32140.64
612.484	32311.03
612.841	32514.87
613.198	32583.79
613.554	32631.92
613.911	33160.72
614.267	33214.96
614.624	33435.52
614.98	33471
615.337	33774.95
615.693	33919.57
616.05	34039.57
616.406	34387.13
616.762	34364.08
617.118	34460.12
617.475	34676.16
617.831	34842.94
618.187	34950.28
618.543	35103.95
618.899	35519.53
619.255	35676.36
619.611	35679.3
619.967	35947.09
620.323	35963.59
620.678	36050.59
621.034	35959.07
621.39	36094.43
621.746	36272.96
622.101	36665.04
622.457	36503.91
622.812	36680.41
623.168	36884.02
623.523	36924.24
623.879	37067.51
624.234	36938.93
624.589	37307.28
624.945	37285.59
625.3	37514.73
625.655	37564
626.01	37572.59
626.365	37824.33
626.72	37704.79
627.075	37847.83
627.43	37815.52
627.785	37753.6
628.14	37959.92
628.495	38101.39
628.85	38249.63
629.205	38074.72
629.559	38261.15
629.914	38139.12
630.269	38211.44
630.623	38151.1
630.978	38122.63
631.332	38428.38
631.687	38628.38
632.041	38364.43
632.396	38545.67
632.75	38317.88
633.104	38445.1
633.459	38206.47
633.813	38422.05
634.167	38495.27
634.521	38525.33
634.875	38613.24
635.229	38457.99
635.583	38374.6
635.937	38451.88
636.291	38460.7
636.645	38580.47
636.999	38456.86
637.352	38501.37
637.706	38305.67
638.06	38453.47
638.413	38441.26
638.767	38441.72
639.121	38491.21
639.474	38292.34
639.828	38389.06
640.181	38408.27
640.534	38441.94
640.888	38406.01
641.241	38336.41
641.594	38208.5
641.947	38506.57
642.301	38327.37
642.654	38451.43
643.007	38352.23
643.36	38302.06
643.713	38429.74
644.066	38568.04
644.419	38199.46
644.771	38091.22
645.124	37706.14
645.477	37543.89
645.83	37516.09
646.182	37254.18
646.535	37084.69
646.888	37188.41
647.24	37084.46
647.593	37315.87
647.945	37246.27
648.298	37016.44
648.65	37130.56
649.002	36932.83
649.355	37154.52
649.707	37106.16
650.059	37217.11
650.411	37781.85
650.763	37695.07
651.115	37946.59
651.467	37891.9
651.819	37856.42
652.171	37943.42
652.523	37805.57
652.875	37938
653.227	37760.15
653.578	37961.28
653.93	37891
654.282	37766.25
654.633	37577.33
654.985	37705.01
655.337	37767.38
655.688	37614.84
656.039	37814.84
656.391	37533.49
656.742	37719.02
657.094	37751.56
657.445	37662.75
657.796	37533.94
658.147	37594.05
658.498	37635.63
658.849	37726.48
659.2	37559.03
659.551	37485.13
659.902	37729.64
660.253	37576.43
660.604	37731.68
660.955	37494.85
661.306	37680.15
661.656	37565.58
662.007	37512.47
662.358	37562.19
662.708	37501.63
663.059	37507.05
663.409	37245.14
663.76	37627.05
664.11	37711.34
664.461	37550.44
664.811	37644.67
665.161	37485.13
665.511	37376.43
665.862	37504.34
666.212	37500.5
666.562	37496.88
666.912	37488.52
667.262	37417.79
667.612	37442.19
667.962	37555.86
668.312	37420.27
668.662	37578.01
669.011	37501.63
669.361	37451.46
669.711	37306.15
670.06	37259.6
670.41	37406.71
670.76	37256.89
671.109	37465.02
671.459	37309.54
671.808	37322.42
672.157	37337.11
672.507	36975.77
672.856	37285.59
673.205	37357.68
673.554	37441.06
673.904	37238.36
674.253	37228.64
674.602	37284.91
674.951	36887.18
675.3	36548.21
675.649	37093.28
675.998	37188.87
676.346	37080.85
676.695	37240.16
677.044	36918.82
677.393	37179.38
677.741	37024.8
678.09	37124.01
678.438	36889.89
678.787	37035.65
679.135	36982.54
679.484	36695.55
679.832	36906.16
680.181	36654.64
680.529	36831.81
680.877	36546.17
681.225	36633.85
681.573	36867.52
681.922	36633.85
682.27	36458.04
682.618	36489.9
682.966	36410.13
683.314	36450.58
683.661	36291.72
684.009	36220.3
684.357	36190.7
684.705	36170.14
685.053	36184.37
685.4	36006.53
685.748	35963.81
686.095	35927.43
686.443	35769.92
686.79	35840.88
687.138	35965.62
687.485	35780.54
687.832	35783.25
688.18	35675.69
688.527	35464.17
688.874	35568.34
689.221	35514.56
689.568	35389.37
689.915	35422.81
690.262	35237.28
690.609	35223.04
690.956	34987.34
691.303	35131.52
691.65	34966.33
691.997	34866.89
692.344	34735.82
692.69	34701.7
693.037	34650.63
693.383	34438.66
693.73	34453.57
694.077	34289.96
694.423	34389.17
694.769	34300.36
695.116	34140.36
695.462	34135.39
695.808	34049.06
696.155	34278.89
696.501	33684.78
696.847	33759.8
697.193	33588.51
697.539	33793.93
697.885	33404.11
698.231	33407.95
698.577	33371.57
698.923	33232.13
699.269	33200.95
699.614	33012.25
699.96	32963.89
700.306	33009.09
700.651	32822.88
700.997	32871.24
701.342	32599.83
701.688	32568.2
702.033	32610
702.379	32719.61
702.724	32353.06
703.069	32542.21
703.415	32046.63
703.76	32183.8
704.105	32207.98
704.45	32076.91
704.795	31831.27
705.14	31869.68
705.485	31745.17
705.83	31639.63
706.175	31720.08
706.52	31711.95
706.865	31478.06
707.209	31437.38
707.554	31264.5
707.899	31473.76
708.243	31268.8
708.588	31384.95
708.932	31043.49
709.277	30998.3
709.621	31071.74
709.966	30888.69
710.31	30940.22
710.654	30711.97
710.998	30880.56
711.342	30634.46
711.687	30707.68
712.031	30547.01
712.375	30415.03
712.719	30585.65
713.063	30254.59
713.407	30395.6
713.75	30316.96
714.094	30272.44
714.438	30075.38
714.782	30044.65
715.125	29893.01
715.469	29954.25
715.812	29767.82
716.156	29744.09
716.499	29668.39
716.843	29815.5
717.186	29549.97
717.53	29755.39
717.873	29724.66
718.216	29660.25
718.559	29529.18
718.902	29303.88
719.246	29300.26
719.589	29203.31
719.932	29123.09
720.275	29199.25
720.617	29052.36
720.96	29052.81
721.303	29009.19
721.646	29006.03
721.989	28853.27
722.331	28881.74
722.674	28874.96
723.016	28898.24
723.359	28673.84
723.701	28898.01
724.044	28612.37
724.386	28536.89
724.729	28667.96
725.071	28590.67
725.413	28583.67
725.755	28464.8
726.097	28364.24
726.439	28318.37
726.782	28278.82
727.124	28327.4
727.465	28198.14
727.807	28158.14
728.149	28147.52
728.491	28072.72
728.833	27951.6
729.175	28020.75
729.516	27996.79
729.858	27876.34
730.199	27900.3
730.541	27913.63
730.882	27851.94
731.224	27911.6
731.565	27687.2
731.906	27760.64
732.248	27696.01
732.589	27630.93
732.93	27411.5
733.271	27571.49
733.612	27528.78
733.953	27509.35
734.294	27388.9
734.635	27300.77
734.976	27383.25
735.317	27289.24
735.658	27257.15
735.999	27287.21
736.339	27155.01
736.68	27233.42
737.021	27112.07
737.361	27016.03
737.702	27223.03
738.042	26966.54
738.383	26920.89
738.723	27067.33
739.063	26828.69
739.404	26861.68
739.744	26834.56
740.084	26623.27
740.424	26788.24
740.764	26587.56
741.104	26651.06
741.444	26498.53
741.784	26441.8
742.124	26541.92
742.464	26422.37
742.804	26461.92
743.143	26455.59
743.483	26426.66
743.823	26136.73
744.162	26241.36
744.502	26276.16
744.841	26084.98
745.181	26180.57
745.52	26087.01
745.86	26178.08
746.199	26092.21
746.538	26001.14
746.877	26050.85
747.216	26128.14
747.556	25875.72
747.895	26014.92
748.234	25745.55
748.573	25642.5
748.911	25660.36
749.25	25582.84
749.589	25599.12
749.928	25524.09
750.267	25567.03
750.605	25500.81
750.944	25352.34
751.283	25383.98
751.621	25496.74
751.96	25290.2
752.298	25311.66
752.636	25222.63
752.975	25143.53
753.313	25093.59
753.651	25104.21
753.989	24961.17
754.327	24913.03
754.666	24785.13
755.004	24802.3
755.342	24861.96
755.679	24845.69
756.017	24569.76
756.355	24677.11
756.693	24632.59
757.031	24671
757.368	24496.32
757.706	24430.11
758.044	24392.37
758.381	24378.13
758.719	24328.87
759.056	24342.42
759.394	24245.48
759.731	24090.23
760.068	24031.25
760.405	23986.05
760.743	23849.56
761.08	23860.18
761.417	23773.17
761.754	23734.31
762.091	23580.86
762.428	23621.77
762.765	23354.43
763.102	23491.83
763.438	23332.51
763.775	23156.92
764.112	23229.91
764.449	23241.89
764.785	23126.19
765.122	22919.19
765.458	22999.86
765.795	22787.89
766.131	22770.49
766.467	22681.23
766.804	22668.57
767.14	22553.09
767.476	22466.09
767.812	22339.77
768.148	22460.67
768.485	22277.62
768.821	22197.4
769.157	22206.44
769.492	21975.03
769.828	22148.13
770.164	21910.62
770.5	21795.6
770.836	21904.97
771.171	21609.84
771.507	21660.69
771.842	21574.36
772.178	21514.02
772.513	21436.06
772.849	21382.73
773.184	21191.1
773.519	21315.16
773.855	21054.83
774.19	21040.36
774.525	21011.89
774.86	20925.57
775.195	20900.48
775.53	20848.51
775.865	20629.53
776.2	20545.01
776.535	20421.85
776.87	20462.53
777.205	20288.29
777.539	20230.67
777.874	20314.96
778.209	20086.27
778.543	20119.49
778.878	19920.17
779.212	19982.99
779.547	19863.9
779.881	19915.87
780.215	19674.53
780.55	19743.9
780.884	19634.07
781.218	19516.56
781.552	19574.87
781.886	19449.45
782.22	19347.75
782.554	19341.65
782.888	19123.81
783.222	19064.37
783.556	18961.55
783.889	19014.2
784.223	18839.97
784.557	18733.98
784.89	18819.41
785.224	18664.61
785.557	18554.55
785.891	18456.03
786.224	18447.21
786.558	18483.82
786.891	18223.04
787.224	18262.36
787.557	18102.36
787.891	18222.59
788.224	18135.81
788.557	18147.56
788.89	17906.89
789.223	18029.14
789.556	17813.56
789.888	17786.67
790.221	17720.9
790.554	17595.03
790.887	17774.46
791.219	17533.79
791.552	17478.2
791.884	17394.13
792.217	17423.74
792.549	17360.01
792.882	17204.08
793.214	17192.33
793.546	17167.92
793.879	17111.65
794.211	16993.24
794.543	17022.84
794.875	16995.73
795.207	16960.47
795.539	16758.44
795.871	16838.44
796.203	16648.39
796.535	16570.43
796.867	16475.51
797.198	16558.22
797.53	16596.19
797.862	16303.99
798.193	16432.58
798.525	16335.4
798.856	16239.36
799.188	16192.81
799.519	16160.72
799.85	16059.93
800.182	16069.87
800.513	16085.47
800.844	15850.9
801.175	15930.67
801.506	15899.48
801.837	15745.14
802.168	15765.7
802.499	15757.57
802.83	15707.62
803.161	15578.81
803.491	15571.36
803.822	15552.15
804.153	15480.74
804.483	15430.34
804.814	15334.75
805.145	15323.23
805.475	15313.06
805.805	15291.82
806.136	15269.22
806.466	15296.11
806.796	15126.62
807.126	14999.85
807.457	14955.1
807.787	15032.16
808.117	14908.32
808.447	14884.59
808.777	14836.46
809.107	14852.96
809.436	14819.06
809.766	14791.49
810.096	14707.42
810.426	14697.71
810.755	14664.49
811.085	14603.47
811.414	14585.85
811.744	14469.69
812.073	14468.79
812.403	14489.35
812.732	14385.85
813.061	14349.92
813.39	14251.16
813.719	14282.35
814.049	14287.32
814.378	14289.36
814.707	14215.01
815.036	14251.84
815.365	14041
815.693	13931.4
816.022	14030.38
816.351	13979.08
816.68	13869.48
817.008	13926.65
817.337	13746.55
817.665	13713.33
817.994	13752.42
818.322	13845.07
818.651	13716.49
818.979	13677.39
819.307	13733.89
819.636	13650.95
819.964	13568.7
820.292	13577.51
820.62	13619.09
820.948	13597.85
821.276	13636.04
821.604	13548.36
821.932	13524.18
822.259	13530.73
822.587	13475.59
822.915	13518.98
823.243	13535.48
823.57	13465.42
823.898	13477.17
824.225	13444.86
824.553	13424.52
824.88	13462.49
825.207	13505.42
825.535	13429.72
825.862	13514.24
826.189	13385.42
826.516	13486.67
826.843	13525.08
827.17	13512.2
827.497	13440.56
827.824	13448.02
828.151	13435.82
828.478	13463.39
828.805	13462.49
829.131	13395.82
829.458	13359.21
829.785	13259.78
830.111	13370.74
830.438	13388.36
830.764	13401.92
831.09	13368.02
831.417	13368.93
831.743	13472.43
832.069	13340.45
832.395	13306.33
832.722	13349.04
833.048	13289.83
833.374	13380.68
833.7	13262.04
834.026	13293.22
834.351	13260.91
834.677	13318.08
835.003	13269.5
835.329	13222.72
835.654	13176.39
835.98	13095.26
836.306	13250.06
836.631	13121.7
836.956	13181.81
837.282	13162.38
837.607	13091.42
837.932	13048.48
838.258	13026.11
838.583	13069.95
838.908	13011.65
839.233	12973.23
839.558	13064.76
839.883	12992.67
840.208	12885.55
840.533	12840.58
840.858	12902.5
841.182	12891.2
841.507	12883.74
841.832	12872.9
842.156	12818.89
842.481	12786.34
842.805	12687.36
843.13	12685.1
843.454	12650.3
843.778	12664.99
844.103	12620.02
844.427	12569.63
844.751	12589.97
845.075	12561.04
845.399	12499.8
845.723	12388.61
846.047	12372.34
846.371	12390.2
846.695	12273.82
847.019	12289.86
847.343	12139.81
847.666	12157.89
847.99	12044.67
848.313	12034.73
848.637	11988.63
848.96	11929.87
849.284	11938.68
849.607	11805.58
849.931	11806.03
850.254	11775.98
850.577	11700.05
850.9	11594.06
851.223	11597
851.546	11531.24
851.869	11479.03
852.192	11591.8
852.515	11483.78
852.838	11324.24
853.161	11346.38
853.483	11288.53
853.806	11260.73
854.129	11236.55
854.451	11278.81
854.774	11159.72
855.096	11138.48
855.419	11135.31
855.741	11024.13
856.063	11009.44
856.385	10953.17
856.708	10932.61
857.03	10863.46
857.352	10905.94
857.674	10937.81
857.996	10872.04
858.318	10728.77
858.64	10727.64
858.961	10693.29
859.283	10685.61
859.605	10562.9
859.926	10608.32
860.248	10637.02
860.57	10493.3
860.891	10517.48
861.212	10524.03
861.534	10539.62
861.855	10425.28
862.176	10430.47
862.498	10415.79
862.819	10435.9
863.14	10413.07
863.461	10374.88
863.782	10361.1
864.103	10336.01
864.424	10226.41
864.745	10355.22
865.065	10264.6
865.386	10177.37
865.707	10210.82
866.027	10180.76
866.348	10253.53
866.668	10196.58
866.989	10161.55
867.309	10023.48
867.63	10161.55
867.95	10050.82
868.27	10117.26
868.59	10101.22
868.91	10047.21
869.23	10022.35
869.55	9967.66
869.87	10021.22
870.19	9957.04
870.51	9973.76
870.83	9974.67
871.15	9896.48
871.469	9925.4
871.789	9914.78
872.109	9886.31
872.428	9833.65
872.748	9844.95
873.067	9829.13
873.386	9869.36
873.706	9821.45
874.025	9815.58
874.344	9745.75
874.663	9791.17
874.982	9746.2
875.301	9665.07
875.62	9635.69
875.939	9726.31
876.258	9738.06
876.577	9657.84
876.896	9688.57
877.214	9675.92
877.533	9647.44
877.852	9643.6
878.17	9549.59
878.489	9592.98
878.807	9589.14
879.125	9538.52
879.444	9569.48
879.762	9502.36
880.08	9518.63
880.398	9465.53
880.716	9462.82
881.034	9441.57
881.352	9397.96
881.67	9367.45
881.988	9444.06
882.306	9373.55
882.624	9372.88
882.941	9334.01
883.259	9242.48
883.577	9242.71
883.894	9195.48
884.212	9254.23
884.529	9156.38
884.846	9215.82
885.164	9124.07
885.481	9202.26
885.798	9140.79
886.115	9139.89
886.432	9104.41
886.75	9028.03
887.067	9090.85
887.383	8949.38
887.7	8983.05
888.017	8920.68
888.334	8933.79
888.651	8898.76
888.967	8843.4
889.284	8836.39
889.6	8826
889.917	8798.65
890.233	8774.47
890.55	8744.19
890.866	8780.12
891.182	8758.2
891.498	8662.39
891.815	8672.33
892.131	8587.36
892.447	8649.5
892.763	8603.18
893.079	8603.18
893.395	8493.58
893.71	8546
894.026	8516.63
894.342	8555.27
894.657	8484.54
894.973	8374.26
895.289	8417.65
895.604	8396.86
895.92	8327.03
896.235	8287.03
896.55	8277.31
896.865	8301.26
897.181	8291.77
897.496	8245.22
897.811	8195.5
898.126	8144.43
898.441	8139.01
898.756	8088.16
899.071	8042.74
899.386	8104.43
899.7	7999.35
900.015	8015.62
900.33	7939.24
900.644	7951.67
900.959	7920.03
901.273	7886.59
901.588	7874.61
901.902	7794.16
902.216	7741.51
902.531	7720.94
902.845	7766.82
903.159	7692.92
903.473	7631.23
903.787	7623.77
904.101	7616.76
904.415	7592.13
904.729	7489.08
905.042	7513.49
905.356	7449.76
905.67	7501.06
905.984	7450.21
906.297	7407.05
906.611	7388.07
906.924	7412.7
907.237	7389.88
907.551	7285.02
907.864	7274.17
908.177	7333.38
908.491	7229.43
908.804	7191.46
909.117	7131.58
909.43	7135.65
909.743	7093.84
910.056	7055.87
910.368	7056.33
910.681	6991.69
910.994	6973.16
911.307	6963.22
911.619	6868.08
911.932	6957.8
912.244	6860.85
912.557	6902.21
912.869	6733.4
913.181	6787.41
913.494	6773.62
913.806	6687.3
914.118	6713.51
914.43	6655.66
914.742	6692.04
915.054	6618.15
915.366	6585.6
915.678	6480.75
915.99	6605.72
916.302	6507.19
916.613	6456.79
916.925	6475.55
917.236	6385.16
917.548	6389.45
917.859	6345.16
918.171	6346.97
918.482	6297.93
918.794	6292.73
919.105	6270.36
919.416	6216.57
919.727	6250.92
920.038	6227.87
920.349	6241.88
920.66	6162.56
920.971	6136.58
921.282	6120.53
921.593	6016.81
921.903	6050.48
922.214	6003.92
922.525	6032.62
922.835	6004.6
923.146	5911.5
923.456	5946.07
923.767	5917.6
924.077	5907.2
924.387	5857.49
924.697	5800.31
925.008	5779.07
925.318	5763.7
925.628	5793.76
925.938	5759.18
926.248	5692.07
926.558	5670.6
926.867	5652.29
927.177	5656.81
927.487	5587.89
927.796	5515.35
928.106	5528.23
928.416	5551.73
928.725	5512.86
929.034	5508.57
929.344	5516.71
929.653	5473.09
929.962	5364.62
930.271	5387.22
930.581	5408.46
930.89	5332.08
931.199	5331.85
931.508	5293.66
931.817	5276.94
932.125	5243.04
932.434	5279.65
932.743	5222.48
933.051	5232.64
933.36	5166.21
933.669	5104.29
933.977	5135.25
934.286	5085.08
934.594	5087.34
934.902	5033.78
935.21	5027.23
935.519	5049.6
935.827	5013.89
936.135	4979.09
936.443	4956.72
936.751	4893.22
937.059	4880.56
937.367	4846.89
937.674	4851.41
937.982	4866.55
938.29	4810.74
938.597	4836.95
938.905	4791.98
939.213	4767.35
939.52	4792.43
939.827	4762.37
940.135	4694.13
940.442	4679.89
940.749	4610.74
941.056	4660
941.363	4586.33
941.67	4621.59
941.977	4632.21
942.284	4535.26
942.591	4577.07
942.898	4486
943.205	4557.86
943.511	4558.09
943.818	4490.29
944.125	4400.8
944.431	4413.23
944.738	4460.91
945.044	4353.35
945.35	4362.39
945.657	4278.32
945.963	4336.17
946.269	4296.62
946.575	4300.69
946.881	4280.13
947.187	4321.71
947.493	4222.5
947.799	4222.5
948.105	4261.15
948.41	4223.18
948.716	4154.26
949.022	4187.02
949.327	4106.35
949.633	4091.43
949.938	4126.01
950.244	4063.18
950.549	4046.69
950.854	4015.5
951.16	4063.86
951.465	4039.68
951.77	4015.28
952.075	3990.19
952.38	3978.21
952.685	3959.68
952.99	3900.25
953.294	3922.85
953.599	3872.91
953.904	3887.14
954.209	3842.62
954.513	3863.64
954.818	3807.37
955.122	3775.06
955.426	3811.44
955.731	3768.95
956.035	3793.59
956.339	3750.42
956.643	3741.38
956.948	3711.78
957.252	3685.34
957.556	3704.1
957.86	3658.9
958.163	3664.32
958.467	3633.59
958.771	3629.3
959.075	3613.48
959.378	3590.88
959.682	3582.74
959.985	3578
960.289	3532.12
960.592	3529.86
960.896	3531.45
961.199	3477.66
961.502	3503.88
961.805	3472.69
962.108	3445.57
962.411	3435.4
962.714	3406.48
963.017	3424.1
963.32	3409.19
963.623	3417.33
963.926	3358.57
964.228	3319.93
964.531	3315.18
964.833	3304.56
965.136	3258.23
965.438	3303.2
965.741	3278.8
966.043	3258.01
966.345	3231.57
966.648	3246.26
966.95	3251
967.252	3207.61
967.554	3208.07
967.856	3196.99
968.158	3153.6
968.46	3149.76
968.761	3158.8
969.063	3122.42
969.365	3124.68
969.666	3102.08
969.968	3062.53
970.269	3060.72
970.571	3069.31
970.872	3037.45
971.174	3059.82
971.475	3031.12
971.776	3016.66
972.077	2990.44
972.378	3007.84
972.679	2952.48
972.98	2995.87
973.281	2915.64
973.582	2948.41
973.883	2898.47
974.183	2927.17
974.484	2909.09
974.785	2884.23
975.085	2914.74
975.386	2888.75
975.686	2856.89
975.986	2826.83
976.287	2828.19
976.587	2761.3
976.887	2791.13
977.187	2779.83
977.487	2784.8
977.787	2765.59
978.087	2712.94
978.387	2741.64
978.687	2723.78
978.987	2701.64
979.286	2672.94
979.586	2721.75
979.885	2650.34
980.185	2704.12
980.484	2662.77
980.784	2619.83
981.083	2619.15
981.382	2580.51
981.682	2616.67
981.981	2608.76
982.28	2613.05
982.579	2558.36
982.878	2581.19
983.177	2558.82
983.475	2542.32
983.774	2519.72
984.073	2502.1
984.372	2522.21
984.67	2512.49
984.969	2499.16
985.267	2492.83
985.566	2473.17
985.864	2445.15
986.162	2457.58
986.461	2448.09
986.759	2420.29
987.057	2400.18
987.355	2389.33
987.653	2384.58
987.951	2349.33
988.249	2367.41
988.547	2363.79
988.844	2303.68
989.142	2366.05
989.44	2319.95
989.737	2316.34
990.035	2294.42
990.332	2277.02
990.63	2308.43
990.927	2319.28
991.224	2286.96
991.521	2281.31
991.819	2240.41
992.116	2253.51
992.413	2222.55
992.71	2226.85
993.006	2202.22
993.303	2170.8
993.6	2172.16
993.897	2229.56
994.193	2146.85
994.49	2148.88
994.787	2160.64
995.083	2148.21
995.379	2111.6
995.676	2114.31
995.972	2119.28
996.268	2105.72
996.565	2084.71
996.861	2094.42
997.157	2056.68
997.453	2038.38
997.749	2022.56
998.044	2072.28
998.34	2030.02
998.636	1996.8
998.932	2034.76
999.227	1953.41
999.523	1985.27
999.818	1979.85
1000.114	1968.78
1000.409	1957.25
1000.704	1933.07
1001	1936.01
1001.295	1898.5
1001.59	1914.54
1001.885	1911.6
1002.18	1890.81
1002.475	1857.14
1002.77	1839.97
1003.065	1847.42
1003.359	1893.3
1003.654	1872.73
1003.949	1837.93
1004.243	1817.82
1004.538	1821.21
1004.832	1835.67
1005.127	1821.89
1005.421	1816.46
1005.715	1755.22
1006.009	1745.73
1006.304	1757.48
1006.598	1757.26
1006.892	1749.12
1007.186	1720.87
1007.48	1723.13
1007.773	1713.42
1008.067	1694.88
1008.361	1682.23
1008.655	1685.85
1008.948	1661.89
1009.242	1653.53
1009.535	1673.64
1009.829	1632.06
1010.122	1637.26
1010.415	1618.95
1010.708	1576.92
1011.001	1614.89
1011.295	1599.52
1011.588	1592.74
1011.881	1573.53
1012.173	1580.99
1012.466	1594.77
1012.759	1556.36
1013.052	1538.73
1013.344	1531.5
1013.637	1534.44
1013.93	1522.01
1014.222	1500.54
1014.514	1520.65
1014.807	1494.89
1015.099	1478.85
1015.391	1511.84
1015.683	1472.29
1015.976	1447.66
1016.268	1455.8
1016.56	1415.12
1016.851	1434.1
1017.143	1429.13
1017.435	1432.97
1017.727	1383.93
1018.018	1371.28
1018.31	1420.32
1018.602	1372.18
1018.893	1360.66
1019.185	1367.66
1019.476	1358.4
1019.767	1336.48
1020.058	1354.78
1020.35	1322.47
1020.641	1320.43
1020.932	1333.09
1021.223	1302.13
1021.514	1313.43
1021.804	1301.9
1022.095	1292.18
1022.386	1265.97
1022.677	1262.81
1022.967	1281.56
1023.258	1281.79
1023.548	1256.03
1023.839	1213.77
1024.129	1236.59
1024.419	1189.59
1024.709	1195.46
1025	1158.85
1025.29	1214.22
1025.58	1178.51
1025.87	1178.06
1026.16	1188.91
1026.449	1146.42
1026.739	1127.44
1027.029	1159.53
1027.319	1144.39
1027.608	1128.57
1027.898	1144.62
1028.187	1115.92
1028.477	1107.78
1028.766	1113.66
1029.055	1122.92
1029.344	1097.61
1029.634	1064.39
1029.923	1081.12
1030.212	1062.59
1030.501	1068.46
1030.79	1068.46
1031.078	1038.86
1031.367	1044.05
1031.656	1052.42
1031.945	1051.96
1032.233	1014.45
1032.522	1039.08
1032.81	1002.47
1033.099	1015.58
1033.387	997.5
1033.675	987.78
1033.963	1003.15
1034.251	1001.57
1034.54	993.43
1034.828	952.31
1035.116	974.23
1035.403	977.39
1035.691	976.49
1035.979	948.69
1036.267	943.49
1036.554	952.98
1036.842	922.93
1037.129	925.64
1037.417	929.03
1037.704	927.45
1037.992	922.7
1038.279	914.79
1038.566	919.09
1038.853	919.09
1039.14	919.09
