Data from hue_34_FLMS001491_00055.txt Node
Date: Tue Feb 07 17:25:50 GMT 2017
User: dcchb
Spectrometer: FLMS00149
Trigger mode: 0
Integration Time (sec): 2.000000E-2
Scans to average: 10
Electric dark correction enabled: true
Nonlinearity correction enabled: false
Boxcar width: 0
XAxis mode: Wavelengths
Number of Pixels in Spectrum: 2048
>>>>>Begin Spectral Data<<<<<
341.393	8.12
341.776	8.12
342.16	8.12
342.543	-65.78
342.927	-58.54
343.31	-61.93
343.693	-63.74
344.077	-69.62
344.46	-67.58
344.843	-59.45
345.226	-47.24
345.61	-21.71
345.993	-26.45
346.376	-17.19
346.759	-9.96
347.142	20.55
347.525	34.11
347.908	73.88
348.291	88.35
348.674	108.01
349.057	119.98
349.44	142.36
349.823	135.35
350.206	162.02
350.588	212.86
350.971	220.32
351.354	225.06
351.737	234.1
352.119	263.26
352.502	252.41
352.884	278.62
353.267	275.01
353.65	287.21
354.032	303.48
354.414	307.77
354.797	310.26
355.179	329.47
355.562	331.73
355.944	345.06
356.326	338.28
356.709	349.36
357.091	349.13
357.473	341.22
357.855	342.8
358.238	352.29
358.62	348
359.002	342.58
359.384	325.4
359.766	330.6
360.148	357.04
360.53	344.84
360.912	326.53
361.294	319.75
361.676	332.18
362.057	329.92
362.439	347.1
362.821	343.25
363.203	337.6
363.584	321.56
363.966	321.33
364.348	333.54
364.729	316.14
365.111	324.5
365.493	329.02
365.874	331.05
366.256	306.64
366.637	323.14
367.019	317.27
367.4	309.36
367.781	314.33
368.163	313.88
368.544	323.59
368.925	306.42
369.306	330.82
369.688	322.46
370.069	305.97
370.45	308.45
370.831	312.07
371.212	314.33
371.593	323.59
371.974	312.52
372.355	328.79
372.736	330.37
373.117	307.77
373.498	317.72
373.879	328.56
374.26	309.58
374.641	308.9
375.021	313.2
375.402	316.59
375.783	321.79
376.163	345.51
376.544	319.3
376.925	325.63
377.305	329.24
377.686	327.89
378.066	339.19
378.447	328.11
378.827	346.42
379.208	347.1
379.588	343.25
379.968	334.67
380.349	333.08
380.729	336.25
381.109	338.96
381.489	338.73
381.87	351.39
382.25	335.8
382.63	330.82
383.01	381.67
383.39	339.86
383.77	337.38
384.15	354.55
384.53	358.17
384.91	315.01
385.29	347.32
385.67	368.79
386.049	369.24
386.429	352.07
386.809	330.15
387.189	357.04
387.568	349.58
387.948	350.03
388.328	352.07
388.707	357.49
389.087	350.94
389.466	346.42
389.846	362.24
390.225	357.26
390.605	356.13
390.984	362.69
391.363	367.89
391.743	385.51
392.122	384.38
392.501	381.44
392.881	391.61
393.26	363.59
393.639	366.08
394.018	370.37
394.397	369.69
394.776	400.2
395.155	383.48
395.534	390.03
395.913	378.51
396.292	385.51
396.671	384.61
397.05	367.66
397.429	392.74
397.808	376.7
398.186	369.47
398.565	385.96
398.944	398.39
399.323	401.33
399.701	401.11
400.08	370.15
400.458	371.05
400.837	378.28
401.215	402.91
401.594	420.31
401.972	399.98
402.351	409.01
402.729	388.45
403.107	421.44
403.486	411.73
403.864	413.08
404.242	397.72
404.62	405.62
404.999	423.48
405.377	431.61
405.755	431.61
406.133	415.57
406.511	432.52
406.889	432.97
407.267	450.6
407.645	415.57
408.023	444.49
408.401	436.36
408.779	441.1
409.156	445.4
409.534	443.14
409.912	446.53
410.29	447.88
410.667	457.6
411.045	458.5
411.422	470.26
411.8	445.17
412.178	468
412.555	468.45
412.933	468
413.31	474.55
413.687	496.24
414.065	490.14
414.442	480.2
414.819	475.91
415.197	464.61
415.574	492.4
415.951	483.36
416.328	499.63
416.705	507.77
417.082	470.26
417.46	492.63
417.837	489.01
418.214	521.1
418.591	500.09
418.967	510.25
419.344	518.16
419.721	528.56
420.098	514.55
420.475	501.22
420.852	529.69
421.228	519.52
421.605	536.24
421.982	545.73
422.358	545.96
422.735	530.37
423.111	540.99
423.488	538.5
423.864	553.64
424.241	549.8
424.617	561.55
424.994	552.29
425.37	563.59
425.746	575.56
426.123	565.62
426.499	573.3
426.875	590.48
427.251	592.06
427.627	576.92
428.003	599.74
428.379	598.16
428.756	588.22
429.132	599.97
429.507	601.1
429.883	590.03
430.259	626.64
430.635	614.43
431.011	612.85
431.387	667.31
431.763	641.55
432.138	651.04
432.514	644.71
432.89	643.58
433.265	668.89
433.641	670.93
434.016	661.66
434.392	684.94
434.767	666.41
435.143	697.37
435.518	656.47
435.894	693.75
436.269	695.33
436.644	706.63
437.02	710.02
437.395	697.59
437.77	730.59
438.145	724.49
438.52	702.79
438.895	732.4
439.271	730.14
439.646	738.5
440.021	752.96
440.395	746.86
440.77	754.77
441.145	767.2
441.52	761.77
441.895	777.37
442.27	777.37
442.645	768.1
443.019	773.75
443.394	785.5
443.769	785.05
444.143	756.35
444.518	797.48
444.892	779.63
445.267	827.99
445.641	803.58
446.016	809.46
446.39	788.67
446.764	805.16
447.139	804.03
447.513	822.34
447.887	829.79
448.262	830.47
448.636	833.86
449.01	849.23
449.384	846.29
449.758	844.71
450.132	863.24
450.506	875.67
450.88	855.56
451.254	880.87
451.628	889
452.002	897.82
452.376	889.68
452.75	897.36
453.123	908.89
453.497	916.8
453.871	932.62
454.244	942.33
454.618	908.44
454.992	924.03
455.365	945.95
455.739	972.39
456.112	988.66
456.486	974.65
456.859	999.96
457.232	1013.29
457.606	996.57
457.979	1022.78
458.352	1030.47
458.725	1045.83
459.099	1032.28
459.472	1063.46
459.845	1095.32
460.218	1080.41
460.591	1110.24
460.964	1106.17
461.337	1123.35
461.71	1143.91
462.083	1138.49
462.456	1167.41
462.829	1163.12
463.201	1160.18
463.574	1181.42
463.947	1194.76
464.32	1206.73
464.692	1248.54
465.065	1242.89
465.438	1286.05
465.81	1263.46
466.183	1316.34
466.555	1325.6
466.928	1326.5
467.3	1308.88
467.672	1373.96
468.045	1363.79
468.417	1392.27
468.789	1419.84
469.161	1418.25
469.534	1437.24
469.906	1474.07
470.278	1495.77
470.65	1528.76
471.022	1548.19
471.394	1555.65
471.766	1559.27
472.138	1579.61
472.51	1654.63
472.882	1677.46
473.253	1695.08
473.625	1717.23
473.997	1771.69
474.369	1771.01
474.74	1777.79
475.112	1841.52
475.484	1898.92
475.855	1941.18
476.227	1970.33
476.598	1986.15
476.97	2058.01
477.341	2103.21
477.713	2164.67
478.084	2173.04
478.455	2263.66
478.827	2283.09
479.198	2356.53
479.569	2396.53
479.94	2466.59
480.311	2480.6
480.682	2560.82
481.053	2600.82
481.424	2713.81
481.795	2724.21
482.166	2830.87
482.537	2872.23
482.908	2984.31
483.279	3021.15
483.65	3099.57
484.021	3167.59
484.391	3223.86
484.762	3320.12
485.133	3356.96
485.503	3438.54
485.874	3532.55
486.244	3619.55
486.615	3696.61
486.985	3793.33
487.356	3861.13
487.726	3900.45
488.097	4035.59
488.467	4063.83
488.837	4232.42
489.207	4258.4
489.578	4414.79
489.948	4424.95
490.318	4565.29
490.688	4580.88
491.058	4667.66
491.428	4848.22
491.798	4876.24
492.168	5036.01
492.538	5038.27
492.908	5196.69
493.278	5292.5
493.648	5336.79
494.017	5374.31
494.387	5504.93
494.757	5562.33
495.126	5635.09
495.496	5729.33
495.866	5811.81
496.235	5930.23
496.605	5960.73
496.974	6085.02
497.344	6142.65
497.713	6193.5
498.082	6318.92
498.452	6355.52
498.821	6410.44
499.19	6466.26
499.559	6616.76
499.928	6695.63
500.298	6727.04
500.667	6761.16
501.036	6826.47
501.405	6874.61
501.774	6941.05
502.143	7020.37
502.512	7095.39
502.88	7188.95
503.249	7236.86
503.618	7273.24
503.987	7332.67
504.356	7403.63
504.724	7459.68
505.093	7482.95
505.462	7548.71
505.83	7635.49
506.199	7748.71
506.567	7789.16
506.936	7783.28
507.304	7960.45
507.672	7971.3
508.041	7990.28
508.409	8108.25
508.777	8144.18
509.145	8221.92
509.514	8274.34
509.882	8267.79
510.25	8315.25
510.618	8427.56
510.986	8448.35
511.354	8505.52
511.722	8620.1
512.09	8669.14
512.458	8668.68
512.826	8763.37
513.193	8834.78
513.561	8827.32
513.929	8856.25
514.297	8985.51
514.664	9001.33
515.032	9027.09
515.4	9163.36
515.767	9178.5
516.135	9282
516.502	9202.46
516.869	9396.57
517.237	9378.95
517.604	9366.75
517.972	9476.57
518.339	9569.68
518.706	9539.62
519.073	9604.48
519.44	9642.22
519.808	9745.27
520.175	9683.12
520.542	9852.38
520.909	9839.28
521.276	9877.92
521.643	9981.64
522.009	10007.63
522.376	10117.01
522.743	10107.74
523.11	10235.2
523.477	10294.63
523.843	10355.42
524.21	10485.59
524.577	10451.46
524.943	10610.1
525.31	10569.88
525.676	10685.58
526.043	10770.78
526.409	10796.99
526.776	10887.16
527.142	10950.66
527.508	11042.18
527.874	11018.45
528.241	11130.09
528.607	11190.65
528.973	11207.83
529.339	11236.3
529.705	11421.15
530.071	11425
530.437	11501.6
530.803	11515.62
531.169	11626.12
531.535	11630.87
531.901	11648.95
532.267	11739.34
532.632	11823.86
532.998	11812.78
533.364	11951.08
533.73	11995.15
534.095	12057.3
534.461	12099.78
534.826	12171.87
535.192	12145.66
535.557	12319.44
535.923	12252.09
536.288	12378.87
536.653	12425.2
537.019	12383.84
537.384	12463.39
537.749	12532.99
538.114	12566.66
538.479	12588.13
538.845	12665.87
539.21	12697.96
539.575	12810.04
539.94	12828.12
540.305	12839.65
540.67	12874.68
541.034	12944.96
541.399	12958.52
541.764	13007.55
542.129	12983.6
542.494	13161.67
542.858	13240.32
543.223	13261.78
543.587	13349.69
543.952	13220.66
544.316	13389.01
544.681	13472.63
545.045	13445.73
545.41	13569.8
545.774	13656.35
546.138	13563.25
546.503	13664.71
546.867	13698.16
547.231	13822.67
547.595	13732.51
547.959	13880.3
548.324	13850.7
548.688	13977.02
549.052	14000.75
549.416	14060.63
549.779	14105.38
550.143	14050.46
550.507	14200.06
550.871	14237.35
551.235	14228.99
551.599	14381.08
551.962	14452.26
552.326	14385.82
552.689	14482.32
553.053	14447.52
553.417	14535.2
553.78	14652.03
554.143	14678.47
554.507	14745.81
554.87	14778.13
555.234	14894.51
555.597	14824.91
555.96	14957.33
556.323	14957.78
556.686	14921.18
557.05	15124.79
557.413	15119.36
557.776	15184.67
558.139	15262.41
558.502	15226.93
558.865	15221.73
559.228	15428.28
559.59	15423.08
559.953	15468.28
560.316	15633.47
560.679	15587.82
561.041	15694.26
561.404	15726.35
561.767	15937.42
562.129	15749.18
562.492	16037.53
562.854	15901.94
563.217	15966.57
563.579	16060.58
563.941	16107.81
564.304	16152.78
564.666	16204.76
565.028	16237.07
565.39	16273.68
565.753	16357.52
566.115	16517.74
566.477	16489.04
566.839	16574.01
567.201	16672.54
567.563	16710.05
567.925	16802.93
568.287	16917.51
568.648	16856.27
569.01	16964.96
569.372	17125.19
569.734	17014
570.095	17156.37
570.457	17277.95
570.819	17244.05
571.18	17261.45
571.542	17476.14
571.903	17402.24
572.265	17496.93
572.626	17659.63
572.987	17657.37
573.349	17715.9
573.71	17818.73
574.071	17964.71
574.432	18041.77
574.794	18217.81
575.155	18267.75
575.516	18263.91
575.877	18430.91
576.238	18541.87
576.599	18656.44
576.96	18699.38
577.32	18770.34
577.681	18922.88
578.042	19146.83
578.403	19204
578.763	19321.96
579.124	19418.46
579.485	19585.23
579.845	19720.15
580.206	19871.55
580.566	19942.51
580.927	20096.86
581.287	20358.09
581.648	20331.65
582.008	20697.75
582.368	20671.08
582.728	20911.07
583.089	21096.61
583.449	21391.74
583.809	21508.8
584.169	21627.67
584.529	21857.26
584.889	22156.69
585.249	22224.71
585.609	22373.41
585.969	22710.35
586.329	22880.06
586.688	23195.31
587.048	23391.46
587.408	23422.42
587.768	23684.79
588.127	23916.42
588.487	24123.87
588.846	24618.77
589.206	24548.27
589.565	24785.77
589.925	25145.31
590.284	25305.31
590.643	25641.35
591.003	25914.56
591.362	26207.88
591.721	26425.73
592.08	26653.3
592.44	26930.35
592.799	27117.69
593.158	27319.95
593.517	27644.46
593.876	27861.4
594.235	28147.49
594.593	28334.83
594.952	28629.29
595.311	28716.97
595.67	29000.81
596.029	29489.15
596.387	29605.54
596.746	29893.21
597.104	30009.59
597.463	30134.11
597.822	30688.9
598.18	30772.06
598.538	30969.12
598.897	31451.81
599.255	31246.62
599.613	31861.97
599.972	31891.35
600.33	32173.83
600.688	32268.52
601.046	32632.8
601.404	32952.79
601.762	32908.27
602.12	33322.05
602.478	33524.3
602.836	33665.99
603.194	33714.81
603.552	33956.83
603.91	34035.02
604.268	34443.37
604.625	34516.82
604.983	34854.89
605.341	34808.79
605.698	35179.85
606.056	35303.92
606.413	35507.98
606.771	35639.73
607.128	35912.71
607.485	35832.49
607.843	36005.59
608.2	36458.01
608.557	36708.4
608.914	36513.6
609.272	36956.53
609.629	37066.36
609.986	37343.18
610.343	37290.53
610.7	37730.29
611.057	37718.32
611.414	37809.61
611.771	38022.26
612.127	38270.62
612.484	38532.76
612.841	38581.12
613.198	38601.68
613.554	38649.82
613.911	38949.7
614.267	39013.65
614.624	39210.93
614.98	39280.76
615.337	39484.15
615.693	39413.41
616.05	39530.92
616.406	39893.17
616.762	39700.64
617.118	39945.6
617.475	39982.21
617.831	40030.8
618.187	40153.05
618.543	40241.64
618.899	40587.85
619.255	40537.9
619.611	40635.3
619.967	40779.93
620.323	40913.71
620.678	40892.7
621.034	40852.47
621.39	41000.04
621.746	40982.19
622.101	41531.78
622.457	41181.5
622.812	41356.86
623.168	41569.06
623.523	41556.86
623.879	41575.62
624.234	41569.06
624.589	41645.22
624.945	41816.97
625.3	41777.87
625.655	41723.41
626.01	41929.73
626.365	42005.21
626.72	41906.45
627.075	41858.55
627.43	41924.76
627.785	41905.78
628.14	42064.64
628.495	42098.54
628.85	42068.71
629.205	42060.35
629.559	42284.98
629.914	42077.07
630.269	42057.41
630.623	42091.08
630.978	42193.45
631.332	42320
631.687	42317.97
632.041	42167.46
632.396	42280.68
632.75	42247.01
633.104	42318.42
633.459	42195.03
633.813	42215.15
634.167	42249.72
634.521	42280.91
634.875	42220.57
635.229	42270.51
635.583	42181.7
635.937	42101.48
636.291	42076.39
636.645	42089.5
636.999	42066.9
637.352	42202.49
637.706	41995.94
638.06	42086.34
638.413	42001.59
638.767	42037.07
639.121	42145.77
639.474	41814.48
639.828	41896.96
640.181	42121.36
640.534	42125.43
640.888	41989.84
641.241	41793.46
641.594	41856.29
641.947	41989.39
642.301	41730.87
642.654	41955.04
643.007	41950.97
643.36	41855.83
643.713	41613.58
644.066	41961.59
644.419	41661.26
644.771	41470.76
645.124	41087.72
645.477	41141.95
645.83	40774.06
646.182	40696.54
646.535	40617.22
646.888	40718.69
647.24	40526.38
647.593	40705.36
647.945	40632.14
648.298	40479.83
648.65	40551.91
649.002	40349.43
649.355	40481.86
649.707	40555.3
650.059	40519.82
650.411	41003.88
650.763	41106.7
651.115	41591.43
651.467	41321.61
651.819	41373.14
652.171	41258.34
652.523	41176.76
652.875	41203.2
653.227	41016.31
653.578	41337.88
653.93	41205.46
654.282	41119.36
654.633	41039.13
654.985	41051.34
655.337	41134.72
655.688	41104.22
656.039	41078.68
656.391	40969.08
656.742	41050.43
657.094	40870.55
657.445	41036.42
657.796	41012.24
658.147	40909.19
658.498	40867.61
658.849	41030.77
659.2	40979.7
659.551	40744.9
659.902	40940.38
660.253	40906.71
660.604	40892.02
660.955	40714.17
661.306	40932.47
661.656	40852.25
662.007	40836.43
662.358	40806.6
662.708	40861.28
663.059	40819.7
663.409	40539.94
663.76	40764.79
664.11	40869.65
664.461	40873.49
664.811	40748.07
665.161	40853.6
665.511	40675.3
665.862	40725.02
666.212	40744
666.562	40844.56
666.912	40649.31
667.262	40729.54
667.612	40584.68
667.962	40842.08
668.312	40668.52
668.662	40843.88
669.011	40685.02
669.361	40700.84
669.711	40641.4
670.06	40820.38
670.41	40691.8
670.76	40504.23
671.109	40666.94
671.459	40488.19
671.808	40649.99
672.157	40781.74
672.507	40309.43
672.856	40389.66
673.205	40539.71
673.554	40677.79
673.904	40440.73
674.253	40628.3
674.602	40581.74
674.951	39939.27
675.3	39694.76
675.649	40275.31
675.998	40359.6
676.346	40240.51
676.695	40408.64
677.044	40175.43
677.393	40315.31
677.741	40400.05
678.09	40129.1
678.438	40038.48
678.787	40193.51
679.135	40097.24
679.484	39848.2
679.832	40158.03
680.181	39855.44
680.529	40021.08
680.877	39873.97
681.225	39885.04
681.573	40042.32
681.922	39786.51
682.27	39572.05
682.618	39714.87
682.966	39601.43
683.314	39652.28
683.661	39567.76
684.009	39318.95
684.357	39294.32
684.705	39297.26
685.053	39366.41
685.4	39241.89
685.748	39090.26
686.095	39073.99
686.443	38932.3
686.79	38997.15
687.138	38974.33
687.485	38857.95
687.832	38776.82
688.18	38838.06
688.527	38667.67
688.874	38542.93
689.221	38575.69
689.568	38485.98
689.915	38419.99
690.262	38236.04
690.609	38265.87
690.956	38176.84
691.303	38112.2
691.65	37839.44
691.997	37887.8
692.344	37723.06
692.69	37666.34
693.037	37653.69
693.383	37462.5
693.73	37368.49
694.077	37267.71
694.423	37345.44
694.769	37096.19
695.116	37118.33
695.462	36999.92
695.808	37008.96
696.155	37060.25
696.501	36708.4
696.847	36720.15
697.193	36536.43
697.539	36693.71
697.885	36497.33
698.231	36377.33
698.577	36408.07
698.923	36225.02
699.269	36163.33
699.614	35988.87
699.96	35868.42
700.306	35988.64
700.651	35721.53
700.997	35776.9
701.342	35670.91
701.688	35489.22
702.033	35377.59
702.379	35305.95
702.724	35278.38
703.069	35302.79
703.415	34922.91
703.76	34986.86
704.105	34979.41
704.45	34895.34
704.795	34768.79
705.14	34723.37
705.485	34517.04
705.83	34539.64
706.175	34503.03
706.52	34467.1
706.865	34323.38
707.209	34259.2
707.554	33998.64
707.899	34190.5
708.243	33970.84
708.588	33970.84
708.932	33867.57
709.277	33770.4
709.621	33674.35
709.966	33518.88
710.31	33597.52
710.654	33272.11
710.998	33301.48
711.342	33277.75
711.687	33243.63
712.031	33114.14
712.375	33132.45
712.719	33068.72
713.063	32922.06
713.407	32995.73
713.75	32904.21
714.094	32892
714.438	32700.37
714.782	32796.64
715.125	32523.2
715.469	32556.42
715.812	32431.68
716.156	32261.51
716.499	32315.75
716.843	32383.99
717.186	32192.59
717.53	32301.74
717.873	32240.72
718.216	32143.77
718.559	31992.82
718.902	31819.04
719.246	32023.55
719.589	31861.97
719.932	31654.97
720.275	31735.2
720.617	31638.02
720.96	31583.56
721.303	31540.85
721.646	31586.73
721.989	31255.44
722.331	31501.98
722.674	31436.45
723.016	31421.31
723.359	31274.87
723.701	31216.79
724.044	31073.29
724.386	30911.94
724.729	31196.23
725.071	31078.04
725.413	31000.75
725.755	30918.49
726.097	30809.8
726.439	30742.23
726.782	30758.95
727.124	30876.24
727.465	30735.9
727.807	30744.94
728.149	30591.95
728.491	30487.77
728.833	30569.13
729.175	30370.94
729.516	30421.33
729.858	30386.08
730.199	30461.78
730.541	30376.14
730.882	30276.03
731.224	30301.11
731.565	30124.39
731.906	30185.86
732.248	30159.87
732.589	30104.28
732.93	29978.18
733.271	29928.46
733.612	30051.4
733.953	29876.71
734.294	29821.57
734.635	29714.01
734.976	29680.11
735.317	29593.33
735.658	29621.35
735.999	29657.51
736.339	29500.23
736.68	29532.77
737.021	29470.4
737.361	29416.61
737.702	29526.89
738.042	29356.5
738.383	29376.16
738.723	29261.82
739.063	29286.9
739.404	29245.54
739.744	29283.06
740.084	29136.62
740.424	29082.39
740.764	29054.59
741.104	29115.15
741.444	28908.38
741.784	28987.47
742.124	28905.67
742.464	28948.83
742.804	28830.41
743.143	28860.24
743.483	28743.18
743.823	28728.72
744.162	28641.04
744.502	28687.14
744.841	28457.54
745.181	28697.99
745.52	28521.72
745.86	28652.57
746.199	28470.42
746.538	28460.25
746.877	28555.62
747.216	28490.54
747.556	28300.03
747.895	28235.18
748.234	28162.18
748.573	28073.6
748.911	28083.77
749.25	28142.75
749.589	27957.44
749.928	28009.87
750.267	28017.1
750.605	27912.7
750.944	27723.55
751.283	27680.61
751.621	27808.07
751.96	27747.96
752.298	27691.01
752.636	27551.35
752.975	27464.57
753.313	27354.52
753.651	27460.73
753.989	27267.52
754.327	27358.14
754.666	27160.63
755.004	27333.28
755.342	27225.48
755.679	27145.71
756.017	26956.11
756.355	27021.65
756.693	26894.65
757.031	26969.67
757.368	26823.01
757.706	26773.52
758.044	26736.01
758.381	26685.61
758.719	26610.59
759.056	26537.37
759.394	26492.4
759.731	26312.06
760.068	26233.87
760.405	26199.07
760.743	26122.01
761.08	26201.1
761.417	26085.18
761.754	26104.61
762.091	25988.91
762.428	25788.01
762.765	25757.73
763.102	25823.04
763.438	25645.19
763.775	25524.74
764.112	25498.75
764.449	25557.73
764.785	25414.68
765.122	25280.68
765.458	25094.92
765.795	25103.96
766.131	25135.37
766.467	25078.87
766.804	24868.71
767.14	24798.2
767.476	24737.19
767.812	24679.11
768.148	24630.98
768.485	24494.03
768.821	24394.37
769.157	24305.11
769.492	24247.71
769.828	24229.18
770.164	24088.62
770.5	24029.64
770.836	23992.58
771.171	23818.34
771.507	23828.74
771.842	23630.78
772.178	23586.94
772.513	23471.69
772.849	23518.01
773.184	23316.21
773.519	23309.43
773.855	23224.01
774.19	23151.24
774.525	23077.8
774.86	23106.27
775.195	22880.97
775.53	22901.53
775.865	22729.78
776.2	22643.01
776.535	22471.26
776.87	22458.15
777.205	22358.95
777.539	22233.53
777.874	22367.99
778.209	22144.26
778.543	22088.44
778.878	22040.31
779.212	21816.14
779.547	21761.22
779.881	21921.67
780.215	21677.38
780.55	21769.81
780.884	21616.14
781.218	21556.26
781.552	21571.4
781.886	21362.81
782.22	21206.89
782.554	21254.12
782.888	20982.03
783.222	20886.67
783.556	20872.43
783.889	20797.18
784.223	20743.4
784.557	20592.66
784.89	20690.52
785.224	20556.51
785.557	20383.18
785.891	20343.41
786.224	20370.07
786.558	20267.02
786.891	20067.71
787.224	20111.32
787.557	20000.82
787.891	19985.9
788.224	19909.52
788.557	19907.26
788.89	19837.2
789.223	19771.9
789.556	19565.57
789.888	19557.44
790.221	19530.55
790.554	19308.18
790.887	19362.87
791.219	19312.47
791.552	19189.54
791.884	19133.49
792.217	19192.25
792.549	19046.49
792.882	18937.57
793.214	18865.03
793.546	18860.28
793.879	18733.96
794.211	18626.39
794.543	18712.49
794.875	18562.66
795.207	18607.86
795.539	18504.58
795.871	18507.07
796.203	18305.04
796.535	18233.4
796.867	18192.95
797.198	18220.07
797.53	18138.27
797.862	18060.3
798.193	17987.54
798.525	17969
798.856	17879.52
799.188	17728.11
799.519	17722.46
799.85	17603.82
800.182	17550.94
800.513	17596.81
800.844	17415.57
801.175	17511.62
801.506	17485.18
801.837	17349.13
802.168	17315.24
802.499	17319.3
802.83	17209.93
803.161	17150.27
803.491	17157.05
803.822	17101.46
804.153	17016.94
804.483	16892.2
804.814	16821.01
805.145	16861.69
805.475	16813.78
805.805	16680.9
806.136	16694.24
806.466	16700.11
806.796	16637.06
807.126	16560
807.457	16516.16
807.787	16533.79
808.117	16355.94
808.447	16334.02
808.777	16304.64
809.107	16306.45
809.436	16225.77
809.766	16144.65
810.096	16191.65
810.426	16183.06
810.755	16116.17
811.085	16094.93
811.414	15956.63
811.744	15937.65
812.073	15887.7
812.403	15870.08
812.732	15771.55
813.061	15771.32
813.39	15659.91
813.719	15650.42
814.049	15760.48
814.378	15646.58
814.707	15548.05
815.036	15550.09
815.365	15450.65
815.693	15362.75
816.022	15404.78
816.351	15385.12
816.68	15225.57
817.008	15249.75
817.337	15141.73
817.665	15115.29
817.994	15140.83
818.322	15088.85
818.651	15056.77
818.979	15025.13
819.307	15109.87
819.636	14982.87
819.964	14825.58
820.292	14981.51
820.62	14948.75
820.948	14910.78
821.276	14958.24
821.604	14914.17
821.932	14959.82
822.259	14861.29
822.587	14789.88
822.915	14709.2
823.243	14855.87
823.57	14896.77
823.898	14798.47
824.225	14750.33
824.553	14769.54
824.88	14791.91
825.207	14765.7
825.535	14745.36
825.862	14765.93
826.189	14681.18
826.516	14832.36
826.843	14882.53
827.17	14796.66
827.497	14839.82
827.824	14835.53
828.151	14825.13
828.478	14732.48
828.805	14776.77
829.131	14740.16
829.458	14717.56
829.785	14668.98
830.111	14657.91
830.438	14760.28
830.764	14741.07
831.09	14765.02
831.417	14661.07
831.743	14776.77
832.069	14721.18
832.395	14622.43
832.722	14673.72
833.048	14566.61
833.374	14708.75
833.7	14584.69
834.026	14547.4
834.351	14599.15
834.677	14567.06
835.003	14555.54
835.329	14561.41
835.654	14591.92
835.98	14498.59
836.306	14605.25
836.631	14510.79
836.956	14487.97
837.282	14503.11
837.607	14391.25
837.932	14295.43
838.258	14354.86
838.583	14325.71
838.908	14262.66
839.233	14325.48
839.558	14277.8
839.883	14209.78
840.208	14145.15
840.533	14219.72
840.858	14152.83
841.182	14193.28
841.507	14107.86
841.832	14066.51
842.156	13963.46
842.481	13968.66
842.805	13999.62
843.13	13913.74
843.454	13907.42
843.778	13876.01
844.103	13859.28
844.427	13777.25
844.751	13790.58
845.075	13737.93
845.399	13758.27
845.723	13594.66
846.047	13655.45
846.371	13598.72
846.695	13535
847.019	13450.48
847.343	13396.7
847.666	13331.84
847.99	13244.38
848.313	13273.99
848.637	13215.23
848.96	13091.17
849.284	13151.05
849.607	12992.19
849.931	12971.4
850.254	12856.15
850.577	12870.83
850.9	12722.59
851.223	12731.18
851.546	12620.67
851.869	12606.66
852.192	12662.03
852.515	12504.06
852.838	12485.76
853.161	12404.41
853.483	12448.92
853.806	12335.48
854.129	12278.76
854.451	12368.02
854.774	12285.54
855.096	12213.45
855.419	12152.66
855.741	12167.8
856.063	12072.44
856.385	12090.97
856.708	11947.92
857.03	11926
857.352	11998.54
857.674	11906.79
857.996	11990.41
858.318	11815.49
858.64	11778.43
858.961	11781.6
859.283	11774.14
859.605	11683.29
859.926	11712.9
860.248	11648.49
860.57	11603.3
860.891	11686.23
861.212	11589.29
861.534	11497.08
861.855	11454.83
862.176	11462.96
862.498	11434.94
862.819	11484.66
863.14	11469.51
863.461	11494.15
863.782	11387.48
864.103	11413.47
864.424	11298.9
864.745	11308.16
865.065	11278.56
865.386	11267.94
865.707	11178.45
866.027	11205.11
866.348	11241.5
866.668	11187.26
866.989	11187.04
867.309	11113.37
867.63	11201.95
867.95	11052.8
868.27	10955.63
868.59	11079.47
868.91	11064.55
869.23	10980.71
869.55	10933.26
869.87	10991.34
870.19	10984.33
870.51	10980.04
870.83	10973.26
871.15	10810.55
871.469	10886.03
871.789	10877.67
872.109	10837.44
872.428	10786.37
872.748	10937.55
873.067	10799.48
873.386	10844.22
873.706	10762.41
874.025	10731.46
874.344	10735.3
874.663	10742.98
874.982	10703.43
875.301	10660.5
875.62	10587.73
875.939	10628.41
876.258	10611.01
876.577	10642.64
876.896	10628.41
877.214	10578.69
877.533	10597
877.852	10481.07
878.17	10554.06
878.489	10543.44
878.807	10505.25
879.125	10441.97
879.444	10488.52
879.762	10356.1
880.08	10437.23
880.398	10389.77
880.716	10347.06
881.034	10326.72
881.352	10363.56
881.67	10328.3
881.988	10305.25
882.306	10222.77
882.624	10232.71
882.941	10215.31
883.259	10081.3
883.577	10118.82
883.894	10130.79
884.212	10102.55
884.529	10141.64
884.846	10095.54
885.164	10033.39
885.481	10011.7
885.798	10039.27
886.115	9898.93
886.432	9949.78
886.75	9935.09
887.067	9912.27
887.383	9799.28
887.7	9907.52
888.017	9801.99
888.334	9853.29
888.651	9769.45
888.967	9801.08
889.284	9763.57
889.6	9713.4
889.917	9635.44
890.233	9639.51
890.55	9605.61
890.866	9671.6
891.182	9559.06
891.498	9545.27
891.815	9476.35
892.131	9540.53
892.447	9479.28
892.763	9400.64
893.079	9387.08
893.395	9363.36
893.71	9402.45
894.026	9387.08
894.342	9337.14
894.657	9208.33
894.973	9232.74
895.289	9218.5
895.604	9115
895.92	9164.04
896.235	9106.41
896.55	9074.1
896.865	9055.79
897.181	9003.82
897.496	9010.14
897.811	9009.92
898.126	8945.74
898.441	8875.46
898.756	8897.38
899.071	8781.68
899.386	8844.95
899.7	8799.08
900.015	8673.43
900.33	8637.72
900.644	8630.72
900.959	8664.62
901.273	8630.27
901.588	8620.1
901.902	8530.61
902.216	8573.09
902.531	8529.25
902.845	8441.8
903.159	8426.43
903.473	8341.24
903.787	8338.07
904.101	8379.88
904.415	8339.88
904.729	8290.62
905.042	8229.15
905.356	8250.16
905.67	8224.85
905.984	8160.22
906.297	8105.31
906.611	8131.07
906.924	8114.8
907.237	8061.47
907.551	8032.99
907.864	7948.93
908.177	7939.44
908.491	7978.31
908.804	7892.89
909.117	7902.83
909.43	7776.5
909.743	7756.84
910.056	7738.31
910.368	7689.28
910.681	7731.08
910.994	7701.03
911.307	7656.28
911.619	7571.31
911.932	7538.09
912.244	7516.85
912.557	7449.96
912.869	7437.76
913.181	7440.47
913.494	7428.27
913.806	7370.87
914.118	7340.81
914.43	7278.44
914.742	7336.74
915.054	7299.23
915.366	7213.36
915.678	7168.16
915.99	7156.41
916.302	7166.13
916.613	7069.18
916.925	7070.53
917.236	7069.63
917.548	7042.51
917.859	6987.6
918.171	6943.98
918.482	6880.03
918.794	6872.35
919.105	6899.01
919.416	6768.4
919.727	6830.09
920.038	6809.3
920.349	6738.79
920.66	6765.91
920.971	6751.22
921.282	6708.74
921.593	6612.02
921.903	6611.79
922.214	6531.79
922.525	6539.93
922.835	6509.19
923.146	6491.34
923.456	6508.29
923.767	6491.57
924.077	6400.04
924.387	6365.02
924.697	6359.37
925.008	6369.54
925.318	6287.5
925.628	6296.77
925.938	6287.05
926.248	6211.35
926.558	6201.63
926.867	6168.64
927.177	6194.85
927.487	6110.11
927.796	6088.64
928.106	6106.72
928.416	6045.7
928.725	6112.59
929.034	5991.92
929.344	6012.71
929.653	5961.86
929.962	5913.73
930.271	5894.97
930.581	5852.49
930.89	5820.85
931.199	5833.5
931.508	5777.69
931.817	5792.15
932.125	5776.33
932.434	5718.48
932.743	5703.56
933.051	5699.5
933.36	5671.48
933.669	5634.19
933.977	5628.09
934.286	5580.18
934.594	5564.59
934.902	5545.6
935.21	5536.79
935.519	5471.03
935.827	5471.48
936.135	5466.96
936.443	5389.9
936.751	5401.43
937.059	5355.55
937.367	5330.92
937.674	5318.94
937.982	5297.93
938.29	5297.7
938.597	5273.75
938.905	5230.81
939.213	5221.09
939.52	5191.71
939.827	5209.79
940.135	5122.56
940.442	5102.45
940.749	5135.67
941.056	5100.87
941.363	5029.01
941.67	5036.92
941.977	5043.02
942.284	5034.43
942.591	5002.34
942.898	4943.81
943.205	4949.69
943.511	4899.74
943.818	4876.47
944.125	4860.2
944.431	4813.19
944.738	4856.13
945.044	4801.89
945.35	4805.28
945.657	4776.13
945.963	4707.88
946.269	4724.16
946.575	4702.01
946.881	4611.39
947.187	4651.84
947.493	4646.19
947.799	4602.35
948.105	4602.58
948.41	4593.99
948.716	4562.58
949.022	4559.41
949.327	4531.17
949.633	4475.12
949.938	4488.23
950.244	4489.36
950.549	4423.82
950.854	4441
951.16	4415.46
951.465	4400.77
951.77	4386.76
952.075	4419.08
952.38	4310.38
952.685	4332.98
952.99	4284.84
953.294	4312.19
953.599	4273.09
953.904	4231.74
954.209	4231.96
954.513	4198.75
954.818	4156.26
955.122	4168.69
955.426	4086.66
955.731	4133.89
956.035	4086.21
956.339	4113.55
956.643	4078.75
956.948	4025.87
957.252	4018.64
957.556	4030.84
957.86	3987.9
958.163	3998.98
958.467	3952.88
958.771	3939.77
959.075	3940.67
959.378	3920.33
959.682	3914.01
959.985	3887.34
960.289	3870.84
960.592	3876.72
960.896	3827.91
961.199	3859.55
961.502	3799.66
961.805	3767.57
962.108	3764.41
962.411	3763.28
962.714	3748.81
963.017	3717.18
963.32	3693.45
963.623	3711.75
963.926	3674.92
964.228	3631.08
964.531	3638.31
964.833	3657.06
965.136	3587.01
965.438	3634.01
965.741	3578.65
966.043	3543.85
966.345	3552.43
966.648	3574.58
966.95	3509.72
967.252	3511.08
967.554	3469.95
967.856	3509.95
968.158	3438.31
968.46	3436.96
968.761	3390.86
969.063	3421.59
969.365	3411.2
969.666	3380.46
969.968	3378.65
970.269	3335.94
970.571	3323.51
970.872	3302.95
971.174	3305.89
971.475	3327.58
971.776	3259.34
972.077	3262.5
972.378	3236.28
972.679	3219.11
972.98	3222.27
973.281	3208.49
973.582	3174.82
973.883	3207.81
974.183	3169.39
974.484	3162.16
974.785	3112.67
975.085	3103.18
975.386	3125.1
975.686	3077.42
975.986	3094.59
976.287	3051.21
976.587	3014.14
976.887	3013.47
977.187	3041.26
977.487	2980.92
977.787	3000.36
978.087	2996.07
978.387	2961.94
978.687	2959.91
978.987	2958.1
979.286	2940.93
979.586	2968.04
979.885	2902.28
980.185	2892.57
980.484	2879.01
980.784	2861.61
981.083	2859.12
981.382	2853.47
981.682	2853.47
981.981	2818.44
982.28	2841.49
982.579	2798.56
982.878	2794.71
983.177	2761.5
983.475	2756.75
983.774	2738.9
984.073	2744.55
984.372	2766.47
984.67	2741.61
984.969	2702.74
985.267	2720.14
985.566	2689.63
985.864	2683.98
986.162	2662.51
986.461	2673.59
986.759	2634.04
987.057	2615.96
987.355	2614.61
987.653	2603.31
987.951	2579.58
988.249	2529.18
988.547	2559.47
988.844	2541.61
989.142	2519.92
989.44	2498.68
989.737	2522.41
990.035	2517.21
990.332	2476.53
990.63	2505
990.927	2453.03
991.224	2449.19
991.521	2430.88
991.819	2428.17
992.116	2399.92
992.413	2397.44
992.71	2402.41
993.006	2406.02
993.303	2358.57
993.6	2357.89
993.897	2352.69
994.193	2340.72
994.49	2306.59
994.787	2300.49
995.083	2271.56
995.379	2331.68
995.676	2275.41
995.972	2274.5
996.268	2253.26
996.565	2239.02
996.861	2225.92
997.157	2268.17
997.453	2218.68
997.749	2204.9
998.044	2177.56
998.34	2184.34
998.636	2138.23
998.932	2186.14
999.227	2160.83
999.523	2118.57
999.818	2132.81
1000.114	2091
1000.409	2140.04
1000.704	2105.92
1001	2080.16
1001.295	2094.17
1001.59	2096.65
1001.885	2084.22
1002.18	2057.11
1002.475	2027.28
1002.77	2027.73
1003.065	2021.85
1003.359	2017.79
1003.654	2007.16
1003.949	1985.47
1004.243	1979.37
1004.538	1991.12
1004.832	1959.26
1005.127	1956.32
1005.421	1921.29
1005.715	1952.02
1006.009	1920.16
1006.304	1887.39
1006.598	1882.65
1006.892	1915.64
1007.186	1854.17
1007.48	1852.14
1007.773	1856.43
1008.067	1851.91
1008.361	1823.21
1008.655	1833.16
1008.948	1829.77
1009.242	1787.96
1009.535	1766.72
1009.829	1784.8
1010.122	1757
1010.415	1752.03
1010.708	1761.75
1011.001	1730.79
1011.295	1727.85
1011.588	1715.65
1011.881	1682.88
1012.173	1682.65
1012.466	1717.91
1012.759	1670.9
1013.052	1671.58
1013.344	1666.38
1013.637	1634.97
1013.93	1660.73
1014.222	1630.23
1014.514	1626.16
1014.807	1613.05
1015.099	1608.31
1015.391	1563.33
1015.683	1603.11
1015.976	1592.26
1016.268	1540.06
1016.56	1559.04
1016.851	1542.77
1017.143	1552.04
1017.435	1536.67
1017.727	1510.23
1018.018	1491.92
1018.31	1518.59
1018.602	1515.43
1018.893	1489.66
1019.185	1465.48
1019.476	1463.68
1019.767	1445.82
1020.058	1457.8
1020.35	1415.54
1020.641	1424.58
1020.932	1406.73
1021.223	1390.46
1021.514	1377.35
1021.804	1375.32
1022.095	1369.44
1022.386	1388.65
1022.677	1376.9
1022.967	1325.83
1023.258	1324.47
1023.548	1346.17
1023.839	1306.39
1024.129	1335.54
1024.419	1304.81
1024.709	1332.38
1025	1259.39
1025.29	1301.65
1025.58	1262.1
1025.87	1238.6
1026.16	1261.87
1026.449	1253.29
1026.739	1222.78
1027.029	1226.17
1027.319	1253.29
1027.608	1238.6
1027.898	1222.33
1028.187	1198.82
1028.477	1219.16
1028.766	1184.59
1029.055	1171.25
1029.344	1174.87
1029.634	1176
1029.923	1128.09
1030.212	1158.37
1030.501	1137.36
1030.79	1160.86
1031.078	1128.77
1031.367	1104.36
1031.656	1114.53
1031.945	1111.14
1032.233	1123.12
1032.522	1102.33
1032.81	1073.63
1033.099	1066.62
1033.387	1046.29
1033.675	1062.56
1033.963	1048.09
1034.251	1050.13
1034.54	1051.94
1034.828	1041.77
1035.116	1017.13
1035.403	998.38
1035.691	1009.68
1035.979	1005.16
1036.267	1012.16
1036.554	955.21
1036.842	996.8
1037.129	988.66
1037.417	993.18
1037.704	967.64
1037.992	945.72
1038.279	959.96
1038.566	969.68
1038.853	969.68
1039.14	969.68
