Data from hue_110_FLMS001491_00027.txt Node
Date: Tue Feb 07 17:01:06 GMT 2017
User: dcchb
Spectrometer: FLMS00149
Trigger mode: 0
Integration Time (sec): 2.000000E-2
Scans to average: 10
Electric dark correction enabled: true
Nonlinearity correction enabled: false
Boxcar width: 0
XAxis mode: Wavelengths
Number of Pixels in Spectrum: 2048
>>>>>Begin Spectral Data<<<<<
341.393	-6.02
341.776	-6.02
342.16	-6.02
342.543	-57.31
342.927	-71.1
343.31	-74.94
343.693	-62.29
344.077	-61.16
344.46	-63.64
344.843	-60.48
345.226	-35.85
345.61	-48.05
345.993	-14.38
346.376	-11.21
346.759	8.67
347.142	35.79
347.525	34.43
347.908	64.72
348.291	69.69
348.674	99.74
349.057	118.95
349.44	150.82
349.823	146.75
350.206	175.9
350.588	191.72
350.971	199.4
351.354	207.08
351.737	227.2
352.119	256.58
352.502	266.52
352.884	288.21
353.267	277.82
353.65	272.85
354.032	290.7
354.414	307.65
354.797	320.08
355.179	297.03
355.562	321.66
355.944	350.58
356.326	330.7
356.709	356.91
357.091	324.14
357.473	342.9
357.855	338.15
358.238	352.84
358.62	350.13
359.002	347.19
359.384	330.02
359.766	343.8
360.148	325.05
360.53	344.48
360.912	341.77
361.294	346.06
361.676	350.13
362.057	339.74
362.439	333.64
362.821	335.22
363.203	328.66
363.584	334.31
363.966	341.09
364.348	326.4
364.729	326.4
365.111	299.96
365.493	311.04
365.874	304.48
366.256	324.14
366.637	287.99
367.019	309.46
367.4	316.69
367.781	312.39
368.163	318.04
368.544	312.17
368.925	323.47
369.306	291.6
369.688	293.41
370.069	298.83
370.45	292.51
370.831	316.46
371.212	313.52
371.593	311.04
371.974	316.01
372.355	307.2
372.736	299.96
373.117	287.53
373.498	322.56
373.879	316.69
374.26	316.01
374.641	331.38
375.021	320.75
375.402	307.2
375.783	301.55
376.163	342.9
376.544	309.46
376.925	334.77
377.305	335.44
377.686	335.44
378.066	322.34
378.447	332.73
378.827	334.77
379.208	321.66
379.588	330.92
379.968	331.15
380.349	314.43
380.729	334.31
381.109	339.96
381.489	362.34
381.87	315.33
382.25	329.79
382.63	351.04
383.01	313.3
383.39	328.44
383.77	344.48
384.15	331.15
384.53	346.52
384.91	353.75
385.29	357.59
385.67	327.31
386.049	356.23
386.429	337.7
386.809	348.32
387.189	343.58
387.568	351.71
387.948	347.87
388.328	339.28
388.707	337.03
389.087	345.84
389.466	344.93
389.846	358.72
390.225	363.69
390.605	375.22
390.984	347.87
391.363	358.95
391.743	372.28
392.122	377.48
392.501	367.08
392.881	385.84
393.26	342.22
393.639	355.33
394.018	358.95
394.397	379.28
394.776	367.76
395.155	368.44
395.534	372.73
395.913	371.37
396.292	366.4
396.671	372.5
397.05	369.79
397.429	383.35
397.808	392.39
398.186	376.8
398.565	382.9
398.944	388.55
399.323	374.54
399.701	403.69
400.08	403.69
400.458	385.16
400.837	376.35
401.215	392.62
401.594	396.23
401.972	387.65
402.351	394.65
402.729	405.72
403.107	400.53
403.486	400.3
403.864	391.03
404.242	417.93
404.62	404.14
404.999	402.33
405.377	391.49
405.755	397.81
406.133	404.37
406.511	408.66
406.889	426.06
407.267	409.57
407.645	388.1
408.023	411.15
408.401	438.49
408.779	418.15
409.156	413.63
409.534	432.16
409.912	455.67
410.29	461.77
410.667	444.82
411.045	435.55
411.422	475.1
411.8	466.97
412.178	464.71
412.555	451.6
412.933	466.97
413.31	442.33
413.687	429.9
414.065	458.15
414.442	477.81
414.819	464.48
415.197	487.76
415.574	467.87
415.951	483.24
416.328	473.97
416.705	469.45
417.082	476
417.46	502.67
417.837	503.35
418.214	481.65
418.591	487.76
418.967	478.04
419.344	494.99
419.721	510.81
420.098	498.83
420.475	499.51
420.852	511.48
421.228	527.3
421.605	524.82
421.982	509.22
422.358	518.49
422.735	541.99
423.111	520.3
423.488	528.88
423.864	549.45
424.241	562.33
424.617	538.38
424.994	572.27
425.37	520.07
425.746	547.87
426.123	554.87
426.499	543.8
426.875	593.29
427.251	562.1
427.627	576.34
428.003	568.88
428.379	587.87
428.756	602.33
429.132	603.01
429.507	596
429.883	609.56
430.259	607.3
430.635	595.78
431.011	627.64
431.387	605.27
431.763	610.92
432.138	625.61
432.514	651.59
432.89	657.47
433.265	642.33
433.641	673.06
434.016	661.54
434.392	675.77
434.767	662.67
435.143	670.35
435.518	679.61
435.894	667.86
436.269	687.75
436.644	695.43
437.02	709.67
437.395	694.3
437.77	711.7
438.145	723
438.52	722.33
438.895	732.72
439.271	727.98
439.646	754.87
440.021	743.57
440.395	741.76
440.77	763
441.145	743.79
441.52	752.83
441.895	750.8
442.27	765.49
442.645	758.26
443.019	771.36
443.394	764.81
443.769	795.54
444.143	788.31
444.518	801.87
444.892	784.47
445.267	799.16
445.641	793.28
446.016	796.22
446.39	825.83
446.764	816.56
447.139	832.61
447.513	814.75
447.887	831.93
448.262	838.71
448.636	847.07
449.01	840.06
449.384	840.29
449.758	871.02
450.132	862.66
450.506	866.73
450.88	878.93
451.254	871.02
451.628	918.03
452.002	887.29
452.376	905.82
452.75	913.73
453.123	932.04
453.497	909.21
453.871	951.7
454.244	950.34
454.618	968.87
454.992	957.35
455.365	971.36
455.739	989.89
456.112	1015.43
456.486	1019.27
456.859	997.57
457.232	1021.3
457.606	1043.67
457.979	1032.15
458.352	1043.9
458.725	1066.72
459.099	1093.39
459.472	1099.72
459.845	1145.82
460.218	1111.02
460.591	1146.5
460.964	1151.24
461.337	1166.38
461.71	1207.74
462.083	1237.34
462.456	1214.06
462.829	1220.17
463.201	1224.46
463.574	1256.1
463.947	1227.62
464.32	1261.52
464.692	1297.9
465.065	1319.6
465.438	1345.81
465.81	1352.14
466.183	1379.03
466.555	1417.22
466.928	1424.45
467.3	1424.68
467.672	1460.39
468.045	1484.11
468.417	1494.06
468.789	1504.68
469.161	1520.27
469.534	1578.35
469.906	1610.89
470.278	1628.52
470.65	1648.85
471.022	1678.23
471.394	1718.01
471.766	1736.31
472.138	1794.39
472.51	1799.13
472.882	1865.8
473.253	1863.09
473.625	1948.96
473.997	1950.09
474.369	2011.33
474.74	2070.76
475.112	2124.55
475.484	2129.52
475.855	2204.32
476.227	2229.4
476.598	2317.76
476.97	2347.37
477.341	2426.91
477.713	2490.87
478.084	2534.03
478.455	2606.12
478.827	2688.6
479.198	2791.65
479.569	2815.15
479.94	2919.33
480.311	2989.16
480.682	3107.8
481.053	3178.76
481.424	3271.19
481.795	3319.77
482.166	3449.03
482.537	3479.09
482.908	3609.48
483.279	3687.9
483.65	3829.59
484.021	3935.8
484.391	4060.32
484.762	4122.46
485.133	4188.45
485.503	4317.03
485.874	4484.26
486.244	4587.76
486.615	4713.18
486.985	4864.59
487.356	4965.6
487.726	5086.96
488.097	5246.5
488.467	5321.75
488.837	5507.74
489.207	5603.33
489.578	5752.48
489.948	5884.45
490.318	5990.66
490.688	6110.88
491.058	6285.34
491.428	6426.58
491.798	6589.29
492.168	6761.26
492.538	6805.56
492.908	6993.57
493.278	7140.46
493.648	7234.47
494.017	7388.82
494.387	7583.16
494.757	7650.96
495.126	7843.04
495.496	7905.64
495.866	8025.41
496.235	8185.41
496.605	8325.97
496.974	8462.91
497.344	8592.4
497.713	8670.37
498.082	8764.15
498.452	8956.91
498.821	9016.12
499.19	9096.12
499.559	9313.74
499.928	9376.56
500.298	9441.87
500.667	9603.9
501.036	9617.91
501.405	9801.63
501.774	9854.06
502.143	9980.84
502.512	10017.9
502.88	10184.22
503.249	10179.93
503.618	10351
503.987	10407.04
504.356	10544.44
504.724	10677.09
505.093	10652.69
505.462	10721.16
505.83	10831.66
506.199	11000.93
506.567	11148.27
506.936	11076.18
507.304	11262.61
507.672	11342.61
508.041	11326.79
508.409	11459.44
508.777	11553
509.145	11662.83
509.514	11606.79
509.882	11723.17
510.25	11753.22
510.618	11845.65
510.986	11844.75
511.354	12015.14
511.722	12070.05
512.09	12117.51
512.458	12092.42
512.826	12295.81
513.193	12282.7
513.561	12315.92
513.929	12290.61
514.297	12592.3
514.664	12493.09
515.032	12562.24
515.4	12657.15
515.767	12740.31
516.135	12698.96
516.502	12618.06
516.869	12828.22
517.237	12853.08
517.604	12841.56
517.972	12892.85
518.339	13014.21
518.706	12930.37
519.073	13128.1
519.44	13091.27
519.808	13097.59
520.175	13169.91
520.542	13207.65
520.909	13234.09
521.276	13158.16
521.643	13335.33
522.009	13375.1
522.376	13425.04
522.743	13449.45
523.11	13439.05
523.477	13583.91
523.843	13570.58
524.21	13685.6
524.577	13741.64
524.943	13682.44
525.31	13733.73
525.676	13776.9
526.043	13856.67
526.409	13803.56
526.776	13883.56
527.142	13901.19
527.508	13890.79
527.874	14038.81
528.241	14008.76
528.607	13896.67
528.973	14028.87
529.339	13972.37
529.705	14007.4
530.071	14043.78
530.437	14068.87
530.803	14101.41
531.169	14166.49
531.535	14071.13
531.901	14048.3
532.267	14041.3
532.632	14131.01
532.998	13992.49
533.364	14113.61
533.73	14057.79
534.095	14074.74
534.461	14114.52
534.826	14074.97
535.192	14050.79
535.557	14046.04
535.923	14067.51
536.288	13938.48
536.653	14022.09
537.019	13875.65
537.384	13940.51
537.749	13945.71
538.114	13912.71
538.479	13891.24
538.845	13849.89
539.21	13832.94
539.575	13798.82
539.94	13750.23
540.305	13836.33
540.67	13664.81
541.034	13695.54
541.399	13633.4
541.764	13652.83
542.129	13725.6
542.494	13562.89
542.858	13611.7
543.223	13500.97
543.587	13546.4
543.952	13474.08
544.316	13484.93
544.681	13411.48
545.045	13458.26
545.41	13423.01
545.774	13411.94
546.138	13340.98
546.503	13331.49
546.867	13257.82
547.231	13300.98
547.595	13237.25
547.959	13246.29
548.324	13131.94
548.688	13064.6
549.052	13157.93
549.416	13119.06
549.779	12974.66
550.143	13022.57
550.507	13122.68
550.871	13020.99
551.235	12888.11
551.599	13092.17
551.962	12942.57
552.326	12948.9
552.689	12908.22
553.053	12853.76
553.417	12800.43
553.78	12931.04
554.143	12776.25
554.507	12813.31
554.87	12672.07
555.234	12924.94
555.597	12726.98
555.96	12749.13
556.323	12771.5
556.686	12709.13
557.05	12698.96
557.413	12762.24
557.776	12736.7
558.139	12737.38
558.502	12717.26
558.865	12633.42
559.228	12706.64
559.59	12709.81
559.953	12734.21
560.316	12807.88
560.679	12786.42
561.041	12772.63
561.404	12745.96
561.767	12736.92
562.129	12683.59
562.492	12762.69
562.854	12672.07
563.217	12731.28
563.579	12739.86
563.941	12820.54
564.304	12798.84
564.666	12745.06
565.028	12879.52
565.39	12805.17
565.753	12824.83
566.115	12928.78
566.477	12891.95
566.839	12858.96
567.201	12842.01
567.563	12890.59
567.925	12929.24
568.287	12904.83
568.648	12857.15
569.01	12857.37
569.372	13031.83
569.734	12945.73
570.095	12982.12
570.457	13088.33
570.819	13023.92
571.18	12976.01
571.542	13038.84
571.903	13035.67
572.265	13081.77
572.626	13075
572.987	13058.27
573.349	13110.47
573.71	13126.07
574.071	13080.64
574.432	13123.58
574.794	13174.43
575.155	13220.75
575.516	13092.85
575.877	13134.65
576.238	13216.69
576.599	13269.57
576.96	13109.12
577.32	13176.01
577.681	13174.65
578.042	13231.6
578.403	13242.45
578.763	13202.68
579.124	13219.17
579.485	13231.83
579.845	13262.33
580.206	13251.49
580.566	13207.2
580.927	13149.34
581.287	13245.84
581.648	13245.16
582.008	13250.36
582.368	13170.13
582.728	13162.45
583.089	13143.47
583.449	13145.73
583.809	13206.74
584.169	13170.13
584.529	13194.99
584.889	13196.57
585.249	13103.7
585.609	13070.7
585.969	13140.76
586.329	13055.33
586.688	13141.21
587.048	13034.32
587.408	13095.79
587.768	13022.79
588.127	13006.75
588.487	13029.8
588.846	13095.56
589.206	13074.09
589.565	13085.62
589.925	13056.01
590.284	12987.31
590.643	13111.38
591.003	13109.34
591.362	13052.17
591.721	13066.63
592.08	13019.18
592.44	13112.28
592.799	13002.23
593.158	13039.06
593.517	13053.53
593.876	13014.43
594.235	12967.65
594.593	13010.14
594.952	13023.02
595.311	12982.79
595.67	12901.67
596.029	13034.09
596.387	13035
596.746	13001.1
597.104	12858.28
597.463	12938.5
597.822	12967.43
598.18	12898.95
598.538	12867.32
598.897	12941.89
599.255	12805.17
599.613	13009.69
599.972	12911.84
600.33	13033.19
600.688	12877.49
601.046	12996.13
601.404	12949.57
601.762	12908.9
602.12	12943.7
602.478	12960.42
602.836	12976.69
603.194	12857.15
603.552	12970.82
603.91	12785.29
604.268	12916.36
604.625	12955.45
604.983	13014.21
605.341	12880.65
605.698	12921.78
606.056	13027.31
606.413	12995.45
606.771	12974.66
607.128	12952.06
607.485	12935.56
607.843	12923.59
608.2	13014.43
608.557	13014.88
608.914	13017.6
609.272	13050.36
609.629	13086.75
609.986	13120.87
610.343	13033.19
610.7	13015.11
611.057	13085.39
611.414	13074.77
611.771	13012.17
612.127	13131.72
612.484	13076.13
612.841	13103.47
613.198	13088.78
613.554	13102.57
613.911	13155.67
614.267	13133.07
614.624	13137.14
614.98	13155.9
615.337	13206.97
615.693	13237.93
616.05	13203.13
616.406	13267.53
616.762	13204.94
617.118	13130.13
617.475	13242.9
617.831	13269.34
618.187	13230.25
618.543	13258.04
618.899	13320.41
619.255	13347.3
619.611	13231.38
619.967	13369.68
620.323	13316.12
620.678	13282.67
621.034	13253.75
621.39	13268.89
621.746	13300.07
622.101	13411.94
622.457	13291.94
622.812	13347.53
623.168	13404.93
623.523	13345.04
623.879	13350.24
624.234	13260.08
624.589	13376.23
624.945	13321.77
625.3	13330.81
625.655	13306.85
626.01	13463.69
626.365	13270.24
626.72	13345.04
627.075	13313.86
627.43	13297.59
627.785	13346.4
628.14	13271.83
628.495	13326.74
628.85	13290.13
629.205	13265.27
629.559	13301.88
629.914	13361.77
630.269	13331.49
630.623	13245.16
630.978	13156.8
631.332	13275.67
631.687	13320.19
632.041	13173.52
632.396	13248.78
632.75	13181.43
633.104	13190.25
633.459	13157.25
633.813	13107.31
634.167	13130.36
634.521	13184.37
634.875	13098.5
635.229	13095.33
635.583	12975.79
635.937	13007.43
636.291	13068.22
636.645	12960.2
636.999	13023.92
637.352	13049.01
637.706	12952.06
638.06	13032.51
638.413	12952.51
638.767	12860.31
639.121	12874.77
639.474	12807.66
639.828	12962.23
640.181	12868.45
640.534	12894.89
640.888	12844.27
641.241	12858.96
641.594	12804.49
641.947	12822.8
642.301	12807.21
642.654	12845.4
643.007	12862.57
643.36	12749.13
643.713	12778.96
644.066	12870.93
644.419	12698.96
644.771	12719.3
645.124	12599.08
645.477	12546.42
645.83	12433.88
646.182	12356.37
646.535	12371.51
646.888	12409.93
647.24	12356.37
647.593	12440.89
647.945	12343.04
648.298	12366.54
648.65	12352.08
649.002	12264.85
649.355	12349.82
649.707	12295.35
650.059	12466.65
650.411	12565.63
650.763	12560.88
651.115	12702.58
651.467	12618.74
651.819	12706.19
652.171	12692.41
652.523	12666.64
652.875	12557.95
653.227	12569.7
653.578	12585.06
653.93	12553.65
654.282	12582.13
654.633	12555.91
654.985	12591.17
655.337	12574.67
655.688	12612.41
656.039	12665.51
656.391	12545.29
656.742	12596.59
657.094	12620.54
657.445	12679.53
657.796	12700.32
658.147	12660.99
658.498	12560.21
658.849	12692.41
659.2	12567.44
659.551	12613.09
659.902	12634.33
660.253	12627.32
660.604	12685.17
660.955	12673.65
661.306	12614.44
661.656	12710.26
662.007	12626.65
662.358	12683.59
662.708	12647.21
663.059	12713.87
663.409	12677.49
663.76	12768.11
664.11	12737.6
664.461	12739.86
664.811	12810.6
665.161	12773.31
665.511	12657.83
665.862	12638.4
666.212	12764.72
666.562	12712.07
666.912	12665.74
667.262	12709.58
667.612	12687.21
667.962	12684.95
668.312	12674.1
668.662	12712.74
669.011	12688.56
669.361	12746.87
669.711	12717.26
670.06	12639.98
670.41	12645.18
670.76	12569.92
671.109	12618.51
671.459	12635.68
671.808	12663.71
672.157	12691.5
672.507	12540.09
672.856	12531.96
673.205	12590.49
673.554	12563.14
673.904	12547.78
674.253	12624.61
674.602	12620.77
674.951	12369.7
675.3	12305.98
675.649	12535.35
675.998	12539.42
676.346	12467.1
676.695	12513.88
677.044	12429.36
677.393	12461.45
677.741	12412.41
678.09	12419.42
678.438	12373.32
678.787	12406.99
679.135	12410.38
679.484	12350.04
679.832	12434.11
680.181	12244.28
680.529	12345.07
680.877	12284.96
681.225	12313.66
681.573	12305.52
681.922	12246.09
682.27	12177.39
682.618	12164.06
682.966	12176.26
683.314	12277.5
683.661	12124.51
684.009	12097.85
684.357	12021.92
684.705	12096.49
685.053	12056.26
685.4	12057.62
685.748	11949.83
686.095	11973.78
686.443	11946.66
686.79	11925.87
687.138	11946.89
687.485	11876.61
687.832	11864.18
688.18	11876.61
688.527	11780.79
688.874	11720
689.221	11787.8
689.568	11754.13
689.915	11630.97
690.262	11598.65
690.609	11570.4
690.956	11588.03
691.303	11551.87
691.65	11467.35
691.997	11532.44
692.344	11413.8
692.69	11347.36
693.037	11403.4
693.383	11197.98
693.73	11359.33
694.077	11240.92
694.423	11237.53
694.769	11176.74
695.116	11139
695.462	11143.29
695.808	11031.66
696.155	10996.63
696.501	11011.55
696.847	10992.34
697.193	10871.44
697.539	10966.35
697.885	10886.58
698.231	10850.42
698.577	10730.42
698.923	10788.5
699.269	10639.58
699.614	10655.85
699.96	10700.37
700.306	10516.42
700.651	10506.48
700.997	10517.32
701.342	10438.23
701.688	10461.28
702.033	10351.9
702.379	10391.9
702.724	10354.16
703.069	10382.18
703.415	10214.73
703.76	10216.09
704.105	10261.51
704.45	10226.93
704.795	10104.9
705.14	10085.92
705.485	10020.84
705.83	10013.83
706.175	10018.58
706.52	9987.39
706.865	9952.37
707.209	9921.41
707.554	9878.92
707.899	9929.32
708.243	9865.59
708.588	9876.66
708.932	9722.09
709.277	9785.82
709.621	9724.35
709.966	9671.69
710.31	9714.41
710.654	9600.51
710.998	9673.28
711.342	9610.68
711.687	9600.06
712.031	9579.27
712.375	9507.86
712.719	9528.87
713.063	9504.69
713.407	9537.01
713.75	9462.66
714.094	9486.61
714.438	9433.28
714.782	9439.61
715.125	9318.03
715.469	9449.1
715.812	9353.51
716.156	9280.97
716.499	9269.45
716.843	9286.62
717.186	9256.56
717.53	9287.98
717.873	9262.89
718.216	9277.35
718.559	9158.26
718.902	9172.72
719.246	9181.09
719.589	9168.43
719.932	9149.22
720.275	9094.99
720.617	9137.7
720.96	9096.34
721.303	9130.24
721.646	9088.89
721.989	9067.42
722.331	9092.05
722.674	9105.16
723.016	9087.08
723.359	9014.99
723.701	9027.42
724.044	8931.38
724.386	8984.03
724.729	8997.14
725.071	9036.91
725.413	9084.59
725.755	9001.2
726.097	8989.9
726.439	8908.78
726.782	8941.54
727.124	8955.78
727.465	8929.34
727.807	8948.55
728.149	8888.66
728.491	8922.56
728.833	8984.48
729.175	8917.14
729.516	8867.87
729.858	8918.27
730.199	8886.4
730.541	8895.22
730.882	8879.85
731.224	8929.34
731.565	8902
731.906	8917.36
732.248	8877.37
732.589	8838.72
732.93	8838.27
733.271	8862
733.612	8857.48
733.953	8881.43
734.294	8856.12
734.635	8799.4
734.976	8903.81
735.317	8830.14
735.658	8841.89
735.999	8857.03
736.339	8828.33
736.68	8868.33
737.021	8907.65
737.361	8845.5
737.702	8829.46
738.042	8891.6
738.383	8869.23
738.723	8929.79
739.063	8928.89
739.404	8935.67
739.744	8954.2
740.084	8946.97
740.424	8918.95
740.764	8953.75
741.104	8920.08
741.444	8988.32
741.784	8945.16
742.124	9001.88
742.464	9034.42
742.804	9023.12
743.143	9004.82
743.483	9118.04
743.823	9036.91
744.162	9161.88
744.502	9165.72
744.841	9156.23
745.181	9220.41
745.52	9257.69
745.86	9319.61
746.199	9308.99
746.538	9305.15
746.877	9424.7
747.216	9413.85
747.556	9425.15
747.895	9597.35
748.234	9602.77
748.573	9630.57
748.911	9631.47
749.25	9733.39
749.589	9802.09
749.928	9887.51
750.267	9988.07
750.605	10086.15
750.944	10132.93
751.283	10114.17
751.621	10314.39
751.96	10283.2
752.298	10378.34
752.636	10511.9
752.975	10653.82
753.313	10667.83
753.651	10776.07
753.989	10922.51
754.327	11112.11
754.666	11061.71
755.004	11229.17
755.342	11369.5
755.679	11502.38
756.017	11623.73
756.355	11759.78
756.693	11882.48
757.031	12003.38
757.368	12102.82
757.706	12303.94
758.044	12447.22
758.381	12649.47
758.719	12748.9
759.056	12804.04
759.394	12945.73
759.731	13070.02
760.068	13245.16
760.405	13479.28
760.743	13614.64
761.08	13767.41
761.417	13968.08
761.754	14115.65
762.091	14309.99
762.428	14438.12
762.765	14573.71
763.102	14766.48
763.438	14900.71
763.775	14995.4
764.112	15274.03
764.449	15438.1
764.785	15505.44
765.122	15669.28
765.458	15757.18
765.795	15874.92
766.131	16137.06
766.467	16170.96
766.804	16313.33
767.14	16504.51
767.476	16629.48
767.812	16665.86
768.148	16833.77
768.485	16941.11
768.821	16960.99
769.157	17146.3
769.492	17196.92
769.828	17345.84
770.164	17407.99
770.5	17612.05
770.836	17588.32
771.171	17725.95
771.507	17715.55
771.842	17819.5
772.178	17905.6
772.513	17996.9
772.849	18101.08
773.184	18087.29
773.519	18281.41
773.855	18332.26
774.19	18345.14
774.525	18374.52
774.86	18506.72
775.195	18601.86
775.53	18561.86
775.865	18454.29
776.2	18468.53
776.535	18461.52
776.87	18520.05
777.205	18607.96
777.539	18572.93
777.874	18761.63
778.209	18675.75
778.543	18630.1
778.878	18580.61
779.212	18771.12
779.547	18667.62
779.881	18805.47
780.215	18751
780.55	18806.6
780.884	18811.79
781.218	18692.93
781.552	18800.49
781.886	18724.34
782.22	18577.45
782.554	18773.15
782.888	18593.04
783.222	18614.96
783.556	18510.11
783.889	18550.33
784.223	18511.24
784.557	18457
784.89	18603.89
785.224	18527.96
785.557	18493.38
785.891	18443.44
786.224	18487.73
786.558	18511.91
786.891	18431.01
787.224	18309.21
787.557	18268.53
787.891	18289.77
788.224	18341.98
788.557	18454.29
788.89	18278.93
789.223	18289.77
789.556	18211.58
789.888	18031.25
790.221	18191.24
790.554	18083.9
790.887	18047.75
791.219	18066.05
791.552	17917.35
791.884	17959.84
792.217	17963.91
792.549	17859.73
792.882	17777.24
793.214	17734.99
793.546	17818.15
793.879	17647.3
794.211	17555.33
794.543	17615.67
794.875	17593.75
795.207	17716.23
795.539	17541.77
795.871	17517.14
796.203	17359.4
796.535	17365.96
796.867	17321.44
797.198	17273.98
797.53	17277.6
797.862	17219.52
798.193	17234.43
798.525	17135.68
798.856	17190.59
799.188	16975.91
799.519	16973.42
799.85	16902.69
800.182	16939.53
800.513	16974.55
800.844	16808.91
801.175	16959.19
801.506	16829.92
801.837	16746.09
802.168	16702.92
802.499	16671.06
802.83	16649.59
803.161	16603.04
803.491	16574.11
803.822	16549.48
804.153	16459.99
804.483	16373.67
804.814	16329.15
805.145	16344.06
805.475	16307
805.805	16152.2
806.136	16329.37
806.466	16267.45
806.796	16247.57
807.126	16129.6
807.457	16064.75
807.787	16013.22
808.117	15963.96
808.447	15920.57
808.777	15994.01
809.107	15832.66
809.436	15881.93
809.766	15822.49
810.096	15738.88
810.426	15845.32
810.755	15614.14
811.085	15665.66
811.414	15770.97
811.744	15550.86
812.073	15526.46
812.403	15565.33
812.732	15433.35
813.061	15504.31
813.39	15377.31
813.719	15389.06
814.049	15496.85
814.378	15367.14
814.707	15327.59
815.036	15262.06
815.365	15184.77
815.693	15155.62
816.022	15067.71
816.351	15096.64
816.68	14907.26
817.008	15077.2
817.337	14965.11
817.665	14917.43
817.994	14954.95
818.322	14980.71
818.651	14896.42
818.979	14750.21
819.307	14820.71
819.636	14857.77
819.964	14846.93
820.292	14829.75
820.62	14904.33
820.948	14777.78
821.276	14818.68
821.604	14803.76
821.932	14728.06
822.259	14801.96
822.587	14810.09
822.915	14744.1
823.243	14759.24
823.57	14771
823.898	14745.01
824.225	14747.95
824.553	14700.94
824.88	14682.18
825.207	14698.91
825.535	14641.06
825.862	14699.81
826.189	14642.19
826.516	14773.71
826.843	14886.02
827.17	14773.26
827.497	14638.57
827.824	14775.52
828.151	14883.08
828.478	14702.52
828.805	14839.47
829.131	14718.57
829.458	14736.65
829.785	14712.69
830.111	14706.59
830.438	14732.35
830.764	14691.68
831.09	14705.01
831.417	14703.65
831.743	14777.32
832.069	14709.98
832.395	14709.3
832.722	14740.04
833.048	14694.61
833.374	14680.38
833.7	14514.96
834.026	14611.45
834.351	14610.55
834.677	14643.99
835.003	14614.84
835.329	14602.41
835.654	14686.25
835.98	14529.42
836.306	14534.17
836.631	14453.94
836.956	14492.81
837.282	14510.44
837.607	14429.08
837.932	14530.78
838.258	14445.35
838.583	14464.79
838.908	14317
839.233	14418.91
839.558	14364.45
839.883	14215.76
840.208	14267.51
840.533	14321.29
840.858	14318.58
841.182	14302.76
841.507	14215.76
841.832	14151.58
842.156	14116.32
842.481	14105.25
842.805	14075.65
843.13	14126.04
843.454	14039.26
843.778	13906.39
844.103	13898.25
844.427	13912.94
844.751	13900.51
845.075	13831.36
845.399	13785.26
845.723	13724.7
846.047	13783
846.371	13616.45
846.695	13646.05
847.019	13540.75
847.343	13468.43
847.666	13401.31
847.99	13327.19
848.313	13333.29
848.637	13298.72
848.96	13278.83
849.284	13157.7
849.607	13157.7
849.931	13093.75
850.254	13012.17
850.577	12906.64
850.9	12848.56
851.223	12987.99
851.546	12859.41
851.869	12732.18
852.192	12783.25
852.515	12651.05
852.838	12596.14
853.161	12553.2
853.483	12580.09
853.806	12494.45
854.129	12521.11
854.451	12473.43
854.774	12390.72
855.096	12272.76
855.419	12302.81
855.741	12231.85
856.063	12206.09
856.385	12157.96
856.708	12074.57
857.03	12048.13
857.352	12061.91
857.674	12026.89
857.996	11984.4
858.318	11945.08
858.64	11927
858.961	11917.51
859.283	11858.08
859.605	11879.77
859.926	11798.87
860.248	11802.03
860.57	11764.97
860.891	11675.48
861.212	11677.74
861.534	11694.47
861.855	11584.41
862.176	11568.59
862.498	11577.18
862.819	11537.86
863.14	11494.92
863.461	11447.47
863.782	11440.01
864.103	11460.57
864.424	11464.64
864.745	11459.67
865.065	11330.63
865.386	11404.98
865.707	11312.56
866.027	11316.62
866.348	11274.36
866.668	11287.92
866.989	11198.89
867.309	11173.8
867.63	11195.04
867.95	11137.65
868.27	11113.24
868.59	11186.91
868.91	11112.11
869.23	11134.26
869.55	11032.56
869.87	11106.01
870.19	11094.71
870.51	11083.41
870.83	11017.2
871.15	10914.83
871.469	11018.33
871.789	11063.75
872.109	11013.13
872.428	10858.33
872.748	10970.64
873.067	10946.46
873.386	10927.48
873.706	10868.5
874.025	10830.99
874.344	10797.99
874.663	10834.6
874.982	10814.72
875.301	10816.3
875.62	10744.44
875.939	10740.59
876.258	10755.96
876.577	10626.25
876.896	10698.11
877.214	10685.91
877.533	10673.7
877.852	10616.75
878.17	10657.66
878.489	10653.59
878.807	10578.56
879.125	10574.72
879.444	10503.54
879.762	10607.04
880.08	10598.22
880.398	10534.72
880.716	10504.89
881.034	10483.88
881.352	10383.09
881.67	10442.52
881.988	10448.85
882.306	10373.15
882.624	10336.99
882.941	10315.97
883.259	10281.85
883.577	10214.05
883.894	10204.34
884.212	10279.81
884.529	10185.81
884.846	10212.47
885.164	10201.85
885.481	10084.34
885.798	10179.7
886.115	10030.56
886.432	10068.75
886.75	10083.66
887.067	9977.9
887.383	10016.77
887.7	9988.75
888.017	9976.09
888.334	9992.59
888.651	9862.2
888.967	9888.19
889.284	9812.48
889.6	9811.8
889.917	9729.32
890.233	9795.31
890.55	9793.05
890.866	9767.74
891.182	9652.71
891.498	9637.8
891.815	9664.69
892.131	9614.75
892.447	9561.87
892.763	9561.87
893.079	9474.41
893.395	9441.19
893.71	9446.62
894.026	9360.74
894.342	9376.34
894.657	9298.6
894.973	9304.47
895.289	9317.81
895.604	9291.82
895.92	9223.8
896.235	9220.18
896.55	9248.66
896.865	9121.65
897.181	9158.94
897.496	9138.38
897.811	9077.13
898.126	9019.96
898.441	8980.64
898.756	8954.2
899.071	8991.71
899.386	8986.29
899.7	8829.23
900.015	8766.86
900.33	8730.48
900.644	8821.32
900.959	8709.91
901.273	8722.12
901.588	8642.12
901.902	8569.35
902.216	8593.76
902.531	8621.1
902.845	8493.87
903.159	8471.05
903.473	8439.64
903.787	8375.23
904.101	8405.29
904.415	8396.47
904.729	8364.61
905.042	8274.67
905.356	8293.88
905.67	8319.19
905.984	8200.55
906.297	8252.07
906.611	8205.97
906.924	8151.28
907.237	8110.83
907.551	8078.52
907.864	8025.41
908.177	8010.72
908.491	7993.09
908.804	7915.13
909.117	7841.91
909.43	7861.57
909.743	7798.98
910.056	7791.07
910.368	7801.91
910.681	7736.83
910.994	7737.28
911.307	7674.91
911.619	7669.94
911.932	7638.53
912.244	7609.15
912.557	7562.37
912.869	7456.39
913.181	7525.76
913.494	7505.88
913.806	7381.36
914.118	7348.59
914.43	7333
914.742	7320.12
915.054	7310.18
915.366	7291.42
915.678	7254.36
915.99	7227.01
916.302	7189.27
916.613	7154.92
916.925	7166
917.236	7077.64
917.548	7023.63
917.859	7068.15
918.171	6996.74
918.482	6984.53
918.794	6916.51
919.105	6916.51
919.416	6882.39
919.727	6907.25
920.038	6809.85
920.349	6788.83
920.66	6777.99
920.971	6756.74
921.282	6724.88
921.593	6691.43
921.903	6680.36
922.214	6741.83
922.525	6596.07
922.835	6599.01
923.146	6485.56
923.456	6588.61
923.767	6477.43
924.077	6491.89
924.387	6440.14
924.697	6455.51
925.008	6387.04
925.318	6348.84
925.628	6373.7
925.938	6335.74
926.248	6297.09
926.558	6271.56
926.867	6269.07
927.177	6195.85
927.487	6196.76
927.796	6094.84
928.106	6160.37
928.416	6123.77
928.725	6114.95
929.034	6085.35
929.344	6095.52
929.653	6010.55
929.962	5982.07
930.271	5980.94
930.581	5895.75
930.89	5927.39
931.199	5898.23
931.508	5840.38
931.817	5912.02
932.125	5846.03
932.434	5838.35
932.743	5789.76
933.051	5797.9
933.36	5741.18
933.669	5675.42
933.977	5690.1
934.286	5672.7
934.594	5706.15
934.902	5608.07
935.21	5638.35
935.519	5530.79
935.827	5524.69
936.135	5500.96
936.443	5502.99
936.751	5491.01
937.059	5492.82
937.367	5414.41
937.674	5394.52
937.982	5381.86
938.29	5353.16
938.597	5361.98
938.905	5286.73
939.213	5266.39
939.52	5229.33
939.827	5248.31
940.135	5173.06
940.442	5199.27
940.749	5185.03
941.056	5151.59
941.363	5135.09
941.67	5089.67
941.977	5085.37
942.284	5029.33
942.591	5028.65
942.898	4997.24
943.205	4980.74
943.511	4967.64
943.818	4964.7
944.125	4895.55
944.431	4876.34
944.738	4909.33
945.044	4852.84
945.35	4798.38
945.657	4800.86
945.963	4790.69
946.269	4799.96
946.575	4766.74
946.881	4732.62
947.187	4735.33
947.493	4698.04
947.799	4713.63
948.105	4649.68
948.41	4647.87
948.716	4641.32
949.022	4590.02
949.327	4650.13
949.633	4554.77
949.938	4598.83
950.244	4527.2
950.549	4475.22
950.854	4499.4
951.16	4498.72
951.465	4481.32
951.77	4409.01
952.075	4430.25
952.38	4387.99
952.685	4376.01
952.99	4330.37
953.294	4341.67
953.599	4325.39
953.904	4275.45
954.209	4303.02
954.513	4279.97
954.818	4252.18
955.122	4225.28
955.426	4234.32
955.731	4229.8
956.035	4198.17
956.339	4182.57
956.643	4174.44
956.948	4093.31
957.252	4094.67
957.556	4040.88
957.86	4051.28
958.163	4022.13
958.467	4063.93
958.771	4027.1
959.075	4013.09
959.378	4015.12
959.682	3989.36
959.985	3963.82
960.289	3898.51
960.592	3920.43
960.896	3929.92
961.199	3871.17
961.502	3882.92
961.805	3872.3
962.108	3804.05
962.411	3813.32
962.714	3786.43
963.017	3793.88
963.32	3749.59
963.623	3765.18
963.926	3723.38
964.228	3711.63
964.531	3724.51
964.833	3681.8
965.136	3611.97
965.438	3627.56
965.741	3654
966.043	3633.21
966.345	3582.82
966.648	3609.26
966.95	3565.41
967.252	3561.12
967.554	3526.55
967.856	3511.86
968.158	3515.25
968.46	3512.31
968.761	3468.02
969.063	3494.46
969.365	3451.52
969.666	3411.52
969.968	3421.24
970.269	3403.61
970.571	3396.38
970.872	3370.62
971.174	3360.22
971.475	3362.48
971.776	3318.87
972.077	3342.37
972.378	3343.27
972.679	3282.03
972.98	3274.35
973.281	3289.72
973.582	3243.62
973.883	3235.03
974.183	3199.32
974.484	3238.42
974.785	3210.85
975.085	3190.06
975.386	3246.78
975.686	3200.68
975.986	3152.54
976.287	3146.89
976.587	3077.74
976.887	3073.22
977.187	3081.13
977.487	3077.29
977.787	3098.53
978.087	3034.81
978.387	3004.75
978.687	3020.12
978.987	3007.46
979.286	3000.68
979.586	2975.37
979.885	2964.53
980.185	2944.87
980.484	2917.75
980.784	2919.1
981.083	2906.22
981.382	2883.17
981.682	2862.83
981.981	2909.84
982.28	2842.5
982.579	2863.06
982.878	2856.28
983.177	2802.04
983.475	2832.1
983.774	2771.09
984.073	2762.27
984.372	2762.27
984.67	2765.21
984.969	2755.72
985.267	2745.32
985.566	2711.43
985.864	2706.68
986.162	2693.57
986.461	2664.2
986.759	2704.65
987.057	2675.27
987.355	2615.16
987.653	2613.35
987.951	2605.21
988.249	2598.43
988.547	2645.21
988.844	2598.21
989.142	2580.81
989.44	2530.19
989.737	2533.8
990.035	2550.07
990.332	2537.87
990.63	2513.69
990.927	2500.81
991.224	2438.21
991.521	2468.27
991.819	2437.53
992.116	2468.95
992.413	2465.1
992.71	2431.21
993.006	2422.17
993.303	2387.37
993.6	2395.95
993.897	2410.42
994.193	2350.53
994.49	2397.54
994.787	2383.52
995.083	2306.92
995.379	2325
995.676	2333.36
995.972	2334.49
996.268	2339.01
996.565	2272.79
996.861	2273.7
997.157	2281.15
997.453	2275.96
997.749	2241.38
998.044	2230.53
998.34	2228.05
998.636	2236.18
998.932	2208.61
999.227	2177.43
999.523	2203.87
999.818	2167.03
1000.114	2128.62
1000.409	2143.08
1000.704	2109.41
1001	2121.16
1001.295	2138.79
1001.59	2090.43
1001.885	2103.53
1002.18	2063.53
1002.475	2034.61
1002.77	2040.48
1003.065	2051.78
1003.359	2029.86
1003.654	2005.23
1003.949	2020.14
1004.243	1986.02
1004.538	1969.98
1004.832	1978.56
1005.127	1954.84
1005.421	1936.76
1005.715	1950.09
1006.009	1927.72
1006.304	1919.36
1006.598	1912.58
1006.892	1920.03
1007.186	1875.74
1007.48	1878.91
1007.773	1855.4
1008.067	1864.67
1008.361	1853.82
1008.655	1835.52
1008.948	1808.4
1009.242	1816.99
1009.535	1800.49
1009.829	1799.36
1010.122	1770.66
1010.415	1790.09
1010.708	1771.56
1011.001	1778.8
1011.295	1750.77
1011.588	1719.14
1011.881	1703.99
1012.173	1705.12
1012.466	1685.24
1012.759	1694.5
1013.052	1701.51
1013.344	1661.28
1013.637	1648.85
1013.93	1666.93
1014.222	1630.55
1014.514	1619.03
1014.807	1626.71
1015.099	1637.33
1015.391	1600.49
1015.683	1594.17
1015.976	1583.77
1016.268	1594.39
1016.56	1541.74
1016.851	1541.06
1017.143	1552.13
1017.435	1540.16
1017.727	1535.19
1018.018	1531.12
1018.31	1508.75
1018.602	1510.78
1018.893	1496.32
1019.185	1487.73
1019.476	1481.4
1019.767	1477.79
1020.058	1454.28
1020.35	1449.09
1020.641	1431.23
1020.932	1442.08
1021.223	1410.44
1021.514	1405.02
1021.804	1392.36
1022.095	1390.56
1022.386	1361.86
1022.677	1348.75
1022.967	1358.47
1023.258	1336.55
1023.548	1369.54
1023.839	1334.74
1024.129	1336.77
1024.419	1324.34
1024.709	1321.63
1025	1306.04
1025.29	1301.07
1025.58	1279.6
1025.87	1266.72
1026.16	1278.47
1026.449	1273.5
1026.739	1252.03
1027.029	1244.12
1027.319	1233.27
1027.608	1229.88
1027.898	1208.41
1028.187	1245.02
1028.477	1188.53
1028.766	1186.49
1029.055	1199.15
1029.344	1198.47
1029.634	1184.01
1029.923	1174.07
1030.212	1170.22
1030.501	1140.85
1030.79	1140.17
1031.078	1134.29
1031.367	1132.48
1031.656	1126.83
1031.945	1109.89
1032.233	1117.12
1032.522	1103.11
1032.81	1091.13
1033.099	1074.86
1033.387	1084.58
1033.675	1046.61
1033.963	1035.76
1034.251	1058.36
1034.54	1052.03
1034.828	1039.15
1035.116	1022.43
1035.403	1030.11
1035.691	1034.86
1035.979	1035.09
1036.267	1023.79
1036.554	1012.04
1036.842	985.37
1037.129	1004.13
1037.417	970.45
1037.704	979.49
1037.992	940.17
1038.279	967.52
1038.566	958.93
1038.853	958.93
1039.14	958.93
