Data from hue_210_FLMS001491_00013.txt Node
Date: Tue Feb 07 16:40:49 GMT 2017
User: dcchb
Spectrometer: FLMS00149
Trigger mode: 0
Integration Time (sec): 2.000000E-2
Scans to average: 10
Electric dark correction enabled: true
Nonlinearity correction enabled: false
Boxcar width: 0
XAxis mode: Wavelengths
Number of Pixels in Spectrum: 2048
>>>>>Begin Spectral Data<<<<<
341.393	-0.47
341.776	-0.47
342.16	-0.47
342.543	-47.92
342.927	-75.49
343.31	-71.65
343.693	-88.15
344.077	-66.45
344.46	-77.98
344.843	-68.94
345.226	-32.1
345.61	-42.5
345.993	13.32
346.376	13.09
346.759	-1.14
347.142	33.21
347.525	25.07
347.908	50.61
348.291	80.89
348.674	103.26
349.057	129.47
349.44	130.83
349.823	162.02
350.206	167.44
350.588	188.91
350.971	219.64
351.354	204.73
351.737	254.89
352.119	254.89
352.502	249.92
352.884	277.49
353.267	289.47
353.65	316.36
354.032	285.4
354.414	303.25
354.797	310.03
355.179	310.26
355.562	318.62
355.944	317.04
356.326	323.37
356.709	344.16
357.091	343.48
357.473	323.82
357.855	347.32
358.238	347.1
358.62	352.97
359.002	341.45
359.384	348.68
359.766	357.26
360.148	329.47
360.53	340.77
360.912	320.88
361.294	339.41
361.676	341.9
362.057	314.1
362.439	312.52
362.821	327.43
363.203	315.01
363.584	333.99
363.966	331.73
364.348	317.04
364.729	323.14
365.111	323.37
365.493	318.4
365.874	318.62
366.256	336.25
366.637	311.39
367.019	313.88
367.4	311.39
367.781	312.97
368.163	314.78
368.544	318.85
368.925	330.15
369.306	308.45
369.688	325.4
370.069	307.1
370.45	310.94
370.831	315.68
371.212	312.75
371.593	298.28
371.974	322.46
372.355	329.24
372.736	327.89
373.117	293.76
373.498	326.08
373.879	321.33
374.26	310.94
374.641	312.07
375.021	313.88
375.402	305.74
375.783	307.77
376.163	320.66
376.544	327.21
376.925	323.37
377.305	320.43
377.686	345.74
378.066	341.9
378.447	329.02
378.827	328.34
379.208	339.19
379.588	322.01
379.968	330.37
380.349	357.94
380.729	335.57
381.109	344.61
381.489	331.5
381.87	325.4
382.25	358.17
382.63	342.58
383.01	347.55
383.39	342.8
383.77	356.36
384.15	347.32
384.53	357.49
384.91	358.62
385.29	339.19
385.67	369.47
386.049	332.18
386.429	345.74
386.809	352.52
387.189	352.74
387.568	352.52
387.948	379.41
388.328	371.28
388.707	370.82
389.087	371.95
389.466	381.67
389.846	357.26
390.225	373.99
390.605	372.86
390.984	369.02
391.363	377.38
391.743	371.5
392.122	369.92
392.501	380.77
392.881	380.31
393.26	386.87
393.639	379.64
394.018	383.93
394.397	406.98
394.776	402.01
395.155	369.02
395.534	384.83
395.913	396.36
396.292	415.12
396.671	396.81
397.05	409.69
397.429	407.88
397.808	416.7
398.186	410.82
398.565	407.43
398.944	394.78
399.323	401.33
399.701	406.98
400.08	402.24
400.458	421.22
400.837	412.4
401.215	416.47
401.594	401.56
401.972	422.8
402.351	440.2
402.729	409.69
403.107	443.14
403.486	428
403.864	444.72
404.242	436.36
404.62	451.05
404.999	439.97
405.377	481.56
405.755	468.22
406.133	479.52
406.511	478.84
406.889	477.26
407.267	486.53
407.645	484.04
408.023	503.48
408.401	521.33
408.779	513.87
409.156	506.64
409.534	533.53
409.912	536.24
410.29	523.81
410.667	556.13
411.045	554.1
411.422	547.32
411.8	558.62
412.178	588.67
412.555	614.21
412.933	598.39
413.31	578.73
413.687	617.37
414.065	615.56
414.442	640.65
414.819	635
415.197	631.38
415.574	644.71
415.951	666.41
416.328	667.09
416.705	659.4
417.082	665.28
417.46	674.77
417.837	677.03
418.214	693.07
418.591	718.16
418.967	748.89
419.344	721.55
419.721	747.54
420.098	764.49
420.475	755.45
420.852	766.97
421.228	800.87
421.605	811.26
421.982	809.91
422.358	827.08
422.735	822.56
423.111	846.07
423.488	858.27
423.864	870.02
424.241	886.52
424.617	907.53
424.994	929
425.37	926.29
425.746	940.98
426.123	1011.03
426.499	988.21
426.875	996.12
427.251	1007.42
427.627	1023.69
428.003	1016.46
428.379	1059.62
428.756	1077.92
429.132	1074.31
429.507	1078.6
429.883	1107.53
430.259	1116.79
430.635	1138.49
431.011	1135.32
431.387	1179.16
431.763	1157.47
432.138	1171.93
432.514	1221.42
432.89	1200.86
433.265	1247.64
433.641	1295.32
434.016	1279.5
434.392	1291.93
434.767	1335.09
435.143	1378.03
435.518	1387.52
435.894	1396.33
436.269	1416.9
436.644	1453.73
437.02	1475.65
437.395	1463
437.77	1500.51
438.145	1550
438.52	1578.7
438.895	1605.59
439.271	1614.63
439.646	1643.78
440.021	1668.64
440.395	1683.56
440.77	1665.25
441.145	1703.44
441.52	1766.04
441.895	1759.26
442.27	1753.16
442.645	1815.08
443.019	1829.54
443.394	1826.38
443.769	1846.49
444.143	1834.29
444.518	1881.07
444.892	1909.77
445.267	1912.93
445.641	1933.95
446.016	1965.36
446.39	1978.01
446.764	1990.44
447.139	1993.83
447.513	2022.08
447.887	2052.36
448.262	2027.28
448.636	2033.6
449.01	2084.68
449.384	2099.82
449.758	2113.6
450.132	2108.86
450.506	2155.41
450.88	2154.73
451.254	2181.85
451.628	2189.76
452.002	2236.54
452.376	2263.2
452.75	2256.2
453.123	2286.03
453.497	2323.54
453.871	2323.99
454.244	2385.01
454.618	2386.82
454.992	2428.85
455.365	2404.89
455.739	2495.97
456.112	2493.93
456.486	2519.24
456.859	2539.81
457.232	2579.13
457.606	2596.3
457.979	2605.57
458.352	2682.63
458.725	2686.92
459.099	2736.64
459.472	2727.82
459.845	2793.58
460.218	2798.1
460.591	2827.93
460.964	2845.11
461.337	2926.24
461.71	2914.49
462.083	2963.52
462.456	2955.39
462.829	3007.36
463.201	3067.02
463.574	3100.92
463.947	3110.64
464.32	3157.87
464.692	3182.28
465.065	3191.77
465.438	3246.23
465.81	3286.45
466.183	3281.03
466.555	3401.48
466.928	3420.23
467.3	3424.53
467.672	3453.45
468.045	3553.34
468.417	3548.37
468.789	3610.06
469.161	3665.43
469.534	3676.5
469.906	3711.3
470.278	3788.81
470.65	3789.49
471.022	3866.32
471.394	3970.5
471.766	4012.08
472.138	4017.28
472.51	4093.89
472.882	4173.89
473.253	4225.19
473.625	4248.69
473.997	4299.76
474.369	4364.84
474.74	4391.51
475.112	4451.85
475.484	4495.46
475.855	4582.92
476.227	4607.55
476.598	4758.73
476.97	4779.3
477.341	4834.66
477.713	4960.99
478.084	4960.76
478.455	5047.99
478.827	5134.77
479.198	5268.55
479.569	5211.6
479.94	5363.69
480.311	5382.9
480.682	5508.99
481.053	5611.59
481.424	5668.54
481.795	5741.53
482.166	5818.82
482.537	5832.15
482.908	6016.1
483.279	6022.65
483.65	6148.07
484.021	6266.71
484.391	6364.34
484.762	6386.03
485.133	6344.45
485.503	6430.78
485.874	6542.41
486.244	6608.85
486.615	6720.26
486.985	6819.02
487.356	6874.83
487.726	6962.97
488.097	7025.56
488.467	7062.85
488.837	7199.8
489.207	7250.64
489.578	7409.96
489.948	7369.96
490.318	7528.15
490.688	7535.61
491.058	7586
491.428	7728.6
491.798	7771.98
492.168	7910.06
492.538	7935.6
492.908	7975.6
493.278	8077.97
493.648	8141.69
494.017	8174.23
494.387	8238.41
494.757	8247.68
495.126	8329.71
495.496	8404.51
495.866	8383.49
496.235	8482.47
496.605	8528.12
496.974	8579.65
497.344	8593.21
497.713	8652.41
498.082	8707.78
498.452	8751.39
498.821	8825.97
499.19	8828.68
499.559	8888.57
499.928	8901.9
500.298	8901.45
500.667	9013.99
501.036	8959.52
501.405	9059.86
501.774	9030.71
502.143	9158.84
502.512	9119.75
502.88	9237.03
503.249	9103.02
503.618	9166.98
503.987	9144.38
504.356	9270.25
504.724	9292.17
505.093	9315.45
505.462	9341.21
505.83	9335.79
506.199	9401.55
506.567	9527.87
506.936	9469.57
507.304	9541.66
507.672	9529.9
508.041	9566.74
508.409	9634.53
508.777	9633.86
509.145	9700.75
509.514	9652.84
509.882	9716.79
510.25	9628.66
510.618	9759.96
510.986	9708.43
511.354	9776.68
511.722	9840.86
512.09	9879.5
512.458	9889.44
512.826	9969.89
513.193	9874.75
513.561	9933.74
513.929	10014.86
514.297	9933.06
514.664	10025.03
515.032	9970.35
515.4	10021.42
515.767	10018.93
516.135	10054.86
516.502	10039.72
516.869	10147.52
517.237	10069.55
517.604	10075.43
517.972	10063.68
518.339	10049.67
518.706	10080.62
519.073	10097.57
519.44	10115.65
519.808	10187.74
520.175	10218.7
520.542	10253.05
520.909	10255.31
521.276	10162.2
521.643	10257.8
522.009	10206.5
522.376	10282.65
522.743	10271.35
523.11	10348.87
523.477	10345.25
523.843	10342.09
524.21	10398.36
524.577	10406.72
524.943	10350.67
525.31	10427.96
525.676	10442.65
526.043	10380.96
526.409	10442.2
526.776	10483.55
527.142	10461.63
527.508	10465.25
527.874	10500.95
528.241	10444.01
528.607	10406.94
528.973	10482.65
529.339	10460.28
529.705	10531.01
530.071	10490.56
530.437	10528.75
530.803	10430.9
531.169	10479.71
531.535	10415.76
531.901	10422.99
532.267	10458.69
532.632	10373.05
532.998	10348.19
533.364	10481.74
533.73	10361.97
534.095	10425.93
534.461	10390.9
534.826	10317.23
535.192	10356.1
535.557	10367.62
535.923	10334.4
536.288	10323.78
536.653	10318.81
537.019	10189.77
537.384	10198.59
537.749	10183.9
538.114	10161.75
538.479	10112.94
538.845	10098.93
539.21	10075.65
539.575	10046.73
539.94	9976.9
540.305	9933.06
540.67	9872.04
541.034	9996.33
541.399	9973.06
541.764	9883.79
542.129	9907.07
542.494	9830.69
542.858	9903.45
543.223	9759.96
543.587	9840.41
543.952	9668.43
544.316	9682.22
544.681	9639.96
545.045	9630.02
545.41	9711.37
545.774	9621.2
546.138	9619.17
546.503	9594.99
546.867	9525.16
547.231	9499.62
547.595	9488.32
547.959	9483.58
548.324	9398.83
548.688	9414.65
549.052	9427.08
549.416	9388.44
549.779	9356.12
550.143	9311.61
550.507	9286.97
550.871	9302.11
551.235	9143.93
551.599	9265.05
551.962	9211.04
552.326	9201.55
552.689	9107.77
553.053	9070.93
553.417	9045.85
553.78	9147.54
554.143	9018.51
554.507	9004.27
554.87	9035.45
555.234	9055.34
555.597	8936.25
555.96	8958.39
556.323	8957.04
556.686	8906.87
557.05	8927.21
557.413	8936.25
557.776	8928.79
558.139	8898.06
558.502	8939.19
558.865	8904.84
559.228	8905.51
559.59	8885.85
559.953	8880.88
560.316	8964.5
560.679	8882.92
561.041	8874.33
561.404	8880.88
561.767	8882.01
562.129	8871.62
562.492	8906.42
562.854	8858.96
563.217	8849.7
563.579	8830.71
563.941	8821.67
564.304	8861.9
564.666	8903.71
565.028	8894.67
565.39	8916.81
565.753	8933.76
566.115	8936.02
566.477	8902.12
566.839	8901.45
567.201	8959.52
567.563	8971.05
567.925	8983.7
568.287	9008.79
568.648	8970.82
569.01	8991.16
569.372	9075
569.734	9025.29
570.095	9099.86
570.457	9031.39
570.819	9043.36
571.18	9036.81
571.542	9008.34
571.903	9133.98
572.265	9155.9
572.626	9102.8
572.987	9093.76
573.349	9122.68
573.71	9166.07
574.071	9171.5
574.432	9189.57
574.794	9244.26
575.155	9165.85
575.516	9178.28
575.877	9200.65
576.238	9192.96
576.599	9243.36
576.96	9207.65
577.32	9227.09
577.681	9230.25
578.042	9270.48
578.403	9279.06
578.763	9249.01
579.124	9220.31
579.485	9255.34
579.845	9285.39
580.206	9317.03
580.566	9332.62
580.927	9281.55
581.287	9378.5
581.648	9318.61
582.008	9321.32
582.368	9350.25
582.728	9371.49
583.089	9382.11
583.449	9365.16
583.809	9317.93
584.169	9396.8
584.529	9398.61
584.889	9377.59
585.249	9397.93
585.609	9357.03
585.969	9467.31
586.329	9402.68
586.688	9431.38
587.048	9418.95
587.408	9397.03
587.768	9383.92
588.127	9405.39
588.487	9407.2
588.846	9520.87
589.206	9409
589.565	9418.95
589.925	9482.22
590.284	9438.61
590.643	9489.91
591.003	9501.88
591.362	9495.33
591.721	9479.28
592.08	9422.34
592.44	9569
592.799	9445.61
593.158	9521.32
593.517	9458.72
593.876	9452.62
594.235	9482
594.593	9443.13
594.952	9522.9
595.311	9440.42
595.67	9409.46
596.029	9471.38
596.387	9532.16
596.746	9498.49
597.104	9509.79
597.463	9442
597.822	9533.52
598.18	9511.37
598.538	9547.31
598.897	9573.75
599.255	9507.31
599.613	9545.27
599.972	9523.8
600.33	9529.68
600.688	9478.38
601.046	9618.26
601.404	9619.62
601.762	9517.7
602.12	9543.24
602.478	9565.61
602.836	9571.49
603.194	9527.42
603.552	9521.77
603.91	9520.19
604.268	9537.36
604.625	9458.27
604.983	9521.09
605.341	9543.01
605.698	9527.64
606.056	9552.05
606.413	9540.53
606.771	9576.68
607.128	9627.76
607.485	9535.78
607.843	9562.9
608.2	9647.87
608.557	9732.16
608.914	9595.67
609.272	9600.64
609.629	9663.46
609.986	9757.92
610.343	9623.46
610.7	9690.13
611.057	9651.26
611.414	9622.33
611.771	9707.98
612.127	9685.61
612.484	9707.53
612.841	9750.69
613.198	9703.46
613.554	9689.9
613.911	9673.63
614.267	9735.55
614.624	9714.76
614.98	9726.06
615.337	9760.41
615.693	9802.44
616.05	9720.18
616.406	9739.62
616.762	9732.84
617.118	9696.23
617.475	9746.17
617.831	9761.99
618.187	9815.1
618.543	9771.48
618.899	9835.21
619.255	9846.28
619.611	9778.49
619.967	9870.01
620.323	9896
620.678	9858.94
621.034	9801.54
621.39	9824.36
621.746	9805.6
622.101	9964.02
622.457	9740.29
622.812	9837.02
623.168	9782.78
623.523	9879.95
623.879	9882.66
624.234	9857.81
624.589	9790.01
624.945	9818.03
625.3	9865.26
625.655	9789.33
626.01	9844.25
626.365	9843.34
626.72	9820.74
627.075	9812.61
627.43	9873.85
627.785	9780.07
628.14	9804.93
628.495	9834.76
628.85	9826.39
629.205	9754.53
629.559	9809.45
629.914	9798.82
630.269	9723.57
630.623	9811.93
630.978	9764.7
631.332	9804.02
631.687	9737.58
632.041	9765.15
632.396	9728.54
632.75	9742.55
633.104	9698.94
633.459	9667.75
633.813	9664.82
634.167	9701.2
634.521	9630.24
634.875	9696
635.229	9628.89
635.583	9583.91
635.937	9597.93
636.291	9641.99
636.645	9567.87
636.999	9561.54
637.352	9566.29
637.706	9554.99
638.06	9510.92
638.413	9499.62
638.767	9489.23
639.121	9561.32
639.474	9420.98
639.828	9512.96
640.181	9460.53
640.534	9559.51
640.888	9458.95
641.241	9371.26
641.594	9505.27
641.947	9440.64
642.301	9494.43
642.654	9409.91
643.007	9394.99
643.36	9411.49
643.713	9379.63
644.066	9449.23
644.419	9342.79
644.771	9368.55
645.124	9255.56
645.477	9219.86
645.83	9077.26
646.182	9117.71
646.535	9100.09
646.888	9138.5
647.24	9076.36
647.593	9133.53
647.945	9069.13
648.298	9071.16
648.65	9060.76
649.002	9017.83
649.355	9052.86
649.707	9073.87
650.059	9111.38
650.411	9198.39
650.763	9243.58
651.115	9336.01
651.467	9324.03
651.819	9236.81
652.171	9311.38
652.523	9187.31
652.875	9288.1
653.227	9182.57
653.578	9380.3
653.93	9329.01
654.282	9263.47
654.633	9204.04
654.985	9301.21
655.337	9302.34
655.688	9328.33
656.039	9346.86
656.391	9206.07
656.742	9307.99
657.094	9315.22
657.445	9340.31
657.796	9316.35
658.147	9267.09
658.498	9338.72
658.849	9335.33
659.2	9290.14
659.551	9278.84
659.902	9306.18
660.253	9334.2
660.604	9319.74
660.955	9270.7
661.306	9318.61
661.656	9268.67
662.007	9337.59
662.358	9234.55
662.708	9292.62
663.059	9300.98
663.409	9207.43
663.76	9330.81
664.11	9262.12
664.461	9329.91
664.811	9337.59
665.161	9333.53
665.511	9270.02
665.862	9346.41
666.212	9379.4
666.562	9325.84
666.912	9297.82
667.262	9338.72
667.612	9333.75
667.962	9330.59
668.312	9364.94
668.662	9407.42
669.011	9251.04
669.361	9283.36
669.711	9240.42
670.06	9250.36
670.41	9276.13
670.76	9264.38
671.109	9223.25
671.459	9252.85
671.808	9253.98
672.157	9329.91
672.507	9195.22
672.856	9168.11
673.205	9244.71
673.554	9276.35
673.904	9189.12
674.253	9308.89
674.602	9211.27
674.951	9061.44
675.3	9083.36
675.649	9199.97
675.998	9147.32
676.346	9216.01
676.695	9180.31
677.044	9190.03
677.393	9158.84
677.741	9138.5
678.09	9142.8
678.438	9131.5
678.787	9163.13
679.135	9094.66
679.484	9007.21
679.832	9034.78
680.181	8975.34
680.529	8977.38
680.877	9021.9
681.225	8997.94
681.573	9012.86
681.922	8957.04
682.27	8887.89
682.618	8964.5
682.966	8892.41
683.314	8914.55
683.661	8896.02
684.009	8832.52
684.357	8851.96
684.705	8781
685.053	8832.07
685.4	8818.96
685.748	8810.38
686.095	8777.38
686.443	8722.24
686.79	8690.6
687.138	8747.78
687.485	8730.15
687.832	8620.78
688.18	8675.92
688.527	8614.22
688.874	8601.79
689.221	8558.18
689.568	8526.09
689.915	8509.37
690.262	8535.35
690.609	8504.17
690.956	8547.56
691.303	8452.87
691.65	8397.73
691.997	8446.54
692.344	8348.47
692.69	8300.33
693.037	8275.02
693.383	8255.14
693.73	8317.51
694.077	8173.78
694.423	8195.02
694.769	8164.97
695.116	8152.77
695.462	8085.42
695.808	8094.69
696.155	8056.5
696.501	8030.96
696.847	7991.41
697.193	7953.22
697.539	7983.28
697.885	7904.64
698.231	7908.7
698.577	7898.31
698.923	7809.27
699.269	7809.27
699.614	7749.61
699.96	7704.64
700.306	7693.57
700.651	7724.75
700.997	7655.6
701.342	7690.18
701.688	7604.76
702.033	7606.11
702.379	7557.08
702.724	7531.77
703.069	7556.17
703.415	7390.3
703.76	7426.23
704.105	7485.21
704.45	7437.3
704.795	7381.71
705.14	7350.98
705.485	7356.18
705.83	7289.06
706.175	7311.43
706.52	7375.61
706.865	7262.17
707.209	7236.41
707.554	7212.23
707.899	7222.85
708.243	7179.91
708.588	7156.63
708.932	7120.93
709.277	7158.89
709.621	7136.75
709.966	7077.99
710.31	7089.29
710.654	7023.76
710.998	7040.25
711.342	7075.73
711.687	7059.69
712.031	6994.6
712.375	6931.1
712.719	7002.74
713.063	6952.35
713.407	6956.19
713.75	6887.71
714.094	6854.95
714.438	6894.95
714.782	6838.22
715.125	6827.15
715.469	6844.1
715.812	6863.53
716.156	6798
716.499	6823.54
716.843	6836.19
717.186	6754.16
717.53	6742.41
717.873	6821.5
718.216	6784.89
718.559	6744.44
718.902	6685.46
719.246	6778.79
719.589	6631.22
719.932	6675.06
720.275	6650.66
720.617	6630.55
720.96	6630.09
721.303	6686.59
721.646	6636.87
721.989	6647.27
722.331	6639.59
722.674	6611.11
723.016	6626.03
723.359	6577.44
723.701	6620.15
724.044	6549.64
724.386	6534.73
724.729	6573.37
725.071	6546.48
725.413	6555.07
725.755	6611.34
726.097	6560.94
726.439	6562.07
726.782	6527.05
727.124	6516.65
727.465	6574.73
727.807	6543.77
728.149	6531.57
728.491	6552.36
728.833	6542.86
729.175	6525.01
729.516	6516.88
729.858	6511
730.199	6517.78
730.541	6500.15
730.882	6540.15
731.224	6532.24
731.565	6528.63
731.906	6447.5
732.248	6485.01
732.589	6488.85
732.93	6478.46
733.271	6493.37
733.612	6513.26
733.953	6475.52
734.294	6512.58
734.635	6474.84
734.976	6505.13
735.317	6491.11
735.658	6453.6
735.999	6486.82
736.339	6505.13
736.68	6480.04
737.021	6498.57
737.361	6539.25
737.702	6516.88
738.042	6458.57
738.383	6512.13
738.723	6536.76
739.063	6557.55
739.404	6508.29
739.744	6480.04
740.084	6539.47
740.424	6541.51
740.764	6574.05
741.104	6607.72
741.444	6639.13
741.784	6563.66
742.124	6586.03
742.464	6653.6
742.804	6690.21
743.143	6701.28
743.483	6659.02
743.823	6679.13
744.162	6747.61
744.502	6740.6
744.841	6761.16
745.181	6804.1
745.52	6832.57
745.86	6866.25
746.199	6909.18
746.538	6933.14
746.877	6973.59
747.216	6978.56
747.556	7047.94
747.895	7049.07
748.234	7127.03
748.573	7200.25
748.911	7190.76
749.25	7239.12
749.589	7303.3
749.928	7388.72
750.267	7453.35
750.605	7482.73
750.944	7589.39
751.283	7587.81
751.621	7748.26
751.96	7756.39
752.298	7873.9
752.636	7974.92
752.975	8069.6
753.313	8136.95
753.651	8221.92
753.989	8315.02
754.327	8427.56
754.666	8582.13
755.004	8718.85
755.342	8853.99
755.679	8916.59
756.017	9027.55
756.355	9186.41
756.693	9281.1
757.031	9496.69
757.368	9460.53
757.706	9656.68
758.044	9840.63
758.381	9973.51
758.719	10180.74
759.056	10310.9
759.394	10477.68
759.731	10588.63
760.068	10739.36
760.405	10874.73
760.743	11071.33
761.08	11267.26
761.417	11440.59
761.754	11601.49
762.091	11756.06
762.428	11902.72
762.765	12076.73
763.102	12258.65
763.438	12455.25
763.775	12573.89
764.112	12718.52
764.449	12972.3
764.785	13161
765.122	13250.26
765.458	13345.62
765.795	13551.72
766.131	13691.6
766.467	13757.14
766.804	14012.5
767.14	14112.38
767.476	14373.85
767.812	14434.63
768.148	14675.31
768.485	14722.76
768.821	14921.18
769.157	14986.26
769.492	15218.79
769.828	15376.53
770.164	15337.21
770.5	15451.33
770.836	15552.8
771.171	15701.72
771.507	15769.74
771.842	15824.65
772.178	15976.97
772.513	16140.35
772.849	16188.94
773.184	16255.6
773.519	16449.04
773.855	16517.74
774.19	16583.73
774.525	16729.04
774.86	16715.25
775.195	16825.31
775.53	16901.46
775.865	16911.18
776.2	16827.79
776.535	16890.39
776.87	17104.85
777.205	17029.82
777.539	17173.09
777.874	17309.59
778.209	17200.44
778.543	17282.47
778.878	17285.63
779.212	17358.4
779.547	17332.41
779.881	17449.92
780.215	17351.39
780.55	17539.64
780.884	17479.75
781.218	17502.12
781.552	17635.23
781.886	17582.12
782.22	17429.58
782.554	17583.48
782.888	17420.77
783.222	17492.63
783.556	17496.7
783.889	17597.04
784.223	17358.85
784.557	17485.63
784.89	17609.69
785.224	17472.97
785.557	17536.02
785.891	17434.56
786.224	17407.89
786.558	17507.1
786.891	17439.3
787.224	17407.21
787.557	17419.87
787.891	17390.94
788.224	17470.71
788.557	17366.99
788.89	17376.03
789.223	17404.95
789.556	17383.26
789.888	17312.3
790.221	17247.44
790.554	17153.66
790.887	17237.95
791.219	17184.62
791.552	17238.85
791.884	17141.91
792.217	17205.41
792.549	17055.58
792.882	17066.43
793.214	16987.79
793.546	17096.49
793.879	16908.92
794.211	16938.98
794.543	16953.89
794.875	16850.62
795.207	16983.04
795.539	16839.09
795.871	16831.63
796.203	16691.07
796.535	16619.44
796.867	16710.96
797.198	16671.64
797.53	16589.61
797.862	16519.33
798.193	16598.65
798.525	16439.78
798.856	16520
799.188	16395.71
799.519	16331.76
799.85	16162.95
800.182	16260.8
800.513	16305.32
800.844	16190.07
801.175	16319.33
801.506	16266.22
801.837	16125.44
802.168	16075.95
802.499	16126.34
802.83	16040.69
803.161	16019.9
803.491	15962.96
803.822	16048.38
804.153	15924.09
804.483	15877.99
804.814	15835.95
805.145	15827.82
805.475	15762.06
805.805	15770.64
806.136	15806.35
806.466	15705.34
806.796	15656.52
807.126	15507.37
807.457	15573.14
807.787	15614.72
808.117	15523.19
808.447	15397.77
808.777	15514.38
809.107	15486.58
809.436	15345.8
809.766	15313.26
810.096	15266.7
810.426	15246.14
810.755	15321.39
811.085	15211.79
811.414	15158.46
811.744	15109.65
812.073	15105.13
812.403	15111
812.732	14994.17
813.061	14988.74
813.39	14925.92
813.719	14897.9
814.049	15008.18
814.378	14921.85
814.707	14870.78
815.036	14885.24
815.365	14772.48
815.693	14726.38
816.022	14717.34
816.351	14641.86
816.68	14620.62
817.008	14670.33
817.337	14607.74
817.665	14480.28
817.994	14675.76
818.322	14600.96
818.651	14515.31
818.979	14427.4
819.307	14512.15
819.636	14516.21
819.964	14460.85
820.292	14522.77
820.62	14495.2
820.948	14390.57
821.276	14420.85
821.604	14462.88
821.932	14471.47
822.259	14386.95
822.587	14297.69
822.915	14354.18
823.243	14379.49
823.57	14366.16
823.898	14363
824.225	14366.61
824.553	14366.84
824.88	14317.58
825.207	14421.3
825.535	14365.71
825.862	14389.44
826.189	14307.63
826.516	14481.64
826.843	14414.97
827.17	14529.32
827.497	14452.26
827.824	14361.42
828.151	14490.23
828.478	14463.56
828.805	14552.15
829.131	14456.1
829.458	14494.52
829.785	14387.63
830.111	14419.72
830.438	14462.2
830.764	14420.62
831.09	14461.75
831.417	14378.14
831.743	14464.01
832.069	14379.95
832.395	14356.67
832.722	14431.47
833.048	14327.74
833.374	14390.79
833.7	14333.39
834.026	14369.1
834.351	14369.55
834.677	14273.06
835.003	14401.19
835.329	14379.49
835.654	14256.33
835.98	14304.69
836.306	14233.51
836.631	14168.88
836.956	14288.42
837.282	14233.96
837.607	14165.72
837.932	14106.73
838.258	14244.13
838.583	14144.25
838.908	14099.5
839.233	14096.34
839.558	14056.34
839.883	14016.34
840.208	13965.49
840.533	13930.24
840.858	13953.07
841.182	13949.22
841.507	13898.83
841.832	13890.02
842.156	13875.33
842.481	13798.49
842.805	13856.8
843.13	13763.01
843.454	13806.63
843.778	13791.49
844.103	13735.22
844.427	13659.29
844.751	13591.04
845.075	13702.22
845.399	13537.48
845.723	13451.61
846.047	13540.87
846.371	13368.67
846.695	13434.89
847.019	13380.88
847.343	13174.1
847.666	13064.95
847.99	13107.89
848.313	13083.48
848.637	13022.69
848.96	13038.97
849.284	12909.7
849.607	12912.64
849.931	12873.09
850.254	12881.23
850.577	12725.98
850.9	12609.6
851.223	12636.26
851.546	12584.97
851.869	12459.55
852.192	12542.48
852.515	12387.68
852.838	12317.63
853.161	12404.63
853.483	12351.98
853.806	12301.58
854.129	12208.03
854.451	12207.8
854.774	12093.45
855.096	12095.94
855.419	12095.26
855.741	12042.83
856.063	12017.07
856.385	12005.77
856.708	11881.93
857.03	11836.06
857.352	11911.99
857.674	11808.94
857.996	11781.82
858.318	11737.53
858.64	11678.32
858.961	11637.19
859.283	11642.39
859.605	11551.55
859.926	11639.91
860.248	11546.8
860.57	11509.29
860.891	11512.68
861.212	11484.43
861.534	11456.41
861.855	11470.19
862.176	11364.66
862.498	11338.9
862.819	11390.87
863.14	11302.51
863.461	11297.32
863.782	11285.56
864.103	11285.79
864.424	11282.63
864.745	11317.43
865.065	11220.03
865.386	11163.53
865.707	11162.63
866.027	11111.11
866.348	11134.83
866.668	11119.47
866.989	11059.13
867.309	10933.26
867.63	11080.6
867.95	11012.35
868.27	10956.53
868.59	11028.85
868.91	10976.87
869.23	10966.03
869.55	10933.94
869.87	10963.09
870.19	10913.82
870.51	10930.77
870.83	10930.32
871.15	10777.1
871.469	10856.42
871.789	10859.59
872.109	10854.16
872.428	10780.04
872.748	10780.04
873.067	10705.24
873.386	10753.83
873.706	10695.52
874.025	10646.49
874.344	10637.45
874.663	10620.72
874.982	10641.29
875.301	10568.52
875.62	10602.42
875.939	10589.31
876.258	10571.46
876.577	10651.46
876.896	10561.29
877.214	10481.29
877.533	10499.6
877.852	10411.69
878.17	10521.97
878.489	10481.74
878.807	10441.52
879.125	10374.63
879.444	10382.54
879.762	10401.07
880.08	10447.39
880.398	10353.16
880.716	10360.84
881.034	10300.28
881.352	10338.02
881.67	10266.61
881.988	10230.45
882.306	10272.48
882.624	10155.43
882.941	10151.13
883.259	10169.89
883.577	10030.68
883.894	10072.94
884.212	10079.04
884.529	10030.91
884.846	10074.75
885.164	9987.97
885.481	10018.93
885.798	9951.36
886.115	9915.21
886.432	9915.88
886.75	9914.98
887.067	9876.34
887.383	9850.57
887.7	9866.39
888.017	9775.32
888.334	9825.49
888.651	9780.29
888.967	9716.57
889.284	9631.82
889.6	9661.2
889.917	9616.68
890.233	9641.31
890.55	9559.06
890.866	9611.48
891.182	9584.82
891.498	9543.92
891.815	9492.62
892.131	9423.69
892.447	9439.06
892.763	9400.87
893.079	9385.5
893.395	9281.55
893.71	9345.5
894.026	9302.34
894.342	9270.48
894.657	9230.7
894.973	9126.3
895.289	9178.73
895.604	9223.92
895.92	9093.53
896.235	9086.07
896.55	9039.07
896.865	9046.98
897.181	9032.52
897.496	9020.31
897.811	8884.05
898.126	8931.28
898.441	8836.59
898.756	8882.92
899.071	8786.87
899.386	8759.08
899.7	8650.15
900.015	8651.74
900.33	8649.02
900.644	8579.42
900.959	8619.87
901.273	8549.14
901.588	8573.77
901.902	8501.68
902.216	8492.42
902.531	8445.87
902.845	8368.35
903.159	8371.74
903.473	8299.43
903.787	8310.73
904.101	8238.64
904.415	8261.24
904.729	8243.16
905.042	8195.93
905.356	8152.77
905.67	8086.33
905.984	8117.06
906.297	8102.6
906.611	8045.88
906.924	8027.8
907.237	8008.59
907.551	7987.8
907.864	7954.35
908.177	7865.99
908.491	7843.17
908.804	7798.42
909.117	7789.39
909.43	7772.89
909.743	7651.31
910.056	7728.6
910.368	7634.59
910.681	7615.38
910.994	7658.77
911.307	7541.26
911.619	7552.56
911.932	7482.05
912.244	7437.08
912.557	7335.84
912.869	7410.19
913.181	7369.28
913.494	7336.06
913.806	7289.96
914.118	7275.27
914.43	7246.57
914.742	7165.22
915.054	7164.77
915.366	7188.5
915.678	7144.66
915.99	7100.14
916.302	7060.37
916.613	7027.82
916.925	7004.77
917.236	7026.69
917.548	6958.67
917.859	6940.14
918.171	6931.56
918.482	6793.48
918.794	6837.32
919.105	6843.87
919.416	6767.49
919.727	6794.38
920.038	6774.05
920.349	6731.33
920.66	6732.01
920.971	6683.2
921.282	6647.95
921.593	6571.56
921.903	6547.38
922.214	6600.72
922.525	6501.28
922.835	6508.74
923.146	6429.87
923.456	6377.45
923.767	6382.64
924.077	6451.12
924.387	6402.08
924.697	6297.67
925.008	6297
925.318	6290.67
925.628	6295.19
925.938	6243.44
926.248	6205.7
926.558	6191.91
926.867	6173.16
927.177	6131.8
927.487	6116.44
927.796	6080.28
928.106	6039.83
928.416	6057.68
928.725	6032.6
929.034	5978.81
929.344	5957.12
929.653	5962.99
929.962	5889.1
930.271	5920.28
930.581	5906.72
930.89	5864.69
931.199	5807.06
931.508	5794.18
931.817	5819.49
932.125	5762.77
932.434	5726.16
932.743	5690.91
933.051	5619.73
933.36	5671.02
933.669	5584.7
933.977	5620.86
934.286	5593.06
934.594	5579.73
934.902	5534.53
935.21	5505.83
935.519	5508.77
935.827	5478.71
936.135	5461.31
936.443	5414.98
936.751	5376.79
937.059	5384.03
937.367	5374.08
937.674	5357.59
937.982	5316.68
938.29	5278.04
938.597	5291.15
938.905	5207.98
939.213	5247.98
939.52	5174.31
939.827	5233.52
940.135	5147.42
940.442	5151.49
940.749	5124.6
941.056	5124.14
941.363	5061.1
941.67	5080.53
941.977	5006.86
942.284	5026.29
942.591	5003.02
942.898	4941.1
943.205	4930.25
943.511	4903.13
943.818	4892.96
944.125	4862
944.431	4854.32
944.738	4823.81
945.044	4819.07
945.35	4806.19
945.657	4769.35
945.963	4761.22
946.269	4742.23
946.575	4739.52
946.881	4669.92
947.187	4659.07
947.493	4681.9
947.799	4630.15
948.105	4639.41
948.41	4583.14
948.716	4527.1
949.022	4577.94
949.327	4592.18
949.633	4544.73
949.938	4517.16
950.244	4472.64
950.549	4462.47
950.854	4455.01
951.16	4443.71
951.465	4450.49
951.77	4372.75
952.075	4387.89
952.38	4340.89
952.685	4367.33
952.99	4296.14
953.294	4258.4
953.599	4259.31
953.904	4230.38
954.209	4233.77
954.513	4272.87
954.818	4228.8
955.122	4202.14
955.426	4139.09
955.731	4170.72
956.035	4148.13
956.339	4111.52
956.643	4131.63
956.948	4089.14
957.252	4046.43
957.556	4041.24
957.86	4010.28
958.163	4046.21
958.467	4002.59
958.771	4009.15
959.075	3938.64
959.378	3975.02
959.682	3931.63
959.985	3911.07
960.289	3896.83
960.592	3853.67
960.896	3883.5
961.199	3822.26
961.502	3770.06
961.805	3828.13
962.108	3745.42
962.411	3808.02
962.714	3766.89
963.017	3759.44
963.32	3738.42
963.623	3735.71
963.926	3724.18
964.228	3705.2
964.531	3676.05
964.833	3654.35
965.136	3679.21
965.438	3627.69
965.741	3602.15
966.043	3589.95
966.345	3549.05
966.648	3580.91
966.95	3561.02
967.252	3499.33
967.554	3501.81
967.856	3546.11
968.158	3496.84
968.46	3474.92
968.761	3434.92
969.063	3443.06
969.365	3377.3
969.666	3422.27
969.968	3369.84
970.269	3387.02
970.571	3354.47
970.872	3358.77
971.174	3295.27
971.475	3346.56
971.776	3298.2
972.077	3293.46
972.378	3247.13
972.679	3271.09
972.98	3237.41
973.281	3251.43
973.582	3216.62
973.883	3176.85
974.183	3182.73
974.484	3170.52
974.785	3177.08
975.085	3175.27
975.386	3148.83
975.686	3103.63
975.986	3137.08
976.287	3075.16
976.587	3082.39
976.887	3070.41
977.187	3098.21
977.487	3046.01
977.787	3053.46
978.087	3037.42
978.387	2954.94
978.687	2992.45
978.987	2996.97
979.286	2972.56
979.586	2953.58
979.885	2921.72
980.185	2930.76
980.484	2895.28
980.784	2889.4
981.083	2834.26
981.382	2839.01
981.682	2833.13
981.981	2849.63
982.28	2827.26
982.579	2818.67
982.878	2817.54
983.177	2797.2
983.475	2783.87
983.774	2776.41
984.073	2764.88
984.372	2770.76
984.67	2698.9
984.969	2740.93
985.267	2710.42
985.566	2698.9
985.864	2654.38
986.162	2703.64
986.461	2648.73
986.759	2656.87
987.057	2607.83
987.355	2594.95
987.653	2615.28
987.951	2602.63
988.249	2597.66
988.547	2607.37
988.844	2573.48
989.142	2547.26
989.44	2553.14
989.737	2519.92
990.035	2513.37
990.332	2497.55
990.63	2489.64
990.927	2461.84
991.224	2451.22
991.521	2447.83
991.819	2472.46
992.116	2427.94
992.413	2439.02
992.71	2387.72
993.006	2423.42
993.303	2401.5
993.6	2378.23
993.897	2406.25
994.193	2394.05
994.49	2300.72
994.787	2306.37
995.083	2294.84
995.379	2317.44
995.676	2290.32
995.972	2281.96
996.268	2283.54
996.565	2218.23
996.861	2228.18
997.157	2246.25
997.453	2244.9
997.749	2219.36
998.044	2222.98
998.34	2187.27
998.636	2196.31
998.932	2195.41
999.227	2138.91
999.523	2149.99
999.818	2127.39
1000.114	2105.69
1000.409	2146.82
1000.704	2076.09
1001	2087.39
1001.295	2070.89
1001.59	2092.36
1001.885	2101.63
1002.18	2056.2
1002.475	2038.12
1002.77	2065.47
1003.065	2014.17
1003.359	1991.35
1003.654	2031.8
1003.949	1995.41
1004.243	1989.31
1004.538	1960.39
1004.832	1982.53
1005.127	1923.55
1005.421	1944.34
1005.715	1895.08
1006.009	1902.53
1006.304	1879.48
1006.598	1841.07
1006.892	1869.32
1007.186	1875.87
1007.48	1841.07
1007.773	1845.81
1008.067	1839.94
1008.361	1821.18
1008.655	1816.66
1008.948	1813.72
1009.242	1763.1
1009.535	1752.71
1009.829	1784.12
1010.122	1757
1010.415	1752.48
1010.708	1747.51
1011.001	1756.32
1011.295	1706.83
1011.588	1731.69
1011.881	1681.98
1012.173	1675.65
1012.466	1683.78
1012.759	1646.27
1013.052	1677
1013.344	1677
1013.637	1647.4
1013.93	1626.16
1014.222	1635.2
1014.514	1644.01
1014.807	1596.78
1015.099	1609.21
1015.391	1574.63
1015.683	1571.7
1015.976	1591.58
1016.268	1579.83
1016.56	1568.98
1016.851	1537.8
1017.143	1508.19
1017.435	1532.37
1017.727	1502.32
1018.018	1506.84
1018.31	1508.42
1018.602	1491.47
1018.893	1498.25
1019.185	1481.98
1019.476	1452.6
1019.767	1483.34
1020.058	1448.31
1020.35	1414.41
1020.641	1436.11
1020.932	1412.15
1021.223	1399.27
1021.514	1394.98
1021.804	1371.48
1022.095	1383.23
1022.386	1376.67
1022.677	1357.92
1022.967	1348.2
1023.258	1334.19
1023.548	1330.35
1023.839	1293.96
1024.129	1314.08
1024.419	1301.65
1024.709	1280.86
1025	1276.79
1025.29	1270.01
1025.58	1270.23
1025.87	1268.2
1026.16	1246.51
1026.449	1219.61
1026.739	1229.56
1027.029	1243.57
1027.319	1245.6
1027.608	1201.08
1027.898	1194.98
1028.187	1206.28
1028.477	1172.16
1028.766	1183.01
1029.055	1186.85
1029.344	1171.71
1029.634	1178.26
1029.923	1170.58
1030.212	1123.57
1030.501	1159.5
1030.79	1145.49
1031.078	1133.97
1031.367	1126.51
1031.656	1106.85
1031.945	1111.6
1032.233	1083.8
1032.522	1077.02
1032.81	1107.3
1033.099	1060.97
1033.387	1074.99
1033.675	1067.3
1033.963	1060.75
1034.251	1051.03
1034.54	1054.87
1034.828	1035.44
1035.116	1009.9
1035.403	1011.48
1035.691	1018.26
1035.979	1009.9
1036.267	1008.77
1036.554	1001.32
1036.842	971.94
1037.129	999.51
1037.417	958.6
1037.704	978.49
1037.992	994.08
1038.279	980.98
1038.566	943.46
1038.853	943.46
1039.14	943.46
