Data from hue_28_FLMS001491_00050.txt Node
Date: Tue Feb 07 17:17:21 GMT 2017
User: dcchb
Spectrometer: FLMS00149
Trigger mode: 0
Integration Time (sec): 2.000000E-2
Scans to average: 10
Electric dark correction enabled: true
Nonlinearity correction enabled: false
Boxcar width: 0
XAxis mode: Wavelengths
Number of Pixels in Spectrum: 2048
>>>>>Begin Spectral Data<<<<<
341.393	-11.43
341.776	-11.43
342.16	-11.43
342.543	-37.41
342.927	-66.57
343.31	-67.24
343.693	-82.38
344.077	-80.13
344.46	-56.62
344.843	-63.63
345.226	-35.15
345.61	-22.27
345.993	-31.99
346.376	6.2
346.759	8.69
347.142	33.54
347.525	23.83
347.908	57.72
348.291	94.33
348.674	95.92
349.057	119.19
349.44	124.62
349.823	135.24
350.206	155.12
350.588	199.42
350.971	210.49
351.354	233.54
351.737	243.03
352.119	251.17
352.502	268.11
352.884	285.97
353.267	285.97
353.65	294.1
354.032	296.59
354.414	320.99
354.797	318.96
355.179	314.44
355.562	320.99
355.944	335.91
356.326	343.82
356.709	319.41
357.091	339.3
357.473	347.21
357.855	336.36
358.238	353.54
358.62	335.68
359.002	332.97
359.384	356.02
359.766	348.34
360.148	345.17
360.53	328.68
360.912	319.41
361.294	327.77
361.676	329.58
362.057	326.64
362.439	340.65
362.821	339.75
363.203	342.24
363.584	323.48
363.966	334.55
364.348	317.15
364.729	324.16
365.111	320.32
365.493	347.89
365.874	303.14
366.256	334.33
366.637	328
367.019	314.89
367.4	306.76
367.781	336.14
368.163	307.44
368.544	326.87
368.925	337.49
369.306	342.69
369.688	335.68
370.069	327.32
370.45	337.72
370.831	309.47
371.212	324.38
371.593	313.08
371.974	317.38
372.355	323.48
372.736	328.9
373.117	321.67
373.498	315.8
373.879	323.71
374.26	328.9
374.641	314.21
375.021	306.08
375.402	333.2
375.783	320.99
376.163	329.13
376.544	351.05
376.925	317.15
377.305	333.65
377.686	308.34
378.066	339.75
378.447	345.17
378.827	338.17
379.208	320.54
379.588	332.52
379.968	336.14
380.349	338.85
380.729	338.62
381.109	335.91
381.489	343.37
381.87	320.99
382.25	333.88
382.63	337.72
383.01	357.38
383.39	358.96
383.77	346.53
384.15	342.24
384.53	352.18
384.91	359.19
385.29	355.57
385.67	347.21
386.049	364.16
386.429	352.18
386.809	354.21
387.189	373.42
387.568	375.91
387.948	367.55
388.328	356.93
388.707	361.45
389.087	360.99
389.466	363.25
389.846	377.49
390.225	368.9
390.605	363.25
390.984	375.91
391.363	343.82
391.743	384.04
392.122	376.36
392.501	388.11
392.881	370.71
393.26	378.39
393.639	375.91
394.018	396.47
394.397	382.91
394.776	382.24
395.155	364.61
395.534	372.29
395.913	383.14
396.292	389.02
396.671	399.41
397.05	370.26
397.429	369.13
397.808	407.77
398.186	402.57
398.565	398.05
398.944	384.72
399.323	412.07
399.701	404.83
400.08	415.46
400.458	423.14
400.837	386.98
401.215	380.88
401.594	402.12
401.972	400.09
402.351	392.4
402.729	405.96
403.107	410.03
403.486	400.77
403.864	400.31
404.242	424.49
404.62	412.29
404.999	413.65
405.377	425.62
405.755	442.57
406.133	420.2
406.511	426.53
406.889	427.21
407.267	424.95
407.645	420.88
408.023	448.9
408.401	426.3
408.779	426.98
409.156	442.35
409.534	461.33
409.912	457.71
410.29	459.3
410.667	465.85
411.045	449.13
411.422	457.94
411.8	456.36
412.178	463.14
412.555	453.87
412.933	467.21
413.31	478.05
413.687	469.92
414.065	484.15
414.442	499.29
414.819	492.29
415.197	504.49
415.574	491.61
415.951	492.97
416.328	517.6
416.705	488.67
417.082	508.33
417.46	514.21
417.837	507.43
418.214	518.5
418.591	517.83
418.967	490.48
419.344	517.6
419.721	522.12
420.098	523.93
420.475	532.51
420.852	537.49
421.228	528.45
421.605	529.8
421.982	548.11
422.358	527.77
422.735	543.36
423.111	551.27
423.488	537.03
423.864	543.36
424.241	555.79
424.617	563.25
424.994	550.37
425.37	566.86
425.746	549.46
426.123	567.09
426.499	578.39
426.875	579.07
427.251	569.35
427.627	576.81
428.003	585.62
428.379	602.57
428.756	581.78
429.132	607.99
429.507	615.68
429.883	626.52
430.259	591.5
430.635	619.52
431.011	633.75
431.387	618.39
431.763	640.31
432.138	642.79
432.514	665.84
432.89	648.22
433.265	663.36
433.641	662.45
434.016	657.48
434.392	676.69
434.767	662.91
435.143	652.06
435.518	675.79
435.894	685.96
436.269	701.32
436.644	685.96
437.02	707.88
437.395	705.84
437.77	697.03
438.145	712.4
438.52	689.57
438.895	734.77
439.271	728.67
439.646	737.48
440.021	762.56
440.395	752.62
440.77	767.54
441.145	749.23
441.52	761.89
441.895	768.21
442.27	756.92
442.645	760.98
443.019	775.67
443.394	787.42
443.769	787.42
444.143	739.97
444.518	792.39
444.892	780.42
445.267	803.92
445.641	812.73
446.016	810.25
446.39	776.58
446.764	819.96
447.139	822
447.513	811.38
447.887	803.69
448.262	812.05
448.636	811.83
449.01	864.48
449.384	839.62
449.758	859.51
450.132	853.18
450.506	881.43
450.88	873.75
451.254	875.78
451.628	868.1
452.002	900.19
452.376	891.83
452.75	886.86
453.123	925.95
453.497	913.3
453.871	929.34
454.244	918.04
454.618	928.21
454.992	941.09
455.365	945.61
455.739	971.37
456.112	948.77
456.486	971.37
456.859	1007.98
457.232	999.62
457.606	991.71
457.979	998.26
458.352	1006.17
458.725	1009.11
459.099	1013.63
459.472	1038.72
459.845	1032.16
460.218	1057.02
460.591	1068.77
460.964	1083.69
461.337	1107.87
461.71	1126.62
462.083	1112.39
462.456	1163.23
462.829	1111.03
463.201	1141.31
463.574	1156.68
463.947	1162.78
464.32	1168.43
464.692	1184.25
465.065	1179.73
465.438	1203.91
465.81	1256.56
466.183	1230.12
466.555	1297.92
466.928	1254.08
467.3	1280.97
467.672	1317.58
468.045	1319.84
468.417	1310.35
468.789	1348.09
469.161	1351.48
469.534	1402.77
469.906	1411.59
470.278	1425.37
470.65	1433.06
471.022	1453.39
471.394	1481.64
471.766	1469.66
472.138	1529.78
472.51	1531.36
472.882	1595.54
473.253	1571.81
473.625	1621.53
473.997	1629.43
474.369	1635.99
474.74	1656.55
475.112	1708.3
475.484	1742.65
475.855	1805.02
476.227	1802.31
476.598	1843.67
476.97	1880.5
477.341	1913.27
477.713	1939.71
478.084	1946.94
478.455	2018.35
478.827	2037.56
479.198	2087.95
479.569	2106.94
479.94	2151
480.311	2196.65
480.682	2249.53
481.053	2326.14
481.424	2334.95
481.795	2376.76
482.166	2428.06
482.537	2452.46
482.908	2492.01
483.279	2575.62
483.65	2610.65
484.021	2632.57
484.391	2700.14
484.762	2741.95
485.133	2795.96
485.503	2816.07
485.874	2874.83
486.244	2936.07
486.615	2989.17
486.985	3065.55
487.356	3121.37
487.726	3147.59
488.097	3237.53
488.467	3263.97
488.837	3310.97
489.207	3377.86
489.578	3433.68
489.948	3486.79
490.318	3499.89
490.688	3561.59
491.058	3664.18
491.428	3713.22
491.798	3740.57
492.168	3800.68
492.538	3851.97
492.908	3902.6
493.278	3957.73
493.648	3973.55
494.017	4011.29
494.387	4120.67
494.757	4113.89
495.126	4186.2
495.496	4267.56
495.866	4270.95
496.235	4355.92
496.605	4383.49
496.974	4380.32
497.344	4478.4
497.713	4482.47
498.082	4550.94
498.452	4630.49
498.821	4629.13
499.19	4650.6
499.559	4643.59
499.928	4703.25
500.298	4755.23
500.667	4826.64
501.036	4858.05
501.405	4877.48
501.774	4905.73
502.143	4963.36
502.512	4983.7
502.88	5008.55
503.249	5017.82
503.618	5077.03
503.987	5101.66
504.356	5150.47
504.724	5181.21
505.093	5204.03
505.462	5264.14
505.83	5256.91
506.199	5315.89
506.567	5408.09
506.936	5389.11
507.304	5422.1
507.672	5445.83
508.041	5480.63
508.409	5536.45
508.777	5528.09
509.145	5570.35
509.514	5605.6
509.882	5612.61
510.25	5694.86
510.618	5652.83
510.986	5691.93
511.354	5714.52
511.722	5750.68
512.09	5801.53
512.458	5822.54
512.826	5915.2
513.193	5883.11
513.561	5840.17
513.929	5954.07
514.297	6008.75
514.664	6009.66
515.032	6044.01
515.4	6164
515.767	6090.11
516.135	6149.32
516.502	6079.04
516.869	6280.16
517.237	6234.74
517.604	6210.56
517.972	6295.98
518.339	6311.12
518.706	6254.17
519.073	6367.16
519.44	6331.91
519.808	6406.94
520.175	6388.86
520.542	6498.01
520.909	6487.61
521.276	6506.37
521.643	6571.68
522.009	6560.83
522.376	6600.15
522.743	6630.88
523.11	6687.38
523.477	6778
523.843	6756.98
524.21	6813.48
524.577	6905.23
524.943	6919.01
525.31	6924.66
525.676	6957.66
526.043	7027.26
526.409	7056.18
526.776	7151.78
527.142	7210.53
527.508	7193.58
527.874	7288.04
528.241	7284.43
528.607	7342.5
528.973	7364.65
529.339	7338.21
529.705	7460.24
530.071	7483.74
530.437	7502.05
530.803	7512.67
531.169	7590.86
531.535	7578.88
531.901	7654.13
532.267	7628.82
532.632	7727.13
532.998	7733.45
533.364	7813.23
533.73	7788.37
534.095	7826.56
534.461	7915.82
534.826	7926.44
535.192	7927.35
535.557	7985.43
535.923	8037.18
536.288	8055.71
536.653	8100.9
537.019	8063.39
537.384	8116.04
537.749	8181.8
538.114	8170.05
538.479	8229.26
538.845	8266.55
539.21	8238.07
539.575	8302.25
539.94	8337.96
540.305	8398.07
540.67	8433.78
541.034	8368.01
541.399	8493.89
541.764	8496.37
542.129	8530.5
542.494	8517.39
542.858	8584.05
543.223	8609.14
543.587	8695.01
543.952	8669.25
544.316	8745.63
544.681	8780.66
545.045	8826.53
545.41	8865.63
545.774	8842.8
546.138	8911.95
546.503	8938.85
546.867	8914.89
547.231	9049.58
547.595	9036.92
547.959	9061.56
548.324	9104.94
548.688	9038.96
549.052	9109.24
549.416	9160.99
549.779	9248.44
550.143	9210.48
550.507	9303.36
550.871	9330.02
551.235	9341.32
551.599	9335.45
551.962	9389.91
552.326	9460.64
552.689	9462.22
553.053	9485.5
553.417	9476.23
553.78	9643.91
554.143	9608.43
554.507	9606.63
554.87	9599.62
555.234	9718.04
555.597	9664.03
555.96	9741.09
556.323	9807.52
556.686	9788.09
557.05	9859.95
557.413	9834.87
557.776	9952.15
558.139	9971.36
558.502	9905.38
558.865	9970.23
559.228	10079.16
559.59	10086.61
559.953	10175.42
560.316	10222.65
560.679	10174.52
561.041	10289.77
561.404	10249.55
561.767	10322.99
562.129	10350.11
562.492	10370.22
562.854	10412.93
563.217	10457
563.579	10507.85
563.941	10522.31
564.304	10596.43
564.666	10574.51
565.028	10622.64
565.39	10618.8
565.753	10708.97
566.115	10670.33
566.477	10830.55
566.839	10807.05
567.201	10888.63
567.563	10925.91
567.925	10960.71
568.287	10955.97
568.648	11051.33
569.01	11049.75
569.372	11157.55
569.734	11111.45
570.095	11200.03
570.457	11371.55
570.819	11307.82
571.18	11375.39
571.542	11382.17
571.903	11432.11
572.265	11543.98
572.626	11573.81
572.987	11612.45
573.349	11737.87
573.71	11768.15
574.071	11787.59
574.432	11880.24
574.794	11986.68
575.155	12036.84
575.516	12037.75
575.877	12078.88
576.238	12178.31
576.599	12338.08
576.96	12369.04
577.32	12402.03
577.681	12444.52
578.042	12567.68
578.403	12670.27
578.763	12746.2
579.124	12842.7
579.485	12985.75
579.845	13121.56
580.206	13209.7
580.566	13435.23
580.927	13457.37
581.287	13667.08
581.648	13738.04
582.008	13882.9
582.368	13974.87
582.728	14175.77
583.089	14329.44
583.449	14488.53
583.809	14667.74
584.169	14833.61
584.529	14983.89
584.889	15314.95
585.249	15324.44
585.609	15566.02
585.969	15785.67
586.329	16014.82
586.688	16237.19
587.048	16427.01
587.408	16650.51
587.768	16802.14
588.127	17036.04
588.487	17199.42
588.846	17702.68
589.206	17788.11
589.565	18124.82
589.925	18435.09
590.284	18594.86
590.643	18871.69
591.003	19211.8
591.362	19455.63
591.721	19706.93
592.08	19990.76
592.44	20361.6
592.799	20587.58
593.158	20867.8
593.517	21096.49
593.876	21427.56
594.235	21687.44
594.593	22023.93
594.952	22464.14
595.311	22512.28
595.67	22883.11
596.029	23431.57
596.387	23520.61
596.746	23946.81
597.104	24160.82
597.463	24462.05
597.822	24832.67
598.18	24912.89
598.538	25281.92
598.897	25701.8
599.255	25851.4
599.613	26454.54
599.972	26541.55
600.33	26868.32
600.688	27050.46
601.046	27486.61
601.404	27849.76
601.762	27951.23
602.12	28452.91
602.478	28629.4
602.836	28992.1
603.194	28930.86
603.552	29325.88
603.91	29545.31
604.268	29867.79
604.625	30201.11
604.983	30442.01
605.341	30503.7
605.698	30910.02
606.056	31356.11
606.413	31380.97
606.771	31753.84
607.128	32072.25
607.485	32093.04
607.843	32331
608.2	32815.51
608.557	32976.63
608.914	33027.03
609.272	33428.15
609.629	33700
609.986	33968.47
610.343	33945.42
610.7	34411.4
611.057	34557.61
611.414	34594.9
611.771	34808.68
612.127	35151.27
612.484	35356.23
612.841	35563.01
613.198	35610.46
613.554	35865.14
613.911	36224.01
614.267	36347.62
614.624	36356.66
614.98	36602.75
615.337	36905.57
615.693	37041.38
616.05	37074.6
616.406	37524.99
616.762	37536.29
617.118	37704.64
617.475	37856.5
617.831	37982.38
618.187	38052.66
618.543	38231.41
618.899	38558.86
619.255	38584.4
619.611	38693.77
619.967	38911.84
620.323	39051.05
620.678	39065.74
621.034	39001.11
621.39	39270.03
621.746	39192.06
622.101	39628.89
622.457	39418.05
622.812	39583.24
623.168	39727.19
623.523	40019.84
623.879	40043.79
624.234	39864.59
624.589	40002.21
624.945	40297.34
625.3	40321.52
625.655	40427.06
626.01	40427.06
626.365	40520.39
626.72	40449.88
627.075	40559.26
627.43	40560.39
627.785	40618.69
628.14	40907.27
628.495	41031.79
628.85	40976.87
629.205	40792.47
629.559	41184.78
629.914	40950.43
630.269	41029.3
630.623	41130.54
630.978	41013.03
631.332	41277.88
631.687	41326.92
632.041	41261.39
632.396	41236.53
632.75	41164.67
633.104	41360.82
633.459	41253.7
633.813	41215.29
634.167	41213.48
634.521	41173.48
634.875	41168.51
635.229	41227.26
635.583	41007.61
635.937	41220.26
636.291	41126.7
636.645	41203.76
636.999	41152.01
637.352	41275.62
637.706	41098
638.06	41258.22
638.413	41273.59
638.767	41199.69
639.121	41149.75
639.474	41136.42
639.828	41045.57
640.181	41116.08
640.534	41180.94
640.888	41004.22
641.241	40891.23
641.594	41000.15
641.947	41160.6
642.301	40942.53
642.654	40956.08
643.007	41158.56
643.36	41024.56
643.713	40918.12
644.066	41085.8
644.419	40935.97
644.771	40738.01
645.124	40308.87
645.477	40301.86
645.83	40031.59
646.182	39989.33
646.535	39882.89
646.888	39953.4
647.24	39656.23
647.593	39951.59
647.945	39911.14
648.298	39751.14
648.65	39742.1
649.002	39548.21
649.355	39877.47
649.707	39813.29
650.059	39890.35
650.411	40381.64
650.763	40359.94
651.115	40857.56
651.467	40615.08
651.819	40606.04
652.171	40548.19
652.523	40524.01
652.875	40463.67
653.227	40288.76
653.578	40524.23
653.93	40486.27
654.282	40192.94
654.633	40384.12
654.985	40392.71
655.337	40422.99
655.688	40492.37
656.039	40547.28
656.391	40138.93
656.742	40397.68
657.094	40340.06
657.445	40308.42
657.796	40456.44
658.147	40261.41
658.498	40115.88
658.849	40292.82
659.2	40223
659.551	40184.58
659.902	40398.81
660.253	40288.08
660.604	40373.27
660.955	40126.5
661.306	40397.91
661.656	40332.6
662.007	40299.15
662.358	40225.03
662.708	40232.26
663.059	40290.11
663.409	40059.84
663.76	40269.77
664.11	40249.66
664.461	40372.14
664.811	40186.39
665.161	40335.31
665.511	40147.74
665.862	40172.6
666.212	40297.34
666.562	40331.24
666.912	40202.88
667.262	40094.86
667.612	40069.78
667.962	40184.35
668.312	39920.63
668.662	40164.24
669.011	40215.54
669.361	40079.95
669.711	40151.81
670.06	40033.62
670.41	40008.54
670.76	39862.55
671.109	40077.46
671.459	40013.96
671.808	39975.32
672.157	40021.19
672.507	39654.88
672.856	39718.15
673.205	39792.27
673.554	39953.62
673.904	39781.65
674.253	40085.82
674.602	39933.06
674.951	39193.64
675.3	39069.13
675.649	39722.44
675.998	39729.9
676.346	39704.37
676.695	39783.01
677.044	39498.95
677.393	39720.86
677.741	39819.39
678.09	39686.74
678.438	39488.78
678.787	39460.76
679.135	39666.85
679.484	39366.07
679.832	39492.62
680.181	39324.94
680.529	39381.21
680.877	39443.36
681.225	39382.57
681.573	39548.66
681.922	39224.6
682.27	39152.29
682.618	39033.65
682.966	39148.67
683.314	39070.26
683.661	38868.91
684.009	38834.56
684.357	38883.6
684.705	38747.55
685.053	38794.33
685.4	38718.85
685.748	38563.83
686.095	38501.01
686.443	38297.17
686.79	38391.86
687.138	38388.92
687.485	38399.32
687.832	38191.41
688.18	38174.69
688.527	37974.24
688.874	38112.77
689.221	37922.49
689.568	37909.61
689.915	37836.62
690.262	37831.65
690.609	37756.39
690.956	37535.16
691.303	37608.83
691.65	37368.61
691.997	37369.96
692.344	37216.97
692.69	37110.54
693.037	37159.12
693.383	36859.47
693.73	36872.8
694.077	36872.8
694.423	36889.75
694.769	36814.05
695.116	36610.66
695.462	36599.59
695.808	36491.79
696.155	36534.96
696.501	36264
696.847	36310.56
697.193	35980.62
697.539	36157.79
697.885	35892.94
698.231	35789.89
698.577	35748.76
698.923	35695.88
699.269	35424.7
699.614	35359.4
699.96	35271.04
700.306	35371.37
700.651	35161.89
700.997	34970.48
701.342	35009.8
701.688	34984.26
702.033	34873.76
702.379	34833.08
702.724	34664.95
703.069	34832.63
703.415	34450.27
703.76	34433.77
704.105	34448.23
704.45	34463.37
704.795	34219.99
705.14	34147.45
705.485	34066.55
705.83	33902.94
706.175	33985.19
706.52	33839.21
706.865	33714.01
707.209	33623.4
707.554	33594.24
707.899	33651.19
708.243	33422.04
708.588	33389.96
708.932	33214.14
709.277	33201.03
709.621	33137.31
709.966	32910.87
710.31	33090.08
710.654	32683.08
710.998	32848.5
711.342	32893.47
711.687	32707.71
712.031	32766.24
712.375	32442.64
712.719	32526.02
713.063	32608.96
713.407	32606.02
713.75	32456.65
714.094	32331.45
714.438	32197.22
714.782	32364.67
715.125	32186.82
715.469	32176.43
715.812	32017.56
716.156	32019.6
716.499	31867.28
716.843	31895.31
717.186	31745.25
717.53	31833.84
717.873	31841.3
718.216	31733.95
718.559	31598.36
718.902	31458.71
719.246	31600.4
719.589	31404.02
719.932	31161.54
720.275	31279.73
720.617	31116.57
720.96	31173.29
721.303	31150.69
721.646	31084.48
721.989	30963.58
722.331	31010.58
722.674	30860.76
723.016	30966.06
723.359	30723.81
723.701	30940.75
724.044	30640.2
724.386	30604.72
724.729	30636.58
725.071	30566.53
725.413	30494.44
725.755	30552.06
726.097	30366.31
726.439	30404.5
726.782	30364.27
727.124	30293.09
727.465	30263.94
727.807	30264.39
728.149	30107.78
728.491	30114.56
728.833	30187.55
729.175	29975.81
729.516	30058.52
729.858	29980.78
730.199	29899.43
730.541	29849.03
730.882	29892.87
731.224	29850.16
731.565	29649.94
731.906	29825.08
732.248	29740.79
732.589	29579.89
732.93	29621.92
733.271	29502.6
733.612	29540.11
733.953	29549.15
734.294	29492.88
734.635	29442.49
734.976	29288.82
735.317	29285.66
735.658	29335.82
735.999	29243.85
736.339	29068.71
736.68	29152.78
737.021	29091.76
737.361	28966.34
737.702	29207.01
738.042	29035.49
738.383	28946.46
738.723	28976.51
739.063	28862.39
739.404	28840.92
739.744	28815.16
740.084	28714.82
740.424	28830.75
740.764	28692.23
741.104	28755.5
741.444	28580.59
741.784	28411.78
742.124	28580.14
742.464	28454.04
742.804	28402.29
743.143	28312.12
743.483	28472.34
743.823	28303.99
744.162	28236.64
744.502	28286.59
744.841	28139.25
745.181	28278.68
745.52	28192.13
745.86	28085.24
746.199	28126.36
746.538	27936.54
746.877	28112.58
747.216	27950.1
747.556	27921.4
747.895	27938.57
748.234	27769.76
748.573	27739.93
748.911	27752.82
749.25	27749.2
749.589	27624.68
749.928	27630.11
750.267	27684.34
750.605	27590.79
750.944	27547.17
751.283	27429.21
751.621	27450.68
751.96	27397.8
752.298	27346.5
752.636	27303.79
752.975	27216.56
753.313	27159.84
753.651	27290.68
753.989	27145.83
754.327	27084.81
754.666	26909.22
755.004	26945.61
755.342	26938.15
755.679	26877.58
756.017	26866.51
756.355	26930.92
756.693	26668.55
757.031	26721.66
757.368	26523.02
757.706	26496.8
758.044	26389.91
758.381	26493.64
758.719	26357.15
759.056	26410.7
759.394	26259.07
759.731	26061.33
760.068	26063.14
760.405	25912.64
760.743	25870.15
761.08	26032.41
761.417	25782.7
761.754	25721
762.091	25644.62
762.428	25582.7
762.765	25469.94
763.102	25601.23
763.438	25393.78
763.775	25274.91
764.112	25343.39
764.449	25328.92
764.785	25232.2
765.122	25052.55
765.458	24888.03
765.795	24821.59
766.131	24833.34
766.467	24798.09
766.804	24599.68
767.14	24532.56
767.476	24449.63
767.812	24374.37
768.148	24396.75
768.485	24282.4
768.821	24112.69
769.157	24145
769.492	24051.44
769.828	23955.4
770.164	23821.17
770.5	23831.34
770.836	23839.02
771.171	23599.7
771.507	23585.69
771.842	23378.24
772.178	23341.63
772.513	23375.98
772.849	23222.31
773.184	23236.32
773.519	23063.9
773.855	22973.96
774.19	22979.83
774.525	22877.92
774.86	22875.88
775.195	22777.58
775.53	22758.14
775.865	22539.62
776.2	22490.35
776.535	22276.58
776.87	22241.32
777.205	22217.82
777.539	22144.83
777.874	22103.92
778.209	21894.44
778.543	21906.87
778.878	21793.2
779.212	21811.28
779.547	21701.68
779.881	21707.55
780.215	21479.31
780.55	21532.64
780.884	21382.36
781.218	21365.19
781.552	21362.93
781.886	21164.51
782.22	21165.64
782.554	20970.17
782.888	20844.75
783.222	20844.75
783.556	20711.64
783.889	20642.04
784.223	20498.99
784.557	20446.57
784.89	20468.94
785.224	20336.29
785.557	20287.7
785.891	20209.96
786.224	20211.77
786.558	20127.93
786.891	19931.78
787.224	19888.62
787.557	19893.59
787.891	19889.75
788.224	19835.28
788.557	19749.86
788.89	19692.46
789.223	19555.74
789.556	19475.97
789.888	19401.62
790.221	19361.62
790.554	19205.47
790.887	19279.59
791.219	19192.59
791.552	18993.95
791.884	18946.72
792.217	18972.71
792.549	18873.73
792.882	18786.27
793.214	18625.6
793.546	18655.2
793.879	18570.68
794.211	18538.59
794.543	18613.85
794.875	18367.3
795.207	18630.57
795.539	18438.94
795.871	18375.21
796.203	18233.97
796.535	18163.46
796.867	18090.92
797.198	18022.9
797.53	18054.09
797.862	17918.5
798.193	17963.92
798.525	17825.62
798.856	17788.11
799.188	17648.22
799.519	17628.34
799.85	17463.59
800.182	17448.68
800.513	17431.05
800.844	17298.4
801.175	17435.12
801.506	17363.94
801.837	17282.13
802.168	17278.29
802.499	17180.89
802.83	17131.85
803.161	17146.54
803.491	17107.67
803.822	17097.73
804.153	16907.22
804.483	16866.1
804.814	16754.46
805.145	16723.05
805.475	16765.99
805.805	16589.72
806.136	16588.82
806.466	16533.22
806.796	16551.75
807.126	16357.18
807.457	16367.35
807.787	16406.67
808.117	16286.45
808.447	16208.94
808.777	16224.53
809.107	16155.15
809.436	16132.56
809.766	16142.95
810.096	15966.46
810.426	15994.93
810.755	15910.64
811.085	15935.73
811.414	15904.54
811.744	15755.84
812.073	15804.2
812.403	15853.47
812.732	15712.45
813.061	15698.44
813.39	15656.18
813.719	15576.19
814.049	15672.46
814.378	15556.98
814.707	15422.07
815.036	15491.67
815.365	15349.53
815.693	15233.82
816.022	15264.33
816.351	15172.81
816.68	15149.08
817.008	15203.99
817.337	15040.38
817.665	14900.27
817.994	15050.55
818.322	14919.03
818.651	14975.52
818.979	14973.94
819.307	14947.05
819.636	14855.75
819.964	14811.91
820.292	14882.42
820.62	14794.06
820.948	14764.23
821.276	14817.56
821.604	14673.39
821.932	14887.39
822.259	14788.41
822.587	14731.46
822.915	14670.22
823.243	14814.17
823.57	14690.79
823.898	14805.36
824.225	14636.32
824.553	14643.33
824.88	14719.49
825.207	14687.4
825.535	14728.07
825.862	14724.46
826.189	14560.85
826.516	14764
826.843	14717.9
827.17	14711.35
827.497	14727.4
827.824	14592.48
828.151	14791.8
828.478	14752.93
828.805	14667.28
829.131	14664.35
829.458	14650.34
829.785	14544.12
830.111	14618.25
830.438	14699.83
830.764	14705.25
831.09	14646.95
831.417	14541.86
831.743	14644.69
832.069	14598.13
832.395	14488.76
832.722	14522.88
833.048	14569.21
833.374	14554.74
833.7	14487.18
834.026	14558.13
834.351	14541.19
834.677	14466.16
835.003	14504.8
835.329	14479.27
835.654	14450.11
835.98	14428.87
836.306	14409.21
836.631	14291.7
836.956	14390
837.282	14318.82
837.607	14329.44
837.932	14209.22
838.258	14200.18
838.583	14245.83
838.908	14177.35
839.233	14235.66
839.558	14178.48
839.883	14102.55
840.208	14036.34
840.533	14070.24
840.858	14073.85
841.182	14103
841.507	14013.74
841.832	13957.92
842.156	13882.67
842.481	13842.9
842.805	13934.87
843.13	13930.13
843.454	13842.45
843.778	13737.36
844.103	13746.18
844.427	13633.64
844.751	13707.54
845.075	13660.76
845.399	13650.59
845.723	13519.29
846.047	13563.36
846.371	13515
846.695	13408.11
847.019	13379.86
847.343	13308.68
847.666	13233.88
847.99	13121.79
848.313	13140.77
848.637	13066.42
848.96	13057.61
849.284	13015.58
849.607	12953.43
849.931	12905.97
850.254	12846.31
850.577	12792.98
850.9	12679.99
851.223	12648.81
851.546	12644.74
851.869	12539.88
852.192	12529.03
852.515	12444.29
852.838	12434.35
853.161	12391.41
853.483	12413.78
853.806	12304.86
854.129	12259.66
854.451	12235.94
854.774	12155.49
855.096	12169.72
855.419	12061.02
855.741	12035.71
856.063	12054.47
856.385	12024.19
856.708	11896.74
857.03	11904.64
857.352	11898.77
857.674	11890.41
857.996	11836.17
858.318	11678.44
858.64	11804.99
858.961	11648.15
859.283	11643.18
859.605	11601.83
859.926	11683.18
860.248	11552.11
860.57	11587.36
860.891	11578.33
861.212	11494.26
861.534	11433.24
861.855	11333.81
862.176	11424.43
862.498	11364.32
862.819	11445.67
863.14	11321.84
863.461	11294.49
863.782	11263.76
864.103	11291.33
864.424	11185.57
864.745	11266.7
865.065	11204.55
865.386	11167.94
865.707	11086.36
866.027	11157.77
866.348	11148.28
866.668	11119.58
866.989	11082.52
867.309	11021.05
867.63	11053.37
867.95	11025.35
868.27	10995.97
868.59	10958
868.91	11043.42
869.23	10949.64
869.55	10865.12
869.87	10953.26
870.19	10900.15
870.51	10938.79
870.83	10899.02
871.15	10913.94
871.469	10812.92
871.789	10776.54
872.109	10789.87
872.428	10742.42
872.748	10741.06
873.067	10685.69
873.386	10757.1
873.706	10726.82
874.025	10682.98
874.344	10649.54
874.663	10650.89
874.982	10592.14
875.301	10514.85
875.62	10535.87
875.939	10515.08
876.258	10592.59
876.577	10498.58
876.896	10518.01
877.214	10489.99
877.533	10490.67
877.852	10488.41
878.17	10433.95
878.489	10411.8
878.807	10416.55
879.125	10372.03
879.444	10471.69
879.762	10366.61
880.08	10373.84
880.398	10356.66
880.716	10314.63
881.034	10287.74
881.352	10350.56
881.67	10268.76
881.988	10247.51
882.306	10216.33
882.624	10153.28
882.941	10101.75
883.259	10122.32
883.577	10084.58
883.894	10099.95
884.212	10046.84
884.529	10045.26
884.846	10002.77
885.164	9980.4
885.481	9995.99
885.798	9941.53
886.115	9851.14
886.432	9883.45
886.75	9879.39
887.067	9805.04
887.383	9833.74
887.7	9897.69
888.017	9812.5
888.334	9825.6
888.651	9831.48
888.967	9672.61
889.284	9751.71
889.6	9610.02
889.917	9616.8
890.233	9623.35
890.55	9560.53
890.866	9597.13
891.182	9574.54
891.498	9455.22
891.815	9494.54
892.131	9415.9
892.447	9460.19
892.763	9389
893.079	9292.96
893.395	9319.63
893.71	9262.91
894.026	9299.29
894.342	9322.79
894.657	9186.98
894.973	9205.51
895.289	9231.04
895.604	9130.48
895.92	9144.94
896.235	9000.77
896.55	9048
896.865	9035.57
897.181	8950.82
897.496	9014.78
897.811	8917.15
898.126	8888.9
898.441	8866.31
898.756	8798.06
899.071	8787.66
899.386	8783.14
899.7	8725.97
900.015	8685.97
900.33	8669.25
900.644	8621.34
900.959	8633.54
901.273	8555.81
901.588	8555.81
901.902	8537.05
902.216	8498.41
902.531	8477.16
902.845	8423.38
903.159	8366.66
903.473	8380.22
903.787	8269.26
904.101	8264.06
904.415	8245.53
904.729	8243.5
905.042	8137.29
905.356	8175.93
905.67	8142.94
905.984	8169.38
906.297	8065.42
906.611	8001.47
906.924	8057.29
907.237	7954.69
907.551	7948.59
907.864	7892.77
908.177	7904.98
908.491	7843.96
908.804	7847.8
909.117	7859.33
909.43	7792.44
909.743	7770.97
910.056	7698.2
910.368	7686
910.681	7655.49
910.994	7574.14
911.307	7594.02
911.619	7544.76
911.932	7510.64
912.244	7491.88
912.557	7467.25
912.869	7395.61
913.181	7397.64
913.494	7411.88
913.806	7396.97
914.118	7316.97
914.43	7274.48
914.742	7263.64
915.054	7212.11
915.366	7195.16
915.678	7204.66
915.99	7176.41
916.302	7082.4
916.613	7043.08
916.925	7122.85
917.236	7036.07
917.548	6962.85
917.859	6955.62
918.171	6920.37
918.482	6918.34
918.794	6865.68
919.105	6831.11
919.416	6821.84
919.727	6785.23
920.038	6694.84
920.349	6743.65
920.66	6700.94
920.971	6739.58
921.282	6639.47
921.593	6628.17
921.903	6517.44
922.214	6574.62
922.525	6497.33
922.835	6465.92
923.146	6498.69
923.456	6444.9
923.767	6444.45
924.077	6401.96
924.387	6404.22
924.697	6344.79
925.008	6315.41
925.318	6317.9
925.628	6239.93
925.938	6218.01
926.248	6189.99
926.558	6121.97
926.867	6148.86
927.177	6159.94
927.487	6087.85
927.796	6057.34
928.106	6037.68
928.416	6046.04
928.725	6034.97
929.034	5937.8
929.344	5996.55
929.653	5945.71
929.962	5910.45
930.271	5861.19
930.581	5872.71
930.89	5801.08
931.199	5759.04
931.508	5814.86
931.817	5749.78
932.125	5733.73
932.434	5753.17
932.743	5683.34
933.051	5634.3
933.36	5644.24
933.669	5609.89
933.977	5574.42
934.286	5528.77
934.594	5563.12
934.902	5525.6
935.21	5492.16
935.519	5450.13
935.827	5420.07
936.135	5413.97
936.443	5387.3
936.751	5362.44
937.059	5358.38
937.367	5287.87
937.674	5343.24
937.982	5336
938.29	5263.69
938.597	5251.26
938.905	5198.15
939.213	5174.43
939.52	5201.77
939.827	5201.77
940.135	5142.11
940.442	5053.75
940.749	5141.43
941.056	5032.06
941.363	5058.27
941.67	5018.27
941.977	4974.43
942.284	4940.53
942.591	4928.1
942.898	4927.43
943.205	4926.07
943.511	4915.45
943.818	4878.61
944.125	4871.38
944.431	4849.91
944.738	4817.37
945.044	4827.32
945.35	4762.69
945.657	4750.71
945.963	4745.51
946.269	4674.55
946.575	4699.18
946.881	4651.05
947.187	4674.1
947.493	4569.7
947.799	4585.06
948.105	4619.64
948.41	4564.72
948.716	4570.15
949.022	4524.95
949.327	4501.45
949.633	4463.26
949.938	4462.35
950.244	4467.78
950.549	4424.39
950.854	4392.3
951.16	4385.07
951.465	4326.99
951.77	4342.81
952.075	4395.46
952.38	4348.23
952.685	4345.3
952.99	4275.24
953.294	4226.43
953.599	4250.83
953.904	4220.1
954.209	4197.28
954.513	4225.52
954.818	4172.87
955.122	4168.58
955.426	4119.31
955.731	4157.96
956.035	4110.27
956.339	4058.07
956.643	4119.09
956.948	4059.88
957.252	4010.39
957.556	3992.31
957.86	3968.81
958.163	3963.61
958.467	3983.5
958.771	3921.35
959.075	3936.72
959.378	3889.04
959.682	3873.9
959.985	3845.65
960.289	3857.17
960.592	3835.93
960.896	3817.63
961.199	3797.06
961.502	3802.71
961.805	3777.85
962.108	3745.54
962.411	3720.68
962.714	3669.61
963.017	3703.28
963.32	3694.47
963.623	3677.97
963.926	3684.75
964.228	3649.49
964.531	3606.11
964.833	3627.35
965.136	3583.51
965.438	3555.71
965.741	3549.61
966.043	3534.02
966.345	3531.76
966.648	3500.8
966.95	3498.09
967.252	3489.72
967.554	3500.57
967.856	3491.08
968.158	3408.14
968.46	3388.48
968.761	3438.2
969.063	3396.39
969.365	3391.42
969.666	3359.78
969.968	3351.42
970.269	3346.68
970.571	3302.61
970.872	3320.46
971.174	3296.28
971.475	3288.6
971.776	3243.86
972.077	3273.46
972.378	3278.66
972.679	3213.35
972.98	3193.69
973.281	3181.94
973.582	3207.02
973.883	3186.46
974.183	3127.47
974.484	3106.23
974.785	3153.24
975.085	3099.23
975.386	3094.71
975.686	3043.18
975.986	3123.41
976.287	3081.37
976.587	3037.08
976.887	3016.52
977.187	3040.24
977.487	3001.83
977.787	2971.09
978.087	3003.86
978.387	2992.34
978.687	2931.32
978.987	2931.55
979.286	2905.11
979.586	2894.26
979.885	2868.72
980.185	2886.8
980.484	2851.1
980.784	2858.1
981.083	2870.98
981.382	2839.57
981.682	2835.5
981.981	2782.17
982.28	2777.2
982.579	2788.05
982.878	2792.57
983.177	2770.42
983.475	2790.31
983.774	2735.85
984.073	2755.73
984.372	2736.07
984.67	2713.02
984.969	2693.81
985.267	2664.89
985.566	2676.19
985.864	2683.42
986.162	2677.09
986.461	2649.97
986.759	2628.96
987.057	2576.08
987.355	2585.12
987.653	2617.43
987.951	2583.76
988.249	2568.17
988.547	2525.91
988.844	2541.95
989.142	2520.71
989.44	2517.09
989.737	2526.13
990.035	2480.03
990.332	2507.38
990.63	2466.25
990.927	2420.83
991.224	2417.44
991.521	2423.54
991.819	2376.31
992.116	2437.77
992.413	2378.79
992.71	2382.41
993.006	2386.02
993.303	2341.96
993.6	2348.74
993.897	2361.39
994.193	2357.78
994.49	2356.65
994.787	2343.77
995.083	2320.72
995.379	2308.51
995.676	2280.72
995.972	2241.62
996.268	2278.46
996.565	2263.99
996.861	2252.02
997.157	2223.09
997.453	2203.88
997.749	2221.06
998.044	2204.11
998.34	2200.04
998.636	2183.09
998.932	2190.78
999.227	2158.01
999.523	2142.19
999.818	2162.08
1000.114	2106.48
1000.409	2102.42
1000.704	2109.42
1001	2094.28
1001.295	2034.4
1001.59	2080.95
1001.885	2065.81
1002.18	2064.45
1002.475	2027.16
1002.77	1996.66
1003.065	2027.16
1003.359	2000.5
1003.654	1974.51
1003.949	1991.91
1004.243	1974.06
1004.538	1944
1004.832	1921.63
1005.127	1916.43
1005.421	1915.3
1005.715	1921.86
1006.009	1905.81
1006.304	1908.98
1006.598	1872.14
1006.892	1873.04
1007.186	1873.72
1007.48	1871.69
1007.773	1861.97
1008.067	1855.87
1008.361	1793.95
1008.655	1808.64
1008.948	1802.54
1009.242	1765.48
1009.535	1781.07
1009.829	1775.42
1010.122	1743.33
1010.415	1768.64
1010.708	1748.08
1011.001	1737.23
1011.295	1731.35
1011.588	1721.41
1011.881	1668.53
1012.173	1696.55
1012.466	1685.7
1012.759	1693.16
1013.052	1654.29
1013.344	1618.81
1013.637	1626.27
1013.93	1614.52
1014.222	1622.43
1014.514	1602.54
1014.807	1610.45
1015.099	1594.18
1015.391	1583.33
1015.683	1599.15
1015.976	1567.52
1016.268	1557.12
1016.56	1534.52
1016.851	1505.37
1017.143	1526.16
1017.435	1529.32
1017.727	1503.11
1018.018	1506.5
1018.31	1482.09
1018.602	1491.13
1018.893	1451.36
1019.185	1449.78
1019.476	1445.26
1019.767	1436.45
1020.058	1463.56
1020.35	1444.58
1020.641	1440.06
1020.932	1378.82
1021.223	1400.74
1021.514	1405.49
1021.804	1381.98
1022.095	1365.03
1022.386	1361.87
1022.677	1352.38
1022.967	1336.11
1023.258	1358.48
1023.548	1318.71
1023.839	1336.79
1024.129	1293.62
1024.419	1298.37
1024.709	1314.64
1025	1296.56
1025.29	1285.49
1025.58	1270.8
1025.87	1265.38
1026.16	1257.92
1026.449	1265.83
1026.739	1228.32
1027.029	1254.76
1027.319	1243.23
1027.608	1196.9
1027.898	1238.26
1028.187	1199.62
1028.477	1201.42
1028.766	1181.76
1029.055	1195.77
1029.344	1186.06
1029.634	1160.97
1029.923	1173.63
1030.212	1135.66
1030.501	1146.96
1030.79	1129.56
1031.078	1150.8
1031.367	1113.52
1031.656	1099.5
1031.945	1108.32
1032.233	1082.1
1032.522	1096.12
1032.81	1070.35
1033.099	1094.31
1033.387	1075.32
1033.675	1077.13
1033.963	1036.68
1034.251	1079.17
1034.54	1052.05
1034.828	1054.08
1035.116	1034.65
1035.403	1026.74
1035.691	1021.99
1035.979	1010.24
1036.267	996.68
1036.554	1011.82
1036.842	966.4
1037.129	988.77
1037.417	960.75
1037.704	982.22
1037.992	970.24
1038.279	981.77
1038.566	951.71
1038.853	951.71
1039.14	951.71
