Data from hue_36_FLMS001491_00055.txt Node
Date: Tue Feb 07 17:30:00 GMT 2017
User: dcchb
Spectrometer: FLMS00149
Trigger mode: 0
Integration Time (sec): 2.000000E-2
Scans to average: 10
Electric dark correction enabled: true
Nonlinearity correction enabled: false
Boxcar width: 0
XAxis mode: Wavelengths
Number of Pixels in Spectrum: 2048
>>>>>Begin Spectral Data<<<<<
341.393	-17.75
341.776	-17.75
342.16	-17.75
342.543	-64.08
342.927	-72.67
343.31	-55.49
343.693	-69.28
344.077	-56.85
344.46	-74.25
344.843	-59.11
345.226	-40.58
345.61	-18.88
345.993	-19.56
346.376	-22.95
346.759	11.17
347.142	33.09
347.525	62.24
347.908	47.56
348.291	65.63
348.674	83.26
349.057	113.99
349.44	116.03
349.823	148.8
350.206	171.17
350.588	204.61
350.971	219.3
351.354	227.89
351.737	247.55
352.119	254.56
352.502	252.07
352.884	274.44
353.267	276.25
353.65	303.14
354.032	291.16
354.414	323.25
354.797	307.21
355.179	318.28
355.562	328.68
355.944	333.65
356.326	324.16
356.709	328.45
357.091	354.44
357.473	338.4
357.855	337.72
358.238	349.24
358.62	352.63
359.002	349.24
359.384	360.99
359.766	343.14
360.148	340.65
360.53	345.63
360.912	337.27
361.294	323.71
361.676	336.59
362.057	338.85
362.439	325.74
362.821	321.67
363.203	327.55
363.584	326.19
363.966	327.1
364.348	326.42
364.729	325.74
365.111	323.25
365.493	321.67
365.874	320.09
366.256	323.25
366.637	317.83
367.019	325.51
367.4	317.38
367.781	318.96
368.163	322.12
368.544	313.08
368.925	331.16
369.306	320.32
369.688	299.75
370.069	309.02
370.45	312.86
370.831	306.98
371.212	349.69
371.593	336.14
371.974	297.72
372.355	312.18
372.736	312.86
373.117	329.36
373.498	317.38
373.879	331.84
374.26	316.47
374.641	326.64
375.021	299.3
375.402	316.7
375.783	310.83
376.163	351.28
376.544	315.12
376.925	320.99
377.305	322.58
377.686	323.48
378.066	340.43
378.447	347.89
378.827	337.27
379.208	338.4
379.588	319.41
379.968	343.14
380.349	347.21
380.729	323.93
381.109	324.61
381.489	346.53
381.87	336.36
382.25	322.12
382.63	333.2
383.01	340.88
383.39	343.37
383.77	345.4
384.15	335.23
384.53	330.71
384.91	349.47
385.29	338.62
385.67	357.15
386.049	362.58
386.429	359.19
386.809	340.65
387.189	354.89
387.568	339.98
387.948	356.47
388.328	358.28
388.707	343.14
389.087	356.47
389.466	368.68
389.846	358.96
390.225	337.27
390.605	343.59
390.984	372.07
391.363	354.67
391.743	348.79
392.122	343.82
392.501	379.75
392.881	355.12
393.26	360.99
393.639	381.56
394.018	370.26
394.397	358.28
394.776	356.25
395.155	361.67
395.534	379.98
395.913	376.13
396.292	370.03
396.671	394.66
397.05	394.44
397.429	386.3
397.808	387.66
398.186	378.17
398.565	386.98
398.944	378.39
399.323	378.62
399.701	380.65
400.08	382.91
400.458	393.76
400.837	374.33
401.215	409.81
401.594	372.29
401.972	417.94
402.351	388.79
402.729	382.69
403.107	387.21
403.486	405.74
403.864	402.12
404.242	406.19
404.62	411.84
404.999	408.22
405.377	400.54
405.755	419.3
406.133	400.99
406.511	417.94
406.889	414.1
407.267	447.54
407.645	422.91
408.023	408.45
408.401	410.26
408.779	411.84
409.156	422.91
409.534	420.88
409.912	438.05
410.29	443.93
410.667	425.85
411.045	444.15
411.422	447.32
411.8	438.51
412.178	443.7
412.555	447.32
412.933	446.64
413.31	468.34
413.687	478.28
414.065	449.35
414.442	465.85
414.819	479.18
415.197	459.75
415.574	475.34
415.951	459.52
416.328	465.17
416.705	471.95
417.082	480.54
417.46	464.04
417.837	493.65
418.214	499.29
418.591	480.54
418.967	502.91
419.344	494.55
419.721	505.85
420.098	482.12
420.475	506.98
420.852	505.62
421.228	490.71
421.605	501.78
421.982	513.53
422.358	506.53
422.735	523.93
423.111	516.92
423.488	530.48
423.864	516.92
424.241	529.8
424.617	526.41
424.994	533.87
425.37	535.23
425.746	537.49
426.123	539.07
426.499	560.54
426.875	538.84
427.251	543.36
427.627	565.51
428.003	552.17
428.379	560.31
428.756	545.62
429.132	550.14
429.507	583.81
429.883	586.3
430.259	573.64
430.635	567.09
431.011	584.72
431.387	587.65
431.763	606.86
432.138	590.82
432.514	599.86
432.89	610.03
433.265	624.26
433.641	626.75
434.016	618.39
434.392	619.29
434.767	630.36
435.143	643.47
435.518	643.7
435.894	673.3
436.269	654.54
436.644	652.29
437.02	655.22
437.395	658.16
437.77	660.19
438.145	669.69
438.52	682.79
438.895	677.37
439.271	683.02
439.646	685.96
440.021	688.22
440.395	695.67
440.77	693.19
441.145	711.72
441.52	717.14
441.895	704.26
442.27	722.34
442.645	725.73
443.019	716.69
443.394	737.25
443.769	700.87
444.143	736.58
444.518	743.13
444.892	736.12
445.267	731.61
445.641	743.81
446.016	757.59
446.39	768.21
446.764	768.44
447.139	759.17
447.513	763.02
447.887	755.56
448.262	773.64
448.636	786.29
449.01	788.1
449.384	785.84
449.758	802.34
450.132	797.82
450.506	807.31
450.88	818.83
451.254	802.34
451.628	815.67
452.002	812.96
452.376	807.54
452.75	825.16
453.123	828.33
453.497	848.66
453.871	845.73
454.244	854.77
454.618	881.66
454.992	896.35
455.365	872.39
455.739	907.65
456.112	885.05
456.486	880.75
456.859	935.22
457.232	920.53
457.606	910.58
457.979	951.03
458.352	946.51
458.725	966.4
459.099	962.79
459.472	979.73
459.845	974.99
460.218	1011.82
460.591	1028.77
460.964	995.1
461.337	1024.03
461.71	1060.64
462.083	1034.2
462.456	1061.31
462.829	1071.48
463.201	1078.26
463.574	1077.81
463.947	1130.92
464.32	1124.36
464.692	1129.56
465.065	1137.02
465.438	1173.85
465.81	1154.19
466.183	1182.67
466.555	1195.1
466.928	1194.19
467.3	1224.25
467.672	1256.56
468.045	1261.31
468.417	1257.47
468.789	1304.02
469.161	1311.7
469.534	1364.81
469.906	1333.85
470.278	1392.6
470.65	1389.89
471.022	1404.58
471.394	1427.41
471.766	1459.5
472.138	1449.1
472.51	1492.26
472.882	1540.85
473.253	1570.68
473.625	1594.63
473.997	1642.09
474.369	1664.01
474.74	1676.21
475.112	1733.39
475.484	1767.51
475.855	1795.53
476.227	1805.25
476.598	1861.29
476.97	1913.95
477.341	2010.44
477.713	1984.68
478.084	2041.85
478.455	2101.51
478.827	2136.09
479.198	2228.74
479.569	2258.8
479.94	2333.82
480.311	2372.01
480.682	2405.91
481.053	2527.26
481.424	2554.38
481.795	2626.02
482.166	2664.21
482.537	2793.25
482.908	2865.56
483.279	2858.1
483.65	2976.97
484.021	3081.83
484.391	3105.78
484.762	3216.29
485.133	3279.79
485.503	3372.89
485.874	3451.99
486.244	3502.15
486.615	3628.48
486.985	3671.19
487.356	3764.52
487.726	3851.52
488.097	3970.16
488.467	4084.29
488.837	4137.84
489.207	4267.78
489.578	4330.83
489.948	4435.91
490.318	4549.36
490.688	4576.7
491.058	4690.37
491.428	4830.48
491.798	4936.01
492.168	5073.86
492.538	5110.25
492.908	5221.66
493.278	5310.92
493.648	5394.53
494.017	5491.48
494.387	5608.76
494.757	5657.35
495.126	5790.91
495.496	5825.93
495.866	5931.69
496.235	6007.17
496.605	6156.32
496.974	6185.25
497.344	6297.79
497.713	6401.74
498.082	6479.48
498.452	6591.79
498.821	6650.55
499.19	6687.15
499.559	6833.59
499.928	6933.93
500.298	6940.03
500.667	7078.1
501.036	7097.99
501.405	7205.33
501.774	7243.07
502.143	7394.93
502.512	7483.97
502.88	7528.49
503.249	7570.52
503.618	7655.94
503.987	7718.09
504.356	7839.89
504.724	7904.3
505.093	7982.94
505.462	7995.14
505.83	8109.94
506.199	8192.2
506.567	8309.94
506.936	8263.38
507.304	8440.55
507.672	8450.27
508.041	8535.24
508.409	8613.66
508.777	8717.38
509.145	8822.24
509.514	8836.25
509.882	8912.18
510.25	8870.15
510.618	8947.66
510.986	9063.36
511.354	9142.01
511.722	9200.76
512.09	9367.54
512.458	9263.36
512.826	9372.96
513.193	9450.02
513.561	9486.86
513.929	9503.8
514.297	9633.97
514.664	9767.07
515.032	9806.85
515.4	9894.98
515.767	9866.05
516.135	9970.91
516.502	9907.86
516.869	10131.58
517.237	10154.63
517.604	10083.45
517.972	10240.96
518.339	10330.45
518.706	10378.58
519.073	10433.27
519.44	10413.84
519.808	10554.62
520.175	10521.18
520.542	10673.26
520.909	10717.78
521.276	10711.23
521.643	10839.59
522.009	10881.17
522.376	10986.7
522.743	11063.08
523.11	11145.57
523.477	11273.93
523.843	11258.33
524.21	11399.35
524.577	11465.11
524.943	11541.49
525.31	11520.25
525.676	11654.48
526.043	11748.26
526.409	11754.14
526.776	11962.04
527.142	11925.66
527.508	12094.7
527.874	12133.57
528.241	12249.72
528.607	12305.99
528.973	12340.34
529.339	12394.35
529.705	12480.45
530.071	12543.05
530.437	12587.34
530.803	12698.07
531.169	12814
531.535	12709.82
531.901	12816.71
532.267	12870.27
532.632	12950.94
532.998	12993.66
533.364	13058.74
533.73	13086.99
534.095	13243.14
534.461	13297.38
534.826	13333.08
535.192	13396.81
535.557	13439.29
535.923	13430.71
536.288	13544.38
536.653	13507.99
537.019	13561.32
537.384	13709.79
537.749	13779.4
538.114	13680.64
538.479	13813.29
538.845	13901.65
539.21	13870.02
539.575	13937.59
539.94	13987.08
540.305	14005.61
540.67	14052.16
541.034	14139.39
541.399	14255.77
541.764	14279.27
542.129	14386.84
542.494	14389.1
542.858	14377.12
543.223	14412.15
543.587	14639.49
543.952	14569.89
544.316	14693.5
544.681	14653.05
545.045	14696.89
545.41	14898.92
545.774	14898.24
546.138	14931.46
546.503	15022.3
546.867	14988.18
547.231	15172.81
547.595	15157.89
547.959	15180.04
548.324	15180.04
548.688	15300.94
549.052	15241.51
549.416	15342.97
549.779	15366.02
550.143	15375.51
550.507	15525.34
550.871	15591.55
551.235	15566.02
551.599	15712.45
551.962	15717.2
552.326	15828.38
552.689	15844.88
553.053	15779.8
553.417	15895.73
553.78	16020.92
554.143	15971.88
554.507	16165.32
554.87	16130.97
555.234	16278.31
555.597	16165.32
555.96	16269.95
556.323	16351.08
556.686	16435.37
557.05	16476.73
557.413	16579.1
557.776	16583.84
558.139	16703.84
558.502	16758.53
558.865	16721.24
559.228	16860.67
559.59	16872.2
559.953	16982.03
560.316	17158.97
560.679	17057.05
561.041	17294.56
561.404	17353.99
561.767	17314.9
562.129	17347.67
562.492	17533.2
562.854	17460.88
563.217	17427.66
563.579	17622.91
563.941	17639.86
564.304	17793.76
564.666	17812.06
565.028	17990.13
565.39	17967.08
565.753	17979.74
566.115	18085.5
566.477	18230.81
566.839	18222.22
567.201	18356.9
567.563	18313.74
567.925	18474.87
568.287	18501.53
568.648	18582.89
569.01	18687.97
569.372	18828.08
569.734	18691.13
570.095	18942.88
570.457	19025.59
570.819	18928.19
571.18	19044.34
571.542	19188.75
571.903	19135.64
572.265	19262.64
572.626	19384.45
572.987	19399.59
573.349	19485.24
573.71	19534.73
574.071	19654.95
574.432	19771.33
574.794	19919.12
575.155	20066.46
575.516	19972.91
575.877	20257.42
576.238	20276.4
576.599	20433.91
576.96	20435.27
577.32	20539.67
577.681	20749.38
578.042	20789.38
578.403	20883.39
578.763	21038.19
579.124	21162.93
579.485	21315.47
579.845	21538.74
580.206	21625.97
580.566	21741.22
580.927	21848.34
581.287	22042.01
581.648	22219.63
582.008	22336.91
582.368	22455.33
582.728	22655.32
583.089	22694.19
583.449	22986.84
583.809	23100.06
584.169	23443.55
584.529	23349.32
584.889	23719.7
585.249	23705.69
585.609	23991.56
585.969	24271.55
586.329	24427.03
586.688	24695.27
587.048	24670.18
587.408	24903.62
587.768	25217.06
588.127	25382.03
588.487	25502.93
588.846	25815.69
589.206	25857.5
589.565	26006.19
589.925	26480.53
590.284	26638.49
590.643	26912.16
591.003	27048.43
591.362	27291.36
591.721	27513.27
592.08	27655.64
592.44	28056.54
592.799	28154.16
593.158	28364.32
593.517	28539.24
593.876	28802.73
594.235	28914.82
594.593	29287.69
594.952	29540.34
595.311	29674.8
595.67	29789.6
596.029	30210.15
596.387	30352.07
596.746	30632.06
597.104	30610.14
597.463	30872.51
597.822	31304.36
598.18	31317.02
598.538	31474.07
598.897	31881.75
599.255	31786.38
599.613	32375.52
599.972	32297.55
600.33	32609.64
600.688	32550.43
601.046	32913.81
601.404	33135.27
601.762	33227.02
602.12	33454.81
602.478	33690.29
602.836	33865.65
603.194	33819.77
603.552	34085.08
603.91	34171.18
604.268	34555.57
604.625	34560.32
604.983	34814.32
605.341	34749.02
605.698	35055
606.056	35331.83
606.413	35377.93
606.771	35459.51
607.128	35678.26
607.485	35773.62
607.843	35881.42
608.2	36108.98
608.557	36431.01
608.914	36276.66
609.272	36534.51
609.629	36772.24
609.986	37003.19
610.343	36960.71
610.7	37334.03
611.057	37383.07
611.414	37460.81
611.771	37506.23
612.127	37886.33
612.484	37937.18
612.841	38178.3
613.198	38138.53
613.554	38144.18
613.911	38496.94
614.267	38573.1
614.624	38646.54
614.98	38664.84
615.337	38994.33
615.693	38961.79
616.05	39045.63
616.406	39267.77
616.762	39297.6
617.118	39444.94
617.475	39401.77
617.831	39609.9
618.187	39556.8
618.543	39738.49
618.899	40158.14
619.255	39990.46
619.611	39968.09
619.967	40114.75
620.323	40308.42
620.678	40119.04
621.034	40216.22
621.39	40248.31
621.746	40266.38
622.101	40613.27
622.457	40485.81
622.812	40622.31
623.168	40867.5
623.523	40805.81
623.879	40903.43
624.234	40792.47
624.589	40851.23
624.945	41097.78
625.3	41162.41
625.655	41215.06
626.01	41150.66
626.365	41291.44
626.72	41174.38
627.075	41330.54
627.43	41252.57
627.785	41323.08
628.14	41377.99
628.495	41345.68
628.85	41401.5
629.205	41271.56
629.559	41512.91
629.914	41376.64
630.269	41472
630.623	41319.24
630.978	41387.03
631.332	41560.36
631.687	41752.45
632.041	41337.99
632.396	41538.89
632.75	41421.61
633.104	41510.87
633.459	41201.5
633.813	41326.24
634.167	41390.2
634.521	41360.59
634.875	41488.5
635.229	41557.2
635.583	41323.08
635.937	41441.5
636.291	41391.78
636.645	41329.63
636.999	41300.71
637.352	41454.6
637.706	41281.05
638.06	41407.82
638.413	41378.45
638.767	41219.58
639.121	41308.84
639.474	41120.83
639.828	41033.6
640.181	41229.3
640.534	41227.72
640.888	41013.26
641.241	40969.42
641.594	41089.41
641.947	41221.84
642.301	41044.67
642.654	41087.15
643.007	41132.58
643.36	41085.8
643.713	40984.56
644.066	41174.38
644.419	40939.14
644.771	40756.54
645.124	40425.02
645.477	40339.83
645.83	39977.58
646.182	39931.25
646.535	39983.45
646.888	40066.62
647.24	39735.78
647.593	40007.63
647.945	39967.18
648.298	39678.6
648.65	39683.35
649.002	39503.47
649.355	39738.94
649.707	39698.49
650.059	39867.07
650.411	40247.4
650.763	40248.53
651.115	40707.5
651.467	40529.88
651.819	40574.85
652.171	40427.06
652.523	40475.87
652.875	40267.74
653.227	40201.3
653.578	40568.98
653.93	40497.11
654.282	40227.74
654.633	40175.09
654.985	40357
655.337	40534.17
655.688	40239.72
656.039	40547.73
656.391	40152.26
656.742	40216.22
657.094	40337.57
657.445	40453.27
657.796	40354.29
658.147	40282.2
658.498	40204.01
658.849	40333.95
659.2	40246.5
659.551	40175.09
659.902	40318.59
660.253	40131.93
660.604	40283.79
660.955	40050.57
661.306	40231.13
661.656	40119.27
662.007	40307.29
662.358	40093.96
662.708	40153.85
663.059	40082.43
663.409	39874.53
663.76	40252.37
664.11	40117.24
664.461	40210.34
664.811	40168.31
665.161	40248.76
665.511	40003.11
665.862	40126.5
666.212	40135.09
666.562	40132.15
666.912	40065.26
667.262	40026.84
667.612	39931.48
667.962	40090.34
668.312	39913.17
668.662	40175.54
669.011	39972.83
669.361	40006.05
669.711	39960.4
670.06	39850.35
670.41	39831.37
670.76	39861.2
671.109	40017.13
671.459	39758.83
671.808	39830.69
672.157	39871.82
672.507	39627.76
672.856	39674.31
673.205	39759.05
673.554	39777.13
673.904	39681.32
674.253	39987.3
674.602	39811.48
674.951	39327.88
675.3	39078.17
675.649	39447.65
675.998	39712.05
676.346	39736.68
676.695	39793.63
677.044	39547.99
677.393	39526.07
677.741	39693.29
678.09	39597.7
678.438	39467.99
678.787	39591.15
679.135	39544.82
679.484	39163.81
679.832	39482.9
680.181	39294.66
680.529	39469.57
680.877	39256.92
681.225	39119.97
681.573	39342.79
681.922	39059.64
682.27	39044.72
682.618	38961.56
682.966	39045.4
683.314	39114.78
683.661	38944.84
684.009	38673.21
684.357	38713.21
684.705	38632.08
685.053	38634.79
685.4	38601.34
685.748	38579.65
686.095	38489.93
686.443	38316.61
686.79	38291.75
687.138	38387.11
687.485	38349.82
687.832	38184.41
688.18	38234.57
688.527	37993.9
688.874	38033.45
689.221	38000.46
689.568	37875.71
689.915	37821.93
690.262	37847.69
690.609	37671.88
690.956	37520.69
691.303	37461.03
691.65	37433.24
691.997	37300.36
692.344	37093.59
692.69	37255.84
693.037	37054.49
693.383	36749.19
693.73	36930.65
694.077	36689.08
694.423	36711.22
694.769	36674.84
695.116	36570.44
695.462	36625.58
695.808	36439.82
696.155	36465.13
696.501	36330.67
696.847	36179.26
697.193	35957.57
697.539	35986.27
697.885	35874.18
698.231	35791.47
698.577	35764.13
698.923	35685.04
699.269	35470.13
699.614	35412.5
699.96	35404.14
700.306	35419.28
700.651	35134.77
700.997	35113.53
701.342	35069.91
701.688	34942
702.033	34883.48
702.379	34724.84
702.724	34838.05
703.069	34805.51
703.415	34533.65
703.76	34497.04
704.105	34374.79
704.45	34387.9
704.795	34267.9
705.14	34106.55
705.485	34093.44
705.83	33950.84
706.175	34049.83
706.52	33875.37
706.865	33787.01
707.209	33680.34
707.554	33468.15
707.899	33720.34
708.243	33448.26
708.588	33424.08
708.932	33184.99
709.277	33228.6
709.621	33293.46
709.966	32992.68
710.31	33215.72
710.654	32872.45
710.998	32981.6
711.342	32984.99
711.687	32701.84
712.031	32626.59
712.375	32569.86
712.719	32545.68
713.063	32629.3
713.407	32660.94
713.75	32308.85
714.094	32323.32
714.438	32221.62
714.782	32316.09
715.125	32210.55
715.469	32247.84
715.812	32114.06
716.156	31761.98
716.499	31883.1
716.843	31899.6
717.186	31622.54
717.53	31957.22
717.873	31809.43
718.216	31736.67
718.559	31610.12
718.902	31379.61
719.246	31498.03
719.589	31248.54
719.932	31192.5
720.275	31118.83
720.617	31294.42
720.96	31149.56
721.303	31256.45
721.646	31159.28
721.989	31053.07
722.331	31112.73
722.674	30937.59
723.016	30962.22
723.359	30806.75
723.701	30791.61
724.044	30738.5
724.386	30568.79
724.729	30678.16
725.071	30554.55
725.413	30613.98
725.755	30475.68
726.097	30403.59
726.439	30195.69
726.782	30283.37
727.124	30537.83
727.465	30307.32
727.807	30236.82
728.149	30140.32
728.491	30017.16
728.833	30261.45
729.175	29993.21
729.516	29979.42
729.858	30084.96
730.199	29968.12
730.541	29937.16
730.882	29792.54
731.224	29878.86
731.565	29701.69
731.906	29787.79
732.248	29695.82
732.589	29588.25
732.93	29491.98
733.271	29528.14
733.612	29676.83
733.953	29510.74
734.294	29504.86
734.635	29242.04
734.976	29408.37
735.317	29182.83
735.658	29240.01
735.999	29232.1
736.339	29146.45
736.68	29177.18
737.021	29189.39
737.361	28976.06
737.702	29127.47
738.042	28967.92
738.383	28930.19
738.723	28935.84
739.063	28960.02
739.404	28952.11
739.744	28741.26
740.084	28699.23
740.424	28780.36
740.764	28663.07
741.104	28766.12
741.444	28595.51
741.784	28462.18
742.124	28605.67
742.464	28548.95
742.804	28507.37
743.143	28407.49
743.483	28365.23
743.823	28253.82
744.162	28229.19
744.502	28236.19
744.841	28229.19
745.181	28228.28
745.52	28213.82
745.86	28199.13
746.199	28061.51
746.538	27998.46
746.877	28022.41
747.216	27993.49
747.556	27874.85
747.895	28022.19
748.234	27822.87
748.573	27792.14
748.911	27655.64
749.25	27694.29
749.589	27546.27
749.928	27577.9
750.267	27537.68
750.605	27527.06
750.944	27383.79
751.283	27306.73
751.621	27409.1
751.96	27278.48
752.298	27194.41
752.636	27280.06
752.975	27124.36
753.313	27218.37
753.651	27230.34
753.989	26962.55
754.327	27002.55
754.666	26846.85
755.004	26965.72
755.342	26946.28
755.679	26861.31
756.017	26669
756.355	26826.74
756.693	26592.85
757.031	26684.37
757.368	26466.07
757.706	26416.58
758.044	26397.14
758.381	26525.05
758.719	26303.36
759.056	26424.94
759.394	26226.08
759.731	26115.12
760.068	25909.93
760.405	25935.91
760.743	25833.32
761.08	25844.17
761.417	25780.44
761.754	25639.65
762.091	25578.64
762.428	25501.58
762.765	25424.97
763.102	25439.2
763.438	25244.63
763.775	25254.12
764.112	25166.22
764.449	25238.08
764.785	25215.48
765.122	24920.35
765.458	24879.9
765.795	24848.71
766.131	24739.79
766.467	24662.5
766.804	24582.96
767.14	24360.59
767.476	24444.65
767.812	24414.6
768.148	24418.44
768.485	24212.8
768.821	24092.8
769.157	24060.03
769.492	23924.89
769.828	23828.4
770.164	23681.06
770.5	23675.41
770.836	23692.58
771.171	23573.94
771.507	23484.91
771.842	23440.39
772.178	23406.04
772.513	23241.3
772.849	23185.48
773.184	23180.96
773.519	23115.42
773.855	23008.53
774.19	22815.54
774.525	22813.28
774.86	22880.63
775.195	22635.89
775.53	22680.41
775.865	22492.84
776.2	22353.64
776.535	22217.59
776.87	22237.93
777.205	22185.96
777.539	22093.53
777.874	22133.98
778.209	21842.69
778.543	21853.76
778.878	21726.08
779.212	21799.98
779.547	21645.63
779.881	21567.67
780.215	21423.94
780.55	21437.95
780.884	21307.56
781.218	21132.65
781.552	21249.71
781.886	21194.57
782.22	21034.35
782.554	20944.18
782.888	20821.47
783.222	20620.8
783.556	20577.64
783.889	20573.34
784.223	20393.46
784.557	20275.95
784.89	20435.27
785.224	20272.79
785.557	20162.28
785.891	20075.5
786.224	20073.24
786.558	20085.45
786.891	19858.56
787.224	19816.98
787.557	19757.55
787.891	19743.76
788.224	19783.08
788.557	19693.59
788.89	19671.9
789.223	19578.12
789.556	19509.19
789.888	19404.11
790.221	19289.99
790.554	19171.35
790.887	19118.01
791.219	19130.22
791.552	19037.11
791.884	18880.51
792.217	18868.76
792.549	18813.84
792.882	18693.84
793.214	18669.66
793.546	18720.51
793.879	18574.3
794.211	18479.39
794.543	18494.3
794.875	18397.36
795.207	18431.03
795.539	18305.83
795.871	18324.59
796.203	18125.95
796.535	18110.81
796.867	18032.85
797.198	17948.1
797.53	17908.78
797.862	17882.57
798.193	17881.44
798.525	17640.76
798.856	17785.62
799.188	17580.2
799.519	17551.73
799.85	17435.8
800.182	17349.93
800.513	17396.25
800.844	17211.85
801.175	17309.47
801.506	17313.77
801.837	17238.52
802.168	17188.35
802.499	17152.87
802.83	17066.09
803.161	16989.26
803.491	16906.1
803.822	16947.9
804.153	16929.37
804.483	16713.33
804.814	16650.28
805.145	16641.02
805.475	16602.15
805.805	16554.47
806.136	16604.86
806.466	16522.15
806.796	16423.4
807.126	16385.43
807.457	16211.65
807.787	16330.29
808.117	16264.53
808.447	16177.75
808.777	16173.23
809.107	16128.71
809.436	16036.51
809.766	16046
810.096	16007.81
810.426	15904.31
810.755	15966.01
811.085	15930.53
811.414	15830.64
811.744	15718.56
812.073	15658.9
812.403	15644.66
812.732	15607.15
813.061	15552.91
813.39	15534.83
813.719	15536.19
814.049	15501.84
814.378	15483.08
814.707	15449.41
815.036	15369.41
815.365	15291
815.693	15208.06
816.022	15240.83
816.351	15230.43
816.68	15056.43
817.008	15140.49
817.337	15004.45
817.665	15060.95
817.994	15029.99
818.322	14950.89
818.651	14916.09
818.979	14857.56
819.307	14877.67
819.636	14904.11
819.964	14732.82
820.292	14774.85
820.62	14776.89
820.948	14627.74
821.276	14764.23
821.604	14738.69
821.932	14711.8
822.259	14740.28
822.587	14717.23
822.915	14689.2
823.243	14661.41
823.57	14615.99
823.898	14684.46
824.225	14602.43
824.553	14663.89
824.88	14549.09
825.207	14730.56
825.535	14588.64
825.862	14705.7
826.189	14584.57
826.516	14752.03
826.843	14659.15
827.17	14639.94
827.497	14682.65
827.824	14632.48
828.151	14721.52
828.478	14580.05
828.805	14660.96
829.131	14630.9
829.458	14579.38
829.785	14568.3
830.111	14568.53
830.438	14685.36
830.764	14645.82
831.09	14552.48
831.417	14473.84
831.743	14641.75
832.069	14533.05
832.395	14557.46
832.722	14534.41
833.048	14483.33
833.374	14453.73
833.7	14395.2
834.026	14458.25
834.351	14437.69
834.677	14492.37
835.003	14485.82
835.329	14399.72
835.654	14444.24
835.98	14275.2
836.306	14330.57
836.631	14328.76
836.956	14382.32
837.282	14373.28
837.607	14284.47
837.932	14214.87
838.258	14169.67
838.583	14156.79
838.908	14102.1
839.233	14219.16
839.558	14150.91
839.883	14044.48
840.208	14012.16
840.533	13975.32
840.858	14021.2
841.182	14040.41
841.507	13886.29
841.832	13999.5
842.156	13953.4
842.481	13842.67
842.805	13817.14
843.13	13823.24
843.454	13764.93
843.778	13762
844.103	13714.77
844.427	13637.25
844.751	13673.64
845.075	13578.95
845.399	13499.86
845.723	13522.91
846.047	13579.85
846.371	13377.37
846.695	13434.1
847.019	13200.2
847.343	13261.45
847.666	13143.71
847.99	13186.19
848.313	13171.73
848.637	12992.98
848.96	13046.31
849.284	13017.61
849.607	12864.85
849.931	12826.43
850.254	12728.58
850.577	12701.46
850.9	12634.12
851.223	12621.91
851.546	12528.13
851.869	12514.12
852.192	12532.2
852.515	12451.97
852.838	12315.71
853.161	12405.87
853.483	12295.59
853.806	12231.19
854.129	12309.61
854.451	12216.73
854.774	12167.91
855.096	12070.97
855.419	11968.15
855.741	12065.32
856.063	12031.87
856.385	11955.26
856.708	11828.49
857.03	11834.36
857.352	11823.97
857.674	11799.11
857.996	11786.91
858.318	11686.35
858.64	11635.05
858.961	11682.96
859.283	11489.51
859.605	11530.64
859.926	11593.24
860.248	11535.61
860.57	11483.41
860.891	11517.31
861.212	11430.98
861.534	11405
861.855	11396.64
862.176	11375.39
862.498	11371.33
862.819	11318.9
863.14	11349.86
863.461	11339.01
863.782	11224.44
864.103	11228.5
864.424	11174.95
864.745	11133.14
865.065	11192.35
865.386	11122.07
865.707	11126.36
866.027	11124.55
866.348	11003.65
866.668	11060.37
866.989	10936.31
867.309	10969.53
867.63	11030.32
867.95	10972.69
868.27	10926.37
868.59	10915.52
868.91	10886.37
869.23	10872.81
869.55	10809.31
869.87	10885.91
870.19	10895.18
870.51	10914.61
870.83	10893.15
871.15	10795.75
871.469	10797.78
871.789	10772.47
872.109	10768.4
872.428	10715.52
872.748	10733.15
873.067	10711.91
873.386	10696.54
873.706	10668.07
874.025	10549.43
874.344	10581.06
874.663	10690.44
874.982	10601.85
875.301	10614.06
875.62	10508.98
875.939	10575.41
876.258	10535.87
876.577	10464.68
876.896	10499.03
877.214	10435.08
877.533	10477.34
877.852	10390.11
878.17	10413.61
878.489	10446.38
878.807	10413.16
879.125	10313.95
879.444	10361.63
879.762	10341.3
880.08	10283.9
880.398	10291.13
880.716	10235.99
881.034	10217.23
881.352	10257.91
881.67	10122.77
881.988	10179.49
882.306	10188.08
882.624	10137.69
882.941	10123.22
883.259	10071.92
883.577	10010.01
883.894	10061.53
884.212	9992.83
884.529	10000.97
884.846	9901.53
885.164	9936.11
885.481	9904.02
885.798	9943.57
886.115	9835.32
886.432	9824.47
886.75	9842.78
887.067	9827.64
887.383	9747.87
887.7	9793.97
888.017	9688.88
888.334	9750.8
888.651	9706.51
888.967	9669.45
889.284	9584.93
889.6	9615.89
889.917	9596.68
890.233	9618.15
890.55	9548.32
890.866	9565.95
891.182	9463.13
891.498	9448.21
891.815	9473.07
892.131	9480.08
892.447	9367.54
892.763	9302.23
893.079	9316.69
893.395	9290.02
893.71	9268.33
894.026	9176.58
894.342	9181.78
894.657	9180.65
894.973	9168.45
895.289	9174.09
895.604	9137.03
895.92	9112.4
896.235	9007.09
896.55	9012.29
896.865	8988.56
897.181	8911.5
897.496	8942.69
897.811	8865.18
898.126	8842.13
898.441	8781.34
898.756	8796.25
899.071	8752.86
899.386	8735.24
899.7	8669.02
900.015	8638.52
900.33	8532.76
900.644	8548.35
900.959	8574.11
901.273	8438.75
901.588	8513.1
901.902	8462.93
902.216	8409.6
902.531	8427.45
902.845	8370.73
903.159	8369.14
903.473	8241.01
903.787	8322.82
904.101	8285.98
904.415	8228.36
904.729	8164.18
905.042	8160.34
905.356	8112.2
905.67	8090.28
905.984	8127.34
906.297	8064.29
906.611	7984.07
906.924	8028.59
907.237	7925.54
907.551	7897.52
907.864	7888.71
908.177	7934.13
908.491	7783.17
908.804	7829.72
909.117	7770.74
909.43	7761.7
909.743	7699.11
910.056	7708.82
910.368	7669.5
910.681	7607.36
910.994	7567.58
911.307	7570.3
911.619	7501.6
911.932	7486.68
912.244	7408.49
912.557	7449.85
912.869	7403.97
913.181	7374.59
913.494	7360.58
913.806	7351.77
914.118	7303.64
914.43	7213.47
914.742	7285.78
915.054	7170.31
915.366	7126.01
915.678	7160.14
915.99	7080.59
916.302	7061.16
916.613	7047.82
916.925	7018.45
917.236	7046.92
917.548	6920.37
917.859	6954.49
918.171	6833.37
918.482	6882.86
918.794	6896.87
919.105	6842.63
919.416	6796.3
919.727	6761.28
920.038	6760.37
920.349	6727.15
920.66	6668.4
920.971	6713.37
921.282	6637.21
921.593	6585.01
921.903	6578.23
922.214	6516.54
922.525	6480.61
922.835	6469.99
923.146	6416.65
923.456	6384.56
923.767	6380.04
924.077	6389.08
924.387	6376.2
924.697	6269.31
925.008	6291.91
925.318	6280.84
925.628	6221.86
925.938	6225.92
926.248	6160.84
926.558	6137.11
926.867	6065.25
927.177	6035.87
927.487	6072.71
927.796	6013.27
928.106	5996.55
928.416	5996.33
928.725	5998.36
929.034	5929.66
929.344	5968.98
929.653	5956.1
929.962	5861.41
930.271	5801.98
930.581	5801.3
930.89	5766.95
931.199	5754.52
931.508	5731.25
931.817	5731.7
932.125	5720.4
932.434	5679.27
932.743	5623.68
933.051	5616.22
933.36	5604.02
933.669	5579.61
933.977	5557.47
934.286	5511.37
934.594	5490.35
934.902	5523.34
935.21	5451.03
935.519	5452.38
935.827	5439.73
936.135	5391.14
936.443	5348.21
936.751	5332.61
937.059	5340.52
937.367	5303.91
937.674	5263.01
937.982	5297.36
938.29	5229.11
938.597	5209.68
938.905	5168.78
939.213	5175.33
939.52	5133.3
939.827	5147.53
940.135	5077.93
940.442	5110.92
940.749	5075.9
941.056	5054.2
941.363	4961.78
941.67	4988.89
941.977	4969.91
942.284	4952.51
942.591	4949.35
942.898	4903.47
943.205	4893.53
943.511	4884.26
943.818	4819.18
944.125	4804.27
944.431	4785.28
944.738	4813.08
945.044	4789.13
945.35	4772.63
945.657	4676.13
945.963	4730.6
946.269	4655.57
946.575	4671.84
946.881	4585.29
947.187	4656.7
947.493	4591.16
947.799	4616.93
948.105	4522.69
948.41	4509.36
948.716	4525.63
949.022	4477.27
949.327	4472.75
949.633	4453.99
949.938	4440.21
950.244	4425.97
950.549	4399.98
950.854	4382.81
951.16	4368.12
951.465	4329.48
951.77	4305.07
952.075	4320.21
952.38	4268.24
952.685	4283.83
952.99	4265.07
953.294	4211.51
953.599	4193.43
953.904	4192.98
954.209	4163.61
954.513	4184.62
954.818	4105.75
955.122	4137.62
955.426	4118.18
955.731	4087.68
956.035	4036.83
956.339	4019.43
956.643	4006.1
956.948	4021.24
957.252	4023.04
957.556	3997.51
957.86	3953.67
958.163	3972.2
958.467	3915.7
958.771	3941.01
959.075	3937.62
959.378	3895.36
959.682	3896.72
959.985	3850.85
960.289	3848.36
960.592	3804.29
960.896	3780.56
961.199	3783.05
961.502	3781.02
961.805	3736.5
962.108	3714.58
962.411	3700.11
962.714	3691.53
963.017	3689.04
963.32	3717.52
963.623	3642.94
963.926	3609.27
964.228	3650.4
964.531	3596.84
964.833	3593.68
965.136	3592.09
965.438	3567.24
965.741	3536.28
966.043	3525.2
966.345	3513.45
966.648	3487.69
966.95	3477.3
967.252	3456.28
967.554	3457.64
967.856	3436.84
968.158	3401.59
968.46	3393
968.761	3383.96
969.063	3362.95
969.365	3372.67
969.666	3373.57
969.968	3314.36
970.269	3308.03
970.571	3284.98
970.872	3275.04
971.174	3268.04
971.475	3285.89
971.776	3294.7
972.077	3233.46
972.378	3232.78
972.679	3213.35
972.98	3195.72
973.281	3175.16
973.582	3189.85
973.883	3127.7
974.183	3148.04
974.484	3148.04
974.785	3142.39
975.085	3112.11
975.386	3117.08
975.686	3069.85
975.986	3061.49
976.287	3040.7
976.587	2994.82
976.887	3054.71
977.187	2983.3
977.487	2972
977.787	2961.38
978.087	2961.15
978.387	2909.4
978.687	2975.39
978.987	2943.3
979.286	2880.25
979.586	2889.97
979.885	2904.88
980.185	2882.51
980.484	2864.2
980.784	2825.56
981.083	2871.89
981.382	2804.54
981.682	2794.15
981.981	2769.74
982.28	2784.66
982.579	2784.43
982.878	2732.46
983.177	2740.59
983.475	2737.88
983.774	2741.95
984.073	2743.53
984.372	2680.71
984.67	2683.19
984.969	2729.97
985.267	2656.53
985.566	2639.13
985.864	2668.5
986.162	2634.38
986.461	2601.39
986.759	2584.66
987.057	2576.08
987.355	2588.51
987.653	2565.91
987.951	2582.86
988.249	2547.83
988.547	2550.77
988.844	2504.21
989.142	2559.13
989.44	2508.51
989.737	2511.22
990.035	2487.04
990.332	2471.67
990.63	2459.24
990.927	2455.63
991.224	2452.69
991.521	2417.89
991.819	2430.32
992.116	2437.55
992.413	2412.46
992.71	2351.9
993.006	2356.65
993.303	2356.2
993.6	2350.09
993.897	2312.35
994.193	2367.49
994.49	2311.22
994.787	2307.16
995.083	2269.87
995.379	2269.19
995.676	2270.55
995.972	2240.04
996.268	2250.89
996.565	2244.11
996.861	2221.51
997.157	2181.06
997.453	2181.28
997.749	2231.68
998.044	2169.99
998.34	2182.41
998.636	2137.9
998.932	2134.51
999.227	2167.27
999.523	2114.17
999.818	2122.98
1000.114	2117.78
1000.409	2117.33
1000.704	2097.44
1001	2096.99
1001.295	2090.89
1001.59	2056.32
1001.885	2082.08
1002.18	2023.77
1002.475	2002.98
1002.77	2002.76
1003.065	1994.17
1003.359	1979.48
1003.654	1975.19
1003.949	1982.65
1004.243	1932.25
1004.538	1927.28
1004.832	1961.18
1005.127	1933.16
1005.421	1905.13
1005.715	1892.03
1006.009	1884.8
1006.304	1853.16
1006.598	1877.11
1006.892	1850.22
1007.186	1831.46
1007.48	1842.54
1007.773	1827.85
1008.067	1835.76
1008.361	1792.37
1008.655	1777.68
1008.948	1796.89
1009.242	1751.47
1009.535	1762.76
1009.829	1792.37
1010.122	1746.27
1010.415	1748.75
1010.708	1730.22
1011.001	1701.98
1011.295	1670.56
1011.588	1682.09
1011.881	1687.06
1012.173	1685.7
1012.466	1640.06
1012.759	1659.04
1013.052	1672.15
1013.344	1642.54
1013.637	1629.21
1013.93	1623.56
1014.222	1624.91
1014.514	1606.84
1014.807	1579.94
1015.099	1602.99
1015.391	1594.86
1015.683	1572.03
1015.976	1577.23
1016.268	1513.51
1016.56	1534.52
1016.851	1533.84
1017.143	1548.08
1017.435	1505.37
1017.727	1482.77
1018.018	1490.68
1018.31	1483.68
1018.602	1480.74
1018.893	1461.53
1019.185	1464.24
1019.476	1446.16
1019.767	1470.34
1020.058	1441.64
1020.35	1422.89
1020.641	1400.06
1020.932	1408.88
1021.223	1392.15
1021.514	1373.62
1021.804	1392.6
1022.095	1359.16
1022.386	1363.9
1022.677	1328.65
1022.967	1335.88
1023.258	1345.37
1023.548	1318.03
1023.839	1304.92
1024.129	1303.79
1024.419	1320.06
1024.709	1299.27
1025	1270.57
1025.29	1279.61
1025.58	1294.3
1025.87	1243.91
1026.16	1237.13
1026.449	1235.09
1026.739	1265.15
1027.029	1234.87
1027.319	1215.43
1027.608	1193.97
1027.898	1167.07
1028.187	1192.61
1028.477	1198.03
1028.766	1196.9
1029.055	1176.57
1029.344	1180.63
1029.634	1151.48
1029.923	1133.63
1030.212	1115.1
1030.501	1137.92
1030.79	1144.02
1031.078	1090.24
1031.367	1126.4
1031.656	1124.14
1031.945	1096.79
1032.233	1133.4
1032.522	1086.4
1032.81	1066.06
1033.099	1056.12
1033.387	1061.99
1033.675	1042.78
1033.963	1060.86
1034.251	1052.95
1034.54	1038.26
1034.828	1018.15
1035.116	1018.6
1035.403	1021.99
1035.691	1004.37
1035.979	1012.5
1036.267	1010.92
1036.554	975.67
1036.842	977.47
1037.129	986.97
1037.417	970.69
1037.704	990.36
1037.992	959.85
1038.279	941.09
1038.566	954.2
1038.853	954.2
1039.14	954.2
