Data from hue_32_FLMS001491_00063.txt Node
Date: Tue Feb 07 17:23:44 GMT 2017
User: dcchb
Spectrometer: FLMS00149
Trigger mode: 0
Integration Time (sec): 2.000000E-2
Scans to average: 10
Electric dark correction enabled: true
Nonlinearity correction enabled: false
Boxcar width: 0
XAxis mode: Wavelengths
Number of Pixels in Spectrum: 2048
>>>>>Begin Spectral Data<<<<<
341.393	-15.85
341.776	-15.85
342.16	-15.85
342.543	-65.56
342.927	-94.04
343.31	-87.26
343.693	-60.82
344.077	-36.86
344.46	-83.64
344.843	-47.03
345.226	-52
345.61	-31.67
345.993	-6.13
346.376	-3.87
346.759	6.07
347.142	27.77
347.525	49.01
347.908	65.73
348.291	54.66
348.674	106.18
349.057	99.86
349.44	118.84
349.823	133.98
350.206	166.52
350.588	205.16
350.971	223.47
351.354	230.02
351.737	231.6
352.119	246.74
352.502	267.54
352.884	289.46
353.267	303.69
353.65	283.81
354.032	305.73
354.414	294.2
354.797	321.77
355.179	314.99
355.562	347.76
355.944	326.97
356.326	340.98
356.709	337.59
357.091	330.36
357.473	337.14
357.855	340.98
358.238	339.4
358.62	346.63
359.002	347.76
359.384	355.89
359.766	350.7
360.148	344.82
360.53	336.23
360.912	341.43
361.294	351.37
361.676	313.41
362.057	333.75
362.439	326.06
362.821	310.7
363.203	326.06
363.584	320.42
363.966	349.34
364.348	338.49
364.729	313.64
365.111	336.69
365.493	348.89
365.874	320.87
366.256	330.36
366.637	312.05
367.019	324.71
367.4	299.85
367.781	295.56
368.163	301.66
368.544	309.57
368.925	312.28
369.306	339.4
369.688	291.49
370.069	324.48
370.45	338.27
370.831	314.31
371.212	312.51
371.593	299.85
371.974	325.84
372.355	332.62
372.736	321.77
373.117	315.22
373.498	311.6
373.879	335.56
374.26	325.16
374.641	313.86
375.021	310.47
375.402	320.87
375.783	326.29
376.163	344.82
376.544	321.55
376.925	335.33
377.305	317.48
377.686	340.75
378.066	320.64
378.447	335.56
378.827	324.03
379.208	340.3
379.588	336.69
379.968	348.66
380.349	334.43
380.729	326.74
381.109	328.55
381.489	338.49
381.87	324.93
382.25	340.3
382.63	339.62
383.01	352.28
383.39	337.14
383.77	346.18
384.15	349.79
384.53	327.87
384.91	349.34
385.29	338.72
385.67	355.67
386.049	378.27
386.429	360.19
386.809	361.32
387.189	362.22
387.568	357.48
387.948	359.28
388.328	349.34
388.707	362.67
389.087	360.41
389.466	370.13
389.846	380.75
390.225	369.45
390.605	350.02
390.984	352.05
391.363	376.91
391.743	370.36
392.122	377.81
392.501	362.9
392.881	376.91
393.26	368.1
393.639	387.31
394.018	373.75
394.397	392.5
394.776	372.39
395.155	376.46
395.534	382.79
395.913	387.08
396.292	367.87
396.671	389.57
397.05	376.91
397.429	397.25
397.808	383.46
398.186	377.14
398.565	398.83
398.944	401.77
399.323	399.06
399.701	387.31
400.08	403.8
400.458	394.31
400.837	386.18
401.215	428.89
401.594	421.2
401.972	429.11
402.351	413.29
402.729	405.16
403.107	418.72
403.486	404.25
403.864	402.22
404.242	414.42
404.62	422.33
404.999	406.51
405.377	422.11
405.755	436.34
406.133	441.09
406.511	443.35
406.889	431.15
407.267	418.04
407.645	441.54
408.023	427.98
408.401	449.23
408.779	446.51
409.156	420.75
409.534	441.99
409.912	460.52
410.29	452.16
410.667	459.17
411.045	463.69
411.422	465.72
411.8	469.79
412.178	487.19
412.555	458.72
412.933	474.31
413.31	474.99
413.687	476.12
414.065	482.44
414.442	482.67
414.819	490.13
415.197	498.94
415.574	490.13
415.951	511.37
416.328	512.73
416.705	487.42
417.082	501.43
417.46	522.67
417.837	524.48
418.214	526.74
418.591	521.09
418.967	506.4
419.344	524.03
419.721	522.22
420.098	557.25
420.475	549.79
420.852	532.39
421.228	529.45
421.605	546.62
421.982	538.71
422.358	554.76
422.735	553.4
423.111	581.88
423.488	570.35
423.864	564.48
424.241	571.48
424.617	596.11
424.994	582.78
425.37	575.55
425.746	595.89
426.123	578.71
426.499	585.49
426.875	593.85
427.251	619.39
427.627	584.59
428.003	595.66
428.379	627.3
428.756	627.53
429.132	635.44
429.507	634.98
429.883	630.69
430.259	651.93
430.635	639.73
431.011	651.03
431.387	662.55
431.763	647.64
432.138	677.02
432.514	668.2
432.89	678.6
433.265	664.36
433.641	684.47
434.016	698.71
434.392	708.88
434.767	709.78
435.143	701.42
435.518	703.46
435.894	728.31
436.269	739.61
436.644	761.08
437.02	732.83
437.395	758.6
437.77	746.39
438.145	741.42
438.52	773.74
438.895	742.55
439.271	755.88
439.646	794.08
440.021	776.45
440.395	788.2
440.77	769.67
441.145	775.09
441.52	806.5
441.895	792.49
442.27	824.36
442.645	789.56
443.019	824.13
443.394	838.14
443.769	799.27
444.143	829.1
444.518	841.08
444.892	818.03
445.267	821.87
445.641	858.93
446.016	844.7
446.39	855.77
446.764	851.02
447.139	856.45
447.513	866.16
447.887	840.4
448.262	876.56
448.636	893.06
449.01	885.6
449.384	896.45
449.758	885.37
450.132	891.7
450.506	916.78
450.88	926.05
451.254	921.76
451.628	915.2
452.002	935.99
452.376	930.79
452.75	926.5
453.123	951.81
453.497	954.75
453.871	959.04
454.244	975.09
454.618	972.38
454.992	986.16
455.365	992.26
455.739	1000.85
456.112	1033.16
456.486	1026.84
456.859	1039.94
457.232	1051.92
457.606	1079.49
457.979	1059.15
458.352	1107.74
458.725	1113.39
459.099	1117
459.472	1131.69
459.845	1136.21
460.218	1152.26
460.591	1142.77
460.964	1185.7
461.337	1197
461.71	1207.4
462.083	1222.76
462.456	1210.79
462.829	1245.36
463.201	1260.73
463.574	1245.36
463.947	1248.98
464.32	1304.12
464.692	1328.3
465.065	1352.25
465.438	1326.94
465.81	1348.18
466.183	1341.86
466.555	1402.87
466.928	1415.3
467.3	1403.55
467.672	1435.64
468.045	1451.23
468.417	1485.81
468.789	1463.89
469.161	1505.02
469.534	1538.69
469.906	1538.24
470.278	1586.6
470.65	1593.6
471.022	1634.51
471.394	1670.66
471.766	1693.94
472.138	1710.44
472.51	1742.52
472.882	1761.28
473.253	1787.95
473.625	1795.18
473.997	1867.72
474.369	1903.42
474.74	1936.87
475.112	1953.37
475.484	2008.05
475.855	2047.38
476.227	2074.95
476.598	2119.46
476.97	2117.88
477.341	2207.15
477.713	2236.07
478.084	2273.36
478.455	2329.4
478.827	2410.76
479.198	2468.38
479.569	2479.68
479.94	2560.58
480.311	2612.11
480.682	2679.9
481.053	2749.96
481.424	2791.76
481.795	2861.82
482.166	2959.89
482.537	2997.86
482.908	3061.13
483.279	3129.83
483.65	3189.49
484.021	3269.04
484.391	3354.23
484.762	3440.33
485.133	3484.85
485.503	3547.45
485.874	3639.42
486.244	3719.87
486.615	3818.63
486.985	3821.79
487.356	4010.71
487.726	4035.57
488.097	4176.13
488.467	4240.09
488.837	4342.68
489.207	4386.98
489.578	4499.29
489.948	4551.26
490.318	4644.82
490.688	4706.97
491.058	4834.87
491.428	4926.17
491.798	5007.52
492.168	5107.86
492.538	5158.71
492.908	5273.28
493.278	5362.54
493.648	5370.23
494.017	5494.06
494.387	5601.41
494.757	5635.3
495.126	5788.75
495.496	5791.46
495.866	5905.13
496.235	6006.82
496.605	6079.81
496.974	6116.42
497.344	6219.92
497.713	6319.81
498.082	6341.95
498.452	6451.78
498.821	6518.22
499.19	6509.18
499.559	6640.7
499.928	6706.01
500.298	6802.28
500.667	6861.71
501.036	6885.44
501.405	7004.53
501.774	6997.53
502.143	7085.89
502.512	7141.48
502.88	7292.44
503.249	7278.65
503.618	7352.09
503.987	7427.35
504.356	7460.11
504.724	7548.47
505.093	7596.16
505.462	7640
505.83	7711.18
506.199	7741.01
506.567	7939.42
506.936	7925.41
507.304	7959.31
507.672	8060.1
508.041	8119.53
508.409	8229.36
508.777	8216.48
509.145	8319.08
509.514	8281.79
509.882	8326.08
510.25	8411.5
510.618	8479.07
510.986	8530.37
511.354	8598.16
511.722	8668.44
512.09	8717.93
512.458	8740.98
512.826	8794.32
513.193	8929
513.561	8873.64
513.929	9016.46
514.297	9052.39
514.664	9089.9
515.032	9079.28
515.4	9274.08
515.767	9205.38
516.135	9340.74
516.502	9274.76
516.869	9401.98
517.237	9473.17
517.604	9416.9
517.972	9545.48
518.339	9658.47
518.706	9549.1
519.073	9635.2
519.44	9703.9
519.808	9738.25
520.175	9795.19
520.542	9934.85
520.909	9996.55
521.276	10006.26
521.643	9973.95
522.009	10119.93
522.376	10224.56
522.743	10209.87
523.11	10319.02
523.477	10408.74
523.843	10456.19
524.21	10534.38
524.577	10640.6
524.943	10648.05
525.31	10689.18
525.676	10801.95
526.043	10794.26
526.409	10960.36
526.776	11006.24
527.142	10925.33
527.508	11101.6
527.874	11110.19
528.241	11125.78
528.607	11212.11
528.973	11251.2
529.339	11344.53
529.705	11417.52
530.071	11511.31
530.437	11584.53
530.803	11662.72
531.169	11639.89
531.535	11661.13
531.901	11705.2
532.267	11855.93
532.632	11932.54
532.998	11924.63
533.364	11927.79
533.73	12003.05
534.095	12154.68
534.461	12108.35
534.826	12179.31
535.192	12335.24
535.557	12414.11
535.923	12318.52
536.288	12405.52
536.653	12412.3
537.019	12524.61
537.384	12507.89
537.749	12643.71
538.114	12628.79
538.479	12645.29
538.845	12729.58
539.21	12661.33
539.575	12765.29
539.94	12865.4
540.305	12850.93
540.67	12963.25
541.034	13022.45
541.399	13044.37
541.764	13042.57
542.129	13240.53
542.494	13206.4
542.858	13235.1
543.223	13286.4
543.587	13328.89
543.952	13352.16
544.316	13415.21
544.681	13440.75
545.045	13554.64
545.41	13617.24
545.774	13620.18
546.138	13705.37
546.503	13734.07
546.867	13701.98
547.231	13924.8
547.595	13908.31
547.959	13951.7
548.324	13912.37
548.688	13988.53
549.052	14105.82
549.416	14092.93
549.779	14187.62
550.143	14168.19
550.507	14274.85
550.871	14322.53
551.235	14378.35
551.599	14432.36
551.962	14389.88
552.326	14440.5
552.689	14616.99
553.053	14567.5
553.417	14601.4
553.78	14773.59
554.143	14774.27
554.507	14797.77
554.87	14813.82
555.234	14961.84
555.597	14920.71
555.96	14971.78
556.323	15129.97
556.686	15070.31
557.05	15142.85
557.413	15160.25
557.776	15180.14
558.139	15320.47
558.502	15332.45
558.865	15447.25
559.228	15492.22
559.59	15565.66
559.953	15446.12
560.316	15661.93
560.679	15684.08
561.041	15695.6
561.404	15846.11
561.767	15891.98
562.129	15905.99
562.492	16042.94
562.854	16017.86
563.217	16084.29
563.579	15982.6
563.941	16231.41
564.304	16289.49
564.666	16354.12
565.028	16366.55
565.39	16409.26
565.753	16573.32
566.115	16557.95
566.477	16581.91
566.839	16641.57
567.201	16782.58
567.563	16778.97
567.925	16820.32
568.287	16895.35
568.648	16936.25
569.01	16989.13
569.372	17166.98
569.734	17112.52
570.095	17179.18
570.457	17270.93
570.819	17375.33
571.18	17363.58
571.542	17458.5
571.903	17505.95
572.265	17653.97
572.626	17762.44
572.987	17734.42
573.349	17910.69
573.71	18067.97
574.071	17947.07
574.432	18074.75
574.794	18240.62
575.155	18235.65
575.516	18288.08
575.877	18455.98
576.238	18465.93
576.599	18609.88
576.96	18807.61
577.32	18873.37
577.681	18982.3
578.042	19215.29
578.403	19188.39
578.763	19393.36
579.124	19507.93
579.485	19704.54
579.845	19905.66
580.206	19937.53
580.566	20020.24
580.927	20306.33
581.287	20406.89
581.648	20651.41
582.008	20803.94
582.368	20992.19
582.728	21310.82
583.089	21267.21
583.449	21568.44
583.809	21640.53
584.169	21960.52
584.529	22057.47
584.889	22415.43
585.249	22481.19
585.609	22652.71
585.969	23020.16
586.329	23183.32
586.688	23362.52
587.048	23641.38
587.408	23810.19
587.768	23986.23
588.127	24248.37
588.487	24515.94
588.846	24956.15
589.206	24961.12
589.565	25182.59
589.925	25503.71
590.284	25724.27
590.643	26018.5
591.003	26237.25
591.362	26663.9
591.721	26863.45
592.08	27114.06
592.44	27410.1
592.799	27715.85
593.158	27989.52
593.517	28173.02
593.876	28444.2
594.235	28641.48
594.593	28960.57
594.952	29162.14
595.311	29451.63
595.67	29717.38
596.029	30009.35
596.387	30376.12
596.746	30574.31
597.104	30770.91
597.463	30992.83
597.822	31393.95
598.18	31454.51
598.538	31661.51
598.897	32199.13
599.255	32078
599.613	32703.74
599.972	32787.13
600.33	33048.82
600.688	33160.46
601.046	33549.6
601.404	33768.8
601.762	33907.78
602.12	34380.99
602.478	34448.33
602.836	34619.63
603.194	34726.74
603.552	34950.92
603.91	35078.37
604.268	35403.33
604.625	35549.09
604.983	35904.34
605.341	35911.34
605.698	36305.91
606.056	36440.6
606.413	36607.82
606.771	36807.14
607.128	37097.3
607.485	37133.23
607.843	37308.6
608.2	37684.63
608.557	37900.9
608.914	37769.15
609.272	38048.01
609.629	38269.7
609.986	38549.01
610.343	38479.41
610.7	39032.84
611.057	38993.07
611.414	39006.18
611.771	39245.72
612.127	39432.38
612.484	39572.26
612.841	39827.63
613.198	39888.87
613.554	39887.74
613.911	40240.27
614.267	40463.31
614.624	40374.73
614.98	40506.25
615.337	40742.86
615.693	40903.75
616.05	40788.96
616.406	41179.91
616.762	41144.88
617.118	41308.49
617.475	41432.78
617.831	41483.63
618.187	41581.7
618.543	41723.62
618.899	42090.62
619.255	41955.03
619.611	42034.8
619.967	42156.38
620.323	42288.58
620.678	42299.88
621.034	42303.27
621.39	42389.14
621.746	42248.13
622.101	42884.49
622.457	42558.85
622.812	42813.76
623.168	42833.2
623.523	42990.48
623.879	43149.57
624.234	43025.51
624.589	43187.54
624.945	43217.82
625.3	43413.07
625.655	43407.64
626.01	43450.13
626.365	43467.76
626.72	43429.11
627.075	43505.95
627.43	43495.78
627.785	43458.72
628.14	43602.67
628.495	43671.14
628.85	43643.8
629.205	43456.46
629.559	43707.75
629.914	43516.79
630.269	43841.98
630.623	43699.16
630.978	43601.09
631.332	43697.13
631.687	43806.5
632.041	43823.45
632.396	43929.44
632.75	43628.88
633.104	43743.45
633.459	43736.45
633.813	43604.93
634.167	43831.36
634.521	43728.09
634.875	43855.54
635.229	43704.81
635.583	43659.84
635.937	43591.37
636.291	43615.77
636.645	43705.49
636.999	43652.16
637.352	43758.6
637.706	43457.13
638.06	43789.78
638.413	43514.53
638.767	43452.39
639.121	43512.95
639.474	43373.75
639.828	43467.08
640.181	43533.52
640.534	43329.23
640.888	43358.15
641.241	43197.71
641.594	43301.66
641.947	43496.23
642.301	43221.43
642.654	43300.98
643.007	43365.39
643.36	43192.73
643.713	43256.69
644.066	43433.18
644.419	43182.79
644.771	42931.27
645.124	42757.49
645.477	42479.76
645.83	42260.1
646.182	42192.99
646.535	42190.95
646.888	42151.18
647.24	41943.28
647.593	42223.49
647.945	42099.2
648.298	42007
648.65	41817.4
649.002	41802.49
649.355	42011.75
649.707	41967.68
650.059	42126.32
650.411	42543.03
650.763	42495.13
651.115	42927.2
651.467	42905.74
651.819	42691.5
652.171	42701.9
652.523	42563.6
652.875	42584.84
653.227	42453.54
653.578	42886.3
653.93	42670.26
654.282	42521.11
654.633	42445.18
654.985	42608.12
655.337	42519.76
655.688	42710.04
656.039	42807.66
656.391	42404.28
656.742	42573.77
657.094	42418.74
657.445	42766.76
657.796	42531.28
658.147	42512.3
658.498	42451.51
658.849	42627.33
659.2	42440.89
659.551	42397.5
659.902	42417.84
660.253	42446.54
660.604	42451.96
660.955	42209.03
661.306	42362.02
661.656	42299.65
662.007	42228.92
662.358	42419.42
662.708	42396.15
663.059	42343.04
663.409	41985.08
663.76	42364.06
664.11	42252.87
664.461	42237.05
664.811	42144.4
665.161	42206.09
665.511	42207.45
665.862	42349.37
666.212	42355.47
666.562	42318.86
666.912	42140.11
667.262	42030.05
667.612	42053.1
667.962	42127.68
668.312	42166.09
668.662	42301.01
669.011	42150.95
669.361	42112.08
669.711	42051.52
670.06	42127.45
670.41	42006.1
670.76	42046.78
671.109	42166.77
671.459	41938.08
671.808	41947.34
672.157	42084.29
672.507	41789.38
672.856	41842.49
673.205	41913.9
673.554	42049.04
673.904	41944.63
674.253	41965.87
674.602	42000.45
674.951	41370.41
675.3	41207.25
675.649	41854.24
675.998	41673.23
676.346	41822.15
676.695	41986.21
677.044	41710.06
677.393	41804.3
677.741	41748.7
678.09	41581.7
678.438	41558.65
678.787	41683.62
679.135	41618.76
679.484	41266.01
679.832	41493.12
680.181	41267.36
680.529	41336.51
680.877	41237.08
681.225	41205.22
681.573	41493.34
681.922	41174.71
682.27	40994.6
682.618	41070.98
682.966	40852.68
683.314	41030.76
683.661	40974.49
684.009	40776.3
684.357	40750.31
684.705	40683.2
685.053	40669.18
685.4	40541.73
685.748	40618.34
686.095	40377.22
686.443	40323.66
686.79	40213.38
687.138	40378.12
687.485	40336.99
687.832	40107.39
688.18	40273.04
688.527	40002.54
688.874	40016.09
689.221	39869.43
689.568	39777.68
689.915	39700.85
690.262	39757.57
690.609	39611.13
690.956	39517.8
691.303	39393.74
691.65	39272.84
691.997	39169.11
692.344	39045.72
692.69	38900.42
693.037	38910.59
693.383	38790.82
693.73	38890.02
694.077	38565.29
694.423	38604.38
694.769	38392.86
695.116	38435.12
695.462	38299.08
695.808	38261.56
696.155	38415.91
696.501	38142.92
696.847	38014.11
697.193	37713.78
697.539	37860.22
697.885	37691.18
698.231	37679.88
698.577	37690.96
698.923	37625.42
699.269	37342.72
699.614	37301.14
699.96	37079
700.306	37142.72
700.651	36930.3
700.997	36809.63
701.342	36777.08
701.688	36790.64
702.033	36610.08
702.379	36539.8
702.724	36486.02
703.069	36591.1
703.415	36049.19
703.76	36157.21
704.105	36147.27
704.45	36098.01
704.795	35867.05
705.14	35794.74
705.485	35763.1
705.83	35661.18
706.175	35656.44
706.52	35505.93
706.865	35520.62
707.209	35417.35
707.554	35331.25
707.899	35410.11
708.243	35289.89
708.588	35073.17
708.932	34870.24
709.277	34931.26
709.621	34935.1
709.966	34765.39
710.31	34791.6
710.654	34452.17
710.998	34590.7
711.342	34532.85
711.687	34411.5
712.031	34231.61
712.375	34077.49
712.719	34192.29
713.063	34031.39
713.407	34237.26
713.75	34018.29
714.094	33890.38
714.438	33692.87
714.782	33878.63
715.125	33682.7
715.469	33777.16
715.812	33583.04
716.156	33380.56
716.499	33416.04
716.843	33398.42
717.186	33274.58
717.53	33505.76
717.873	33342.15
718.216	33272.77
718.559	33124.98
718.902	33000.23
719.246	33036.17
719.589	32938.31
719.932	32874.59
720.275	32785.32
720.617	32820.58
720.96	32668.04
721.303	32741.94
721.646	32682.73
721.989	32541.94
722.331	32711.2
722.674	32539.68
723.016	32428.95
723.359	32341.04
723.701	32427.59
724.044	32107.38
724.386	32084.55
724.729	32303.3
725.071	32083.65
725.413	32094.95
725.755	32029.19
726.097	32021.73
726.439	31806.59
726.782	31844.56
727.124	31844.78
727.465	31772.47
727.807	31703.32
728.149	31629.42
728.491	31455.19
728.833	31660.83
729.175	31502.19
729.516	31425.81
729.858	31399.6
730.199	31384.91
730.541	31372.03
730.882	31315.53
731.224	31344.46
731.565	31226.27
731.906	31266.04
732.248	31159.6
732.589	31027.4
732.93	30874.41
733.271	30986.28
733.612	30850.91
733.953	31041.64
734.294	30833.51
734.635	30781.99
734.976	30807.75
735.317	30609.34
735.658	30602.56
735.999	30577.47
736.339	30455.89
736.68	30576.34
737.021	30487.98
737.361	30340.19
737.702	30520.3
738.042	30506.51
738.383	30334.32
738.723	30308.78
739.063	30262.23
739.404	30286.63
739.744	30270.14
740.084	30153.08
740.424	30299.29
740.764	30171.38
741.104	30109.46
741.444	29904.5
741.784	29878.73
742.124	29971.61
742.464	29908.79
742.804	29916.7
743.143	29841.22
743.483	29801.22
743.823	29513.32
744.162	29697.04
744.502	29755.8
744.841	29556.48
745.181	29616.59
745.52	29570.04
745.86	29480.1
746.199	29533.43
746.538	29535.01
746.877	29555.8
747.216	29419.76
747.556	29335.25
747.895	29305.19
748.234	29123.27
748.573	29183.84
748.911	29116.49
749.25	29181.13
749.589	29016.84
749.928	29067.68
750.267	29088.25
750.605	28953.79
750.944	28800.34
751.283	28636.51
751.621	28890.74
751.96	28593.57
752.298	28737.3
752.636	28610.07
752.975	28541.37
753.313	28363.29
753.651	28511.99
753.989	28351.77
754.327	28232
754.666	28278.55
755.004	28274.71
755.342	28353.58
755.679	28182.51
756.017	28055.51
756.355	28140.7
756.693	27904.55
757.031	28062.06
757.368	27803.76
757.706	27895.28
758.044	27694.61
758.381	27753.82
758.719	27605.12
759.056	27566.25
759.394	27565.35
759.731	27368.07
760.068	27338.24
760.405	27282.87
760.743	27170.78
761.08	27168.75
761.417	27149.09
761.754	27156.77
762.091	26918.13
762.428	26899.6
762.765	26746.61
763.102	26822.77
763.438	26634.98
763.775	26627.29
764.112	26418.94
764.449	26605.83
764.785	26399.28
765.122	26354.53
765.458	26106.63
765.795	26102.34
766.131	26117.48
766.467	25996.35
766.804	25874.77
767.14	25772.4
767.476	25746.64
767.812	25665.06
768.148	25684.27
768.485	25519.07
768.821	25451.73
769.157	25328.8
769.492	25244.05
769.828	25341.45
770.164	24944.4
770.5	24961.35
770.836	24917.28
771.171	24844.74
771.507	24778.53
771.842	24568.37
772.178	24501.02
772.513	24561.13
772.849	24292.67
773.184	24319.56
773.519	24349.61
773.855	24186.68
774.19	24015.16
774.525	23948.72
774.86	23977.65
775.195	23870.3
775.53	23763.19
775.865	23729.97
776.2	23497.88
776.535	23415.85
776.87	23352.58
777.205	23303.54
777.539	23184.9
777.874	23271.22
778.209	22998.69
778.543	22967.96
778.878	22765.93
779.212	22783.78
779.547	22699.04
779.881	22693.39
780.215	22521.64
780.55	22524.13
780.884	22471.02
781.218	22298.59
781.552	22362.32
781.886	22278.93
782.22	22078.49
782.554	22057.7
782.888	21786.52
783.222	21760.53
783.556	21656.13
783.889	21708.78
784.223	21430.59
784.557	21455.45
784.89	21565.73
785.224	21362.35
785.557	21270.82
785.891	21215.01
786.224	21165.74
786.558	21095.01
786.891	20981.79
787.224	20890.72
787.557	20827.22
787.891	20816.83
788.224	20794.23
788.557	20615.02
788.89	20694.79
789.223	20613.89
789.556	20485.53
789.888	20381.13
790.221	20302.71
790.554	20107.92
790.887	20173.45
791.219	20047.58
791.552	19998.32
791.884	19845.55
792.217	19866.12
792.549	19941.37
792.882	19636.52
793.214	19587.93
793.546	19570.76
793.879	19556.29
794.211	19286.92
794.543	19355.85
794.875	19410.53
795.207	19396.75
795.539	19300.71
795.871	19262.74
796.203	19077.66
796.535	18994.5
796.867	18915.63
797.198	18879.7
797.53	18965.35
797.862	18704.11
798.193	18855.52
798.525	18678.35
798.856	18719.48
799.188	18484.46
799.519	18387.28
799.85	18430.45
800.182	18413.05
800.513	18434.74
800.844	18153.84
801.175	18322.65
801.506	18317.46
801.837	18106.16
802.168	18086.28
802.499	18062.1
802.83	17897.13
803.161	17836.11
803.491	17809.45
803.822	17961.08
804.153	17800.86
804.483	17585.27
804.814	17513.64
805.145	17505.73
805.475	17535.78
805.805	17420.76
806.136	17369.23
806.466	17338.5
806.796	17373.75
807.126	17195
807.457	17122.01
807.787	17230.93
808.117	17145.51
808.447	17071.84
808.777	17015.12
809.107	16895.35
809.436	16865.29
809.766	16827.78
810.096	16870.49
810.426	16856.48
810.755	16680.44
811.085	16723.15
811.414	16646.54
811.744	16507.33
812.073	16559.31
812.403	16456.26
812.732	16421.23
813.061	16424.85
813.39	16297.17
813.719	16239.09
814.049	16378.52
814.378	16229.15
814.707	16200.9
815.036	16203.61
815.365	16129.27
815.693	16073
816.022	15974.69
816.351	16013.11
816.68	15875.94
817.008	15942.15
817.337	15808.6
817.665	15704.42
817.994	15813.57
818.322	15712.33
818.651	15650.63
818.979	15610.18
819.307	15746
819.636	15569.96
819.964	15505.1
820.292	15601.37
820.62	15451.09
820.948	15505.33
821.276	15539
821.604	15446.8
821.932	15529.05
822.259	15507.13
822.587	15442.05
822.915	15447.93
823.243	15496.97
823.57	15418.55
823.898	15423.97
824.225	15370.19
824.553	15383.52
824.88	15386.23
825.207	15410.19
825.535	15315.95
825.862	15457.87
826.189	15274.37
826.516	15411.54
826.843	15390.3
827.17	15439.11
827.497	15445.67
827.824	15405.44
828.151	15326.12
828.478	15303.3
828.805	15412.45
829.131	15300.36
829.458	15387.14
829.785	15320.25
830.111	15293.58
830.438	15369.96
830.764	15294.71
831.09	15328.61
831.417	15271.43
831.743	15283.64
832.069	15323.41
832.395	15266.01
832.722	15312.56
833.048	15286.35
833.374	15247.48
833.7	15187.82
834.026	15229.4
834.351	15263.75
834.677	15151.21
835.003	15203.64
835.329	15170.42
835.654	15097.65
835.98	15086.13
836.306	15128.84
836.631	15084.32
836.956	15083.64
837.282	15052.01
837.607	15028.96
837.932	15006.13
838.258	14932.46
838.583	14916.87
838.908	14831.67
839.233	14819.02
839.558	14786.25
839.883	14719.36
840.208	14629.42
840.533	14815.18
840.858	14826.47
841.182	14710.77
841.507	14708.06
841.832	14563.88
842.156	14615.41
842.481	14629.64
842.805	14542.41
843.13	14526.37
843.454	14478.01
843.778	14396.88
844.103	14371.57
844.427	14387.16
844.751	14343.1
845.075	14353.94
845.399	14278.47
845.723	14193.72
846.047	14231.69
846.371	14040.51
846.695	14134.52
847.019	13951.24
847.343	13957.57
847.666	13785.6
847.99	13727.29
848.313	13817.69
848.637	13722.77
848.96	13648.2
849.284	13612.04
849.607	13567.52
849.931	13546.28
850.254	13443.91
850.577	13388.55
850.9	13260.41
851.223	13324.82
851.546	13187.2
851.869	13124.37
852.192	13222.45
852.515	13092.06
852.838	12995.79
853.161	13007.54
853.483	12836.24
853.806	12857.71
854.129	12840.31
854.451	12815.45
854.774	12687.77
855.096	12721.45
855.419	12704.27
855.741	12617.72
856.063	12597.38
856.385	12507.44
856.708	12594.89
857.03	12439.87
857.352	12479.87
857.674	12434.22
857.996	12390.15
858.318	12265.86
858.64	12297.05
858.961	12205.07
859.283	12168.24
859.605	12152.87
859.926	12169.6
860.248	12151.52
860.57	12101.12
860.891	12132.53
861.212	12061.8
861.534	12016.15
861.855	11991.75
862.176	11906.78
862.498	11884.63
862.819	11850.73
863.14	11906.1
863.461	11842.37
863.782	11820.68
864.103	11773.67
864.424	11769.38
864.745	11750.62
865.065	11716.95
865.386	11666.56
865.707	11606.9
866.027	11707.23
866.348	11679.89
866.668	11584.07
866.989	11678.76
867.309	11486.9
867.63	11536.39
867.95	11551.08
868.27	11517.41
868.59	11443.06
868.91	11504.75
869.23	11434.93
869.55	11448.94
869.87	11495.94
870.19	11403.97
870.51	11372.78
870.83	11424.76
871.15	11383.85
871.469	11381.82
871.789	11391.08
872.109	11300.47
872.428	11305.89
872.748	11257.3
873.067	11258.88
873.386	11189.28
873.706	11189.73
874.025	11125.33
874.344	11138.89
874.663	11174.82
874.982	11138.21
875.301	11149.51
875.62	11066.35
875.939	11081.71
876.258	11019.34
876.577	11002.85
876.896	11057.76
877.214	10998.55
877.533	11027.48
877.852	10931.66
878.17	10999.46
878.489	10908.84
878.807	10919.46
879.125	10938.44
879.444	10855.05
879.762	10866.8
880.08	10846.01
880.398	10761.5
880.716	10695.74
881.034	10734.15
881.352	10742.29
881.67	10758.33
881.988	10799.24
882.306	10680.82
882.624	10587.49
882.941	10535.97
883.259	10548.62
883.577	10602.18
883.894	10495.74
884.212	10487.15
884.529	10477.89
884.846	10460.94
885.164	10507.04
885.481	10517.66
885.798	10421.62
886.115	10389.53
886.432	10355.18
886.75	10305.69
887.067	10296.2
887.383	10317.67
887.7	10260.49
888.017	10258.69
888.334	10257.33
888.651	10201.74
888.967	10174.39
889.284	10110.21
889.6	10108.41
889.917	10052.14
890.233	10035.87
890.55	9972.59
890.866	10031.57
891.182	9930.78
891.498	9906.38
891.815	9913.16
892.131	9873.84
892.447	9819.15
892.763	9809.66
893.079	9723.33
893.395	9694.63
893.71	9678.81
894.026	9681.07
894.342	9655.54
894.657	9560.17
894.973	9592.26
895.289	9568.99
895.604	9613.5
895.92	9475.43
896.235	9437.46
896.55	9458.25
896.865	9420.74
897.181	9377.8
897.496	9399.95
897.811	9334.87
898.126	9327.18
898.441	9262.55
898.756	9233.4
899.071	9167.87
899.386	9189.11
899.7	9110.92
900.015	9140.3
900.33	9023.01
900.644	9088.09
900.959	8980.07
901.273	9027.53
901.588	8918.61
901.902	8881.09
902.216	8795.22
902.531	8876.35
902.845	8810.14
903.159	8721.32
903.473	8729.23
903.787	8661.21
904.101	8614.66
904.415	8697.82
904.729	8605.62
905.042	8527.88
905.356	8545.96
905.67	8532.18
905.984	8540.76
906.297	8514.55
906.611	8393.2
906.924	8391.39
907.237	8370.83
907.551	8339.64
907.864	8317.04
908.177	8286.53
908.491	8248.12
908.804	8223.71
909.117	8149.59
909.43	8099.19
909.743	8071.85
910.056	8106.88
910.368	8053.09
910.681	8025.52
910.994	8039.31
911.307	7944.17
911.619	7866.66
911.932	7929.48
912.244	7840.9
912.557	7900.33
912.869	7742.14
913.181	7808.58
913.494	7733.1
913.806	7663.5
914.118	7628.47
914.43	7548.25
914.742	7584.41
915.054	7498.53
915.366	7580.34
915.678	7456.05
915.99	7460.79
916.302	7420.79
916.613	7382.15
916.925	7324.52
917.236	7311.64
917.548	7278.42
917.859	7249.95
918.171	7224.41
918.482	7224.64
918.794	7217.64
919.105	7184.87
919.416	7106.23
919.727	7087.24
920.038	7019.45
920.349	7031.88
920.66	7000.69
920.971	6998.21
921.282	6960.92
921.593	6901.71
921.903	6852.67
922.214	6805.89
922.525	6873.24
922.835	6814.26
923.146	6782.84
923.456	6758.66
923.767	6701.26
924.077	6661.49
924.387	6656.52
924.697	6581.27
925.008	6574.04
925.318	6565.9
925.628	6538.1
925.938	6498.33
926.248	6448.39
926.558	6454.94
926.867	6401.84
927.177	6402.52
927.487	6345.12
927.796	6327.26
928.106	6312.8
928.416	6262.63
928.725	6270.32
929.034	6203.88
929.344	6191.22
929.653	6171.33
929.962	6133.82
930.271	6146.25
930.581	6039.36
930.89	6040.04
931.199	6032.13
931.508	6019.25
931.817	6012.47
932.125	6035.07
932.434	5995.29
932.743	5934.73
933.051	5862.64
933.36	5857.22
933.669	5836.65
933.977	5861.96
934.286	5832.81
934.594	5792.59
934.902	5780.61
935.21	5682.53
935.519	5732.93
935.827	5681.4
936.135	5665.59
936.443	5609.09
936.751	5551.69
937.059	5568.19
937.367	5561.63
937.674	5540.17
937.982	5522.99
938.29	5480.51
938.597	5427.4
938.905	5404.12
939.213	5400.28
939.52	5372.26
939.827	5364.8
940.135	5330
940.442	5329.32
940.749	5313.28
941.056	5289.55
941.363	5254.97
941.67	5179.27
941.977	5168.2
942.284	5163.9
942.591	5131.59
942.898	5113.06
943.205	5145.37
943.511	5103.34
943.818	5050.23
944.125	5031.93
944.431	5047.52
944.738	5015.66
945.044	5027.64
945.35	4965.72
945.657	4865.15
945.963	4892.5
946.269	4850.69
946.575	4850.24
946.881	4853.18
947.187	4871.03
947.493	4830.81
947.799	4757.36
948.105	4764.59
948.41	4784.93
948.716	4746.06
949.022	4751.94
949.327	4704.93
949.633	4648.21
949.938	4641.43
950.244	4644.82
950.549	4604.37
950.854	4574.09
951.16	4553.07
951.465	4547.2
951.77	4545.84
952.075	4504.03
952.38	4494.54
952.685	4464.26
952.99	4448.22
953.294	4443.92
953.599	4404.15
953.904	4384.72
954.209	4394.21
954.513	4339.52
954.818	4329.35
955.122	4272.85
955.426	4293.42
955.731	4265.85
956.035	4233.76
956.339	4251.16
956.643	4213.65
956.948	4177.72
957.252	4189.47
957.556	4199.41
957.86	4132.52
958.163	4119.64
958.467	4131.84
958.771	4135
959.075	4105.17
959.378	4059.07
959.682	4032.41
959.985	4015.46
960.289	4014.1
960.592	3974.56
960.896	3933.65
961.199	3937.27
961.502	3928.91
961.805	3936.14
962.108	3886.2
962.411	3858.4
962.714	3862.47
963.017	3845.75
963.32	3871.96
963.623	3853.2
963.926	3839.87
964.228	3812.3
964.531	3757.84
964.833	3750.38
965.136	3736.37
965.438	3725.52
965.741	3679.2
966.043	3621.35
966.345	3656.15
966.648	3672.19
966.95	3635.58
967.252	3655.69
967.554	3623.15
967.856	3608.69
968.158	3545.42
968.46	3597.17
968.761	3558.97
969.063	3535.02
969.365	3524.62
969.666	3512.65
969.968	3441.92
970.269	3481.91
970.571	3427.45
970.872	3434.23
971.174	3416.61
971.475	3375.93
971.776	3403.95
972.077	3384.74
972.378	3379.77
972.679	3387.91
972.98	3346.78
973.281	3308.36
973.582	3311.07
973.883	3303.16
974.183	3297.06
974.484	3235.14
974.785	3232.66
975.085	3222.94
975.386	3232.66
975.686	3196.95
975.986	3194.92
976.287	3177.74
976.587	3140.45
976.887	3173.22
977.187	3148.82
977.487	3133.67
977.787	3076.95
978.087	3081.25
978.387	3103.39
978.687	3098.65
978.987	3044.86
979.286	3053
979.586	3015.71
979.885	2999.89
980.185	3000.34
980.484	2967.58
980.784	2976.84
981.083	2959.67
981.382	2920.35
981.682	2936.17
981.981	2904.3
982.28	2898.2
982.579	2884.64
982.878	2902.49
983.177	2839.9
983.475	2865.66
983.774	2843.96
984.073	2829.5
984.372	2803.29
984.67	2801.25
984.969	2768.49
985.267	2789.28
985.566	2788.6
985.864	2760.13
986.162	2755.61
986.461	2733.91
986.759	2701.82
987.057	2710.41
987.355	2679.45
987.653	2682.16
987.951	2682.84
988.249	2658.66
988.547	2663.4
988.844	2656.4
989.142	2626.57
989.44	2603.97
989.737	2583.18
990.035	2580.02
990.332	2571.2
990.63	2541.6
990.927	2561.49
991.224	2560.81
991.521	2505.89
991.819	2509.51
992.116	2538.89
992.413	2501.6
992.71	2453.69
993.006	2432.22
993.303	2432.68
993.6	2467.03
993.897	2419.34
994.193	2421.6
994.49	2432.68
994.787	2415.95
995.083	2371.43
995.379	2366.01
995.676	2378.44
995.972	2367.82
996.268	2340.93
996.565	2326.01
996.861	2350.19
997.157	2314.26
997.453	2319.23
997.749	2254.6
998.044	2284.88
998.34	2233.36
998.636	2243.98
998.932	2247.14
999.227	2245.79
999.523	2232.46
999.818	2202.85
1000.114	2182.06
1000.409	2157.2
1000.704	2170.76
1001	2161.95
1001.295	2140.48
1001.59	2163.3
1001.885	2108.84
1002.18	2090.54
1002.475	2108.16
1002.77	2089.41
1003.065	2075.17
1003.359	2064.32
1003.654	2063.87
1003.949	2044.89
1004.243	2020.71
1004.538	2039.92
1004.832	2063.87
1005.127	2029.3
1005.421	1966.02
1005.715	1982.74
1006.009	1938.45
1006.304	1943.2
1006.598	1940.94
1006.892	1919.02
1007.186	1916.98
1007.48	1925.8
1007.773	1897.55
1008.067	1898.23
1008.361	1881.96
1008.655	1871.56
1008.948	1850.09
1009.242	1876.31
1009.535	1838.34
1009.829	1846.02
1010.122	1794.73
1010.415	1807.16
1010.708	1819.58
1011.001	1801.73
1011.295	1777.33
1011.588	1749.3
1011.881	1756.76
1012.173	1783.88
1012.466	1754.28
1012.759	1731.9
1013.052	1719.7
1013.344	1724.9
1013.637	1683.77
1013.93	1650.55
1014.222	1659.59
1014.514	1656.43
1014.807	1679.7
1015.099	1653.71
1015.391	1618.46
1015.683	1614.39
1015.976	1632.47
1016.268	1584.79
1016.56	1586.37
1016.851	1603.77
1017.143	1567.39
1017.435	1564.68
1017.727	1552.7
1018.018	1540.27
1018.31	1533.04
1018.602	1533.94
1018.893	1528.29
1019.185	1521.51
1019.476	1505.24
1019.767	1491.23
1020.058	1479.25
1020.35	1443.32
1020.641	1480.16
1020.932	1444.91
1021.223	1468.86
1021.514	1428.41
1021.804	1399.93
1022.095	1439.93
1022.386	1403.1
1022.677	1392.03
1022.967	1364.68
1023.258	1383.89
1023.548	1386.15
1023.839	1352.93
1024.129	1334.4
1024.419	1324
1024.709	1335.3
1025	1344.57
1025.29	1302.99
1025.58	1318.36
1025.87	1316.1
1026.16	1319.49
1026.449	1302.08
1026.739	1271.58
1027.029	1284.91
1027.319	1272.03
1027.608	1262.31
1027.898	1228.87
1028.187	1202.2
1028.477	1214.18
1028.766	1204.23
1029.055	1218.47
1029.344	1185.48
1029.634	1199.04
1029.923	1208.3
1030.212	1199.26
1030.501	1160.17
1030.79	1170.56
1031.078	1157.23
1031.367	1138.47
1031.656	1149.32
1031.945	1152.48
1032.233	1112.03
1032.522	1108.19
1032.81	1121.07
1033.099	1116.78
1033.387	1077.91
1033.675	1085.59
1033.963	1103.22
1034.251	1087.63
1034.54	1048.08
1034.828	1041.75
1035.116	1053.96
1035.403	1020.74
1035.691	1030.45
1035.979	1021.87
1036.267	1046.27
1036.554	1021.87
1036.842	1008.53
1037.129	1022.77
1037.417	1009.89
1037.704	983.22
1037.992	971.92
1038.279	984.8
1038.566	987.97
1038.853	987.97
1039.14	987.97
