Data from hue_20_FLMS001491_85.txt Node
Date: Mon Feb 06 15:34:47 GMT 2017
User: dcchb
Spectrometer: FLMS00149
Trigger mode: 0
Integration Time (sec): 2.000000E-2
Scans to average: 10
Electric dark correction enabled: true
Nonlinearity correction enabled: false
Boxcar width: 0
XAxis mode: Wavelengths
Number of Pixels in Spectrum: 2048
>>>>>Begin Spectral Data<<<<<
341.393	0.79
341.776	0.79
342.16	0.79
342.543	-64.07
342.927	-81.24
343.31	-78.08
343.693	-65.65
344.077	-73.11
344.46	-56.83
344.843	-47.34
345.226	-45.54
345.61	-26.33
345.993	-6.67
346.376	15.03
346.759	19.32
347.142	30.62
347.525	37.63
347.908	68.81
348.291	66.33
348.674	66.33
349.057	95.48
349.44	113.1
349.823	140.9
350.206	164.85
350.588	193.55
350.971	195.59
351.354	210.5
351.737	232.2
352.119	239.43
352.502	272.65
352.884	264.06
353.267	315.36
353.65	293.89
354.032	302.7
354.414	323.27
354.797	297.96
355.179	310.61
355.562	325.75
355.944	333.21
356.326	318.07
356.709	326.43
357.091	343.83
357.473	345.41
357.855	329.37
358.238	350.84
358.62	345.64
359.002	329.6
359.384	322.36
359.766	315.13
360.148	357.39
360.53	314.68
360.912	346.54
361.294	324.4
361.676	330.5
362.057	339.09
362.439	342.93
362.821	327.56
363.203	329.6
363.584	304.96
363.966	323.04
364.348	323.72
364.729	327.56
365.111	319.88
365.493	324.4
365.874	316.71
366.256	327.56
366.637	311.74
367.019	316.26
367.4	334.34
367.781	320.1
368.163	318.07
368.544	327.11
368.925	321.01
369.306	332.53
369.688	301.57
370.069	328.69
370.45	323.49
370.831	316.49
371.212	338.86
371.593	317.39
371.974	315.58
372.355	313.33
372.736	317.39
373.117	315.58
373.498	316.94
373.879	318.97
374.26	332.31
374.641	309.71
375.021	307
375.402	310.61
375.783	333.21
376.163	316.26
376.544	330.05
376.925	322.82
377.305	342.25
377.686	335.02
378.066	313.55
378.447	327.79
378.827	333.21
379.208	322.82
379.588	328.01
379.968	322.14
380.349	346.77
380.729	331.18
381.109	331.86
381.489	341.35
381.87	344.51
382.25	324.85
382.63	360.33
383.01	338.18
383.39	327.56
383.77	343.61
384.15	326.88
384.53	367.33
384.91	349.93
385.29	340.89
385.67	345.64
386.049	378.41
386.429	349.26
386.809	334.57
387.189	334.57
387.568	349.71
387.948	353.78
388.328	339.77
388.707	355.36
389.087	374.34
389.466	368.24
389.846	357.17
390.225	369.14
390.605	382.25
390.984	389.71
391.363	365.3
391.743	372.08
392.122	360.78
392.501	349.93
392.881	358.52
393.26	374.79
393.639	374.34
394.018	364.4
394.397	361.69
394.776	365.53
395.155	376.37
395.534	376.15
395.913	382.48
396.292	382.25
396.671	375.02
397.05	402.59
397.429	404.85
397.808	379.76
398.186	384.74
398.565	380.44
398.944	399.2
399.323	406.43
399.701	384.96
400.08	392.19
400.458	396.03
400.837	391.06
401.215	413.66
401.594	385.19
401.972	395.58
402.351	411.85
402.729	407.79
403.107	405.3
403.486	422.02
403.864	415.47
404.242	402.14
404.62	415.02
404.999	424.28
405.377	419.31
405.755	416.37
406.133	432.42
406.511	415.24
406.889	423.6
407.267	446.65
407.645	420.89
408.023	460.21
408.401	431.51
408.779	438.52
409.156	443.72
409.534	449.59
409.912	450.27
410.29	443.04
410.667	451.17
411.045	477.84
411.422	445.07
411.8	455.02
412.178	471.06
412.555	462.02
412.933	455.02
413.31	459.08
413.687	470.16
414.065	467.9
414.442	468.8
414.819	500.89
415.197	469.25
415.574	479.42
415.951	488.46
416.328	504.96
416.705	493.89
417.082	486.88
417.46	481.68
417.837	484.62
418.214	509.03
418.591	500.21
418.967	495.24
419.344	501.34
419.721	493.89
420.098	503.83
420.475	510.83
420.852	513.32
421.228	537.5
421.605	516.94
421.982	519.87
422.358	524.17
422.735	526.88
423.111	547.9
423.488	543.83
423.864	533.21
424.241	554.9
424.617	559.19
424.994	532.53
425.37	576.14
425.746	595.58
426.123	566.65
426.499	582.24
426.875	582.24
427.251	571.62
427.627	569.14
428.003	573.21
428.379	594.45
428.756	595.8
429.132	571.85
429.507	603.71
429.883	609.14
430.259	611.85
430.635	630.83
431.011	616.14
431.387	620.66
431.763	637.61
432.138	620.66
432.514	632.64
432.89	610.27
433.265	641.23
433.641	628.8
434.016	667.44
434.392	662.02
434.767	658.85
435.143	664.73
435.518	684.84
435.894	668.12
436.269	678.97
436.644	673.32
437.02	692.07
437.395	693.88
437.77	700.89
438.145	707.21
438.52	690.04
438.895	700.21
439.271	725.29
439.646	730.72
440.021	733.65
440.395	740.88
440.77	739.75
441.145	744.73
441.52	751.05
441.895	746.99
442.27	756.93
442.645	766.65
443.019	779.98
443.394	773.43
443.769	744.73
444.143	775.91
444.518	797.15
444.892	776.82
445.267	802.35
445.641	775.69
446.016	795.57
446.39	790.83
446.764	809.81
447.139	798.06
447.513	776.14
447.887	797.83
448.262	830.83
448.636	831.05
449.01	802.35
449.384	814.33
449.758	850.03
450.132	843.48
450.506	831.73
450.88	833.76
451.254	868.34
451.628	833.31
452.002	866.76
452.376	878.28
452.75	872.63
453.123	905.4
453.497	899.3
453.871	896.59
454.244	917.83
454.618	932.74
454.992	915.12
455.365	919.64
455.739	963.03
456.112	948.11
456.486	972.97
456.859	960.31
457.232	962.8
457.606	985.62
457.979	1001.67
458.352	1011.61
458.725	1008.22
459.099	1032.85
459.472	1026.07
459.845	1061.55
460.218	1059.52
460.591	1054.55
460.964	1070.37
461.337	1099.97
461.71	1126.64
462.083	1094.77
462.456	1139.29
462.829	1142.23
463.201	1134.09
463.574	1152.63
463.947	1167.54
464.32	1192.4
464.692	1184.71
465.065	1204.15
465.438	1219.29
465.81	1234.43
466.183	1245.96
466.555	1285.5
466.928	1264.71
467.3	1285.5
467.672	1271.49
468.045	1315.78
468.417	1358.72
468.789	1327.99
469.161	1353.52
469.534	1357.59
469.906	1416.8
470.278	1420.19
470.65	1413.41
471.022	1429
471.394	1467.65
471.766	1481.88
472.138	1553.52
472.51	1532.73
472.882	1555.33
473.253	1600.52
473.625	1596.23
473.997	1610.92
474.369	1616.12
474.74	1653.63
475.112	1699.05
475.484	1713.29
475.855	1746.06
476.227	1774.98
476.598	1807.98
476.97	1838.71
477.341	1857.92
477.713	1881.42
478.084	1929.33
478.455	1956.9
478.827	2037.35
479.198	2011.36
479.569	2033.05
479.94	2103.79
480.311	2158.93
480.682	2202.54
481.053	2222.2
481.424	2277.57
481.795	2301.3
482.166	2371.58
482.537	2371.8
482.908	2415.42
483.279	2459.71
483.65	2494.06
484.021	2559.82
484.391	2581.74
484.762	2621.29
485.133	2678.46
485.503	2728.85
485.874	2780.83
486.244	2806.59
486.615	2884.56
486.985	2945.12
487.356	2965.68
487.726	2997.77
488.097	3057.21
488.467	3091.78
488.837	3136.75
489.207	3183.31
489.578	3236.41
489.948	3261.27
490.318	3327.26
490.688	3363.87
491.058	3409.51
491.428	3487.93
491.798	3509.4
492.168	3552.34
492.538	3593.69
492.908	3635.95
493.278	3646.8
493.648	3702.84
494.017	3768.6
494.387	3807.24
494.757	3848.83
495.126	3890.41
495.496	3878.88
495.866	3944.19
496.235	3983.29
496.605	4006.34
496.974	4042.27
497.344	4094.47
497.713	4090.4
498.082	4156.61
498.452	4209.04
498.821	4184.86
499.19	4235.48
499.559	4255.14
499.928	4301.02
500.298	4332.65
500.667	4390.96
501.036	4328.13
501.405	4408.58
501.774	4449.49
502.143	4495.59
502.512	4458.75
502.88	4525.19
503.249	4531.29
503.618	4562.03
503.987	4590.73
504.356	4625.75
504.724	4662.59
505.093	4677.5
505.462	4700.1
505.83	4688.8
506.199	4748.01
506.567	4830.95
506.936	4816.26
507.304	4819.2
507.672	4868.23
508.041	4873.66
508.409	4916.14
508.777	4951.17
509.145	4960.43
509.514	4992.98
509.882	4995.01
510.25	4990.49
510.618	5024.16
510.986	5067.78
511.354	5125.4
511.722	5170.82
512.09	5215.8
512.458	5119.53
512.826	5194.33
513.193	5170.15
513.561	5233.2
513.929	5250.6
514.297	5289.01
514.664	5327.2
515.032	5333.31
515.4	5311.84
515.767	5421.21
516.135	5406.07
516.502	5432.96
516.869	5435.68
517.237	5469.35
517.604	5454.88
517.972	5491.04
518.339	5499.4
518.706	5541.21
519.073	5510.93
519.44	5592.96
519.808	5632.73
520.175	5612.85
520.542	5689.91
520.909	5685.39
521.276	5688.55
521.643	5746.63
522.009	5763.8
522.376	5787.08
522.743	5789.79
523.11	5856.68
523.477	5912.95
523.843	5947.98
524.21	5973.29
524.577	5989.56
524.943	6033.85
525.31	6049.67
525.676	6071.59
526.043	6188.2
526.409	6198.59
526.776	6206.96
527.142	6245.82
527.508	6282.89
527.874	6289.44
528.241	6326.5
528.607	6315.2
528.973	6393.84
529.339	6374.86
529.705	6451.69
530.071	6486.04
530.437	6499.38
530.803	6516.33
531.169	6614.85
531.535	6550.22
531.901	6553.16
532.267	6615.53
532.632	6659.6
532.998	6687.39
533.364	6760.16
533.73	6681.29
534.095	6815.98
534.461	6850.78
534.826	6849.88
535.192	6881.06
535.557	6935.3
535.923	6900.95
536.288	7002.19
536.653	7012.58
537.019	7029.53
537.384	7049.87
537.749	7054.39
538.114	7059.81
538.479	7066.82
538.845	7119.93
539.21	7111.34
539.575	7163.09
539.94	7231.34
540.305	7233.6
540.67	7258.23
541.034	7340.48
541.399	7316.08
541.764	7345.46
542.129	7354.27
542.494	7402.63
542.858	7454.38
543.223	7448.05
543.587	7485.57
543.952	7509.07
544.316	7618.44
544.681	7602.62
545.045	7569.41
545.41	7668.39
545.774	7710.87
546.138	7672.68
546.503	7736.63
546.867	7740.93
547.231	7853.92
547.595	7757.65
547.959	7791.32
548.324	7854.6
548.688	7911.54
549.052	7893.01
549.416	7980.24
549.779	7995.83
550.143	8013.24
550.507	8041.71
550.871	8086.23
551.235	8143.85
551.599	8151.54
551.962	8147.24
552.326	8171.2
552.689	8221.37
553.053	8233.34
553.417	8246.45
553.78	8283.51
554.143	8299.33
554.507	8333.45
554.87	8350.4
555.234	8455.03
555.597	8377.97
555.96	8420.46
556.323	8509.04
556.686	8480.57
557.05	8478.99
557.413	8569.38
557.776	8561.02
558.139	8642.15
558.502	8648.93
558.865	8615.48
559.228	8691.86
559.59	8726.66
559.953	8762.37
560.316	8821.35
560.679	8793.33
561.041	8841.24
561.404	8968.69
561.767	8956.49
562.129	8865.42
562.492	8980.44
562.854	9013.66
563.217	8950.16
563.579	9088.91
563.941	9082.36
564.304	9091.17
564.666	9109.48
565.028	9167.56
565.39	9182.92
565.753	9254.56
566.115	9314.22
566.477	9303.37
566.839	9362.8
567.201	9426.31
567.563	9380.21
567.925	9486.87
568.287	9523.7
568.648	9524.61
569.01	9548.56
569.372	9717.82
569.734	9625.62
570.095	9739.74
570.457	9800.99
570.819	9747.88
571.18	9830.14
571.542	9824.04
571.903	9854.32
572.265	9934.32
572.626	9980.19
572.987	10017.25
573.349	10036.46
573.71	10126.85
574.071	10122.56
574.432	10272.61
574.794	10410.91
575.155	10367.75
575.516	10395.32
575.877	10480.52
576.238	10545.6
576.599	10620.17
576.96	10689.32
577.32	10752.6
577.681	10806.83
578.042	10913.72
578.403	11020.39
578.763	11074.85
579.124	11202.98
579.485	11318.69
579.845	11374.05
580.206	11534.95
580.566	11625.8
580.927	11706.25
581.287	11791.89
581.648	11997.76
582.008	12191.88
582.368	12277.53
582.728	12390.52
583.089	12565.43
583.449	12691.53
583.809	12946.21
584.169	13086.55
584.529	13237.51
584.889	13508.01
585.249	13627.78
585.609	13810.37
585.969	14046.52
586.329	14282.45
586.688	14478.83
587.048	14743.23
587.408	14928.08
587.768	15220.05
588.127	15335.98
588.487	15648.74
588.846	15985.68
589.206	16089.41
589.565	16444.43
589.925	16780.91
590.284	17000.12
590.643	17342.03
591.003	17589.03
591.362	17947.21
591.721	18206.87
592.08	18571.38
592.44	18878.26
592.799	19145.37
593.158	19436.66
593.517	19798.69
593.876	20175.63
594.235	20415.17
594.593	20839.34
594.952	21121.59
595.311	21356.16
595.67	21797.96
596.029	22251.05
596.387	22632.51
596.746	22928.78
597.104	23045.83
597.463	23546.39
597.822	23878.58
598.18	24181.17
598.538	24396.76
598.897	24888.95
599.255	25029.74
599.613	25697.74
599.972	25864.97
600.33	26256.15
600.688	26503.14
601.046	26944.72
601.404	27414.76
601.762	27548.99
602.12	28153.95
602.478	28219.71
602.836	28623.54
603.194	28751
603.552	29058.33
603.91	29384.2
604.268	29902.6
604.625	30081.13
604.983	30407.68
605.341	30576.94
605.698	30998.39
606.056	31333.53
606.413	31492.84
606.771	31991.81
607.128	32231.36
607.485	32377.34
607.843	32737.11
608.2	33189.07
608.557	33487.59
608.914	33589.29
609.272	33869.28
609.629	34298.42
609.986	34634.46
610.343	34738.63
610.7	35099.98
611.057	35276.47
611.414	35467.43
611.771	35822.9
612.127	36123.91
612.484	36230.57
612.841	36516.89
613.198	36627.85
613.554	36740.16
613.911	37165.92
614.267	37360.71
614.624	37484.78
614.98	37768.39
615.337	38143.29
615.693	38099.9
616.05	38296.06
616.406	38637.06
616.762	38736.04
617.118	38814.46
617.475	39015.58
617.831	39305.52
618.187	39588.9
618.543	39554.55
618.899	40014.65
619.255	40037.7
619.611	40123.13
619.967	40404.02
620.323	40645.6
620.678	40602.66
621.034	40602.89
621.39	40787.06
621.746	40822.99
622.101	41453.71
622.457	41119.71
622.812	41284.45
623.168	41583.88
623.523	41587.72
623.879	41816.64
624.234	41634.05
624.589	41919.69
624.945	42015.28
625.3	42061.15
625.655	41975.96
626.01	42225.67
626.365	42395.61
626.72	42377.76
627.075	42443.29
627.43	42617.75
627.785	42515.83
628.14	42716.73
628.495	42881.25
628.85	42783.17
629.205	42671.53
629.559	42895.93
629.914	42866.56
630.269	42868.14
630.623	42900.68
630.978	42982.49
631.332	43116.49
631.687	43306.32
632.041	43116.27
632.396	43160.33
632.75	43137.74
633.104	43235.59
633.459	43187
633.813	43196.94
634.167	43261.35
634.521	43240.11
634.875	43341.12
635.229	43319.88
635.583	43201.91
635.937	43223.84
636.291	43114.01
636.645	43256.6
636.999	43191.29
637.352	43203.72
637.706	43071.75
638.06	43307.9
638.413	43225.87
638.767	43243.5
639.121	43314
639.474	43045.53
639.828	43073.78
640.181	43286.66
640.534	43198.07
640.888	43015.03
641.241	43106.32
641.594	43046.21
641.947	43207.11
642.301	43176.6
642.654	43222.48
643.007	43223.61
643.36	43158.53
643.713	43001.69
644.066	43292.31
644.419	42979.77
644.771	42713.57
645.124	42430.41
645.477	42306.8
645.83	42235.84
646.182	42040.14
646.535	41846.7
646.888	41980.7
647.24	41680.37
647.593	42009.18
647.945	41969.4
648.298	41747.04
648.65	41791.56
649.002	41653.71
649.355	41828.17
649.707	41812.35
650.059	42016.86
650.411	42368.72
650.763	42468.37
651.115	42848.7
651.467	42697.52
651.819	42676.05
652.171	42688.48
652.523	42514.48
652.875	42612.78
653.227	42455.49
653.578	42749.72
653.93	42584.53
654.282	42406.68
654.633	42497.3
654.985	42457.75
655.337	42490.52
655.688	42466.79
656.039	42570.52
656.391	42234.26
656.742	42359.45
657.094	42394.25
657.445	42457.3
657.796	42525.77
658.147	42434.25
658.498	42348.6
658.849	42445.32
659.2	42283.97
659.551	42229.74
659.902	42416.85
660.253	42300.47
660.604	42337.53
660.955	42224.77
661.306	42270.41
661.656	42270.41
662.007	42226.8
662.358	42242.39
662.708	42258.66
663.059	42168.72
663.409	41986.58
663.76	42292.56
664.11	42203.3
664.461	42192.68
664.811	42324.88
665.161	42180.92
665.511	42043.75
665.862	42216.18
666.212	42222.51
666.562	42261.15
666.912	42125.79
667.262	42079.46
667.612	42110.64
667.962	42131.66
668.312	42131.21
668.662	42298.21
669.011	42176.41
669.361	41991.1
669.711	42038.56
670.06	42039.23
670.41	41903.64
670.76	41709.98
671.109	42103.41
671.459	42093.02
671.808	41917.88
672.157	41990.87
672.507	41785.45
672.856	41771.44
673.205	41839.24
673.554	42002.4
673.904	41872.01
674.253	42013.02
674.602	41951.55
674.951	41272.47
675.3	41219.82
675.649	41830.43
675.998	41716.76
676.346	41751.78
676.695	41770.31
677.044	41540.26
677.393	41830.65
677.741	41680.15
678.09	41627.72
678.438	41632.92
678.787	41535.29
679.135	41483.77
679.484	41309.76
679.832	41448.51
680.181	41073.16
680.529	41316.54
680.877	41344.34
681.225	41188.18
681.573	41407.61
681.922	41117
682.27	40947.96
682.618	41150.44
682.966	40929.21
683.314	40987.96
683.661	40942.77
684.009	40701.87
684.357	40692.38
684.705	40684.47
685.053	40557.92
685.4	40415.1
685.748	40510.46
686.095	40351.82
686.443	40222.11
686.79	40171.49
687.138	40347.53
687.485	40419.84
687.832	40133.52
688.18	40027.54
688.527	39907.99
688.874	40054.88
689.221	39796.81
689.568	39837.26
689.915	39743.02
690.262	39631.16
690.609	39625.96
690.956	39346.65
691.303	39428
691.65	39265.52
691.997	39193.21
692.344	39013.1
692.69	38989.14
693.037	38968.81
693.383	38689.27
693.73	38737.63
694.077	38780.11
694.423	38595.71
694.769	38562.49
695.116	38431.87
695.462	38367.47
695.808	38232.33
696.155	38374.92
696.501	38033.01
696.847	38025.55
697.193	37722.74
697.539	37949.85
697.885	37664.89
698.231	37481.39
698.577	37618.11
698.923	37435.74
699.269	37298.79
699.614	37207.5
699.96	37194.62
700.306	37088.63
700.651	36842.31
700.997	36869.43
701.342	36883.44
701.688	36815.64
702.033	36663.1
702.379	36655.19
702.724	36398.93
703.069	36551.02
703.415	36071.25
703.76	36156.45
704.105	36017.25
704.45	36041.43
704.795	35848.21
705.14	35850.47
705.485	35845.5
705.83	35611.38
706.175	35754.2
706.52	35390.82
706.865	35424.72
707.209	35444.83
707.554	35311.5
707.899	35303.14
708.243	35245.74
708.588	35056.59
708.932	34840.33
709.277	34776.15
709.621	34874.45
709.966	34620.22
710.31	34782.48
710.654	34377.06
710.998	34498.19
711.342	34598.75
711.687	34382.49
712.031	34206.22
712.375	34079.22
712.719	34211.19
713.063	34134.58
713.407	34213.45
713.75	33803.97
714.094	34001.48
714.438	33721.26
714.782	33849.39
715.125	33672.67
715.469	33845.55
715.812	33543.41
716.156	33380.48
716.499	33414.38
716.843	33441.49
717.186	33200.14
717.53	33350.65
717.873	33232.23
718.216	33208.96
718.559	32984.56
718.902	32899.81
719.246	33161.27
719.589	32826.82
719.932	32727.61
720.275	32729.65
720.617	32734.39
720.96	32680.38
721.303	32619.37
721.646	32587.96
721.989	32392.03
722.331	32526.94
722.674	32431.58
723.016	32462.08
723.359	32312.48
723.701	32337.57
724.044	32252.82
724.386	32057.35
724.729	32207.18
725.071	31965.37
725.413	31999.72
725.755	32052.38
726.097	31818.94
726.439	31617.59
726.782	31810.12
727.124	31896.22
727.465	31584.37
727.807	31743.01
728.149	31570.58
728.491	31500.53
728.833	31587.08
729.175	31466.86
729.516	31455.56
729.858	31275
730.199	31297.37
730.541	31247.65
730.882	31249.23
731.224	31282.45
731.565	31087.21
731.906	31095.11
732.248	31000.2
732.589	30973.76
732.93	30778.29
733.271	30803.6
733.612	30902.35
733.953	30791.39
734.294	30724.73
734.635	30657.84
734.976	30775.57
735.317	30626.88
735.658	30574
735.999	30619.65
736.339	30543.04
736.68	30675.69
737.021	30464.62
737.361	30324.06
737.702	30489.25
738.042	30295.36
738.383	30250.17
738.723	30179.66
739.063	30200
739.404	30225.31
739.744	30054.24
740.084	30064.86
740.424	30125.42
740.764	29956.39
741.104	30175.14
741.444	29891.76
741.784	29737.41
742.124	29896.73
742.464	29823.51
742.804	29720.24
743.143	29739.67
743.483	29706.9
743.823	29501.03
744.162	29574.93
744.502	29561.37
744.841	29349.17
745.181	29585.1
745.52	29297.2
745.86	29421.03
746.199	29381.94
746.538	29207.48
746.877	29343.07
747.216	29309.4
747.556	29197.09
747.895	29329.51
748.234	29013.81
748.573	29140.59
748.911	28913.25
749.25	28945.11
749.589	28826.47
749.928	28912.8
750.267	28905.12
750.605	28756.65
750.944	28753.71
751.283	28646.14
751.621	28795.51
751.96	28582.86
752.298	28594.16
752.636	28586.71
752.975	28468.74
753.313	28255.64
753.651	28425.35
753.989	28298.35
754.327	28293.38
754.666	28140.62
755.004	28155.3
755.342	28181.97
755.679	28230.78
756.017	27879.15
756.355	28052.71
756.693	27873.28
757.031	27832.6
757.368	27817.23
757.706	27730.23
758.044	27630.35
758.381	27728.2
758.719	27476.9
759.056	27544.7
759.394	27502.67
759.731	27356.23
760.068	27220.19
760.405	27278.72
760.743	27098.61
761.08	27170.47
761.417	27046.18
761.754	26971.83
762.091	26974.32
762.428	26753.99
762.765	26619.75
763.102	26737.26
763.438	26590.6
763.775	26543.14
764.112	26479.87
764.449	26479.87
764.785	26329.82
765.122	26196.26
765.458	26133.89
765.795	26105.64
766.131	25993.33
766.467	25956.27
766.804	25745.88
767.14	25703.39
767.476	25589.5
767.812	25729.38
768.148	25536.16
768.485	25317.87
768.821	25390.86
769.157	25212.78
769.492	25159.68
769.828	25133.24
770.164	24804.88
770.5	24944.32
770.836	24894.15
771.171	24673.59
771.507	24803.3
771.842	24487.15
772.178	24554.04
772.513	24483.31
772.849	24372.58
773.184	24292.81
773.519	24224.56
773.855	24013.04
774.19	24123.77
774.525	23936.88
774.86	23959.03
775.195	23911.12
775.53	23685.37
775.865	23554.3
776.2	23430.46
776.535	23346.62
776.87	23409.21
777.205	23309.78
777.539	23207.41
777.874	23172.16
778.209	22957.25
778.543	22938.04
778.878	22777.37
779.212	22858.04
779.547	22658.27
779.881	22820.3
780.215	22450.37
780.55	22608.78
780.884	22407.43
781.218	22294.89
781.552	22346.19
781.886	22234.33
782.22	22128.12
782.554	22048.12
782.888	21790.5
783.222	21836.6
783.556	21570.85
783.889	21717.73
784.223	21477.51
784.557	21398.87
784.89	21463.5
785.224	21395.48
785.557	21265.99
785.891	21281.81
786.224	21116.62
786.558	21114.36
786.891	20931.99
787.224	20842.95
787.557	20811.32
787.891	20708.04
788.224	20741.04
788.557	20608.38
788.89	20565
789.223	20757.08
789.556	20348.96
789.888	20280.94
790.221	20279.35
790.554	20132.92
790.887	20151.9
791.219	19985.58
791.552	20047.72
791.884	19902.19
792.217	19868.29
792.549	19828.97
792.882	19659.71
793.214	19561.63
793.546	19636.21
793.879	19361.64
794.211	19245.26
794.543	19350.79
794.875	19327.29
795.207	19515.31
795.539	19262.66
795.871	19226.27
796.203	19037.13
796.535	18983.34
796.867	18871.48
797.198	18821.54
797.53	18908.09
797.862	18739.96
798.193	18752.39
798.525	18631.94
798.856	18682.33
799.188	18408.44
799.519	18391.27
799.85	18364.38
800.182	18362.34
800.513	18456.8
800.844	18148.11
801.175	18208.22
801.506	18233.31
801.837	18098.85
802.168	18091.39
802.499	17965.52
802.83	17902.02
803.161	17807.78
803.491	17843.71
803.822	17828.34
804.153	17746.99
804.483	17524.62
804.814	17555.13
805.145	17464.51
805.475	17434.68
805.805	17365.53
806.136	17401.92
806.466	17378.19
806.796	17300.68
807.126	17186.33
807.457	17170.28
807.787	17151.75
808.117	17153.33
808.447	16971.87
808.777	17131.64
809.107	16887.8
809.436	16852.33
809.766	16767.81
810.096	16916.5
810.426	16723.52
810.755	16763.74
811.085	16643.29
811.414	16706.34
811.744	16509.51
812.073	16529.17
812.403	16468.38
812.732	16408.27
813.061	16288.72
813.39	16300.48
813.719	16225.68
814.049	16268.39
814.378	16215.73
814.707	16203.98
815.036	16167.6
815.365	16015.96
815.693	15935.97
816.022	15860.26
816.351	15826.36
816.68	15713.37
817.008	15807.61
817.337	15723.32
817.665	15731.68
817.994	15751.56
818.322	15643.32
818.651	15547.73
818.979	15549.76
819.307	15626.14
819.636	15556.09
819.964	15448.29
820.292	15489.42
820.62	15500.5
820.948	15432.48
821.276	15467.28
821.604	15459.37
821.932	15474.06
822.259	15458.69
822.587	15404.45
822.915	15371.46
823.243	15421.63
823.57	15356.32
823.898	15357.68
824.225	15322.42
824.553	15250.79
824.88	15407.84
825.207	15415.75
825.535	15309.54
825.862	15379.14
826.189	15282.2
826.516	15443.32
826.843	15364
827.17	15349.54
827.497	15378.92
827.824	15418.92
828.151	15393.15
828.478	15375.08
828.805	15388.18
829.131	15300.5
829.458	15226.38
829.785	15171.47
830.111	15237.68
830.438	15280.16
830.764	15293.04
831.09	15351.35
831.417	15267.28
831.743	15298.02
832.069	15211.46
832.395	15069.32
832.722	15251.69
833.048	15165.14
833.374	15160.17
833.7	15144.57
834.026	15155.19
834.351	15178.92
834.677	15144.8
835.003	15179.15
835.329	15135.76
835.654	15088.76
835.98	15040.62
836.306	15067.29
836.631	14978.25
836.956	15020.51
837.282	14996.78
837.607	14981.41
837.932	14947.52
838.258	14851.93
838.583	14879.5
838.908	14822.77
839.233	14791.81
839.558	14721.08
839.883	14780.52
840.208	14746.62
840.533	14623.91
840.858	14707.07
841.182	14677.24
841.507	14648.99
841.832	14584.36
842.156	14623.46
842.481	14582.1
842.805	14517.25
843.13	14429.34
843.454	14422.56
843.778	14339.4
844.103	14427.98
844.427	14364.03
844.751	14364.48
845.075	14305.5
845.399	14289.68
845.723	14130.59
846.047	14191.38
846.371	14009.24
846.695	14093.98
847.019	13972.85
847.343	13915.23
847.666	13799.07
847.99	13726.98
848.313	13729.7
848.637	13678.62
848.96	13741.45
849.284	13639.53
849.607	13491.74
849.931	13514.56
850.254	13476.14
850.577	13322.25
850.9	13251.97
851.223	13187.11
851.546	13171.52
851.869	13021.92
852.192	13158.64
852.515	12957.29
852.838	13009.26
853.161	13021.92
853.483	12894.92
853.806	12870.28
854.129	12735.82
854.451	12732.89
854.774	12666.67
855.096	12614.47
855.419	12620.57
855.741	12615.15
856.063	12609.05
856.385	12535.15
856.708	12530.63
857.03	12403.85
857.352	12439.79
857.674	12358.21
857.996	12356.4
858.318	12219.23
858.64	12228.27
858.961	12242.05
859.283	12200.92
859.605	12149.4
859.926	12144.43
860.248	12012.68
860.57	12062.62
860.891	12090.42
861.212	12009.74
861.534	11941.27
861.855	11981.04
862.176	11929.52
862.498	11870.76
862.819	11821.27
863.14	11885.45
863.461	11792.8
863.782	11794.15
864.103	11840.71
864.424	11790.54
864.745	11716.64
865.065	11685.23
865.386	11673.93
865.707	11591.9
866.027	11561.39
866.348	11655.17
866.668	11564.78
866.989	11551
867.309	11459.02
867.63	11447.04
867.95	11512.35
868.27	11381.28
868.59	11428.29
868.91	11376.09
869.23	11400.72
869.55	11344
869.87	11374.96
870.19	11371.79
870.51	11364.11
870.83	11332.24
871.15	11224.68
871.469	11221.06
871.789	11239.37
872.109	11307.84
872.428	11193.94
872.748	11294.73
873.067	11183.55
873.386	11182.87
873.706	11179.93
874.025	11110.78
874.344	11087.73
874.663	11095.19
874.982	11082.08
875.301	11137
875.62	11056.32
875.939	11044.57
876.258	11029.88
876.577	10978.58
876.896	10906.27
877.214	10911.92
877.533	10957.34
877.852	10918.47
878.17	10908.07
878.489	10880.05
878.807	10921.18
879.125	10843.67
879.444	10845.93
879.762	10774.29
880.08	10843.67
880.398	10781.98
880.716	10753.73
881.034	10706.72
881.352	10705.59
881.67	10794.63
881.988	10672.6
882.306	10597.8
882.624	10642.09
882.941	10642.09
883.259	10583.79
883.577	10502.44
883.894	10533.17
884.212	10506.96
884.529	10473.51
884.846	10475.77
885.164	10391.93
885.481	10343.8
885.798	10380.86
886.115	10302.44
886.432	10261.31
886.75	10289.56
887.067	10313.97
887.383	10250.46
887.7	10276.23
888.017	10211.37
888.334	10159.85
888.651	10116.68
888.967	10096.34
889.284	10026.74
889.6	10035.33
889.917	10000.98
890.233	9920.76
890.55	9958.72
890.866	10002.56
891.182	9904.94
891.498	9817.71
891.815	9808.22
892.131	9723.02
892.447	9760.76
892.763	9769.35
893.079	9708.33
893.395	9659.29
893.71	9656.81
894.026	9668.33
894.342	9650.93
894.657	9620.43
894.973	9578.62
895.289	9574.78
895.604	9490.03
895.92	9453.65
896.235	9418.85
896.55	9447.1
896.865	9363.03
897.181	9342.47
897.496	9356.03
897.811	9311.28
898.126	9271.28
898.441	9225.63
898.756	9207.1
899.071	9201.9
899.386	9164.62
899.7	9097.73
900.015	9099.76
900.33	8966.88
900.644	9015.02
900.959	9001.68
901.273	8945.19
901.588	8911.74
901.902	8860.67
902.216	8793.78
902.531	8883.27
902.845	8779.77
903.159	8742.03
903.473	8696.38
903.787	8611.64
904.101	8575.71
904.415	8638.3
904.729	8543.39
905.042	8439.44
905.356	8491.42
905.67	8511.75
905.984	8481.92
906.297	8403.51
906.611	8415.26
906.924	8414.81
907.237	8366.67
907.551	8355.6
907.864	8335.71
908.177	8217.75
908.491	8198.99
908.804	8163.51
909.117	8153.57
909.43	8094.36
909.743	8088.94
910.056	8043.07
910.368	7999.68
910.681	7997.19
910.994	7938.89
911.307	7901.6
911.619	7932.11
911.932	7839.68
912.244	7832.22
912.557	7778.89
912.869	7688.5
913.181	7691.44
913.494	7647.14
913.806	7666.13
914.118	7601.04
914.43	7589.97
914.742	7553.36
915.054	7482.63
915.366	7482.63
915.678	7447.6
915.99	7406.47
916.302	7340.71
916.613	7376.64
916.925	7337.1
917.236	7294.16
917.548	7279.02
917.859	7275.63
918.171	7235.18
918.482	7136.2
918.794	7130.55
919.105	7108.85
919.416	7101.85
919.727	7100.27
920.038	7021.62
920.349	6960.16
920.66	6933.49
920.971	6955.41
921.282	6850.33
921.593	6909.99
921.903	6832.02
922.214	6820.5
922.525	6761.07
922.835	6745.47
923.146	6720.39
923.456	6669.77
923.767	6663.21
924.077	6686.94
924.387	6629.54
924.697	6537.79
925.008	6581.41
925.318	6571.69
925.628	6542.31
925.938	6484.24
926.248	6451.47
926.558	6458.7
926.867	6365.14
927.177	6386.61
927.487	6368.31
927.796	6293.05
928.106	6302.77
928.416	6247.63
928.725	6279.72
929.034	6210.57
929.344	6216.67
929.653	6163.34
929.962	6147.52
930.271	6090.8
930.581	6093.06
930.89	6042.89
931.199	6051.48
931.508	5959.05
931.817	5982.55
932.125	5978.26
932.434	5961.99
932.743	5920.41
933.051	5840.86
933.36	5798.38
933.669	5811.26
933.977	5805.38
934.286	5799.73
934.594	5763.8
934.902	5759.74
935.21	5679.96
935.519	5629.12
935.827	5680.42
936.135	5596.12
936.443	5588.44
936.751	5548.22
937.059	5535.11
937.367	5528.33
937.674	5502.57
937.982	5482.91
938.29	5449.69
938.597	5463.25
938.905	5387.09
939.213	5332.18
939.52	5381.89
939.827	5348.67
940.135	5269.58
940.442	5271.16
940.749	5282.46
941.056	5243.36
941.363	5250.14
941.67	5242.01
941.977	5149.81
942.284	5156.14
942.591	5122.01
942.898	5121.11
943.205	5105.06
943.511	5074.1
943.818	5039.08
944.125	4998.85
944.431	5004.73
944.738	4955.69
945.044	4959.98
945.35	4963.15
945.657	4925.18
945.963	4921.57
946.269	4895.8
946.575	4840.66
946.881	4832.3
947.187	4789.14
947.493	4843.15
947.799	4785.98
948.105	4745.98
948.41	4717.5
948.716	4719.99
949.022	4675.24
949.327	4687.22
949.633	4620.78
949.938	4602.03
950.244	4635.47
950.549	4552.08
950.854	4543.27
951.16	4552.99
951.465	4493.33
951.77	4488.58
952.075	4518.86
952.38	4496.49
952.685	4479.09
952.99	4405.42
953.294	4395.93
953.599	4397.51
953.904	4382.37
954.209	4348.7
954.513	4304.86
954.818	4313.45
955.122	4300.11
955.426	4260.34
955.731	4254.24
956.035	4228.25
956.339	4218.53
956.643	4156.39
956.948	4151.19
957.252	4198.42
957.556	4144.64
957.86	4122.26
958.163	4100.8
958.467	4055.15
958.771	4086.56
959.075	4060.12
959.378	4068.25
959.682	4019.89
959.985	4041.36
960.289	3986.22
960.592	3990.06
960.896	3954.13
961.199	3949.39
961.502	3931.08
961.805	3942.83
962.108	3900.35
962.411	3873.46
962.714	3811.09
963.017	3834.36
963.32	3873.68
963.623	3804.98
963.926	3748.04
964.228	3781.71
964.531	3729.73
964.833	3733.35
965.136	3705.78
965.438	3684.99
965.741	3683.18
966.043	3653.8
966.345	3664.42
966.648	3629.62
966.95	3675.72
967.252	3609.96
967.554	3612.22
967.856	3589.4
968.158	3568.61
968.46	3545.78
968.761	3526.57
969.063	3520.25
969.365	3480.02
969.666	3501.49
969.968	3461.49
970.269	3477.76
970.571	3437.31
970.872	3410.42
971.174	3382.4
971.475	3391.89
971.776	3385.79
972.077	3383.53
972.378	3350.53
972.679	3331.55
972.98	3287.94
973.281	3335.39
973.582	3310.53
973.883	3314.15
974.183	3268.05
974.484	3252.91
974.785	3230.08
975.085	3226.69
975.386	3222.63
975.686	3245.23
975.986	3150.99
976.287	3160.48
976.587	3133.14
976.887	3102.86
977.187	3155.74
977.487	3135.4
977.787	3106.47
978.087	3052.01
978.387	3055.17
978.687	3007.27
978.987	3060.6
979.286	3020.15
979.586	3037.55
979.885	2986.48
980.185	3001.39
980.484	2936.53
980.784	2965.01
981.083	2909.19
981.382	2932.01
981.682	2943.54
981.981	2890.88
982.28	2865.35
982.579	2894.73
982.878	2867.61
983.177	2859.25
983.475	2826.93
983.774	2842.75
984.073	2805.46
984.372	2806.37
984.67	2771.34
984.969	2775.41
985.267	2797.55
985.566	2751.68
985.864	2763.66
986.162	2739.02
986.461	2718.69
986.759	2750.55
987.057	2702.19
987.355	2694.96
987.653	2664.9
987.951	2631.91
988.249	2689.53
988.547	2653.38
988.844	2672.36
989.142	2633.72
989.44	2584.23
989.737	2570.67
990.035	2569.08
990.332	2516.66
990.63	2511.69
990.927	2512.82
991.224	2528.41
991.521	2512.82
991.819	2503.78
992.116	2509.2
992.413	2486.38
992.71	2493.83
993.006	2503.1
993.303	2439.37
993.6	2440.5
993.897	2424.68
994.193	2435.98
994.49	2402.54
994.787	2385.59
995.083	2365.93
995.379	2345.59
995.676	2336.55
995.972	2326.83
996.268	2332.26
996.565	2317.79
996.861	2307.62
997.157	2293.61
997.453	2314.4
997.749	2263.1
998.044	2279.15
998.34	2216.1
998.636	2265.59
998.932	2238.02
999.227	2195.31
999.523	2200.51
999.818	2212.48
1000.114	2153.28
1000.409	2197.8
1000.704	2172.03
1001	2121.19
1001.295	2148.53
1001.59	2146.05
1001.885	2119.83
1002.18	2088.42
1002.475	2106.5
1002.77	2078.93
1003.065	2034.64
1003.359	2074.86
1003.654	2054.52
1003.949	2054.97
1004.243	2017.01
1004.538	2026.27
1004.832	2016.11
1005.127	1993.51
1005.421	1968.42
1005.715	1936.33
1006.009	1948.54
1006.304	1956.9
1006.598	1939.95
1006.892	1934.98
1007.186	1903.11
1007.48	1892.49
1007.773	1857.69
1008.067	1868.31
1008.361	1868.54
1008.655	1850.01
1008.948	1837.58
1009.242	1857.47
1009.535	1835.09
1009.829	1833.29
1010.122	1779.95
1010.415	1792.16
1010.708	1793.06
1011.001	1759.84
1011.295	1756.45
1011.588	1751.03
1011.881	1736.11
1012.173	1734.08
1012.466	1726.85
1012.759	1727.75
1013.052	1681.88
1013.344	1705.38
1013.637	1691.82
1013.93	1671.03
1014.222	1680.52
1014.514	1662.44
1014.807	1649.34
1015.099	1627.64
1015.391	1632.61
1015.683	1607.08
1015.976	1596
1016.268	1612.5
1016.56	1601.2
1016.851	1591.03
1017.143	1586.96
1017.435	1565.04
1017.727	1550.35
1018.018	1563.46
1018.31	1529.34
1018.602	1535.21
1018.893	1528.89
1019.185	1496.34
1019.476	1499.06
1019.767	1536.57
1020.058	1477.36
1020.35	1464.03
1020.641	1447.31
1020.932	1422.9
1021.223	1410.25
1021.514	1422.45
1021.804	1390.81
1022.095	1433.07
1022.386	1407.53
1022.677	1376.12
1022.967	1365.5
1023.258	1372.28
1023.548	1369.79
1023.839	1350.13
1024.129	1364.6
1024.419	1353.3
1024.709	1330.25
1025	1320.53
1025.29	1325.05
1025.58	1287.31
1025.87	1306.75
1026.16	1279.18
1026.449	1263.36
1026.739	1256.8
1027.029	1271.27
1027.319	1285.28
1027.608	1251.15
1027.898	1236.24
1028.187	1226.75
1028.477	1250.02
1028.766	1215
1029.055	1197.6
1029.344	1183.13
1029.634	1186.52
1029.923	1173.87
1030.212	1150.37
1030.501	1162.12
1030.79	1165.96
1031.078	1149.91
1031.367	1138.84
1031.656	1142.46
1031.945	1106.07
1032.233	1120.76
1032.522	1107.65
1032.81	1107.43
1033.099	1089.58
1033.387	1097.71
1033.675	1075.56
1033.963	1074.21
1034.251	1080.99
1034.54	1040.76
1034.828	1063.36
1035.116	1051.84
1035.403	1058.84
1035.691	1040.54
1035.979	1021.1
1036.267	1021.33
1036.554	983.82
1036.842	1021.56
1037.129	992.86
1037.417	1035.57
1037.704	998.73
1037.992	972.74
1038.279	962.8
1038.566	974.1
1038.853	974.1
1039.14	974.1
