Data from hue_170_FLMS001491_00074.txt Node
Date: Tue Feb 07 16:49:10 GMT 2017
User: dcchb
Spectrometer: FLMS00149
Trigger mode: 0
Integration Time (sec): 2.000000E-2
Scans to average: 10
Electric dark correction enabled: true
Nonlinearity correction enabled: false
Boxcar width: 0
XAxis mode: Wavelengths
Number of Pixels in Spectrum: 2048
>>>>>Begin Spectral Data<<<<<
341.393	-0.13
341.776	-0.13
342.16	-0.13
342.543	-73.57
342.927	-75.15
343.31	-89.62
343.693	-55.72
344.077	-57.75
344.46	-64.98
344.843	-41.48
345.226	-43.74
345.61	-34.93
345.993	11.4
346.376	-2.61
346.759	-2.61
347.142	17.05
347.525	30.15
347.908	50.94
348.291	82.81
348.674	101.79
349.057	99.31
349.44	121
349.823	153.09
350.206	153.77
350.588	191.51
350.971	190.38
351.354	205.07
351.737	245.74
352.119	254.1
352.502	253.2
352.884	271.28
353.267	269.02
353.65	283.71
354.032	284.39
354.414	289.58
354.797	299.98
355.179	316.47
355.562	315.57
355.944	293.42
356.326	322.35
356.709	325.06
357.091	313.76
357.473	343.37
357.855	331.39
358.238	314.21
358.62	329.13
359.002	316.7
359.384	338.62
359.766	321.45
360.148	337.94
360.53	324.38
360.912	342.24
361.294	328.23
361.676	317.15
362.057	328.68
362.439	305.85
362.821	316.47
363.203	309.47
363.584	324.84
363.966	337.27
364.348	309.24
364.729	322.12
365.111	332.97
365.493	344.72
365.874	310.6
366.256	294.55
366.637	300.88
367.019	305.63
367.4	296.14
367.781	304.5
368.163	312.18
368.544	295.91
368.925	311.96
369.306	313.08
369.688	302.92
370.069	318.06
370.45	308.57
370.831	314.21
371.212	294.78
371.593	309.24
371.974	297.27
372.355	303.59
372.736	296.14
373.117	301.33
373.498	318.73
373.879	331.39
374.26	297.94
374.641	295.01
375.021	313.08
375.402	307.66
375.783	288
376.163	302.69
376.544	332.29
376.925	331.84
377.305	310.15
377.686	310.83
378.066	320.99
378.447	306.53
378.827	316.25
379.208	342.46
379.588	312.86
379.968	325.51
380.349	325.06
380.729	332.29
381.109	332.97
381.489	338.4
381.87	311.96
382.25	303.59
382.63	303.37
383.01	315.57
383.39	342.69
383.77	329.58
384.15	314.67
384.53	333.88
384.91	348.11
385.29	336.59
385.67	349.92
386.049	342.24
386.429	351.05
386.809	339.75
387.189	348.79
387.568	341.78
387.948	344.72
388.328	355.8
388.707	356.7
389.087	353.31
389.466	346.76
389.846	348.56
390.225	347.43
390.605	368.68
390.984	353.08
391.363	355.57
391.743	360.32
392.122	338.4
392.501	363.25
392.881	363.48
393.26	375
393.639	371.16
394.018	356.25
394.397	371.39
394.776	356.47
395.155	327.77
395.534	386.53
395.913	357.6
396.292	379.98
396.671	384.27
397.05	361.9
397.429	364.16
397.808	363.71
398.186	358.28
398.565	370.03
398.944	391.95
399.323	389.47
399.701	384.95
400.08	392.4
400.458	357.15
400.837	371.39
401.215	385.85
401.594	375
401.972	380.65
402.351	383.14
402.729	392.63
403.107	401.44
403.486	404.38
403.864	401.9
404.242	404.16
404.62	406.87
404.999	421.1
405.377	400.99
405.755	403.93
406.133	414.55
406.511	410.26
406.889	431.05
407.267	428.56
407.645	426.98
408.023	437.38
408.401	430.6
408.779	448.9
409.156	445.96
409.534	431.27
409.912	437.15
410.29	471.5
410.667	452.29
411.045	431.05
411.422	468.56
411.8	469.01
412.178	467.88
412.555	486.19
412.933	485.96
413.31	501.78
413.687	497.94
414.065	488.67
414.442	499.07
414.819	501.33
415.197	500.2
415.574	518.28
415.951	530.03
416.328	526.41
416.705	514.89
417.082	540.2
417.46	539.97
417.837	538.39
418.214	546.3
418.591	512.63
418.967	526.64
419.344	565.96
419.721	546.98
420.098	584.72
420.475	571.84
420.852	576.13
421.228	579.52
421.605	580.65
421.982	582
422.358	595.11
422.735	607.77
423.111	617.03
423.488	626.52
423.864	627.43
424.241	622
424.617	641.21
424.994	628.33
425.37	640.53
425.746	633.53
426.123	642.57
426.499	646.41
426.875	696.58
427.251	686.86
427.627	689.35
428.003	696.8
428.379	692.06
428.756	726.63
429.132	702.45
429.507	725.96
429.883	706.97
430.259	736.58
430.635	740.42
431.011	737.03
431.387	754.43
431.763	752.62
432.138	779.74
432.514	763.69
432.89	786.52
433.265	812.51
433.641	803.02
434.016	810.25
434.392	815.9
434.767	855.9
435.143	864.71
435.518	827.42
435.894	848.66
436.269	864.26
436.644	912.17
437.02	867.87
437.395	897.7
437.77	919.62
438.145	908.55
438.52	946.06
438.895	961.66
439.271	965.05
439.646	981.77
440.021	980.19
440.395	999.85
440.77	981.32
441.145	990.13
441.52	1003.01
441.895	1021.77
442.27	1028.77
442.645	1009.79
443.019	1036.68
443.394	1051.37
443.769	1062.22
444.143	1085.95
444.518	1084.14
444.892	1089.34
445.267	1100.63
445.641	1122.1
446.016	1104.7
446.39	1132.05
446.764	1130.69
447.139	1139.28
447.513	1152.38
447.887	1166.85
448.262	1166.85
448.636	1164.59
449.01	1154.64
449.384	1180.41
449.758	1184.02
450.132	1215.89
450.506	1218.15
450.88	1211.59
451.254	1214.3
451.628	1242.33
452.002	1250.46
452.376	1253.17
452.75	1267.41
453.123	1276.22
453.497	1328.88
453.871	1321.42
454.244	1328.2
454.618	1357.8
454.992	1374.75
455.365	1387.63
455.739	1403.23
456.112	1448.87
456.486	1426.73
456.859	1432.15
457.232	1480.51
457.606	1478.7
457.979	1492.71
458.352	1534.97
458.725	1556.67
459.099	1568.19
459.472	1575.2
459.845	1598.7
460.218	1595.31
460.591	1627.4
460.964	1675.99
461.337	1667.17
461.71	1727.06
462.083	1714.4
462.456	1737.23
462.829	1705.14
463.201	1718.25
463.574	1782.65
463.947	1800.28
464.32	1842.08
464.692	1878.02
465.065	1874.17
465.438	1900.84
465.81	1956.43
466.183	1986.71
466.555	2024.45
466.928	2059.25
467.3	2083.89
467.672	2097.9
468.045	2153.49
468.417	2150.78
468.789	2161.85
469.161	2218.57
469.534	2257.89
469.906	2323.2
470.278	2318
470.65	2350.55
471.022	2448.85
471.394	2505.34
471.766	2519.35
472.138	2547.38
472.51	2637.09
472.882	2670.09
473.253	2688.84
473.625	2749.18
473.997	2797.77
474.369	2839.12
474.74	2880.93
475.112	2939.68
475.484	3037.08
475.855	3114.14
476.227	3126.8
476.598	3231.88
476.97	3282.72
477.341	3376.96
477.713	3475.94
478.084	3511.64
478.455	3564.52
478.827	3647.69
479.198	3767.91
479.569	3790.28
479.94	3910.96
480.311	4021.46
480.682	4130.16
481.053	4229.59
481.424	4337.39
481.795	4385.29
482.166	4501.22
482.537	4524.27
482.908	4731.27
483.279	4764.49
483.65	4946.18
484.021	5019.4
484.391	5150.47
484.762	5246.74
485.133	5307.76
485.503	5404.7
485.874	5559.95
486.244	5660.06
486.615	5753.39
486.985	5945.03
487.356	6060.28
487.726	6057.79
488.097	6331.23
488.467	6355.86
488.837	6573.26
489.207	6635.63
489.578	6777.1
489.948	6890.77
490.318	7030.65
490.688	7085.56
491.058	7269.96
491.428	7355.39
491.798	7509.96
492.168	7653.23
492.538	7739.33
492.908	7849.61
493.278	7982.04
493.648	8024.29
494.017	8203.5
494.387	8251.18
494.757	8387.22
495.126	8542.47
495.496	8556.71
495.866	8634.45
496.235	8798.51
496.605	8839.41
496.974	8970.26
497.344	8996.92
497.713	9121.89
498.082	9207.54
498.452	9313.53
498.821	9389.23
499.19	9491.6
499.559	9497.7
499.928	9648.43
500.298	9714.42
500.667	9758.94
501.036	9747.19
501.405	9937.46
501.774	9986.73
502.143	10099.04
502.512	10172.03
502.88	10188.08
503.249	10211.58
503.618	10293.39
503.987	10358.47
504.356	10422.88
504.724	10432.82
505.093	10462.87
505.462	10524.79
505.83	10583.55
506.199	10617.9
506.567	10818.8
506.936	10818.35
507.304	10911
507.672	10946.25
508.041	10938.12
508.409	11024.67
508.777	11139.47
509.145	11136.08
509.514	11135.17
509.882	11166.58
510.25	11212.91
510.618	11273.7
510.986	11254.04
511.354	11332.91
511.722	11401.38
512.09	11560.7
512.458	11488.16
512.826	11551.89
513.193	11602.73
513.561	11552.79
513.929	11584.88
514.297	11693.12
514.664	11682.5
515.032	11766.12
515.4	11799.56
515.767	11741.03
516.135	11806.12
516.502	11730.41
516.869	11896.74
517.237	11883.85
517.604	11848.83
517.972	11934.47
518.339	11923.63
518.706	11982.61
519.073	11952.33
519.44	12008.37
519.808	12080.23
520.175	12083.4
520.542	12129.05
520.909	12210.63
521.276	12153.68
521.643	12227.35
522.009	12127.46
522.376	12193.9
522.743	12312.77
523.11	12235.48
523.477	12389.38
523.843	12399.32
524.21	12447.68
524.577	12402.26
524.943	12460.79
525.31	12441.58
525.676	12442.94
526.043	12518.64
526.409	12550.05
526.776	12591.18
527.142	12534.46
527.508	12525.42
527.874	12625.53
528.241	12533.33
528.607	12544.63
528.973	12581.01
529.339	12489.26
529.705	12623.04
530.071	12625.08
530.437	12507.57
530.803	12600.67
531.169	12621.01
531.535	12574.68
531.901	12582.37
532.267	12514.12
532.632	12543.05
532.998	12521.13
533.364	12517.74
533.73	12506.21
534.095	12551.41
534.461	12518.41
534.826	12469.15
535.192	12400.9
535.557	12425.08
535.923	12411.75
536.288	12286.33
536.653	12296.72
537.019	12305.76
537.384	12259.21
537.749	12224.41
538.114	12201.81
538.479	12130.85
538.845	12032.32
539.21	11998.65
539.575	12030.52
539.94	12018.31
540.305	12024.19
540.67	11971.54
541.034	11910.29
541.399	11869.84
541.764	11839.34
542.129	11827.36
542.494	11776.51
542.858	11709.85
543.223	11765.89
543.587	11648.15
543.952	11616.74
544.316	11626.01
544.681	11534.03
545.045	11554.15
545.41	11486.12
545.774	11455.39
546.138	11443.64
546.503	11498.33
546.867	11313.93
547.231	11393.25
547.595	11338.33
547.959	11287.71
548.324	11172.23
548.688	11216.98
549.052	11083.42
549.416	11042.52
549.779	11048.4
550.143	11070.09
550.507	10973.82
550.871	10971.11
551.235	10939.25
551.599	10913.03
551.962	10883.65
552.326	10801.17
552.689	10804.33
553.053	10793.94
553.417	10749.65
553.78	10804.56
554.143	10684.11
554.507	10701.96
554.87	10687.05
555.234	10722.08
555.597	10605.7
555.96	10594.85
556.323	10645.92
556.686	10586.04
557.05	10564.57
557.413	10485.02
557.776	10547.84
558.139	10636.2
558.502	10490.9
558.865	10424.01
559.228	10471.69
559.59	10493.38
559.953	10389.88
560.316	10469.88
560.679	10465.81
561.041	10482.08
561.404	10518.01
561.767	10504.23
562.129	10386.04
562.492	10464.46
562.854	10373.39
563.217	10367.06
563.579	10359.83
563.941	10364.8
564.304	10393.95
564.666	10451.8
565.028	10430.33
565.39	10401.86
565.753	10467.62
566.115	10429.66
566.477	10499.48
566.839	10402.31
567.201	10504.91
567.563	10433.27
567.925	10449.54
568.287	10486.83
568.648	10464.68
569.01	10507.17
569.372	10470.33
569.734	10421.75
570.095	10501.97
570.457	10520.5
570.819	10484.34
571.18	10394.63
571.542	10528.64
571.903	10541.06
572.265	10494.74
572.626	10477.11
572.987	10589.88
573.349	10492.48
573.71	10587.17
574.071	10577
574.432	10582.19
574.794	10602.31
575.155	10565.7
575.516	10445.02
575.877	10567.05
576.238	10538.35
576.599	10639.37
576.96	10529.99
577.32	10548.97
577.681	10554.17
578.042	10581.52
578.403	10551.46
578.763	10562.08
579.124	10596.43
579.485	10670.78
579.845	10641.18
580.206	10539.03
580.566	10565.02
580.927	10617.9
581.287	10559.6
581.648	10480.73
582.008	10576.54
582.368	10543.55
582.728	10536.77
583.089	10596.2
583.449	10553.95
583.809	10551.01
584.169	10492.48
584.529	10503.55
584.889	10581.74
585.249	10456.32
585.609	10482.54
585.969	10434.4
586.329	10393.5
586.688	10471.69
587.048	10456.55
587.408	10497.22
587.768	10434.4
588.127	10401.41
588.487	10379.71
588.846	10377.23
589.206	10356.89
589.565	10361.41
589.925	10352.37
590.284	10349.66
590.643	10403.22
591.003	10342.88
591.362	10451.12
591.721	10341.07
592.08	10345.59
592.44	10377.68
592.799	10299.26
593.158	10330.9
593.517	10339.26
593.876	10301.07
594.235	10361.18
594.593	10289.77
594.952	10284.35
595.311	10267.85
595.67	10339.71
596.029	10343.1
596.387	10318.7
596.746	10252.94
597.104	10213.62
597.463	10195.54
597.822	10252.26
598.18	10215.65
598.538	10305.82
598.897	10277.12
599.255	10220.4
599.613	10266.95
599.972	10264.91
600.33	10244.8
600.688	10141.75
601.046	10193.28
601.404	10263.56
601.762	10232.82
602.12	10246.38
602.478	10275.08
602.836	10268.08
603.194	10251.58
603.552	10215.42
603.91	10222.43
604.268	10203.22
604.625	10219.72
604.983	10186.05
605.341	10156.22
605.698	10238.47
606.056	10214.07
606.413	10211.13
606.771	10282.09
607.128	10221.75
607.485	10191.7
607.843	10220.17
608.2	10311.01
608.557	10257.68
608.914	10199.15
609.272	10215.42
609.629	10258.36
609.986	10342.88
610.343	10169.77
610.7	10323.67
611.057	10233.5
611.414	10302.43
611.771	10301.07
612.127	10353.05
612.484	10299.04
612.841	10307.17
613.198	10381.07
613.554	10314.4
613.911	10335.87
614.267	10357.34
614.624	10364.12
614.98	10280.28
615.337	10385.14
615.693	10315.08
616.05	10351.01
616.406	10439.37
616.762	10419.26
617.118	10471.24
617.475	10327.96
617.831	10400.96
618.187	10431.24
618.543	10443.67
618.899	10424.01
619.255	10454.06
619.611	10459.71
619.967	10490.22
620.323	10506.04
620.678	10439.6
621.034	10428.53
621.39	10403.22
621.746	10440.95
622.101	10595.07
622.457	10373.39
622.812	10485.02
623.168	10437.79
623.523	10484.34
623.879	10479.37
624.234	10436.21
624.589	10501.97
624.945	10405.93
625.3	10482.54
625.655	10512.36
626.01	10508.3
626.365	10487.73
626.72	10466.94
627.075	10419.71
627.43	10435.08
627.785	10451.8
628.14	10388.3
628.495	10438.69
628.85	10399.37
629.205	10322.99
629.559	10466.49
629.914	10402.99
630.269	10334.52
630.623	10334.29
630.978	10393.27
631.332	10338.36
631.687	10376.32
632.041	10339.26
632.396	10330.9
632.75	10342.88
633.104	10314.4
633.459	10336.32
633.813	10329.32
634.167	10311.24
634.521	10297.23
634.875	10289.77
635.229	10304.46
635.583	10230.79
635.937	10285.03
636.291	10279.83
636.645	10180.85
636.999	10204.58
637.352	10226.27
637.706	10141.98
638.06	10260.62
638.413	10129.55
638.767	10140.85
639.121	10120.51
639.474	10083.22
639.828	10092.04
640.181	10097.01
640.534	10114.86
640.888	10073.73
641.241	10013.17
641.594	10122.09
641.947	10019.95
642.301	9990.8
642.654	10020.63
643.007	10014.52
643.36	10055.2
643.713	9955.09
644.066	10042.77
644.419	9947.41
644.771	9943.11
645.124	9872.38
645.477	9787.19
645.83	9777.69
646.182	9738.37
646.535	9672.16
646.888	9785.83
647.24	9726.4
647.593	9741.09
647.945	9696.79
648.298	9701.31
648.65	9659.51
649.002	9678.94
649.355	9663.8
649.707	9753.29
650.059	9706.51
650.411	9871.93
650.763	9783.57
651.115	9979.05
651.467	10011.36
651.819	9860.63
652.171	9861.53
652.523	9913.96
652.875	9836.9
653.227	9860.18
653.578	9938.14
653.93	9910.8
654.282	9848.88
654.633	9887.52
654.985	9890.01
655.337	9870.12
655.688	9864.02
656.039	9942.44
656.391	9876.45
656.742	9946.05
657.094	9926.84
657.445	9955.09
657.796	9964.36
658.147	9935.66
658.498	9882.1
658.849	9943.11
659.2	9873.29
659.551	9880.52
659.902	9964.81
660.253	9904.02
660.604	10005.26
660.955	9919.61
661.306	9910.35
661.656	9910.35
662.007	9931.82
662.358	9955.32
662.708	10002.77
663.059	9970.68
663.409	9885.26
663.76	10033.51
664.11	10023.56
664.461	10030.12
664.811	9997.12
665.161	10027.18
665.511	10033.73
665.862	9991.25
666.212	10015.2
666.562	10067.86
666.912	10031.7
667.262	10027.86
667.612	9991.93
667.962	10063.34
668.312	10014.52
668.662	10037.12
669.011	10024.92
669.361	10014.52
669.711	9981.98
670.06	9965.03
670.41	10007.07
670.76	9952.61
671.109	9959.84
671.459	9969.33
671.808	9941.31
672.157	10034.19
672.507	9867.86
672.856	9859.95
673.205	9927.3
673.554	9919.16
673.904	9877.35
674.253	9894.98
674.602	9848.88
674.951	9785.38
675.3	9727.98
675.649	9814.76
675.998	9827.64
676.346	9770.46
676.695	9840.52
677.044	9745.15
677.393	9822.89
677.741	9744.02
678.09	9782.44
678.438	9825.15
678.787	9758.49
679.135	9727.75
679.484	9671.93
679.832	9734.98
680.181	9663.12
680.529	9656.57
680.877	9706.06
681.225	9612.95
681.573	9718.26
681.922	9695.21
682.27	9562.33
682.618	9603.01
682.966	9565.5
683.314	9595.78
683.661	9566.4
684.009	9531.37
684.357	9472.17
684.705	9531.15
685.053	9503.35
685.4	9449.79
685.748	9446.63
686.095	9386.74
686.443	9348.78
686.79	9361.89
687.138	9333.86
687.485	9400.3
687.832	9346.07
688.18	9291.38
688.527	9304.94
688.874	9264.71
689.221	9189.91
689.568	9233.98
689.915	9218.61
690.262	9226.3
690.609	9083.48
690.956	9171.61
691.303	9050.48
691.65	9085.96
691.997	9038.96
692.344	8893.65
692.69	8977.72
693.037	8994.66
693.383	8848.91
693.73	8915.8
694.077	8844.61
694.423	8788.57
694.769	8788.34
695.116	8747.21
695.462	8752.64
695.808	8736.82
696.155	8717.38
696.501	8697.95
696.847	8609.59
697.193	8589.48
697.539	8566.88
697.885	8514.23
698.231	8487.79
698.577	8455.7
698.923	8453.89
699.269	8403.04
699.614	8332.54
699.96	8303.38
700.306	8290.95
700.651	8280.79
700.997	8264.06
701.342	8245.08
701.688	8197.62
702.033	8175.7
702.379	8244.18
702.724	8140.9
703.069	8126.44
703.415	8073.78
703.76	8055.25
704.105	8007.35
704.45	7952.88
704.795	7902.04
705.14	7909.27
705.485	7925.54
705.83	7905.65
706.175	7910.63
706.52	7858.42
706.865	7845.32
707.209	7753.57
707.554	7766
707.899	7803.96
708.243	7752.21
708.588	7693.68
708.932	7650.52
709.277	7589.73
709.621	7590.41
709.966	7563.52
710.31	7584.08
710.654	7549.05
710.998	7483.52
711.342	7549.73
711.687	7525.78
712.031	7457.08
712.375	7471.77
712.719	7499.79
713.063	7460.69
713.407	7463.18
713.75	7362.39
714.094	7365.33
714.438	7381.15
714.782	7299.79
715.125	7323.3
715.469	7354.03
715.812	7307.7
716.156	7229.51
716.499	7290.75
716.843	7238.33
717.186	7277.65
717.53	7279.46
717.873	7295.27
718.216	7247.82
718.559	7186.12
718.902	7162.17
719.246	7184.99
719.589	7164.2
719.932	7109.06
720.275	7154.71
720.617	7133.7
720.96	7132.34
721.303	7099.8
721.646	7154.04
721.989	7069.74
722.331	7136.63
722.674	7108.39
723.016	7116.52
723.359	7114.04
723.701	7067.48
724.044	7013.02
724.386	7028.16
724.729	7086.47
725.071	7060.03
725.413	7017.09
725.755	7063.19
726.097	7007.82
726.439	6954.49
726.782	7015.28
727.124	7041.72
727.465	7033.59
727.807	6963.76
728.149	6971.22
728.491	6977.54
728.833	6976.64
729.175	7024.77
729.516	6920.59
729.858	6906.13
730.199	7004.89
730.541	6977.54
730.882	6981.38
731.224	6958.11
731.565	6972.8
731.906	6957.43
732.248	6966.47
732.589	6909.97
732.93	6912.91
733.271	7026.81
733.612	6934.15
733.953	6987.94
734.294	6975.51
734.635	6955.17
734.976	6993.14
735.317	6981.38
735.658	7004.43
735.999	6961.95
736.339	6954.04
736.68	6960.82
737.021	7037.43
737.361	7000.82
737.702	7030.2
738.042	7021.16
738.383	7010.08
738.723	6982.06
739.063	7057.09
739.404	7098.9
739.744	7111.78
740.084	7080.36
740.424	7110.87
740.764	7061.16
741.104	7140.25
741.444	7124.66
741.784	7125.34
742.124	7103.19
742.464	7147.03
742.804	7170.31
743.143	7192.45
743.483	7200.59
743.823	7239.68
744.162	7282.17
744.502	7290.08
744.841	7259.57
745.181	7387.48
745.52	7338.89
745.86	7381.15
746.199	7424.99
746.538	7469.28
746.877	7490.07
747.216	7582.5
747.556	7621.14
747.895	7689.84
748.234	7669.73
748.573	7781.59
748.911	7795.15
749.25	7845.09
749.589	7969.83
749.928	7977.29
750.267	8025.2
750.605	8083.5
750.944	8133.22
751.283	8180.22
751.621	8338.41
751.96	8402.36
752.298	8476.03
752.636	8572.75
752.975	8691.17
753.313	8731.39
753.651	8903.59
753.989	8884.39
754.327	9072.63
754.666	9142.01
755.004	9353.3
755.342	9447.76
755.679	9632.61
756.017	9652.95
756.355	9778.6
756.693	9916.9
757.031	10129.1
757.368	10231.02
757.706	10355.98
758.044	10446.83
758.381	10633.72
758.719	10844.79
759.056	10943.77
759.394	11087.26
759.731	11231.89
760.068	11386.92
760.405	11556.63
760.743	11637.98
761.08	11856.28
761.417	12042.27
761.754	12254.47
762.091	12296.27
762.428	12436.38
762.765	12618.75
763.102	12789.37
763.438	12944.62
763.775	13095.12
764.112	13336.02
764.449	13489.91
764.785	13630.7
765.122	13755.67
765.458	13814.65
765.795	14030.69
766.131	14223
766.467	14311.59
766.804	14434.97
767.14	14586.38
767.476	14726.49
767.812	14913.15
768.148	15056.43
768.485	15118.8
768.821	15209.64
769.157	15338.68
769.492	15450.54
769.828	15674.94
770.164	15603.98
770.5	15840.36
770.836	15917.42
771.171	15916.29
771.507	16066.12
771.842	16104.53
772.178	16252.55
772.513	16461.13
772.849	16397.86
773.184	16486.22
773.519	16661.58
773.855	16665.88
774.19	16666.78
774.525	16775.93
774.86	16888.02
775.195	16894.34
775.53	17033.55
775.865	16933.66
776.2	16914.23
776.535	16925.3
776.87	17078.29
777.205	17088.46
777.539	17141.57
777.874	17226.76
778.209	17171.62
778.543	17176.82
778.878	17265.18
779.212	17238.29
779.547	17169.59
779.881	17342.24
780.215	17358.96
780.55	17413.2
780.884	17369.13
781.218	17326.42
781.552	17463.14
781.886	17405.97
782.22	17406.65
782.554	17414.78
782.888	17329.13
783.222	17270.83
783.556	17351.28
783.889	17384.5
784.223	17217.95
784.557	17252.53
784.89	17387.21
785.224	17283.71
785.557	17215.24
785.891	17297.05
786.224	17160.55
786.558	17231.74
786.891	17215.24
787.224	17068.12
787.557	17325.97
787.891	17169.14
788.224	17201.45
788.557	17231.96
788.89	17177.05
789.223	17188.35
789.556	17012.08
789.888	17020.44
790.221	16996.94
790.554	16911.29
790.887	16957.85
791.219	16878.75
791.552	16880.78
791.884	16739.09
792.217	16791.3
792.549	16795.59
792.882	16719.66
793.214	16721.47
793.546	16674.91
793.879	16614.35
794.211	16517.4
794.543	16611.19
794.875	16608.02
795.207	16648.02
795.539	16579.32
795.871	16543.17
796.203	16460.23
796.535	16363.74
796.867	16357.63
797.198	16310.18
797.53	16344.53
797.862	16322.61
798.193	16254.59
798.525	16091.88
798.856	16213.91
799.188	16012.11
799.519	16021.37
799.85	15928.27
800.182	15993.12
800.513	15946.35
800.844	15773.92
801.175	15980.47
801.506	15879.46
801.837	15862.51
802.168	15834.94
802.499	15762.17
802.83	15757.88
803.161	15650.31
803.491	15609.18
803.822	15678.1
804.153	15619.12
804.483	15458.45
804.814	15407.15
805.145	15366.02
805.475	15430.43
805.805	15408.28
806.136	15418
806.466	15361.05
806.796	15397.43
807.126	15214.84
807.457	15197.67
807.787	15257.32
808.117	15127.38
808.447	15126.71
808.777	15176.87
809.107	15113.15
809.436	15014.17
809.766	15056.88
810.096	15009.42
810.426	14955.64
810.755	14952.47
811.085	14910.44
811.414	14896.66
811.744	14708.41
812.073	14777.11
812.403	14768.75
812.732	14705.47
813.061	14715.19
813.39	14610.56
813.719	14566.5
814.049	14667.51
814.378	14680.39
814.707	14569.66
815.036	14527.85
815.365	14520.85
815.693	14404.01
816.022	14406.73
816.351	14361.3
816.68	14340.29
817.008	14369.89
817.337	14155.66
817.665	14171.93
817.994	14299.16
818.322	14227.3
818.651	14178.26
818.979	14121.54
819.307	14184.36
819.636	14227.3
819.964	14104.59
820.292	14101.2
820.62	14015.78
820.948	13994.31
821.276	14074.31
821.604	14052.61
821.932	14069.11
822.259	14017.58
822.587	14044.25
822.915	14008.77
823.243	14126.06
823.57	13991.82
823.898	14060.07
824.225	14043.12
824.553	13960.64
824.88	13995.66
825.207	13987.98
825.535	13979.39
825.862	14078.6
826.189	13951.14
826.516	14009.9
826.843	14123.57
827.17	14015.1
827.497	14053.74
827.824	14014.42
828.151	14071.82
828.478	14043.57
828.805	14105.94
829.131	14012.84
829.458	14086.96
829.785	13897.13
830.111	14042.67
830.438	14099.84
830.764	14121.54
831.09	14004.25
831.417	14020.97
831.743	14011.26
832.069	14023.68
832.395	14013.06
832.722	14033.63
833.048	13926.51
833.374	13971.71
833.7	13956.34
834.026	13928.32
834.351	14012.39
834.677	13958.83
835.003	13953.63
835.329	13988.88
835.654	13910.24
835.98	13841.54
836.306	13823.92
836.631	13820.53
836.956	13893.74
837.282	13890.58
837.607	13770.58
837.932	13813.52
838.258	13759.51
838.583	13707.31
838.908	13726.07
839.233	13777.59
839.558	13654.43
839.883	13648.1
840.208	13604.94
840.533	13583.47
840.858	13628.89
841.182	13618.05
841.507	13591.38
841.832	13401.33
842.156	13530.36
842.481	13464.83
842.805	13457.82
843.13	13382.12
843.454	13297.6
843.778	13253.99
844.103	13319.07
844.427	13187.55
844.751	13198.85
845.075	13239.07
845.399	13189.13
845.723	13088.34
846.047	13082.24
846.371	13023.26
846.695	13038.17
847.019	12848.12
847.343	12817.61
847.666	12797.73
847.99	12774.9
848.313	12681.57
848.637	12668.69
848.96	12632.54
849.284	12584.85
849.607	12436.16
849.931	12473.22
850.254	12387.34
850.577	12302.83
850.9	12215.6
851.223	12316.61
851.546	12218.53
851.869	12193
852.192	12262.15
852.515	12110.06
852.838	12058.54
853.161	12050.63
853.483	11949.84
853.806	11880.24
854.129	11878.88
854.451	11823.74
854.774	11803.86
855.096	11757.3
855.419	11746.46
855.741	11710.07
856.063	11613.58
856.385	11703.97
856.708	11549.63
857.03	11475.96
857.352	11549.85
857.674	11465.33
857.996	11441.38
858.318	11410.87
858.64	11379.23
858.961	11331.55
859.283	11243.65
859.605	11201.39
859.926	11308.73
860.248	11303.53
860.57	11176.3
860.891	11174.95
861.212	11143.08
861.534	11169.3
861.855	11043.2
862.176	11079.36
862.498	11103.31
862.819	11082.75
863.14	10979.92
863.461	10964.56
863.782	11003.88
864.103	10976.08
864.424	10951.9
864.745	10949.42
865.065	10905.57
865.386	10873.94
865.707	10832.36
866.027	10828.97
866.348	10835.29
866.668	10823.32
866.989	10749.65
867.309	10699.03
867.63	10752.36
867.95	10720.49
868.27	10683.43
868.59	10692.7
868.91	10666.49
869.23	10624.23
869.55	10534.29
869.87	10624
870.19	10614.74
870.51	10627.84
870.83	10572.93
871.15	10540.39
871.469	10549.2
871.789	10564.79
872.109	10470.11
872.428	10412.48
872.748	10519.82
873.067	10457.68
873.386	10511.91
873.706	10367.51
874.025	10403.89
874.344	10376.78
874.663	10342.65
874.982	10265.14
875.301	10384.46
875.62	10337.68
875.939	10266.5
876.258	10334.06
876.577	10260.62
876.896	10214.75
877.214	10184.46
877.533	10239.6
877.852	10249.55
878.17	10106.05
878.489	10202.99
878.807	10173.62
879.125	10155.31
879.444	10128.19
879.762	10082.55
880.08	10153.96
880.398	10033.96
880.716	10028.99
881.034	9994.64
881.352	10005.03
881.67	9934.53
881.988	9952.15
882.306	9960.74
882.624	9899.27
882.941	9841.87
883.259	9769.33
883.577	9825.83
883.894	9865.6
884.212	9785.83
884.529	9815.89
884.846	9748.77
885.164	9789.22
885.481	9659.73
885.798	9720.75
886.115	9679.62
886.432	9600.3
886.75	9606.63
887.067	9601.43
887.383	9513.52
887.7	9602.56
888.017	9462.9
888.334	9578.83
888.651	9470.81
888.967	9419.74
889.284	9445.05
889.6	9396.24
889.917	9322.11
890.233	9329.57
890.55	9285.28
890.866	9255
891.182	9218.39
891.498	9233.98
891.815	9242.34
892.131	9166.86
892.447	9169.12
892.763	9144.94
893.079	9104.49
893.395	9107.2
893.71	9052.06
894.026	8980.88
894.342	9016.58
894.657	8941.11
894.973	8967.55
895.289	8929.58
895.604	8880.77
895.92	8807.1
896.235	8763.03
896.55	8791.05
896.865	8722.81
897.181	8733.88
897.496	8836.02
897.811	8662.92
898.126	8604.39
898.441	8574.34
898.756	8577.73
899.071	8488.69
899.386	8545.86
899.7	8433.32
900.015	8423.61
900.33	8391.06
900.644	8387.22
900.959	8362.36
901.273	8257.96
901.588	8283.27
901.902	8263.84
902.216	8252.54
902.531	8276.49
902.845	8114.46
903.159	8123.28
903.473	8076.72
903.787	8007.57
904.101	8056.84
904.415	8038.76
904.729	7992.66
905.042	7964.18
905.356	7882.15
905.67	7931.19
905.984	7877.63
906.297	7875.82
906.611	7818.65
906.924	7770.97
907.237	7767.13
907.551	7756.51
907.864	7653.23
908.177	7654.59
908.491	7631.31
908.804	7636.73
909.117	7518.77
909.43	7566.23
909.743	7491.88
910.056	7469.96
910.368	7446
910.681	7420.02
910.994	7343.86
911.307	7330.75
911.619	7289.62
911.932	7296.4
912.244	7234.26
912.557	7205.11
912.869	7180.93
913.181	7172.57
913.494	7146.8
913.806	7158.1
914.118	7051.21
914.43	6997.43
914.742	6992.46
915.054	6965.57
915.366	6975.06
915.678	6922.4
915.99	6952.23
916.302	6845.34
916.613	6807.15
916.925	6825.91
917.236	6801.95
917.548	6787.94
917.859	6795.63
918.171	6706.14
918.482	6663.43
918.794	6667.72
919.105	6609.64
919.416	6584.56
919.727	6581.17
920.038	6610.55
920.349	6529.42
920.66	6515.18
920.971	6493.94
921.282	6441.06
921.593	6457.33
921.903	6366.49
922.214	6360.16
922.525	6355.86
922.835	6322.64
923.146	6252.82
923.456	6181.41
923.767	6276.54
924.077	6226.15
924.387	6197.9
924.697	6141.63
925.008	6111.35
925.318	6115.64
925.628	6149.77
925.938	6058.24
926.248	6032.03
926.558	6046.95
926.867	6020.05
927.177	5965.82
927.487	5932.37
927.796	5939.6
928.106	5911.36
928.416	5874.07
928.725	5830.68
929.034	5823
929.344	5817.8
929.653	5785.94
929.962	5735.99
930.271	5754.3
930.581	5697.35
930.89	5656.67
931.199	5620.74
931.508	5650.12
931.817	5636.79
932.125	5587.07
932.434	5583.45
932.743	5536.22
933.051	5563.12
933.36	5474.31
933.669	5472.95
933.977	5456.23
934.286	5410.13
934.594	5428.88
934.902	5363.12
935.21	5388.21
935.519	5341.2
935.827	5353.18
936.135	5285.38
936.443	5238.15
936.751	5204.48
937.059	5227.53
937.367	5187.08
937.674	5205.84
937.982	5146.18
938.29	5148.44
938.597	5138.27
938.905	5100.53
939.213	5049.01
939.52	5040.87
939.827	5068.67
940.135	5016.46
940.442	5023.02
940.749	4993.87
941.056	4962.91
941.363	4881.78
941.67	4874.32
941.977	4882.23
942.284	4838.16
942.591	4877.94
942.898	4825.73
943.205	4782.57
943.511	4802.46
943.818	4751.84
944.125	4717.94
944.431	4704.83
944.738	4738.28
945.044	4703.25
945.35	4687.43
945.657	4656.93
945.963	4632.52
946.269	4613.76
946.575	4611.96
946.881	4552.07
947.187	4560.88
947.493	4547.78
947.799	4561.79
948.105	4479.98
948.41	4462.35
948.716	4437.95
949.022	4446.08
949.327	4431.39
949.633	4352.75
949.938	4399.76
950.244	4352.75
950.549	4314.11
950.854	4321.57
951.16	4273.66
951.465	4256.03
951.77	4275.24
952.075	4221
952.38	4293.09
952.685	4176.71
952.99	4185.98
953.294	4151.4
953.599	4162.48
953.904	4158.41
954.209	4082.03
954.513	4082.7
954.818	4111.86
955.122	4067.11
955.426	4048.13
955.731	4042.7
956.035	4000.9
956.339	4023.95
956.643	3959.32
956.948	3933.33
957.252	3983.72
957.556	3948.24
957.86	3925.19
958.163	3882.03
958.467	3871.64
958.771	3810.62
959.075	3851.97
959.378	3822.6
959.682	3843.16
959.985	3780.34
960.289	3768.14
960.592	3761.13
960.896	3755.48
961.199	3722.94
961.502	3714.58
961.805	3684.3
962.108	3667.35
962.411	3679.78
962.714	3621.7
963.017	3633.45
963.32	3606.33
963.623	3622.6
963.926	3610.17
964.228	3525.88
964.531	3538.76
964.833	3560.46
965.136	3509.61
965.438	3518.65
965.741	3489.72
966.043	3468.03
966.345	3475.04
966.648	3507.8
966.95	3457.18
967.252	3416.05
967.554	3413.12
967.856	3408.6
968.158	3346.23
968.46	3318.43
968.761	3349.84
969.063	3315.49
969.365	3359.56
969.666	3335.83
969.968	3271.88
970.269	3255.38
970.571	3271.88
970.872	3291.99
971.174	3229.84
971.475	3197.98
971.776	3185.33
972.077	3198.21
972.378	3177.42
972.679	3155.5
972.98	3137.64
973.281	3137.42
973.582	3113.92
973.883	3121.82
974.183	3106.01
974.484	3087.48
974.785	3081.15
975.085	3095.16
975.386	3064.2
975.686	3027.59
975.986	3025.78
976.287	3007.25
976.587	2977.2
976.887	2955.95
977.187	2961.83
977.487	2940.59
977.787	2878.67
978.087	2933.81
978.387	2895.62
978.687	2881.61
978.987	2884.99
979.286	2854.04
979.586	2857.2
979.885	2836.63
980.185	2793.02
980.484	2812.91
980.784	2783.75
981.083	2802.29
981.382	2796.64
981.682	2782.17
981.981	2747.15
982.28	2719.12
982.579	2750.76
982.878	2760.03
983.177	2732.68
983.475	2701.5
983.774	2655.85
984.073	2631.22
984.372	2652.91
984.67	2630.76
984.969	2666.7
985.267	2633.25
985.566	2626.24
985.864	2591.44
986.162	2595.96
986.461	2607.71
986.759	2583.31
987.057	2517.77
987.355	2552.57
987.653	2541.5
987.951	2556.19
988.249	2499.47
988.547	2465.34
988.844	2492.24
989.142	2477.32
989.44	2485.91
989.737	2475.74
990.035	2441.84
990.332	2428.96
990.63	2409.53
990.927	2442.52
991.224	2414.05
991.521	2414.95
991.819	2373.82
992.116	2380.83
992.413	2339.02
992.71	2361.62
993.006	2346.03
993.303	2323.43
993.6	2340.6
993.897	2321.62
994.193	2316.87
994.49	2313.48
994.787	2277.1
995.083	2275.75
995.379	2246.37
995.676	2228.51
995.972	2239.14
996.268	2242.3
996.565	2176.76
996.861	2219.48
997.157	2166.82
997.453	2154.17
997.749	2149.87
998.044	2134.51
998.34	2125.92
998.636	2149.19
998.932	2099.25
999.227	2087.5
999.523	2087.5
999.818	2078.24
1000.114	2092.7
1000.409	2056.32
1000.704	2047.95
1001	2030.55
1001.295	2030.78
1001.59	2000.27
1001.885	2006.83
1002.18	1976.09
1002.475	1976.32
1002.77	1974.06
1003.065	1987.84
1003.359	1949.43
1003.654	1936.55
1003.949	1897.22
1004.243	1929.31
1004.538	1914.62
1004.832	1922.76
1005.127	1911.46
1005.421	1891.8
1005.715	1889.99
1006.009	1858.58
1006.304	1859.49
1006.598	1823.33
1006.892	1811.35
1007.186	1822.65
1007.48	1786.27
1007.773	1811.58
1008.067	1812.48
1008.361	1788.98
1008.655	1780.17
1008.948	1725.93
1009.242	1750.11
1009.535	1711.92
1009.829	1729.77
1010.122	1715.99
1010.415	1712.14
1010.708	1710.79
1011.001	1687.74
1011.295	1672.82
1011.588	1681.41
1011.881	1641.64
1012.173	1676.89
1012.466	1639.6
1012.759	1592.83
1013.052	1642.99
1013.344	1622.2
1013.637	1613.62
1013.93	1600.73
1014.222	1589.21
1014.514	1583.79
1014.807	1593.5
1015.099	1542.66
1015.391	1552.6
1015.683	1560.51
1015.976	1524.35
1016.268	1509.21
1016.56	1518.25
1016.851	1493.39
1017.143	1477.8
1017.435	1485.71
1017.727	1472.38
1018.018	1469.21
1018.31	1462.89
1018.602	1470.57
1018.893	1436.9
1019.185	1424.47
1019.476	1401.87
1019.767	1414.75
1020.058	1400.06
1020.35	1401.19
1020.641	1371.59
1020.932	1378.82
1021.223	1342.66
1021.514	1349.44
1021.804	1362.1
1022.095	1326.39
1022.386	1346.05
1022.677	1325.49
1022.967	1308.09
1023.258	1318.03
1023.548	1303.12
1023.839	1287.97
1024.129	1306.73
1024.419	1290.23
1024.709	1253.4
1025	1267.64
1025.29	1252.95
1025.58	1231.48
1025.87	1213.85
1026.16	1220.18
1026.449	1220.18
1026.739	1203.23
1027.029	1191.48
1027.319	1162.33
1027.608	1164.81
1027.898	1180.86
1028.187	1181.31
1028.477	1142.89
1028.766	1181.99
1029.055	1134.76
1029.344	1141.31
1029.634	1132.05
1029.923	1113.29
1030.212	1128.66
1030.501	1085.49
1030.79	1093.86
1031.078	1088.43
1031.367	1087.98
1031.656	1073.52
1031.945	1100.63
1032.233	1051.6
1032.522	1074.42
1032.81	1052.95
1033.099	1059.05
1033.387	1059.96
1033.675	1082.33
1033.963	1008.21
1034.251	1031.03
1034.54	1006.85
1034.828	999.39
1035.116	1030.13
1035.403	1008.66
1035.691	992.16
1035.979	968.21
1036.267	988.1
1036.554	975.21
1036.842	965.72
1037.129	968.43
1037.417	959.4
1037.704	924.82
1037.992	925.5
1038.279	967.08
1038.566	949.23
1038.853	949.23
1039.14	949.23
