Data from hue_330_FLMS001491_73.txt Node
Date: Mon Feb 06 15:45:52 GMT 2017
User: dcchb
Spectrometer: FLMS00149
Trigger mode: 0
Integration Time (sec): 2.000000E-2
Scans to average: 10
Electric dark correction enabled: true
Nonlinearity correction enabled: false
Boxcar width: 0
XAxis mode: Wavelengths
Number of Pixels in Spectrum: 2048
>>>>>Begin Spectral Data<<<<<
341.393	1.05
341.776	1.05
342.16	1.05
342.543	-54.77
342.927	-47.77
343.31	-50.48
343.693	-55.22
344.077	-55
344.46	-65.17
344.843	-57.26
345.226	-30.14
345.61	-14.1
345.993	-32.85
346.376	-9.58
346.759	1.72
347.142	29.52
347.525	36.98
347.908	44.89
348.291	66.35
348.674	80.82
349.057	109.52
349.44	133.02
349.823	137.99
350.206	160.59
350.588	209.4
350.971	216.63
351.354	235.84
351.737	225.22
352.119	257.99
352.502	253.92
352.884	283.98
353.267	278.1
353.65	295.5
354.032	314.94
354.414	314.03
354.797	328.72
355.179	323.07
355.562	329.4
355.944	319.45
356.326	342.73
356.709	327.82
357.091	342.51
357.473	336.63
357.855	363.52
358.238	354.03
358.62	344.31
359.002	355.16
359.384	336.18
359.766	326.01
360.148	343.41
360.53	358.55
360.912	337.08
361.294	331.66
361.676	319.68
362.057	329.85
362.439	330.08
362.821	343.18
363.203	326.01
363.584	333.47
363.966	311.77
364.348	319.23
364.729	323.3
365.111	336.86
365.493	317.2
365.874	327.82
366.256	323.52
366.637	328.27
367.019	319.45
367.4	332.34
367.781	312
368.163	322.39
368.544	325.78
368.925	320.58
369.306	314.26
369.688	316.74
370.069	322.62
370.45	304.54
370.831	297.08
371.212	328.95
371.593	314.71
371.974	307.03
372.355	311.55
372.736	313.13
373.117	313.35
373.498	330.53
373.879	315.16
374.26	320.36
374.641	324.65
375.021	318.78
375.402	324.2
375.783	326.91
376.163	310.42
376.544	338.66
376.925	343.18
377.305	337.08
377.686	346.12
378.066	324.43
378.447	342.73
378.827	338.21
379.208	346.8
379.588	344.76
379.968	330.53
380.349	339.79
380.729	335.5
381.109	326.01
381.489	336.63
381.87	349.28
382.25	334.14
382.63	354.48
383.01	321.26
383.39	346.12
383.77	349.06
384.15	350.19
384.53	341.83
384.91	346.57
385.29	340.25
385.67	357.87
386.049	358.55
386.429	376.18
386.809	373.01
387.189	348.61
387.568	370.75
387.948	366.23
388.328	355.16
388.707	359.91
389.087	359
389.466	380.02
389.846	355.16
390.225	360.36
390.605	357.87
390.984	351.32
391.363	371.88
391.743	344.99
392.122	378.66
392.501	367.36
392.881	351.32
393.26	381.6
393.639	388.15
394.018	392
394.397	373.92
394.776	391.09
395.155	394.71
395.534	379.57
395.913	401.71
396.292	398.1
396.671	397.42
397.05	419.79
397.429	400.36
397.808	395.39
398.186	376.18
398.565	383.18
398.944	408.49
399.323	384.76
399.701	382.5
400.08	410.07
400.458	410.53
400.837	425.21
401.215	411.2
401.594	405.55
401.972	413.01
402.351	417.08
402.729	424.31
403.107	397.87
403.486	428.83
403.864	418.21
404.242	434.48
404.62	431.77
404.999	436.74
405.377	440.13
405.755	442.84
406.133	425.44
406.511	441.71
406.889	448.72
407.267	432.9
407.645	450.07
408.023	451.65
408.401	471.54
408.779	468.15
409.156	481.94
409.534	475.61
409.912	486.68
410.29	482.61
410.667	492.56
411.045	485.1
411.422	494.59
411.8	497.53
412.178	510.41
412.555	511.54
412.933	514.48
413.31	524.2
413.687	529.84
414.065	536.17
414.442	526
414.819	530.3
415.197	540.92
415.574	554.7
415.951	597.64
416.328	576.85
416.705	568.71
417.082	587.92
417.46	573.01
417.837	571.65
418.214	601.03
418.591	579.56
418.967	598.09
419.344	598.54
419.721	629.28
420.098	634.02
420.475	645.77
420.852	651.88
421.228	649.16
421.605	648.26
421.982	647.81
422.358	651.2
422.735	658.43
423.111	665.21
423.488	674.02
423.864	675.38
424.241	709.5
424.617	695.26
424.994	702.27
425.37	711.08
425.746	709.28
426.123	711.99
426.499	726.68
426.875	726
427.251	751.31
427.627	750.4
428.003	748.82
428.379	762.61
428.756	774.36
429.132	771.87
429.507	792.44
429.883	791.53
430.259	792.66
430.635	788.82
431.011	806
431.387	829.05
431.763	865.66
432.138	847.12
432.514	856.39
432.89	876.73
433.265	884.19
433.641	885.54
434.016	901.59
434.392	897.74
434.767	912.66
435.143	924.18
435.518	932.77
435.894	943.39
436.269	953.79
436.644	906.56
437.02	972.55
437.395	944.52
437.77	979.78
438.145	999.21
438.52	987.46
438.895	1005.99
439.271	1004.63
439.646	1016.61
440.021	1042.6
440.395	1017.29
440.77	1007.12
441.145	1031.53
441.52	1047.12
441.895	1064.97
442.27	1070.62
442.645	1054.35
443.019	1063.84
443.394	1084.63
443.769	1076.27
444.143	1066.1
444.518	1094.8
444.892	1087.34
445.267	1099.32
445.641	1102.49
446.016	1104.52
446.39	1129.83
446.764	1114.01
447.139	1102.26
447.513	1135.7
447.887	1135.03
448.262	1130.73
448.636	1147
449.01	1131.18
449.384	1158.98
449.758	1167.79
450.132	1188.58
450.506	1174.35
450.88	1191.3
451.254	1198.3
451.628	1208.02
452.002	1211.86
452.376	1205.76
452.75	1219.54
453.123	1210.96
453.497	1231.75
453.871	1260.9
454.244	1238.75
454.618	1249.83
454.992	1302.25
455.365	1259.09
455.739	1277.62
456.112	1304.97
456.486	1290.73
456.859	1331.86
457.232	1315.81
457.606	1316.72
457.979	1368.92
458.352	1360.33
458.725	1393.32
459.099	1377.96
459.472	1403.49
459.845	1409.82
460.218	1413.44
460.591	1439.2
460.964	1456.83
461.337	1439.43
461.71	1466.32
462.083	1478.07
462.456	1493.89
462.829	1482.81
463.201	1493.89
463.574	1523.04
463.947	1538.63
464.32	1536.6
464.692	1549.71
465.065	1560.55
465.438	1579.53
465.81	1615.47
466.183	1628.35
466.555	1647.56
466.928	1662.92
467.3	1645.97
467.672	1679.65
468.045	1717.16
468.417	1701.34
468.789	1712.86
469.161	1724.16
469.534	1730.27
469.906	1791.51
470.278	1779.3
470.65	1818.85
471.022	1845.97
471.394	1862.92
471.766	1890.26
472.138	1896.14
472.51	1935.46
472.882	1959.19
473.253	1951.28
473.625	1957.38
473.997	1987.43
474.369	2019.3
474.74	2072.4
475.112	2067.21
475.484	2117.83
475.855	2122.8
476.227	2165.73
476.598	2176.36
476.97	2204.38
477.341	2242.34
477.713	2281.89
478.084	2269.69
478.455	2379.97
478.827	2347.42
479.198	2386.07
479.569	2401.21
479.94	2472.62
480.311	2490.25
480.682	2549.23
481.053	2584.93
481.424	2606.4
481.795	2617.47
482.166	2633.74
482.537	2703.8
482.908	2729.11
483.279	2764.81
483.65	2781.76
484.021	2853.4
484.391	2878.48
484.762	2920.29
485.133	2904.47
485.503	2938.37
485.874	3003
486.244	2998.03
486.615	3076.67
486.985	3072.83
487.356	3112.38
487.726	3177.68
488.097	3185.37
488.467	3201.86
488.837	3294.07
489.207	3322.99
489.578	3334.97
489.948	3384.69
490.318	3433.5
490.688	3428.3
491.058	3491.8
491.428	3502.2
491.798	3492.93
492.168	3592.14
492.538	3657.45
492.908	3645.7
493.278	3681.17
493.648	3661.06
494.017	3697.45
494.387	3755.75
494.757	3775.18
495.126	3812.47
495.496	3815.41
495.866	3841.4
496.235	3865.58
496.605	3900.38
496.974	3921.85
497.344	3947.61
497.713	3992.35
498.082	4012.24
498.452	4006.82
498.821	4033.93
499.19	4021.96
499.559	4099.69
499.928	4104.67
500.298	4136.76
500.667	4188.05
501.036	4150.77
501.405	4183.31
501.774	4174.72
502.143	4214.27
502.512	4219.92
502.88	4246.81
503.249	4270.31
503.618	4291.33
503.987	4269.41
504.356	4348.5
504.724	4327.03
505.093	4295.85
505.462	4362.51
505.83	4410.87
506.199	4436.41
506.567	4457.2
506.936	4412.45
507.304	4484.54
507.672	4487.25
508.041	4547.37
508.409	4536.75
508.777	4503.98
509.145	4597.76
509.514	4539
509.882	4600.7
510.25	4629.62
510.618	4647.02
510.986	4672.56
511.354	4682.28
511.722	4673.24
512.09	4672.33
512.458	4699.9
512.826	4741.94
513.193	4703.75
513.561	4737.42
513.929	4750.3
514.297	4815.16
514.664	4802.73
515.032	4837.98
515.4	4874.14
515.767	4888.15
516.135	4888.15
516.502	4822.61
516.869	4914.14
517.237	4913.46
517.604	4900.13
517.972	4957.98
518.339	4968.6
518.706	4968.37
519.073	4988.71
519.44	4996.17
519.808	5070.06
520.175	4994.81
520.542	5067.35
520.909	5107.58
521.276	5120.46
521.643	5115.71
522.009	5162.04
522.376	5161.59
522.743	5190.97
523.11	5231.42
523.477	5256.5
523.843	5273.45
524.21	5291.53
524.577	5341.7
524.943	5341.47
525.31	5404.52
525.676	5401.13
526.043	5433.44
526.409	5430.28
526.776	5428.47
527.142	5507.12
527.508	5524.29
527.874	5535.59
528.241	5553.44
528.607	5565.19
528.973	5670.27
529.339	5635.02
529.705	5675.7
530.071	5703.49
530.437	5764.74
530.803	5768.13
531.169	5820.1
531.535	5803.15
531.901	5804.73
532.267	5826.2
532.632	5863.49
532.998	5898.29
533.364	5924.28
533.73	5987.33
534.095	6027.1
534.461	5989.81
534.826	6021.23
535.192	6010.15
535.557	6120.43
535.923	6088.79
536.288	6154.56
536.653	6156.82
537.019	6144.39
537.384	6170.83
537.749	6220.09
538.114	6327.66
538.479	6260.54
538.845	6329.47
539.21	6236.14
539.575	6362.23
539.94	6340.09
540.305	6390.48
540.67	6403.59
541.034	6445.85
541.399	6445.85
541.764	6506.41
542.129	6501.44
542.494	6497.82
542.858	6545.73
543.223	6549.57
543.587	6623.47
543.952	6641.32
544.316	6688.78
544.681	6662.56
545.045	6712.96
545.41	6780.75
545.774	6813.3
546.138	6779.17
546.503	6780.53
546.867	6856.68
547.231	6926.96
547.595	6933.07
547.959	6881.77
548.324	6921.99
548.688	7000.64
549.052	6983.23
549.416	7044.02
549.779	6943.24
550.143	7069.56
550.507	7142.33
550.871	7128.77
551.235	7130.8
551.599	7167.64
551.962	7218.03
552.326	7143.68
552.689	7242.89
553.053	7232.04
553.417	7206.28
553.78	7290.8
554.143	7238.37
554.507	7322.89
554.87	7333.06
555.234	7452.83
555.597	7402.43
555.96	7394.3
556.323	7439.72
556.686	7453.05
557.05	7464.35
557.413	7448.76
557.776	7485.82
558.139	7564.01
558.502	7533.95
558.865	7580.05
559.228	7621.64
559.59	7712.71
559.953	7707.06
560.316	7761.75
560.679	7749.54
561.041	7775.53
561.404	7796.09
561.767	7868.18
562.129	7805.81
562.492	7907.05
562.854	7878.8
563.217	7905.92
563.579	7949.99
563.941	7989.54
564.304	7923.32
564.666	8061.17
565.028	7990.21
565.39	8071.12
565.753	8088.97
566.115	8124.67
566.477	8182.52
566.839	8202.41
567.201	8199.25
567.563	8175.29
567.925	8314.27
568.287	8240.15
568.648	8318.11
569.01	8421.16
569.372	8460.71
569.734	8441.5
570.095	8473.36
570.457	8496.19
570.819	8534.15
571.18	8555.4
571.542	8613.47
571.903	8623.42
572.265	8735.28
572.626	8759.91
572.987	8756.07
573.349	8829.97
573.71	8870.87
574.071	8944.09
574.432	8973.01
574.794	9076.29
575.155	9153.12
575.516	9083.97
575.877	9214.81
576.238	9282.61
576.599	9380.46
576.96	9395.15
577.32	9568.93
577.681	9593.34
578.042	9699.32
578.403	9717.4
578.763	9872.2
579.124	9907.68
579.485	10088.92
579.845	10119.2
580.206	10249.14
580.566	10374.33
580.927	10499.3
581.287	10695
581.648	10723.02
582.008	10871.49
582.368	11080.98
582.728	11272.61
583.089	11349
583.449	11579.5
583.809	11718.25
584.169	11932.48
584.529	12066.04
584.889	12284.79
585.249	12406.59
585.609	12594.84
585.969	12925.68
586.329	13053.81
586.688	13305.78
587.048	13525.89
587.408	13819.21
587.768	13982.15
588.127	14219.43
588.487	14430.04
588.846	14726.31
589.206	14956.58
589.565	15169.46
589.925	15403.58
590.284	15668.2
590.643	15956.56
591.003	16284.46
591.362	16549.08
591.721	16757.89
592.08	17017.77
592.44	17501.6
592.799	17676.51
593.158	17834.02
593.517	18213.67
593.876	18469.03
594.235	18760.55
594.593	18998.29
594.952	19455.22
595.311	19487.99
595.67	19911.03
596.029	20272.15
596.387	20596.66
596.746	20890.44
597.104	21070.1
597.463	21388.73
597.822	21790.75
598.18	21911.43
598.538	22209.27
598.897	22586.89
599.255	22713.44
599.613	23280.66
599.972	23420.99
600.33	23720.2
600.688	23892.39
601.046	24190.92
601.404	24569.44
601.762	24803.56
602.12	25199.25
602.478	25363.32
602.836	25695.96
603.194	25942.51
603.552	26084.43
603.91	26262.95
604.268	26613.45
604.625	26708.82
604.983	27136.15
605.341	27240.1
605.698	27665.63
606.056	27884.61
606.413	28028.33
606.771	28328.89
607.128	28557.58
607.485	28607.3
607.843	28918.7
608.2	29273.5
608.557	29534.28
608.914	29707.38
609.272	29932.24
609.629	30174.49
609.986	30578.55
610.343	30508.27
610.7	30918.2
611.057	31070.06
611.414	31244.97
611.771	31475.92
612.127	31739.87
612.484	31884.05
612.841	32196.58
613.198	32102.8
613.554	32315
613.911	32630.92
614.267	32683.35
614.624	32801.99
614.98	33086.5
615.337	33171.92
615.693	33430.9
616.05	33573.27
616.406	33773.94
616.762	33846.26
617.118	33970.32
617.475	34109.53
617.831	34350.42
618.187	34363.53
618.543	34627.48
618.899	34964.65
619.255	34893.91
619.611	35039.9
619.967	35248.25
620.323	35278.99
620.678	35359.66
621.034	35352.21
621.39	35427.46
621.746	35504.52
622.101	35951.29
622.457	35722.14
622.812	35847.11
623.168	36021.12
623.523	36231.05
623.879	36291.39
624.234	36303.14
624.589	36415.68
624.945	36654.54
625.3	36691.61
625.655	36807.31
626.01	36839.62
626.365	36901.09
626.72	36939.06
627.075	37074.42
627.43	37060.86
627.785	36955.1
628.14	37068.77
628.495	37286.84
628.85	37250.91
629.205	37207.75
629.559	37366.39
629.914	37356.9
630.269	37400.06
630.623	37442.09
630.978	37375.43
631.332	37624.69
631.687	37699.71
632.041	37588.98
632.396	37564.8
632.75	37552.15
633.104	37608.19
633.459	37440.51
633.813	37687.74
634.167	37685.93
634.521	37783.1
634.875	37666.04
635.229	37764.12
635.583	37515.99
635.937	37493.84
636.291	37494.07
636.645	37590.57
636.999	37598.25
637.352	37681.64
637.706	37458.14
638.06	37663.33
638.413	37591.92
638.767	37493.17
639.121	37557.8
639.474	37407.29
639.828	37559.38
640.181	37558.48
640.534	37668.76
640.888	37570.23
641.241	37522.54
641.594	37480.96
641.947	37595.31
642.301	37474.64
642.654	37593.5
643.007	37506.27
643.36	37526.61
643.713	37462.89
644.066	37757.79
644.419	37322.78
644.771	37253.17
645.124	36835.56
645.477	36934.54
645.83	36670.14
646.182	36546.07
646.535	36436.7
646.888	36566.41
647.24	36235.57
647.593	36630.14
647.945	36485.96
648.298	36289.81
648.65	36356.02
649.002	36266.76
649.355	36343.14
649.707	36406.42
650.059	36445.51
650.411	36881.21
650.763	36886.63
651.115	37266.28
651.467	37301.53
651.819	37151.25
652.171	37153.74
652.523	37024.48
652.875	37097.92
653.227	36979.73
653.578	37019.51
653.93	37035.1
654.282	37006.63
654.633	36803.69
654.985	36944.48
655.337	37044.36
655.688	36920.98
656.039	37115.78
656.391	36728.22
656.742	36756.46
657.094	36864.03
657.445	36956.46
657.796	36976.34
658.147	36845.73
658.498	36985.84
658.849	36942.67
659.2	36949.45
659.551	36808.66
659.902	36962.56
660.253	36857.7
660.604	36787.2
660.955	36721.21
661.306	36731.15
661.656	36787.2
662.007	36743.58
662.358	36763.47
662.708	36716.46
663.059	36642.79
663.409	36589.91
663.76	36763.24
664.11	36717.82
664.461	36843.69
664.811	36623.59
665.161	36683.7
665.511	36681.21
665.862	36738.61
666.212	36697.71
666.562	36801.43
666.912	36685.28
667.262	36762.34
667.612	36600.08
667.962	36720.76
668.312	36618.39
668.662	36874.88
669.011	36661.1
669.361	36650.7
669.711	36619.29
670.06	36636.47
670.41	36650.48
670.76	36399.41
671.109	36647.09
671.459	36575.9
671.808	36555.34
672.157	36539.75
672.507	36427.88
672.856	36498.16
673.205	36458.39
673.554	36694.77
673.904	36509.69
674.253	36735.67
674.602	36420.2
674.951	35985.41
675.3	35912.42
675.649	36281.22
675.998	36417.71
676.346	36300.88
676.695	36480.31
677.044	36198.96
677.393	36236.02
677.741	36224.73
678.09	36357.6
678.438	36078.29
678.787	36306.98
679.135	36210.49
679.484	35916.26
679.832	36115.35
680.181	35861.35
680.529	36036.71
680.877	35947.44
681.225	35880.33
681.573	36156.93
681.922	35913.77
682.27	35769.6
682.618	35779.31
682.966	35646.66
683.314	35715.81
683.661	35539.09
684.009	35545.87
684.357	35389.04
684.705	35362.6
685.053	35426.55
685.4	35295.03
685.748	35135.71
686.095	35062.04
686.443	35139.78
686.79	34959.22
687.138	35219.55
687.485	35121.25
687.832	35050.07
688.18	35073.57
688.527	34804.2
688.874	34869.51
689.221	34714.03
689.568	34723.3
689.915	34594.71
690.262	34628.84
690.609	34528.27
690.956	34299.13
691.303	34388.39
691.65	34119.24
691.997	34157.21
692.344	33939.14
692.69	33876.99
693.037	33980.49
693.383	33624.79
693.73	33841.96
694.077	33689.65
694.423	33634.96
694.769	33538.69
695.116	33413.27
695.462	33374.4
695.808	33262.32
696.155	33408.08
696.501	33127.41
696.847	33257.57
697.193	32896.68
697.539	33032.72
697.885	32849.9
698.231	32684.93
698.577	32729
698.923	32648.55
699.269	32483.13
699.614	32378.72
699.96	32277.03
700.306	32352.06
700.651	32139.18
700.997	32161.1
701.342	32147.54
701.688	32059.86
702.033	31946.87
702.379	32004.5
702.724	31706.88
703.069	31846.99
703.415	31677.5
703.76	31468.24
704.105	31512.08
704.45	31442.93
704.795	31270.28
705.14	31283.84
705.485	31373.55
705.83	31094.92
706.175	31171.98
706.52	31004.07
706.865	30958.88
707.209	30836.62
707.554	30818.09
707.899	30930.18
708.243	30720.92
708.588	30642.95
708.932	30306.69
709.277	30427.82
709.621	30428.04
709.966	30263.3
710.31	30339
710.654	30094.49
710.998	30084.32
711.342	30043.42
711.687	30117.09
712.031	29887.94
712.375	29823.31
712.719	29788.06
713.063	29853.37
713.407	29909.64
713.75	29688.85
714.094	29711.9
714.438	29543.55
714.782	29629.42
715.125	29367.05
715.469	29397.79
715.812	29226.27
716.156	29153.72
716.499	29109.88
716.843	29142.43
717.186	29087.29
717.53	29182.42
717.873	29048.87
718.216	29066.27
718.559	28984.46
718.902	28708.31
719.246	28831.7
719.589	28710.35
719.932	28543.35
720.275	28566.85
720.617	28519.62
720.96	28503.12
721.303	28467.64
721.646	28503.57
721.989	28312.39
722.331	28422.44
722.674	28339.96
723.016	28371.82
723.359	28316.46
723.701	28217.48
724.044	28020.87
724.386	27856.58
724.729	28034.88
725.071	28012.96
725.413	27951.27
725.755	27850.71
726.097	27826.98
726.439	27704.27
726.782	27721.22
727.124	27786.98
727.465	27576.14
727.807	27518.74
728.149	27567.1
728.491	27566.2
728.833	27410.04
729.175	27363.94
729.516	27341.57
729.858	27396.26
730.199	27405.3
730.541	27371.17
730.882	27203.04
731.224	27310.38
731.565	27140.67
731.906	27216.15
732.248	27170.73
732.589	26862.71
732.93	27012.31
733.271	27020
733.612	26865.42
733.953	26982.48
734.294	26871.3
734.635	26836.05
734.976	26880.34
735.317	26796.5
735.658	26761.47
735.999	26664.98
736.339	26719.89
736.68	26812.09
737.021	26563.74
737.361	26460.01
737.702	26550.86
738.042	26540.91
738.383	26392.22
738.723	26541.14
739.063	26439.9
739.404	26411.88
739.744	26436.28
740.084	26320.13
740.424	26263.63
740.764	26175.27
741.104	26150.64
741.444	26139.79
741.784	26140.7
742.124	26094.6
742.464	26012.34
742.804	26001.72
743.143	25941.83
743.483	25995.39
743.823	25810.54
744.162	25771.89
744.502	25807.15
744.841	25715.4
745.181	25686.02
745.52	25714.27
745.86	25656.19
746.199	25558.34
746.538	25575.51
746.877	25625.23
747.216	25539.13
747.556	25485.8
747.895	25536.87
748.234	25333.26
748.573	25305.01
748.911	25268.86
749.25	25194.06
749.589	25082.19
749.928	25179.37
750.267	25155.19
750.605	25099.37
750.944	25034.96
751.283	24888.3
751.621	25046.04
751.96	24988.86
752.298	24766.95
752.636	24865.25
752.975	24719.04
753.313	24582.32
753.651	24751.13
753.989	24548.42
754.327	24519.27
754.666	24441.08
755.004	24417.13
755.342	24484.02
755.679	24410.35
756.017	24275.44
756.355	24405.6
756.693	24179.17
757.031	24251.48
757.368	24038.15
757.706	24109.11
758.044	24082.9
758.381	24012.17
758.719	23965.16
759.056	23858.72
759.394	23700.99
759.731	23593.65
760.068	23622.34
760.405	23502.57
760.743	23421.9
761.08	23568.34
761.417	23371.73
761.754	23273.65
762.091	23150.49
762.428	23146.65
762.765	23073.66
763.102	23058.29
763.438	22825.76
763.775	22754.8
764.112	22935.58
764.449	22822.37
764.785	22670.96
765.122	22605.42
765.458	22538.08
765.795	22548.25
766.131	22380.57
766.467	22428.25
766.804	22241.82
767.14	22063.06
767.476	22158.43
767.812	22034.14
768.148	22031.43
768.485	21917.76
768.821	21809.74
769.157	21709.17
769.492	21720.7
769.828	21709.63
770.164	21472.57
770.5	21400.48
770.836	21532.46
771.171	21325.68
771.507	21320.71
771.842	21106.93
772.178	21132.69
772.513	21089.76
772.849	20948.52
773.184	20869.2
773.519	20924.34
773.855	20784.91
774.19	20667.85
774.525	20646.83
774.86	20558.92
775.195	20516.66
775.53	20467.63
775.865	20387.4
776.2	20180.4
776.535	20148.99
776.87	20125.04
777.205	20045.72
777.539	19975.21
777.874	20016.79
778.209	19799.17
778.543	19743.12
778.878	19629.91
779.212	19631.72
779.547	19514.43
779.881	19518.5
780.215	19430.14
780.55	19455.67
780.884	19311.05
781.218	19217.49
781.552	19224.04
781.886	19125.29
782.22	19058.85
782.554	18928.46
782.888	18746.77
783.222	18717.84
783.556	18637.62
783.889	18643.94
784.223	18446.21
784.557	18467.68
784.89	18481.46
785.224	18361.24
785.557	18320.56
785.891	18182.26
786.224	18226.33
786.558	18198.53
786.891	18089.84
787.224	18014.13
787.557	17905.43
787.891	17859.78
788.224	17880.12
788.557	17912.44
788.89	17766.91
789.223	17621.15
789.556	17584.09
789.888	17527.59
790.221	17436.52
790.554	17387.71
790.887	17387.71
791.219	17291.44
791.552	17213.47
791.884	17125.34
792.217	17085.34
792.549	16953.59
792.882	16824.56
793.214	16847.83
793.546	16829.98
793.879	16771.45
794.211	16586.37
794.543	16676.31
794.875	16584.56
795.207	16696.88
795.539	16554.28
795.871	16535.3
796.203	16445.36
796.535	16317.68
796.867	16314.74
797.198	16212.14
797.53	16252.82
797.862	15985.26
798.193	16114.07
798.525	16011.25
798.856	16015.09
799.188	15945.03
799.519	15774.42
799.85	15748.2
800.182	15701.42
800.513	15742.55
800.844	15618.71
801.175	15658.94
801.506	15644.93
801.837	15455.78
802.168	15516.57
802.499	15423.46
802.83	15347.76
803.161	15295.33
803.491	15257.14
803.822	15348.44
804.153	15281.77
804.483	15135.79
804.814	15060.54
805.145	15099.63
805.475	15076.58
805.805	14927.21
806.136	15006.07
806.466	14931.95
806.796	14960.88
807.126	14769.92
807.457	14739.41
807.787	14675.91
808.117	14562.02
808.447	14610.15
808.777	14741.22
809.107	14563.83
809.436	14565.86
809.766	14529.7
810.096	14438.86
810.426	14402.02
810.755	14413.55
811.085	14348.69
811.414	14338.52
811.744	14199.54
812.073	14186.21
812.403	14242.7
812.732	14055.14
813.061	14111.63
813.39	14085.42
813.719	14044.74
814.049	14092.43
814.378	13989.83
814.707	13998.64
815.036	13874.58
815.365	13812.43
815.693	13789.84
816.022	13803.62
816.351	13661.48
816.68	13589.16
817.008	13664.64
817.337	13502.16
817.665	13428.04
817.994	13595.49
818.322	13521.59
818.651	13504.42
818.979	13453.8
819.307	13484.53
819.636	13469.84
819.964	13315.05
820.292	13340.13
820.62	13341.94
820.948	13271.43
821.276	13406.79
821.604	13258.55
821.932	13314.82
822.259	13257.87
822.587	13322.28
822.915	13311.2
823.243	13253.35
823.57	13259.68
823.898	13289.96
824.225	13317.31
824.553	13262.17
824.88	13256.74
825.207	13344.65
825.535	13210.87
825.862	13223.07
826.189	13244.54
826.516	13226.23
826.843	13284.31
827.17	13293.58
827.497	13209.29
827.824	13250.64
828.151	13245.89
828.478	13277.53
828.805	13320.92
829.131	13217.19
829.458	13230.08
829.785	13171.09
830.111	13131.77
830.438	13205.44
830.764	13177.65
831.09	13263.3
831.417	13144.65
831.743	13180.36
832.069	13136.97
832.395	13166.8
832.722	13207.48
833.048	13084.99
833.374	13147.82
833.7	13102.4
834.026	13102.17
834.351	13019.91
834.677	13121.6
835.003	13083.64
835.329	13091.77
835.654	13042.28
835.98	12960.25
836.306	12988.73
836.631	12990.76
836.956	13046.58
837.282	12926.13
837.607	12903.76
837.932	12860.37
838.258	12840.71
838.583	12833.25
838.908	12758
839.233	12862.63
839.558	12796.41
839.883	12688.85
840.208	12606.14
840.533	12719.58
840.858	12640.71
841.182	12671.22
841.507	12637.78
841.832	12582.41
842.156	12557.33
842.481	12575.4
842.805	12498.8
843.13	12447.5
843.454	12424.45
843.778	12425.35
844.103	12413.15
844.427	12394.39
844.751	12320.27
845.075	12315.98
845.399	12278.01
845.723	12303.32
846.047	12162.99
846.371	12119.14
846.695	12152.59
847.019	11979.71
847.343	12026.94
847.666	11873.5
847.99	11834.86
848.313	11780.85
848.637	11769.1
848.96	11769.55
849.284	11751.02
849.607	11636.67
849.931	11633.06
850.254	11492.95
850.577	11423.34
850.9	11359.84
851.223	11447.3
851.546	11358.03
851.869	11266.29
852.192	11386.28
852.515	11243.24
852.838	11089.57
853.161	11146.97
853.483	11096.8
853.806	11111.26
854.129	11094.09
854.451	10994.43
854.774	10909.23
855.096	10926.41
855.419	10924.6
855.741	10871.49
856.063	10744.72
856.385	10757.15
856.708	10706.98
857.03	10758.95
857.352	10781.1
857.674	10722.8
857.996	10592.41
858.318	10611.16
858.64	10525.97
858.961	10534.78
859.283	10600.31
859.605	10501.33
859.926	10437.61
860.248	10459.98
860.57	10349.47
860.891	10459.3
861.212	10323.71
861.534	10354.22
861.855	10293.88
862.176	10337.72
862.498	10366.87
862.819	10291.85
863.14	10180.89
863.461	10095.69
863.782	10178.18
864.103	10165.75
864.424	10124.39
864.745	10157.84
865.065	10052.31
865.386	10117.16
865.707	10088.46
866.027	10070.38
866.348	9970.73
866.668	10037.84
866.989	9974.34
867.309	9869.26
867.63	9964.85
867.95	9984.74
868.27	9855.25
868.59	9843.05
868.91	9868.13
869.23	9864.06
869.55	9869.49
869.87	9807.34
870.19	9804.4
870.51	9814.8
870.83	9821.8
871.15	9705.65
871.469	9780.22
871.789	9827.91
872.109	9751.52
872.428	9634.92
872.748	9674.46
873.067	9675.59
873.386	9669.27
873.706	9695.93
874.025	9604.86
874.344	9615.71
874.663	9575.93
874.982	9544.98
875.301	9597.4
875.62	9527.57
875.939	9536.84
876.258	9545.65
876.577	9425.43
876.896	9471.53
877.214	9484.41
877.533	9447.8
877.852	9401.7
878.17	9434.02
878.489	9441.7
878.807	9448.03
879.125	9473.79
879.444	9357.18
879.762	9382.04
880.08	9324.42
880.398	9295.49
880.716	9296.17
881.034	9205.77
881.352	9250.07
881.67	9275.38
881.988	9286.68
882.306	9219.79
882.624	9206.45
882.941	9084.42
883.259	9143.86
883.577	9068.15
883.894	9041.71
884.212	9034.48
884.529	9061.15
884.846	9031.77
885.164	8961.26
885.481	8962.17
885.798	8995.61
886.115	8941.15
886.432	8926.23
886.75	8913.58
887.067	8933.69
887.383	8837.42
887.7	8909.51
888.017	8775.5
888.334	8812.56
888.651	8791.1
888.967	8782.96
889.284	8746.35
889.6	8669.74
889.917	8653.47
890.233	8660.93
890.55	8580.03
890.866	8646.24
891.182	8626.13
891.498	8558.11
891.815	8508.62
892.131	8514.95
892.447	8486.92
892.763	8453.03
893.079	8458.22
893.395	8315.4
893.71	8355.63
894.026	8331.22
894.342	8370.09
894.657	8326.48
894.973	8236.53
895.289	8273.14
895.604	8253.26
895.92	8205.12
896.235	8126.48
896.55	8190.21
896.865	8183.88
897.181	8174.62
897.496	8098.46
897.811	8085.13
898.126	8088.29
898.441	7988.18
898.756	8004.45
899.071	7917
899.386	7903.66
899.7	7837.45
900.015	7803.33
900.33	7781.63
900.644	7761.75
900.959	7800.39
901.273	7713.16
901.588	7718.81
901.902	7680.84
902.216	7622.54
902.531	7550
902.845	7570.11
903.159	7578.7
903.473	7491.47
903.787	7476.33
904.101	7449.89
904.415	7408.99
904.729	7408.76
905.042	7400.4
905.356	7345.71
905.67	7349.55
905.984	7333.06
906.297	7339.38
906.611	7218.93
906.924	7237.92
907.237	7221.87
907.551	7190.46
907.864	7081.54
908.177	7087.41
908.491	7116.11
908.804	7081.54
909.117	7016.45
909.43	7017.81
909.743	6978.26
910.056	6973.29
910.368	6940.98
910.681	6881.77
910.994	6895.1
911.307	6797.7
911.619	6804.03
911.932	6811.26
912.244	6790.7
912.557	6743.69
912.869	6721.09
913.181	6683.13
913.494	6684.94
913.806	6603.81
914.118	6585.96
914.43	6561.1
914.742	6595.9
915.054	6527.88
915.366	6505.28
915.678	6482.46
915.99	6523.59
916.302	6424.38
916.613	6276.13
916.925	6390.48
917.236	6314.33
917.548	6338.05
917.859	6311.61
918.171	6255.57
918.482	6277.72
918.794	6227.77
919.105	6233.2
919.416	6119.75
919.727	6130.6
920.038	6146.65
920.349	6062.58
920.66	6037.95
920.971	6059.87
921.282	6014.22
921.593	5974.22
921.903	5920.89
922.214	5937.16
922.525	5897.16
922.835	5861.68
923.146	5862.81
923.456	5873.89
923.767	5755.92
924.077	5814.23
924.387	5760.22
924.697	5758.63
925.008	5745.3
925.318	5738.75
925.628	5691.74
925.938	5576.04
926.248	5586.44
926.558	5596.15
926.867	5588.69
927.177	5540.33
927.487	5547.34
927.796	5498.08
928.106	5490.84
928.416	5423.5
928.725	5459.88
929.034	5400.23
929.344	5394.35
929.653	5382.82
929.962	5365.88
930.271	5373.11
930.581	5318.19
930.89	5299.44
931.199	5268.7
931.508	5208.82
931.817	5194.58
932.125	5192.77
932.434	5138.31
932.743	5128.59
933.051	5130.18
933.36	5141.25
933.669	5047.92
933.977	5034.36
934.286	5066.45
934.594	5023.29
934.902	5010.63
935.21	4998.2
935.519	4920.24
935.827	4913.01
936.135	4950.07
936.443	4895.38
936.751	4876.17
937.059	4849.51
937.367	4798.43
937.674	4826.91
937.982	4774.93
938.29	4768.15
938.597	4761.37
938.905	4701.71
939.213	4687.25
939.52	4668.72
939.827	4706.46
940.135	4616.52
940.442	4584.88
940.749	4619.45
941.056	4662.17
941.363	4550.08
941.67	4503.98
941.977	4550.76
942.284	4474.37
942.591	4502.85
942.898	4470.08
943.205	4442.28
943.511	4448.39
943.818	4400.93
944.125	4416.3
944.431	4355.05
944.738	4391.21
945.044	4350.99
945.35	4308.5
945.657	4252.01
945.963	4252.46
946.269	4213.59
946.575	4249.97
946.881	4266.24
947.187	4234.15
947.493	4208.84
947.799	4176.08
948.105	4132.69
948.41	4139.24
948.716	4162.29
949.022	4097.21
949.327	4076.42
949.633	4015.4
949.938	4026.02
950.244	4030.77
950.549	4074.38
950.854	3974.73
951.16	4006.82
951.465	3930.89
951.77	3911.45
952.075	3946.03
952.38	3951
952.685	3906.25
952.99	3878.23
953.294	3886.59
953.599	3897.89
953.904	3858.12
954.209	3808.63
954.513	3818.35
954.818	3796.65
955.122	3776.54
955.426	3749.2
955.731	3736.99
956.035	3741.74
956.339	3676.65
956.643	3664.68
956.948	3688.86
957.252	3674.62
957.556	3641.18
957.86	3633.27
958.163	3619.03
958.467	3612.48
958.771	3629.88
959.075	3519.14
959.378	3531.8
959.682	3511.69
959.985	3496.09
960.289	3467.62
960.592	3491.12
960.896	3482.54
961.199	3450.67
961.502	3457.9
961.805	3451.58
962.108	3429.43
962.411	3397.34
962.714	3401.41
963.017	3353.73
963.32	3408.64
963.623	3323.22
963.926	3382.2
964.228	3271.69
964.531	3299.26
964.833	3299.72
965.136	3267.85
965.438	3224.46
965.741	3265.37
966.043	3231.24
966.345	3220.85
966.648	3182.2
966.95	3129.32
967.252	3180.62
967.554	3159.61
967.856	3117.35
968.158	3137.69
968.46	3074.86
968.761	3102.66
969.063	3065.6
969.365	3080.51
969.666	3075.77
969.968	3041.64
970.269	3049.78
970.571	2993.73
970.872	3002.32
971.174	2987.86
971.475	3013.4
971.776	2962.78
972.077	2962.32
972.378	2958.93
972.679	2937.69
972.98	2910.57
973.281	2913.74
973.582	2900.86
973.883	2865.83
974.183	2892.49
974.484	2850.69
974.785	2848.2
975.085	2844.81
975.386	2884.59
975.686	2773.85
975.986	2767.07
976.287	2810.01
976.587	2748.32
976.887	2764.14
977.187	2759.84
977.487	2755.1
977.787	2723.01
978.087	2727.3
978.387	2706.51
978.687	2733.18
978.987	2663.57
979.286	2703.8
979.586	2648.21
979.885	2653.86
980.185	2616.57
980.484	2601.88
980.784	2608.21
981.083	2600.07
981.382	2591.03
981.682	2588.55
981.981	2561.66
982.28	2561.88
982.579	2538.61
982.878	2541.77
983.177	2539.28
983.475	2542.45
983.774	2513.75
984.073	2474.88
984.372	2482.11
984.67	2463.13
984.969	2464.71
985.267	2468.78
985.566	2441.88
985.864	2417.48
986.162	2421.55
986.461	2380.64
986.759	2374.09
987.057	2400.53
987.355	2354.2
987.653	2344.03
987.951	2354.66
988.249	2346.75
988.547	2325.28
988.844	2322.34
989.142	2320.53
989.44	2278.73
989.737	2295.9
990.035	2294.77
990.332	2266.97
990.63	2234.66
990.927	2233.3
991.224	2249.35
991.521	2225.62
991.819	2222.91
992.116	2215.9
992.413	2201.21
992.71	2175
993.006	2172.74
993.303	2186.07
993.6	2140.2
993.897	2174.55
994.193	2120.31
994.49	2157.82
994.787	2114.89
995.083	2100.88
995.379	2100.88
995.676	2120.54
995.972	2090.71
996.268	2069.24
996.565	2069.92
996.861	2055.45
997.157	2036.7
997.453	2003.03
997.749	2032.4
998.044	1995.34
998.34	2026.53
998.636	1992.63
998.932	1968.68
999.227	1963.25
999.523	1929.13
999.818	1968.45
1000.114	1926.19
1000.409	1920.77
1000.704	1917.38
1001	1910.83
1001.295	1888.68
1001.59	1902.24
1001.885	1885.97
1002.18	1888.91
1002.475	1850.49
1002.77	1828.12
1003.065	1823.6
1003.359	1845.74
1003.654	1815.01
1003.949	1794.22
1004.243	1772.98
1004.538	1777.72
1004.832	1760.32
1005.127	1798.74
1005.421	1763.03
1005.715	1744.05
1006.009	1756.03
1006.304	1745.63
1006.598	1743.6
1006.892	1736.14
1007.186	1741.34
1007.48	1729.14
1007.773	1670.83
1008.067	1676.03
1008.361	1653.21
1008.655	1688.23
1008.948	1643.49
1009.242	1641.91
1009.535	1631.28
1009.829	1635.8
1010.122	1635.13
1010.415	1611.62
1010.708	1577.27
1011.001	1604.17
1011.295	1580.89
1011.588	1579.08
1011.881	1566.2
1012.173	1533.43
1012.466	1562.13
1012.759	1567.11
1013.052	1524.85
1013.344	1528.01
1013.637	1534.56
1013.93	1550.16
1014.222	1531.85
1014.514	1512.87
1014.807	1480.55
1015.099	1467.22
1015.391	1470.16
1015.683	1457.96
1015.976	1455.24
1016.268	1460.22
1016.56	1444.4
1016.851	1402.14
1017.143	1389.48
1017.435	1432.87
1017.727	1383.83
1018.018	1388.81
1018.31	1366.66
1018.602	1392.42
1018.893	1372.31
1019.185	1355.81
1019.476	1362.14
1019.767	1358.75
1020.058	1316.49
1020.35	1330.5
1020.641	1313.1
1020.932	1289.82
1021.223	1286.66
1021.514	1288.92
1021.804	1292.76
1022.095	1264.06
1022.386	1288.69
1022.677	1249.15
1022.967	1248.7
1023.258	1240.79
1023.548	1244.4
1023.839	1241.69
1024.129	1227.68
1024.419	1235.81
1024.709	1213.67
1025	1216.15
1025.29	1173.44
1025.58	1182.71
1025.87	1180.45
1026.16	1182.71
1026.449	1134.8
1026.739	1144.29
1027.029	1159.66
1027.319	1137.96
1027.608	1124.86
1027.898	1087.12
1028.187	1109.26
1028.477	1128.02
1028.766	1088.93
1029.055	1105.2
1029.344	1085.08
1029.634	1102.71
1029.923	1089.83
1030.212	1079.43
1030.501	1056.16
1030.79	1037.63
1031.078	1064.75
1031.367	1058.64
1031.656	1039.89
1031.945	1071.75
1032.233	1036.27
1032.522	998.08
1032.81	998.31
1033.099	992.88
1033.387	994.24
1033.675	980.68
1033.963	973.9
1034.251	1010.28
1034.54	973.22
1034.828	949.49
1035.116	947.23
1035.403	938.2
1035.691	958.53
1035.979	921.25
1036.267	955.37
1036.554	934.81
1036.842	921.92
1037.129	900
1037.417	937.97
1037.704	892.77
1037.992	902.49
1038.279	888.25
1038.566	888.71
1038.853	888.71
1039.14	888.71
