Data from hue_20_FLMS001491_28.txt Node
Date: Mon Feb 06 15:33:50 GMT 2017
User: dcchb
Spectrometer: FLMS00149
Trigger mode: 0
Integration Time (sec): 2.000000E-2
Scans to average: 10
Electric dark correction enabled: true
Nonlinearity correction enabled: false
Boxcar width: 0
XAxis mode: Wavelengths
Number of Pixels in Spectrum: 2048
>>>>>Begin Spectral Data<<<<<
341.393	1.31
341.776	1.31
342.16	1.31
342.543	-44.33
342.927	-84.56
343.31	-64
343.693	-66.26
344.077	-69.87
344.46	-61.51
344.843	-57.44
345.226	-36.2
345.61	-31.23
345.993	-19.25
346.376	-14.28
346.759	-13.15
347.142	21.88
347.525	58.26
347.908	70.01
348.291	91.93
348.674	73.63
349.057	117.47
349.44	105.72
349.823	159.95
350.206	156.11
350.588	190.24
350.971	233.85
351.354	212.83
351.737	242.44
352.119	251.7
352.502	283.34
352.884	272.04
353.267	278.82
353.65	296
354.032	326.95
354.414	319.05
354.797	308.2
355.179	311.59
355.562	322.44
355.944	320.85
356.326	322.89
356.709	350.91
357.091	318.82
357.473	349.55
357.855	315.88
358.238	339.16
358.62	343.9
359.002	338.25
359.384	368.31
359.766	345.26
360.148	328.08
360.53	324.02
360.912	334.19
361.294	317.24
361.676	329.67
362.057	340.06
362.439	320.85
362.821	353.17
363.203	337.8
363.584	321.98
363.966	338.93
364.348	312.49
364.729	316.11
365.111	309.33
365.493	339.84
365.874	313.85
366.256	324.02
366.637	303
367.019	307.29
367.4	318.59
367.781	329.44
368.163	332.38
368.544	302.77
368.925	288.54
369.306	317.69
369.688	299.38
370.069	292.38
370.45	313.85
370.831	321.98
371.212	315.2
371.593	321.53
371.974	321.76
372.355	320.4
372.736	363.11
373.117	322.44
373.498	305.03
373.879	318.14
374.26	320.18
374.641	298.71
375.021	291.48
375.402	311.36
375.783	336.45
376.163	312.72
376.544	350.68
376.925	330.57
377.305	330.8
377.686	327.63
378.066	336.67
378.447	329.89
378.827	318.59
379.208	324.24
379.588	321.76
379.968	313.4
380.349	326.28
380.729	339.38
381.109	352.26
381.489	325.82
381.87	345.03
382.25	318.59
382.63	322.44
383.01	334.64
383.39	346.39
383.77	327.18
384.15	331.7
384.53	349.1
384.91	363.11
385.29	366.28
385.67	344.13
386.049	365.82
386.429	355.2
386.809	338.25
387.189	352.72
387.568	347.52
387.948	346.84
388.328	350.23
388.707	345.26
389.087	352.26
389.466	359.5
389.846	352.72
390.225	342.1
390.605	366.05
390.984	368.76
391.363	357.24
391.743	348.88
392.122	360.63
392.501	373.73
392.881	372.6
393.26	370.57
393.639	374.19
394.018	375.77
394.397	357.24
394.776	364.24
395.155	379.83
395.534	377.57
395.913	375.31
396.292	386.16
396.671	360.63
397.05	398.37
397.429	382.09
397.808	379.61
398.186	394.98
398.565	375.54
398.944	402.66
399.323	395.43
399.701	383.22
400.08	403.34
400.458	385.26
400.837	380.96
401.215	399.5
401.594	384.35
401.972	378.03
402.351	392.94
402.729	408.08
403.107	377.12
403.486	411.02
403.864	417.8
404.242	409.89
404.62	425.48
404.999	432.49
405.377	416.44
405.755	409.21
406.133	410.12
406.511	403.56
406.889	398.59
407.267	432.26
407.645	425.94
408.023	423.68
408.401	437.46
408.779	434.3
409.156	427.74
409.534	430.23
409.912	426.84
410.29	437.01
410.667	441.53
411.045	465.93
411.422	455.76
411.8	447.63
412.178	456.89
412.555	438.82
412.933	440.4
413.31	462.32
413.687	448.76
414.065	454.41
414.442	455.99
414.819	464.58
415.197	443.79
415.574	486.95
415.951	467.29
416.328	451.92
416.705	479.49
417.082	479.04
417.46	499.15
417.837	467.06
418.214	510.68
418.591	475.88
418.967	494.18
419.344	490.34
419.721	507.06
420.098	481.75
420.475	488.31
420.852	504.8
421.228	513.62
421.605	532.15
421.982	522.66
422.358	511.36
422.735	513.16
423.111	523.11
423.488	507.97
423.864	548.64
424.241	531.24
424.617	544.8
424.994	528.76
425.37	509.55
425.746	528.76
426.123	539.15
426.499	531.24
426.875	525.14
427.251	544.8
427.627	566.04
428.003	573.73
428.379	566.72
428.756	561.3
429.132	553.84
429.507	589.32
429.883	563.78
430.259	578.02
430.635	582.32
431.011	591.81
431.387	622.54
431.763	577.12
432.138	604.24
432.514	614.4
432.89	619.15
433.265	608.53
433.641	630.68
434.016	601.98
434.392	631.58
434.767	620.73
435.143	629.77
435.518	656.66
435.894	641.07
436.269	663.44
436.644	667.06
437.02	676.1
437.395	665.93
437.77	644.69
438.145	700.05
438.52	652.6
438.895	682.88
439.271	661.41
439.646	693.72
440.021	681.07
440.395	678.81
440.77	710.22
441.145	718.81
441.52	724.91
441.895	702.09
442.27	722.42
442.645	725.14
443.019	716.55
443.394	721.29
443.769	740.28
444.143	743.21
444.518	748.41
444.892	717.9
445.267	737.57
445.641	760.62
446.016	760.16
446.39	755.42
446.764	766.04
447.139	761.07
447.513	752.03
447.887	782.08
448.262	798.35
448.636	771.01
449.01	797.68
449.384	796.32
449.758	772.14
450.132	762.65
450.506	795.19
450.88	795.87
451.254	792.93
451.628	804.91
452.002	829.77
452.376	821.86
452.75	826.38
453.123	826.15
453.497	847.84
453.871	814.63
454.244	868.64
454.618	865.92
454.992	860.27
455.365	875.19
455.739	899.37
456.112	904.34
456.486	879.48
456.859	916.32
457.232	921.52
457.606	935.07
457.979	932.36
458.352	931.91
458.725	940.05
459.099	970.78
459.472	968.75
459.845	986.15
460.218	997.67
460.591	995.86
460.964	1014.62
461.337	1040.61
461.71	1018.24
462.083	1042.87
462.456	1040.61
462.829	1049.65
463.201	1059.59
463.574	1054.85
463.947	1086.71
464.32	1079.7
464.692	1117.67
465.065	1113.6
465.438	1136.88
465.81	1149.53
466.183	1178.68
466.555	1155.41
466.928	1177.55
467.3	1181.17
467.672	1209.42
468.045	1225.46
468.417	1217.1
468.789	1273.82
469.161	1234.5
469.534	1281.96
469.906	1298.91
470.278	1309.3
470.65	1314.5
471.022	1342.75
471.394	1379.13
471.766	1402.86
472.138	1414.38
472.51	1418.68
472.882	1455.96
473.253	1450.77
473.625	1515.85
473.997	1509.07
474.369	1533.7
474.74	1536.41
475.112	1558.56
475.484	1611.21
475.855	1627.94
476.227	1660.7
476.598	1674.94
476.97	1741.83
477.341	1753.36
477.713	1749.52
478.084	1816.41
478.455	1863.41
478.827	1888.95
479.198	1944.99
479.569	1939.34
479.94	1995.84
480.311	1990.87
480.682	2066.8
481.053	2092.56
481.424	2149.05
481.795	2193.57
482.166	2233.57
482.537	2254.36
482.908	2332.55
483.279	2347.47
483.65	2385.88
484.021	2410.74
484.391	2437.63
484.762	2548.82
485.133	2531.19
485.503	2581.81
485.874	2632.43
486.244	2678.53
486.615	2718.08
486.985	2747
487.356	2817.96
487.726	2894.12
488.097	2923.27
488.467	2902.93
488.837	2993.55
489.207	3060.89
489.578	3103.38
489.948	3142.93
490.318	3205.98
490.688	3200.55
491.058	3245.52
491.428	3305.41
491.798	3326.65
492.168	3406.65
492.538	3464.27
492.908	3451.17
493.278	3537.94
493.648	3539.98
494.017	3600.09
494.387	3678.73
494.757	3700.65
495.126	3740.88
495.496	3744.04
495.866	3775.23
496.235	3777.26
496.605	3845.51
496.974	3896.58
497.344	3894.54
497.713	3955.11
498.082	3975.9
498.452	4025.39
498.821	4034.88
499.19	4082.34
499.559	4093.64
499.928	4110.36
500.298	4155.78
500.667	4214.99
501.036	4199.17
501.405	4265.61
501.774	4280.52
502.143	4349.67
502.512	4322.56
502.88	4306.29
503.249	4396.68
503.618	4349.67
503.987	4414.08
504.356	4433.29
504.724	4441.87
505.093	4503.34
505.462	4534.08
505.83	4513.74
506.199	4558.48
506.567	4567.97
506.936	4585.6
507.304	4617.69
507.672	4665.37
508.041	4679.38
508.409	4697.69
508.777	4727.97
509.145	4768.19
509.514	4742.21
509.882	4770.23
510.25	4800.96
510.618	4816.78
510.986	4847.97
511.354	4872.82
511.722	4879.6
512.09	4951.69
512.458	4929.32
512.826	4984.01
513.193	4932.71
513.561	4984.46
513.929	5016.1
514.297	5075.3
514.664	5053.16
515.032	5055.42
515.4	5092.03
515.767	5128.86
516.135	5162.31
516.502	5118.69
516.869	5141.07
517.237	5196.66
517.604	5172.25
517.972	5179.48
518.339	5238.69
518.706	5244.79
519.073	5250.67
519.44	5273.27
519.808	5294.06
520.175	5322.76
520.542	5361.4
520.909	5360.49
521.276	5389.87
521.643	5397.56
522.009	5376.77
522.376	5447.5
522.743	5468.97
523.11	5492.92
523.477	5530.43
523.843	5546.48
524.21	5629.64
524.577	5672.8
524.943	5619.92
525.31	5649.75
525.676	5654.5
526.043	5723.42
526.409	5781.27
526.776	5820.37
527.142	5802.74
527.508	5837.54
527.874	5840.93
528.241	5894.94
528.607	5871.22
528.973	5985.11
529.339	5943.3
529.705	6046.13
530.071	6020.36
530.437	6132.23
530.803	6147.82
531.169	6125.22
531.535	6111.44
531.901	6124.09
532.267	6177.42
532.632	6207.93
532.998	6224.43
533.364	6248.38
533.73	6299.45
534.095	6357.98
534.461	6358.43
534.826	6380.58
535.192	6336.51
535.557	6447.25
535.923	6481.14
536.288	6489.05
536.653	6492.89
537.019	6503.06
537.384	6492.67
537.749	6560.46
538.114	6577.19
538.479	6587.13
538.845	6653.57
539.21	6619.22
539.575	6705.09
539.94	6725.2
540.305	6697.18
540.67	6785.77
541.034	6763.85
541.399	6817.18
541.764	6821.93
542.129	6825.54
542.494	6905.99
542.858	6990.06
543.223	6968.36
543.587	6996.84
543.952	6934.92
544.316	7039.32
544.681	7044.97
545.045	7022.15
545.41	7148.47
545.774	7150.05
546.138	7168.81
546.503	7220.78
546.867	7203.61
547.231	7293.55
547.595	7271.86
547.959	7321.8
548.324	7313.21
548.688	7319.54
549.052	7352.53
549.416	7458.74
549.779	7374.45
550.143	7433.43
550.507	7497.16
550.871	7528.57
551.235	7489.25
551.599	7574.67
551.962	7586.88
552.326	7618.51
552.689	7666.65
553.053	7632.07
553.417	7639.98
553.78	7723.14
554.143	7707.33
554.507	7777.61
554.87	7837.94
555.234	7804.27
555.597	7766.31
555.96	7847.89
556.323	7880.88
556.686	7864.61
557.05	7963.36
557.413	7857.15
557.776	8005.62
558.139	8013.53
558.502	8067.77
558.865	8029.35
559.228	8083.81
559.59	8127.65
559.953	8131.95
560.316	8158.16
560.679	8152.51
561.041	8295.11
561.404	8296.69
561.767	8296.91
562.129	8286.75
562.492	8388.44
562.854	8375.56
563.217	8367.2
563.579	8369.68
563.941	8441.09
564.304	8430.47
564.666	8520.41
565.028	8492.39
565.39	8556.57
565.753	8610.58
566.115	8650.8
566.477	8668.88
566.839	8710.24
567.201	8758.15
567.563	8723.34
567.925	8763.34
568.287	8799.73
568.648	8850.57
569.01	8859.61
569.372	8922.21
569.734	8933.51
570.095	8951.59
570.457	9014.64
570.819	9060.74
571.18	9026.39
571.542	9101.64
571.903	9109.55
572.265	9246.95
572.626	9268.87
572.987	9306.38
573.349	9341.41
573.71	9404.91
574.071	9480.39
574.432	9511.57
574.794	9640.38
575.155	9681.06
575.516	9713.15
575.877	9789.08
576.238	9801.06
576.599	9888.96
576.96	9979.13
577.32	10055.51
577.681	10181.38
578.042	10206.24
578.403	10393.36
578.763	10443.98
579.124	10490.98
579.485	10651.88
579.845	10804.42
580.206	10939.56
580.566	11056.62
580.927	11121.47
581.287	11326.44
581.648	11494.12
582.008	11635.58
582.368	11711.74
582.728	11957.38
583.089	12024.73
583.449	12231.73
583.809	12427.43
584.169	12741.32
584.529	12883.01
584.889	13222.21
585.249	13289.33
585.609	13466.04
585.969	13787.62
586.329	14015.41
586.688	14289.53
587.048	14564.77
587.408	14781.72
587.768	15012.9
588.127	15294.47
588.487	15600.45
588.846	15976.94
589.206	16151.62
589.565	16471.61
589.925	16874.09
590.284	17062.56
590.643	17358.37
591.003	17800.85
591.362	18075.87
591.721	18433.6
592.08	18780.48
592.44	19106.57
592.799	19523.06
593.158	19796.95
593.517	20140.22
593.876	20509.47
594.235	20793.08
594.593	21166.18
594.952	21665.38
595.311	21932.04
595.67	22313.04
596.029	22783.54
596.387	23014.04
596.746	23574.7
597.104	23753.91
597.463	24220.79
597.822	24603.38
598.18	24923.14
598.538	25245.62
598.897	25719.96
599.255	25913.17
599.613	26651.23
599.972	26707.96
600.33	27215.97
600.688	27376.86
601.046	27759.91
601.404	28454.12
601.762	28618.87
602.12	29044.39
602.478	29409.13
602.836	29663.36
603.194	29855.22
603.552	30306.96
603.91	30533.62
604.268	30936.32
604.625	31244.79
604.983	31710.99
605.341	31817.65
605.698	32348.71
606.056	32637.52
606.413	32951.86
606.771	33271.4
607.128	33609.47
607.485	33801.33
607.843	33964.94
608.2	34514.76
608.557	34851.92
608.914	35003.33
609.272	35304.79
609.629	35662.97
609.986	36009.63
610.343	36097.77
610.7	36641.48
611.057	36768.48
611.414	36987.91
611.771	37250.96
612.127	37585.64
612.484	37785.86
612.841	38011.39
613.198	38171.38
613.554	38253.87
613.911	38736.79
614.267	38908.77
614.624	39075.09
614.98	39323.22
615.337	39742.19
615.693	39767.5
616.05	39912.81
616.406	40342.4
616.762	40299.46
617.118	40495.84
617.475	40706.23
617.831	40945.77
618.187	41141.93
618.543	41239.78
618.899	41706.66
619.255	41768.35
619.611	41791.4
619.967	42258.51
620.323	42364.95
620.678	42230.26
621.034	42240.43
621.39	42449.46
621.746	42572.62
622.101	43119.73
622.457	42959.05
622.812	43173.06
623.168	43323.79
623.523	43415.54
623.879	43483.11
624.234	43429.55
624.589	43680.84
624.945	43847.17
625.3	43996.77
625.655	43878.35
626.01	44008.29
626.365	44146.59
626.72	44044
627.075	44148.18
627.43	44310.66
627.785	44309.08
628.14	44429.3
628.495	44646.24
628.85	44557.2
629.205	44541.84
629.559	44764.88
629.914	44693.47
630.269	44748.61
630.623	44788.84
630.978	44791.55
631.332	44905.22
631.687	45076.51
632.041	44953.13
632.396	45024.54
632.75	44908.16
633.104	45016.4
633.459	44845.11
633.813	45051.88
634.167	44985.89
634.521	45055.04
634.875	45135.49
635.229	45065.21
635.583	44989.51
635.937	44981.15
636.291	45107.47
636.645	44940.02
636.999	44994.71
637.352	45158.09
637.706	44916.29
638.06	45028.38
638.413	44987.02
638.767	45041.71
639.121	45055.5
639.474	44701.16
639.828	44950.64
640.181	44986.57
640.534	44986.8
640.888	44765.11
641.241	44643.53
641.594	44929.17
641.947	45000.36
642.301	44845.33
642.654	45043.52
643.007	44963.75
643.36	44844.2
643.713	44812.79
644.066	44948.83
644.419	44611.21
644.771	44425.68
645.124	44155.41
645.477	44116.76
645.83	43907.05
646.182	43809.88
646.535	43634.52
646.888	43935.3
647.24	43619.15
647.593	43780.5
647.945	43769.65
648.298	43673.61
648.65	43517.01
649.002	43404.24
649.355	43587.51
649.707	43452.37
650.059	43579.38
650.411	44137.33
650.763	44109.31
651.115	44601.27
651.467	44441.73
651.819	44489.86
652.171	44329.19
652.523	44384.78
652.875	44402.86
653.227	44147.72
653.578	44431.78
653.93	44410.54
654.282	44196.08
654.633	44099.59
654.985	43916.32
655.337	44419.35
655.688	44079.7
656.039	44362.18
656.391	43927.16
656.742	44154.73
657.094	44208.51
657.445	44227.27
657.796	44124
658.147	44072.02
658.498	43996.54
658.849	44180.26
659.2	44066.14
659.551	44002.19
659.902	44167.16
660.253	43999.03
660.604	44073.38
660.955	43884
661.306	44018.01
661.656	43894.62
662.007	44010.33
662.358	43874.74
662.708	43996.09
663.059	43860.73
663.409	43689.88
663.76	44058.46
664.11	43969.65
664.461	43957.9
664.811	43938.01
665.161	43980.95
665.511	43795.64
665.862	44021.62
666.212	44085.58
666.562	43981.63
666.912	44081.28
667.262	43788.64
667.612	43849.88
667.962	43879.03
668.312	43792.7
668.662	44058.91
669.011	43924
669.361	43944.56
669.711	43753.38
670.06	43830.44
670.41	43738.92
670.76	43501.86
671.109	43881.52
671.459	43723.78
671.808	43728.75
672.157	43742.31
672.507	43477.23
672.856	43476.55
673.205	43562.88
673.554	43690.79
673.904	43594.29
674.253	43711.35
674.602	43709.32
674.951	43052.16
675.3	42898.26
675.649	43502.09
675.998	43344.58
676.346	43554.07
676.695	43640.39
677.044	43242.89
677.393	43353.17
677.741	43391.59
678.09	43368.99
678.438	43152.27
678.787	43268.65
679.135	43337.12
679.484	43059.39
679.832	43256.45
680.181	43060.97
680.529	43152.04
680.877	43039.5
681.225	42846.29
681.573	43066.85
681.922	42846.29
682.27	42838.38
682.618	42896.46
682.966	42705.95
683.314	42745.95
683.661	42550.03
684.009	42409.92
684.357	42293.31
684.705	42264.38
685.053	42445.4
685.4	42372.63
685.748	42239.52
686.095	42116.36
686.443	42009.47
686.79	41998.85
687.138	42047.21
687.485	42006.76
687.832	41776.71
688.18	41961.11
688.527	41599.54
688.874	41624.85
689.221	41499.43
689.568	41463.27
689.915	41390.06
690.262	41465.76
690.609	41319.55
690.956	41071.42
691.303	41034.81
691.65	40993.91
691.997	41078.2
692.344	40755.27
692.69	40647.93
693.037	40670.07
693.383	40346.69
693.73	40513.47
694.077	40213.14
694.423	40320.25
694.769	40001.84
695.116	40067.83
695.462	39917.1
695.808	39855.18
696.155	39781.74
696.501	39611.35
696.847	39641.85
697.193	39288.87
697.539	39452.03
697.885	39170.91
698.231	39245.71
698.577	39108.76
698.923	38899.73
699.269	38864.47
699.614	38643.69
699.96	38634.42
700.306	38608.21
700.651	38414.99
700.997	38360.76
701.342	38288.22
701.688	38207.54
702.033	38077.15
702.379	38031.73
702.724	38070.37
703.069	38094.55
703.415	37575.47
703.76	37664.28
704.105	37775.24
704.45	37579.31
704.795	37292.08
705.14	37269.49
705.485	37257.06
705.83	37097.74
706.175	37104.52
706.52	37027.91
706.865	36845.99
707.209	36823.62
707.554	36876.05
707.899	36889.16
708.243	36589.96
708.588	36697.75
708.932	36375.72
709.277	36293.92
709.621	36338.44
709.966	36062.74
710.31	36153.13
710.654	36041.95
710.998	35916.3
711.342	35919.01
711.687	35886.47
712.031	35640.15
712.375	35614.84
712.719	35629.98
713.063	35523.32
713.407	35615.07
713.75	35439.7
714.094	35357.45
714.438	35205.13
714.782	35273.15
715.125	35025.25
715.469	35163.78
715.812	35071.35
716.156	34814.86
716.499	34895.54
716.843	34944.35
717.186	34644.7
717.53	34793.62
717.873	34856.89
718.216	34636.11
718.559	34624.81
718.902	34321.09
719.246	34437.7
719.589	34208.55
719.932	34128.1
720.275	34300.52
720.617	34053.3
720.96	34148.66
721.303	34097.37
721.646	34089.23
721.989	33884.94
722.331	33957.03
722.674	33738.51
723.016	33979.63
723.359	33585.97
723.701	33823.25
724.044	33548.45
724.386	33485.4
724.729	33524.95
725.071	33455.35
725.413	33468
725.755	33498.06
726.097	33295.81
726.439	33154.79
726.782	33141.46
727.124	33150.5
727.465	32993.21
727.807	32958.64
728.149	32947.34
728.491	32875.93
728.833	32819.43
729.175	32741.24
729.516	32698.76
729.858	32624.64
730.199	32750.51
730.541	32648.14
730.882	32521.81
731.224	32598.87
731.565	32391.2
731.906	32502.61
732.248	32471.65
732.589	32345.55
732.93	32177.64
733.271	32229.17
733.612	32200.47
733.953	32244.76
734.294	32079.34
734.635	32103.07
734.976	32117.98
735.317	31955.73
735.658	32025.33
735.999	32032.56
736.339	31815.39
736.68	32010.19
737.021	31796.86
737.361	31728.16
737.702	31815.17
738.042	31754.83
738.383	31705.34
738.723	31751.89
739.063	31589.18
739.404	31626.7
739.744	31562.97
740.084	31248.18
740.424	31458.34
740.764	31281.4
741.104	31352.58
741.444	31248.85
741.784	31020.16
742.124	31202.3
742.464	31040.5
742.804	30984.45
743.143	30962.08
743.483	30954.4
743.823	30798.7
744.162	30946.94
744.502	30796.89
744.841	30657.91
745.181	30917.11
745.52	30751.92
745.86	30796.89
746.199	30612.71
746.538	30648.19
746.877	30644.8
747.216	30636.67
747.556	30533.84
747.895	30533.84
748.234	30392.15
748.573	30308.54
748.911	30372.94
749.25	30224.02
749.589	30118.04
749.928	30100.18
750.267	30151.26
750.605	30184.47
750.944	30061.09
751.283	29898.61
751.621	30109.9
751.96	29869
752.298	29892.96
752.636	29904.48
752.975	29706.75
753.313	29471.73
753.651	29775.45
753.989	29616.35
754.327	29550.37
754.666	29483.7
755.004	29560.99
755.342	29599.18
755.679	29433.53
756.017	29250.71
756.355	29319.64
756.693	29212.52
757.031	29202.35
757.368	29039.65
757.706	29101.34
758.044	28905.64
758.381	28967.33
758.719	28912.87
759.056	28938.18
759.394	28766.43
759.731	28500.45
760.068	28600.79
760.405	28469.94
760.743	28455.03
761.08	28373.45
761.417	28223.62
761.754	28150.4
762.091	28163.28
762.428	28004.19
762.765	27814.14
763.102	27976.85
763.438	27826.12
763.775	27755.61
764.112	27759.45
764.449	27725.1
764.785	27621.38
765.122	27349.07
765.458	27354.72
765.795	27248.73
766.131	27179.58
766.467	27173.71
766.804	26960.6
767.14	26825.92
767.476	26859.82
767.812	26787.73
768.148	26741.4
768.485	26586.15
768.821	26537.79
769.157	26421.18
769.492	26350.68
769.828	26423.67
770.164	26177.12
770.5	26102.32
770.836	26025.26
771.171	25872.72
771.507	25836.79
771.842	25657.59
772.178	25672.73
772.513	25609.91
772.849	25560.87
773.184	25324.49
773.519	25405.62
773.855	25238.62
774.19	25181.22
774.525	25045.63
774.86	25132.86
775.195	25048.34
775.53	24894.44
775.865	24787.1
776.2	24678.4
776.535	24563.83
776.87	24555.02
777.205	24458.07
777.539	24390.95
777.874	24319.32
778.209	24088.36
778.543	24100.57
778.878	23934.24
779.212	23870.06
779.547	23752.55
779.881	23835.49
780.215	23492.45
780.55	23620.13
780.884	23383.98
781.218	23389.85
781.552	23405.67
781.886	23330.87
782.22	23109.63
782.554	23131.33
782.888	22837.78
783.222	22804.1
783.556	22744.67
783.889	22689.53
784.223	22626.71
784.557	22487.5
784.89	22480.27
785.224	22327.05
785.557	22182.2
785.891	22189.2
786.224	22189.43
786.558	22162.76
786.891	21900.17
787.224	21852.94
787.557	21739.5
787.891	21769.1
788.224	21743.34
788.557	21674.19
788.89	21630.12
789.223	21539.28
789.556	21408.43
789.888	21383.58
790.221	21182
790.554	21139.97
790.887	21145.62
791.219	20954.66
791.552	21019.07
791.884	20924.38
792.217	20736.81
792.549	20782.46
792.882	20592.41
793.214	20502.24
793.546	20525.52
793.879	20425.86
794.211	20379.08
794.543	20295.92
794.875	20279.65
795.207	20204.85
795.539	20110.62
795.871	20055.48
796.203	19907.23
796.535	19894.12
796.867	19779.1
797.198	19770.29
797.53	19745.43
797.862	19530.07
798.193	19653.68
798.525	19589.73
798.856	19610.74
799.188	19271.77
799.519	19249.39
799.85	19186.35
800.182	19166.46
800.513	19110.19
800.844	18999.68
801.175	19091.43
801.506	19059.8
801.837	18927.14
802.168	18869.52
802.499	18803.98
802.83	18667.26
803.161	18727.83
803.491	18601.5
803.822	18642.41
804.153	18594.27
804.483	18443.99
804.814	18312.92
805.145	18434.95
805.475	18221.17
805.805	18213.72
806.136	18192.47
806.466	18173.27
806.796	18071.57
807.126	17984.34
807.457	17945.47
807.787	17876.78
808.117	17936.44
808.447	17777.8
808.777	17736.89
809.107	17714.75
809.436	17672.49
809.766	17701.87
810.096	17668.42
810.426	17486.96
810.755	17499.84
811.085	17493.51
811.414	17539.38
811.744	17357.69
812.073	17291.03
812.403	17240.18
812.732	17204.25
813.061	17218.94
813.39	17060.3
813.719	17040.19
814.049	17132.16
814.378	17082.45
814.707	16955.67
815.036	16975.56
815.365	16811.49
815.693	16715.68
816.022	16733.53
816.351	16687.88
816.68	16535.34
817.008	16675.23
817.337	16482.69
817.665	16456.93
817.994	16513.2
818.322	16506.87
818.651	16375.35
818.979	16298.29
819.307	16413.76
819.636	16326.08
819.964	16163.15
820.292	16313.2
820.62	16286.31
820.948	16153.43
821.276	16188.68
821.604	16087.9
821.932	16124.96
822.259	16136.48
822.587	16127.9
822.915	16176.48
823.243	16230.49
823.57	16063.26
823.898	16178.29
824.225	15914.79
824.553	16037.73
824.88	16145.52
825.207	16061
825.535	16059.65
825.862	16051.51
826.189	15981.01
826.516	16188.23
826.843	16081.57
827.17	16103.71
827.497	16157.72
827.824	16105.52
828.151	16162.24
828.478	16091.74
828.805	16120.89
829.131	16060.33
829.458	16050.16
829.785	15938.97
830.111	15947.33
830.438	16073.43
830.764	16031.4
831.09	15975.81
831.417	15896.94
831.743	15996.37
832.069	15985.98
832.395	15997.73
832.722	15923.61
833.048	15889.03
833.374	15911.18
833.7	15830.05
834.026	15912.76
834.351	15871.63
834.677	15827.79
835.003	15882.7
835.329	15820.56
835.654	15769.71
835.98	15755.25
836.306	15778.53
836.631	15711.41
836.956	15797.06
837.282	15720.45
837.607	15503.73
837.932	15548.48
838.258	15608.36
838.583	15613.11
838.908	15603.16
839.233	15581.92
839.558	15522.94
839.883	15369.27
840.208	15373.56
840.533	15452.66
840.858	15470.96
841.182	15347.8
841.507	15427.8
841.832	15272.55
842.156	15288.6
842.481	15288.37
842.805	15247.01
843.13	15252.66
843.454	15094.02
843.778	15064.19
844.103	15082.05
844.427	15026
844.751	15015.61
845.075	14934.03
845.399	14939.45
845.723	14821.04
846.047	14898.77
846.371	14737.65
846.695	14744.43
847.019	14630.08
847.343	14556.64
847.666	14491.78
847.99	14397.55
848.313	14374.04
848.637	14325.68
848.96	14310.77
849.284	14259.24
849.607	14105.35
849.931	14047.95
850.254	14004.56
850.577	13957.33
850.9	13862.64
851.223	13939.48
851.546	13882.53
851.869	13674.63
852.192	13756.43
852.515	13562.09
852.838	13633.5
853.161	13548.3
853.483	13486.61
853.806	13406.16
854.129	13461.3
854.451	13403.9
854.774	13273.96
855.096	13294.52
855.419	13210.68
855.741	13178.82
856.063	13152.38
856.385	13102.66
856.708	13059.5
857.03	12981.31
857.352	12974.53
857.674	13002.55
857.996	12893.4
858.318	12867.19
858.64	12832.61
858.961	12883.01
859.283	12771.37
859.605	12710.36
859.926	12706.74
860.248	12658.16
860.57	12662.9
860.891	12658.38
861.212	12549.68
861.534	12548.1
861.855	12454.32
862.176	12553.07
862.498	12443.02
862.819	12461.1
863.14	12447.09
863.461	12393.98
863.782	12365.06
864.103	12302.01
864.424	12330.93
864.745	12373.64
865.065	12177.72
865.386	12232.4
865.707	12127.77
866.027	12221.33
866.348	12185.63
866.668	12110.83
866.989	12069.02
867.309	11984.28
867.63	12012.07
867.95	12068.11
868.27	12004.39
868.59	11991.73
868.91	12028.57
869.23	12000.55
869.55	11863.15
869.87	11980.43
870.19	11939.98
870.51	11880.32
870.83	11907.89
871.15	11862.47
871.469	11739.76
871.789	11849.36
872.109	11866.09
872.428	11755.81
872.748	11738.18
873.067	11761
873.386	11608.24
873.706	11730.72
874.025	11636.94
874.344	11578.41
874.663	11682.36
874.982	11603.95
875.301	11602.36
875.62	11525.76
875.939	11496.15
876.258	11488.02
876.577	11471.29
876.896	11393.1
877.214	11379.77
877.533	11439.43
877.852	11441.92
878.17	11415.25
878.489	11402.37
878.807	11379.55
879.125	11339.09
879.444	11331.64
879.762	11277.63
880.08	11326.21
880.398	11211.87
880.716	11256.16
881.034	11254.35
881.352	11183.62
881.67	11218.87
881.988	11098.2
882.306	11217.06
882.624	11033.79
882.941	11048.25
883.259	10986.56
883.577	11051.42
883.894	11038.54
884.212	10961.48
884.529	10907.24
884.846	10954.47
885.164	10975.49
885.481	10901.14
885.798	10867.69
886.115	10786.11
886.432	10791.54
886.75	10740.47
887.067	10712.44
887.383	10705.89
887.7	10679.9
888.017	10687.36
888.334	10611.66
888.651	10617.98
888.967	10617.08
889.284	10497.08
889.6	10478.33
889.917	10401.49
890.233	10475.84
890.55	10473.13
890.866	10434.03
891.182	10382.51
891.498	10335.73
891.815	10294.15
892.131	10257.09
892.447	10224.32
892.763	10184.32
893.079	10167.15
893.395	10162.85
893.71	10149.3
894.026	10152.23
894.342	10055.74
894.657	10013.03
894.973	9988.85
895.289	9998.79
895.604	10019.36
895.92	9890.77
896.235	9821.62
896.55	9751.79
896.865	9756.31
897.181	9803.77
897.496	9790.43
897.811	9688.06
898.126	9750.21
898.441	9658.69
898.756	9628.63
899.071	9543.66
899.386	9607.84
899.7	9458.01
900.015	9459.37
900.33	9382.99
900.644	9411.24
900.959	9393.83
901.273	9337.79
901.588	9324.01
901.902	9347.06
902.216	9261.86
902.531	9240.17
902.845	9213.95
903.159	9171.92
903.473	9102.32
903.787	9095.76
904.101	9022.55
904.415	9030.68
904.729	8933.28
905.042	8954.3
905.356	8885.15
905.67	8878.82
905.984	8902.1
906.297	8818.71
906.611	8768.09
906.924	8812.38
907.237	8703.01
907.551	8662.78
907.864	8645.83
908.177	8640.86
908.491	8603.8
908.804	8553.86
909.117	8475.89
909.43	8477.47
909.743	8391.15
910.056	8455.55
910.368	8372.84
910.681	8304.37
910.994	8333.75
911.307	8256.92
911.619	8173.3
911.932	8289.23
912.244	8158.61
912.557	8109.12
912.869	8064.38
913.181	8037.94
913.494	8084.04
913.806	7971.73
914.118	7966.98
914.43	7934.44
914.742	7811.73
915.054	7855.12
915.366	7851.5
915.678	7794.1
915.99	7774.89
916.302	7717.72
916.613	7634.79
916.925	7695.35
917.236	7690.15
917.548	7562.92
917.859	7633.2
918.171	7599.31
918.482	7521.79
918.794	7517.5
919.105	7476.82
919.416	7373.55
919.727	7381.46
920.038	7347.34
920.349	7312.76
920.66	7277.73
920.971	7274.12
921.282	7231.63
921.593	7179.2
921.903	7181.69
922.214	7178.07
922.525	7114.57
922.835	7054.69
923.146	7022.82
923.456	7037.06
923.767	7037.74
924.077	6997.97
924.387	6946.89
924.697	6919.1
925.008	6871.87
925.318	6774.69
925.628	6807.69
925.938	6813.11
926.248	6752.1
926.558	6760.68
926.867	6745.99
927.177	6671.42
927.487	6605.43
927.796	6598.88
928.106	6570.63
928.416	6569.95
928.725	6504.19
929.034	6508.26
929.344	6498.54
929.653	6471.88
929.962	6378.1
930.271	6416.96
930.581	6391.65
930.89	6325.89
931.199	6265.56
931.508	6276.85
931.817	6259.45
932.125	6253.58
932.434	6188.27
932.743	6157.31
933.051	6109.85
933.36	6085
933.669	6069.4
933.977	5983.08
934.286	6032.34
934.594	6015.17
934.902	5926.36
935.21	5955.51
935.519	5903.98
935.827	5896.07
936.135	5845.45
936.443	5782.86
936.751	5793.93
937.059	5791.44
937.367	5746.7
937.674	5760.71
937.982	5724.78
938.29	5687.72
938.597	5690.43
938.905	5641.39
939.213	5669.64
939.52	5590.55
939.827	5603.65
940.135	5577.21
940.442	5513.48
940.749	5494.95
941.056	5496.76
941.363	5445.01
941.67	5451.11
941.977	5359.59
942.284	5388.52
942.591	5399.82
942.898	5374.28
943.205	5339.7
943.511	5297.67
943.818	5261.74
944.125	5242.53
944.431	5188.07
944.738	5169.99
945.044	5161.86
945.35	5110.78
945.657	5120.27
945.963	5098.35
946.269	5066.72
946.575	5067.85
946.881	5026.72
947.187	5021.29
947.493	4990.56
947.799	4992.59
948.105	4952.6
948.41	4902.2
948.716	4886.16
949.022	4824.01
949.327	4911.92
949.633	4812.49
949.938	4882.77
950.244	4815.88
950.549	4810.9
950.854	4749.44
951.16	4759.15
951.465	4740.85
951.77	4661.08
952.075	4673.96
952.38	4675.31
952.685	4658.82
952.99	4624.92
953.294	4670.8
953.599	4562.55
953.904	4555.77
954.209	4573.17
954.513	4525.94
954.818	4466.96
955.122	4459.95
955.426	4482.55
955.731	4454.98
956.035	4423.8
956.339	4382.44
956.643	4367.98
956.948	4337.02
957.252	4318.04
957.556	4337.7
957.86	4290.92
958.163	4293.86
958.467	4285.95
958.771	4287.3
959.075	4251.82
959.378	4202.56
959.682	4214.54
959.985	4191.71
960.289	4156.91
960.592	4195.33
960.896	4151.03
961.199	4102.67
961.502	4070.36
961.805	4090.7
962.108	4010.93
962.411	4073.52
962.714	4028.55
963.017	4047.76
963.32	3972.73
963.623	3971.15
963.926	3921.66
964.228	3915.56
964.531	3955.33
964.833	3908.56
965.136	3900.42
965.438	3846.41
965.741	3826.98
966.043	3833.98
966.345	3828.33
966.648	3799.86
966.95	3856.81
967.252	3744.04
967.554	3748.33
967.856	3733.42
968.158	3748.56
968.46	3727.77
968.761	3660.2
969.063	3671.95
969.365	3659.52
969.666	3641.9
969.968	3615
970.269	3566.19
970.571	3624.04
970.872	3589.47
971.174	3537.27
971.475	3539.98
971.776	3522.12
972.077	3504.27
972.378	3453.88
972.679	3503.82
972.98	3455.91
973.281	3469.92
973.582	3434.44
973.883	3424.95
974.183	3419.75
974.484	3451.84
974.785	3355.12
975.085	3353.54
975.386	3352.41
975.686	3351.73
975.986	3322.58
976.287	3297.05
976.587	3281.45
976.887	3249.14
977.187	3247.33
977.487	3215.69
977.787	3198.29
978.087	3175.24
978.387	3164.39
978.687	3201
978.987	3157.39
979.286	3151.51
979.586	3122.36
979.885	3075.58
980.185	3105.86
980.484	3075.13
980.784	3069.93
981.083	3075.58
981.382	3054.34
981.682	3047.11
981.981	3003.49
982.28	3058.86
982.579	2990.61
982.878	2983.83
983.177	3008.69
983.475	2965.3
983.774	2909.03
984.073	2882.14
984.372	2939.54
984.67	2906.1
984.969	2874.01
985.267	2890.05
985.566	2867.23
985.864	2869.94
986.162	2817.74
986.461	2824.52
986.759	2815.93
987.057	2775.48
987.355	2769.6
987.653	2782.94
987.951	2735.93
988.249	2727.12
988.547	2747
988.844	2702.94
989.142	2686.21
989.44	2682.82
989.737	2706.1
990.035	2678.53
990.332	2649.38
990.63	2661.81
990.927	2616.61
991.224	2616.84
991.521	2602.6
991.819	2605.54
992.116	2600.34
992.413	2559.21
992.71	2563.73
993.006	2568.03
993.303	2563.05
993.6	2501.59
993.897	2513.34
994.193	2519.89
994.49	2499.78
994.787	2452.1
995.083	2441.02
995.379	2449.84
995.676	2420.23
995.972	2457.07
996.268	2443.96
996.565	2382.49
996.861	2425.43
997.157	2377.97
997.453	2382.49
997.749	2344.98
998.044	2351.31
998.34	2328.03
998.636	2374.58
998.932	2303.85
999.227	2318.54
999.523	2299.56
999.818	2271.54
1000.114	2263.4
1000.409	2246.45
1000.704	2257.53
1001	2241.93
1001.295	2242.61
1001.59	2214.14
1001.885	2173.01
1002.18	2172.1
1002.475	2188.83
1002.77	2164.19
1003.065	2146.34
1003.359	2145.21
1003.654	2130.3
1003.949	2134.36
1004.243	2085.55
1004.538	2093.24
1004.832	2097.98
1005.127	2079.9
1005.421	2059.34
1005.715	2044.88
1006.009	2044.42
1006.304	2017.08
1006.598	1992.9
1006.892	2010.3
1007.186	1990.19
1007.48	1979.11
1007.773	1958.32
1008.067	1944.99
1008.361	1931.21
1008.655	1911.09
1008.948	1918.33
1009.242	1890.53
1009.535	1910.19
1009.829	1904.09
1010.122	1887.59
1010.415	1876.52
1010.708	1841.49
1011.001	1841.49
1011.295	1845.78
1011.588	1825.9
1011.881	1807.59
1012.173	1812.34
1012.466	1802.4
1012.759	1798.33
1013.052	1785
1013.344	1760.82
1013.637	1740.48
1013.93	1749.52
1014.222	1744.77
1014.514	1713.13
1014.807	1728.95
1015.099	1671.33
1015.391	1678.33
1015.683	1689.63
1015.976	1671.55
1016.268	1659.12
1016.56	1655.06
1016.851	1621.61
1017.143	1608.95
1017.435	1634.04
1017.727	1614.6
1018.018	1594.04
1018.31	1592.01
1018.602	1572.57
1018.893	1570.76
1019.185	1574.15
1019.476	1558.79
1019.767	1550.43
1020.058	1533.7
1020.35	1510.88
1020.641	1519.01
1020.932	1504.1
1021.223	1499.13
1021.514	1486.47
1021.804	1445.57
1022.095	1459.13
1022.386	1458.9
1022.677	1427.72
1022.967	1412.35
1023.258	1410.54
1023.548	1418.45
1023.839	1404.67
1024.129	1392.01
1024.419	1371
1024.709	1385.01
1025	1374.16
1025.29	1357.66
1025.58	1348.17
1025.87	1320.6
1026.16	1312.69
1026.449	1299.36
1026.739	1319.92
1027.029	1302.97
1027.319	1274.5
1027.608	1272.92
1027.898	1291
1028.187	1265.46
1028.477	1255.52
1028.766	1248.06
1029.055	1260.49
1029.344	1247.38
1029.634	1215.52
1029.923	1200.83
1030.212	1229.53
1030.501	1198.34
1030.79	1191.11
1031.078	1208.06
1031.367	1152.02
1031.656	1160.15
1031.945	1165.12
1032.233	1147.05
1032.522	1152.02
1032.81	1151.34
1033.099	1119.93
1033.387	1133.49
1033.675	1107.5
1033.963	1106.6
1034.251	1129.87
1034.54	1087.16
1034.828	1100.95
1035.116	1074.51
1035.403	1075.41
1035.691	1080.38
1035.979	1062.3
1036.267	1041.06
1036.554	1055.75
1036.842	1040.61
1037.129	1029.54
1037.417	1030.89
1037.704	1021.4
1037.992	994.28
1038.279	1006.26
1038.566	990.44
1038.853	990.44
1039.14	990.44
