Data from hue_110_FLMS001491_00050.txt Node
Date: Tue Feb 07 17:01:23 GMT 2017
User: dcchb
Spectrometer: FLMS00149
Trigger mode: 0
Integration Time (sec): 2.000000E-2
Scans to average: 10
Electric dark correction enabled: true
Nonlinearity correction enabled: false
Boxcar width: 0
XAxis mode: Wavelengths
Number of Pixels in Spectrum: 2048
>>>>>Begin Spectral Data<<<<<
341.393	1.12
341.776	1.12
342.16	1.12
342.543	-39.79
342.927	-70.07
343.31	-53.57
343.693	-59.67
344.077	-57.19
344.46	-63.97
344.843	-67.58
345.226	-31.65
345.61	-25.32
345.993	-24.42
346.376	-12.22
346.759	-4.99
347.142	25.07
347.525	43.15
347.908	60.1
348.291	58.52
348.674	91.73
349.057	122.02
349.44	143.48
349.823	153.2
350.206	175.8
350.588	209.47
350.971	231.17
351.354	226.87
351.737	241.11
352.119	263.93
352.502	251.5
352.884	265.74
353.267	275.46
353.65	302.58
354.032	306.19
354.414	308.45
354.797	330.82
355.179	336.25
355.562	336.93
355.944	344.61
356.326	350.71
356.709	339.41
357.091	330.15
357.473	365.63
357.855	338.96
358.238	333.08
358.62	359.3
359.002	355.23
359.384	359.52
359.766	368.34
360.148	343.48
360.53	356.36
360.912	355.46
361.294	342.35
361.676	340.54
362.057	342.58
362.439	353.65
362.821	346.64
363.203	351.39
363.584	355
363.966	335.34
364.348	333.31
364.729	337.15
365.111	315.23
365.493	332.18
365.874	330.37
366.256	323.59
366.637	307.1
367.019	307.77
367.4	325.85
367.781	327.43
368.163	341.22
368.544	342.12
368.925	341.67
369.306	330.6
369.688	331.95
370.069	324.5
370.45	332.41
370.831	316.81
371.212	315.68
371.593	324.72
371.974	308.68
372.355	342.58
372.736	322.24
373.117	324.27
373.498	324.27
373.879	327.89
374.26	339.41
374.641	312.52
375.021	310.71
375.402	327.21
375.783	312.75
376.163	343.93
376.544	325.4
376.925	321.79
377.305	346.87
377.686	336.47
378.066	343.25
378.447	343.03
378.827	355.23
379.208	343.25
379.588	354.55
379.968	331.73
380.349	339.86
380.729	350.49
381.109	335.12
381.489	347.32
381.87	343.71
382.25	358.17
382.63	372.63
383.01	356.13
383.39	348.9
383.77	340.32
384.15	364.04
384.53	358.62
384.91	357.04
385.29	368.79
385.67	356.36
386.049	359.98
386.429	348.23
386.809	369.92
387.189	376.25
387.568	380.99
387.948	392.07
388.328	381.9
388.707	369.02
389.087	391.39
389.466	389.35
389.846	378.96
390.225	382.35
390.605	380.09
390.984	370.15
391.363	357.26
391.743	396.13
392.122	390.26
392.501	402.91
392.881	379.41
393.26	368.79
393.639	381.22
394.018	403.59
394.397	409.69
394.776	407.43
395.155	381.44
395.534	404.04
395.913	402.01
396.292	394.55
396.671	439.52
397.05	431.84
397.429	424.61
397.808	421.9
398.186	416.25
398.565	398.62
398.944	414.66
399.323	416.02
399.701	407.88
400.08	419.18
400.458	449.92
400.837	418.51
401.215	435.68
401.594	439.52
401.972	444.27
402.351	440.43
402.729	437.26
403.107	426.64
403.486	431.61
403.864	458.05
404.242	445.17
404.62	441.1
404.999	445.4
405.377	442.91
405.755	440.43
406.133	452.4
406.511	448.11
406.889	438.62
407.267	456.92
407.645	464.38
408.023	461.22
408.401	454.66
408.779	452.4
409.156	468.9
409.534	482.01
409.912	473.19
410.29	492.63
410.667	488.33
411.045	481.78
411.422	508
411.8	495.57
412.178	504.38
412.555	507.09
412.933	542.34
413.31	520.2
413.687	536.92
414.065	524.49
414.442	529.01
414.819	539.41
415.197	545.96
415.574	556.81
415.951	557.26
416.328	589.8
416.705	549.12
417.082	554.77
417.46	555.9
417.837	562.46
418.214	557.71
418.591	563.81
418.967	563.13
419.344	566.3
419.721	562.68
420.098	588.9
420.475	588.9
420.852	586.19
421.228	595.45
421.605	604.26
421.982	597.94
422.358	604.04
422.735	611.27
423.111	627.54
423.488	621.21
423.864	630.7
424.241	635.68
424.617	614.21
424.994	646.3
425.37	646.07
425.746	644.94
426.123	670.02
426.499	651.49
426.875	661.44
427.251	667.76
427.627	655.34
428.003	689.46
428.379	692.4
428.756	692.85
429.132	710.93
429.507	698.05
429.883	703.7
430.259	715
430.635	703.7
431.011	701.66
431.387	719.74
431.763	748.44
432.138	733.53
432.514	743.92
432.89	756.8
433.265	773.07
433.641	764.26
434.016	763.36
434.392	800.64
434.767	805.39
435.143	796.58
435.518	799.06
435.894	835.44
436.269	821.21
436.644	836.35
437.02	831.15
437.395	852.17
437.77	857.14
438.145	842.45
438.52	864.14
438.895	847.65
439.271	864.37
439.646	878.38
440.021	898.04
440.395	901.43
440.77	889.23
441.145	903.69
441.52	908.66
441.895	905.72
442.27	939.4
442.645	905.27
443.019	939.62
443.394	979.17
443.769	971.94
444.143	943.92
444.518	973.29
444.892	961.09
445.267	983.24
445.641	982.78
446.016	974.88
446.39	977.59
446.764	987.76
447.139	986.17
447.513	1001.77
447.887	1020.75
448.262	1027.08
448.636	1045.83
449.01	1053.07
449.384	1063.69
449.758	1057.13
450.132	1073.18
450.506	1067.08
450.88	1094.42
451.254	1064.82
451.628	1089.22
452.002	1101.65
452.376	1115.66
452.75	1142.1
453.123	1148.43
453.497	1162.44
453.871	1160.63
454.244	1204.25
454.618	1164.02
454.992	1232.5
455.365	1208.09
455.739	1254.87
456.112	1259.61
456.486	1261.2
456.859	1267.52
457.232	1266.62
457.606	1273.17
457.979	1304.81
458.352	1320.86
458.725	1357.92
459.099	1357.01
459.472	1377.8
459.845	1409.67
460.218	1403.34
460.591	1417.58
460.964	1436.78
461.337	1479.95
461.71	1500.29
462.083	1484.24
462.456	1545.48
462.829	1557.23
463.201	1567.85
463.574	1560.4
463.947	1590
464.32	1605.82
464.692	1644.46
465.065	1664.57
465.438	1710.9
465.81	1709.09
466.183	1736.66
466.555	1764.46
466.928	1806.72
467.3	1783.22
467.672	1789.32
468.045	1900.27
468.417	1912.93
468.789	1919.03
469.161	1945.25
469.534	1993.38
469.906	2049.2
470.278	2096.65
470.65	2110.21
471.022	2162.19
471.394	2204.67
471.766	2239.93
472.138	2298.91
472.51	2325.35
472.882	2392.69
473.253	2436.08
473.625	2456.64
473.997	2532.35
474.369	2610.31
474.74	2617.54
475.112	2709.52
475.484	2741.16
475.855	2831.1
476.227	2872.23
476.598	3004.65
476.97	3041.71
477.341	3118.32
477.713	3217.53
478.084	3278.09
478.455	3308.83
478.827	3458.2
479.198	3564.19
479.569	3600.8
479.94	3762.6
480.311	3812.54
480.682	3920.33
481.053	4074.91
481.424	4171.4
481.795	4257.73
482.166	4336.6
482.537	4532.97
482.908	4624.5
483.279	4746.53
483.65	4900.42
484.021	4988.1
484.391	5150.58
484.762	5254.54
485.133	5327.76
485.503	5533.17
485.874	5672.61
486.244	5780.62
486.615	6009.55
486.985	6056.1
487.356	6314.4
487.726	6374.06
488.097	6588.97
488.467	6662.18
488.837	6897.43
489.207	7020.37
489.578	7232.34
489.948	7386.68
490.318	7517.98
490.688	7640.46
491.058	7883.39
491.428	8026.89
491.798	8227.11
492.168	8434.79
492.538	8468.92
492.908	8756.14
493.278	8924.27
493.648	8940.54
494.017	9182.12
494.387	9296.46
494.757	9519.74
495.126	9622.56
495.496	9789.56
495.866	9852.61
496.235	10166.05
496.605	10252.15
496.974	10413.72
497.344	10578.92
497.713	10649.42
498.082	10804.45
498.452	11004.89
498.821	11127.83
499.19	11186.13
499.559	11360.59
499.928	11520.59
500.298	11533.24
500.667	11747.47
501.036	11793.8
501.405	12047.13
501.774	12052.78
502.143	12241.25
502.512	12281.47
502.88	12520.11
503.249	12516.94
503.618	12694.34
503.987	12706.77
504.356	12847.33
504.724	13013.65
505.093	13052.07
505.462	13099.08
505.83	13224.5
506.199	13425.4
506.567	13508.56
506.936	13509.01
507.304	13758.49
507.672	13734.31
508.041	13889.34
508.409	14008.66
508.777	14127.07
509.145	14121.87
509.514	14210.23
509.882	14323.45
510.25	14345.82
510.618	14453.17
510.986	14490.9
511.354	14560.51
511.722	14735.19
512.09	14907.62
512.458	14905.81
512.826	14970.21
513.193	15071.68
513.561	15111
513.929	15212.02
514.297	15280.04
514.664	15374.95
515.032	15381.5
515.4	15443.65
515.767	15572.68
516.135	15613.81
516.502	15531.55
516.869	15631.67
517.237	15771.1
517.604	15725.67
517.972	15947.82
518.339	15793.24
518.706	15974.93
519.073	15895.84
519.44	16104.42
519.808	16168.15
520.175	16121.6
520.542	16245.43
520.909	16283.4
521.276	16288.82
521.643	16358.88
522.009	16415.83
522.376	16487.24
522.743	16471.42
523.11	16620.57
523.477	16649.49
523.843	16758.64
524.21	16879.54
524.577	16933.1
524.943	16977.84
525.31	17021.46
525.676	17122.47
526.043	17055.13
526.409	17180.1
526.776	17201.57
527.142	17219.42
527.508	17233.21
527.874	17301.45
528.241	17431.62
528.607	17357.27
528.973	17420.54
529.339	17464.84
529.705	17536.7
530.071	17490.6
530.437	17377.16
530.803	17560.65
531.169	17588.68
531.535	17564.27
531.901	17502.12
532.267	17499.19
532.632	17582.12
532.998	17545.29
533.364	17485.18
533.73	17543.93
534.095	17612.18
534.461	17671.39
534.826	17623.48
535.192	17566.76
535.557	17610.14
535.923	17604.95
536.288	17665.28
536.653	17527.89
537.019	17533.31
537.384	17453.76
537.749	17440.88
538.114	17461.22
538.479	17408.79
538.845	17312.98
539.21	17356.82
539.575	17324.73
539.94	17308.68
540.305	17319.76
540.67	17240.89
541.034	17155.02
541.399	17325.18
541.764	17213.32
542.129	17096.03
542.494	17208.12
542.858	17147.56
543.223	17062.36
543.587	17100.78
543.952	17099.65
544.316	16964.06
544.681	16934.68
545.045	17045.19
545.41	16955.92
545.774	16946.66
546.138	16778.08
546.503	16884.29
546.867	16820.79
547.231	16788.25
547.595	16835.7
547.959	16702.15
548.324	16722.26
548.688	16654.24
549.052	16619.66
549.416	16552.32
549.779	16546.9
550.143	16455.37
550.507	16497.63
550.871	16458.99
551.235	16411.08
551.599	16411.98
551.962	16452.43
552.326	16461.7
552.689	16365.88
553.053	16328.82
553.417	16258.99
553.78	16484.75
554.143	16267.58
554.507	16273.68
554.87	16268.26
555.234	16350.06
555.597	16185.55
555.96	16272.78
556.323	16234.59
556.686	16167.02
557.05	16215.38
557.413	16273.46
557.776	16076.17
558.139	16179.22
558.502	16078.66
558.865	16021.03
559.228	16174.02
559.59	16119.56
559.953	16162.5
560.316	16355.71
560.679	16281.59
561.041	16277.3
561.404	16240.24
561.767	16260.35
562.129	16180.13
562.492	16323.85
562.854	16230.52
563.217	16218.09
563.579	16169.05
563.941	16419.89
564.304	16224.87
564.666	16315.94
565.028	16362.95
565.39	16374.7
565.753	16381.48
566.115	16397.29
566.477	16416.28
566.839	16411.31
567.201	16515.48
567.563	16471.19
567.925	16425.32
568.287	16540.12
568.648	16527.69
569.01	16485.43
569.372	16608.14
569.734	16431.64
570.095	16642.71
570.457	16575.37
570.819	16578.53
571.18	16525.2
571.542	16667.34
571.903	16567.23
572.265	16673.45
572.626	16623.28
572.987	16686.1
573.349	16712.54
573.71	16712.77
574.071	16773.33
574.432	16736.72
574.794	16859.2
575.155	16835.48
575.516	16800.22
575.877	16871.86
576.238	16873.89
576.599	16842.03
576.96	16790.96
577.32	16833.22
577.681	16841.35
578.042	16941.01
578.403	16872.54
578.763	16885.42
579.124	16861.01
579.485	16872.99
579.845	16976.71
580.206	16957.73
580.566	16834.12
580.927	16917.51
581.287	17009.03
581.648	16863.72
582.008	16903.04
582.368	16854.01
582.728	16905.3
583.089	16872.54
583.449	16850.39
583.809	16856.94
584.169	16760.22
584.529	16797.51
584.889	16979.43
585.249	16781.92
585.609	16663.73
585.969	16920.22
586.329	16722.26
586.688	16807.91
587.048	16717.74
587.408	16615.14
587.768	16715.48
588.127	16663.95
588.487	16652.2
588.846	16743.95
589.206	16621.7
589.565	16678.64
589.925	16768.81
590.284	16614.69
590.643	16611.07
591.003	16660.56
591.362	16676.61
591.721	16549.16
592.08	16636.16
592.44	16629.61
592.799	16678.42
593.158	16612.88
593.517	16499.44
593.876	16536.95
594.235	16507.57
594.593	16573.11
594.952	16621.92
595.311	16498.99
595.67	16539.44
596.029	16618.76
596.387	16552.77
596.746	16536.05
597.104	16453.56
597.463	16446.33
597.822	16513
598.18	16518.65
598.538	16521.81
598.897	16542.15
599.255	16360.23
599.613	16558.65
599.972	16456.95
600.33	16538.31
600.688	16542.83
601.046	16463.06
601.404	16601.13
601.762	16503.51
602.12	16528.36
602.478	16564.52
602.836	16607.91
603.194	16483.17
603.552	16575.6
603.91	16437.97
604.268	16551.87
604.625	16375.37
604.983	16493.79
605.341	16365.43
605.698	16480.46
606.056	16512.09
606.413	16493.11
606.771	16571.98
607.128	16559.32
607.485	16397.97
607.843	16491.08
608.2	16510.29
608.557	16622.83
608.914	16556.61
609.272	16593
609.629	16563.17
609.986	16513.22
610.343	16612.43
610.7	16706.44
611.057	16646.33
611.414	16603.17
611.771	16712.31
612.127	16679.32
612.484	16727.68
612.841	16810.62
613.198	16701.24
613.554	16761.81
613.911	16735.59
614.267	16755.48
614.624	16684.07
614.98	16681.36
615.337	16840.9
615.693	16736.72
616.05	16768.58
616.406	16862.59
616.762	16863.72
617.118	16769.26
617.475	16795.93
617.831	16756.16
618.187	16853.33
618.543	16832.99
618.899	16909.6
619.255	16885.19
619.611	16856.04
619.967	16905.3
620.323	16929.48
620.678	16989.6
621.034	16927.68
621.39	16872.54
621.746	16854.68
622.101	17087.9
622.457	16913.89
622.812	17031.85
623.168	16973.55
623.523	16917.28
623.879	17020.1
624.234	16937.39
624.589	17002.02
624.945	17052.42
625.3	16980.1
625.655	16988.01
626.01	16976.71
626.365	16975.36
626.72	17023.95
627.075	16985.08
627.43	16887.68
627.785	16899.65
628.14	16910.73
628.495	16849.03
628.85	16941.69
629.205	16913.89
629.559	17002.25
629.914	16835.93
630.269	16942.59
630.623	16851.07
630.978	16767.91
631.332	16845.42
631.687	16936.49
632.041	16878.64
632.396	16830.5
632.75	16753.67
633.104	16828.7
633.459	16718.64
633.813	16720.68
634.167	16631.64
634.521	16590.51
634.875	16695.82
635.229	16650.85
635.583	16524.75
635.937	16538.99
636.291	16533.11
636.645	16548.25
636.999	16518.42
637.352	16574.92
637.706	16458.76
638.06	16494.69
638.413	16421.93
638.767	16391.19
639.121	16372.89
639.474	16309.61
639.828	16304.64
640.181	16406.33
640.534	16382.15
640.888	16302.61
641.241	16333.34
641.594	16228.71
641.947	16313.23
642.301	16285.89
642.654	16311.87
643.007	16260.12
643.36	16322.95
643.713	16318.65
644.066	16385.77
644.419	16165.89
644.771	16164.31
645.124	15906.23
645.477	15952.11
645.83	15855.16
646.182	15821.72
646.535	15691.1
646.888	15767.03
647.24	15654.94
647.593	15735.84
647.945	15645.68
648.298	15595.28
648.65	15627.37
649.002	15583.53
649.355	15799.12
649.707	15725
650.059	15813.81
650.411	15935.39
650.763	15917.08
651.115	16121.14
651.467	16134.7
651.819	16075.5
652.171	16065.33
652.523	16053.12
652.875	16048.38
653.227	15952.11
653.578	16040.69
653.93	16110.3
654.282	15986.23
654.633	15862.17
654.985	16064.2
655.337	16060.58
655.688	16040.02
656.039	16192.1
656.391	15966.12
656.742	15971.32
657.094	15987.81
657.445	16002.28
657.796	16053.58
658.147	16029.17
658.498	16017.19
658.849	15985.55
659.2	15995.95
659.551	15968.61
659.902	16105.55
660.253	16019.23
660.604	16073.24
660.955	16106.91
661.306	16137.64
661.656	16091.77
662.007	16131.31
662.358	16101.71
662.708	16084.99
663.059	16077.98
663.409	15975.39
663.76	16079.56
664.11	16169.05
664.461	16132.9
664.811	16195.27
665.161	16104.87
665.511	16010.86
665.862	16068.94
666.212	16174.48
666.562	16214.47
666.912	16175.15
667.262	16115.04
667.612	16106.46
667.962	16132.67
668.312	16070.3
668.662	16260.8
669.011	16129.73
669.361	16183.97
669.711	16070.98
670.06	16122.73
670.41	16101.26
670.76	16056.51
671.109	16056.74
671.459	16061.03
671.808	15982.16
672.157	16082.5
672.507	16015.38
672.856	15919.57
673.205	15998.66
673.554	15963.63
673.904	15906.01
674.253	15973.58
674.602	16000.47
674.951	15647.71
675.3	15647.48
675.649	15910.98
675.998	15877.08
676.346	15923.86
676.695	15882.73
677.044	15804.09
677.393	15831.43
677.741	15709.18
678.09	15698.1
678.438	15735.17
678.787	15694.04
679.135	15816.52
679.484	15666.69
679.832	15742.4
680.181	15574.72
680.529	15641.38
680.877	15639.57
681.225	15541.95
681.573	15592.34
681.922	15508.96
682.27	15529.3
682.618	15415.4
682.966	15382.41
683.314	15480.26
683.661	15415.85
684.009	15344.89
684.357	15280.71
684.705	15296.08
685.053	15355.29
685.4	15240.72
685.748	15159.14
686.095	15179.7
686.443	15135.63
686.79	15055.86
687.138	14971.12
687.485	15111.45
687.832	15111.9
688.18	15014.28
688.527	14885.24
688.874	14961.63
689.221	14916.43
689.568	14812.25
689.915	14782.87
690.262	14805.7
690.609	14707.4
690.956	14664.69
691.303	14667.17
691.65	14596.66
691.997	14558.93
692.344	14472.83
692.69	14389.21
693.037	14425.14
693.383	14206.17
693.73	14342.89
694.077	14146.73
694.423	14286.84
694.769	14129.11
695.116	14147.18
695.462	14029
695.808	14018.37
696.155	14087.07
696.501	13919.39
696.847	13914.87
697.193	13774.76
697.539	13739.51
697.885	13760.53
698.231	13671.04
698.577	13692.06
698.923	13591.27
699.269	13586.52
699.614	13486.18
699.96	13427.88
700.306	13464.94
700.651	13352.4
700.997	13279.64
701.342	13261.33
701.688	13212.75
702.033	13137.49
702.379	13131.84
702.724	13088.46
703.069	13107.66
703.415	12938.85
703.76	12949.25
704.105	12878.07
704.45	12950.15
704.795	12739.54
705.14	12810.95
705.485	12726.2
705.83	12677.39
706.175	12713.32
706.52	12671.07
706.865	12600.33
707.209	12543.61
707.554	12491.18
707.899	12510.39
708.243	12446.21
708.588	12387.91
708.932	12268.82
709.277	12326.44
709.621	12337.51
709.966	12191.08
710.31	12264.07
710.654	12133
710.998	12228.36
711.342	12185.43
711.687	12142.49
712.031	12076.05
712.375	12001.48
712.719	12016.62
713.063	12017.97
713.407	12071.76
713.75	11998.77
714.094	11965.32
714.438	11839
714.782	11939.78
715.125	11823.86
715.469	11851.43
715.812	11779.34
716.156	11716.97
716.499	11741.82
716.843	11727.14
717.186	11653.24
717.53	11711.77
717.873	11654.82
718.216	11729.62
718.559	11544.32
718.902	11544.54
719.246	11590.64
719.589	11499.34
719.932	11484.88
720.275	11481.94
720.617	11484.66
720.96	11484.2
721.303	11484.2
721.646	11486.01
721.989	11413.47
722.331	11430.42
722.674	11436.52
723.016	11440.81
723.359	11439.23
723.701	11421.83
724.044	11336.86
724.386	11309.29
724.729	11357.43
725.071	11376.18
725.413	11329.86
725.755	11353.36
726.097	11255.96
726.439	11240.37
726.782	11259.12
727.124	11267.26
727.465	11253.02
727.807	11229.75
728.149	11213.02
728.491	11221.16
728.833	11259.8
729.175	11201.05
729.516	11183.65
729.858	11168.05
730.199	11280.82
730.541	11111.33
730.882	11196.75
731.224	11245.11
731.565	11128.73
731.906	11132.12
732.248	11234.72
732.589	11131.44
732.93	11039.47
733.271	11135.06
733.612	11157.66
733.953	11163.53
734.294	11125.8
734.635	11138.22
734.976	11133.25
735.317	11126.02
735.658	11122.41
735.999	11147.04
736.339	11117.21
736.68	11260.03
737.021	11160.37
737.361	11097.1
737.702	11221.16
738.042	11176.64
738.383	11093.71
738.723	11193.36
739.063	11128.96
739.404	11241.72
739.744	11283.76
740.084	11195.62
740.424	11270.2
740.764	11215.74
741.104	11248.96
741.444	11235.17
741.784	11291.21
742.124	11295.96
742.464	11345.22
742.804	11326.47
743.143	11337.99
743.483	11422.28
743.823	11453.02
744.162	11434.49
744.502	11439.46
744.841	11505.9
745.181	11568.95
745.52	11609.62
745.86	11617.99
746.199	11636.52
746.538	11675.84
746.877	11769.39
747.216	11749.28
747.556	11832.67
747.895	11981.59
748.234	12000.8
748.573	12037.18
748.911	12170.74
749.25	12196.28
749.589	12269.95
749.928	12375.03
750.267	12447.12
750.605	12502.26
750.944	12600.56
751.283	12639.2
751.621	12816.6
751.96	12835.81
752.298	13018.4
752.636	13101.34
752.975	13153.31
753.313	13198.73
753.651	13489.57
753.989	13554.21
754.327	13616.35
754.666	13918.49
755.004	13972.5
755.342	14069.45
755.679	14199.61
756.017	14364.13
756.355	14546.27
756.693	14666.04
757.031	14850.22
757.368	14970.44
757.706	15144.9
758.044	15374.5
758.381	15493.82
758.719	15740.59
759.056	15823.98
759.394	16042.73
759.731	16131.99
760.068	16364.3
760.405	16485.2
760.743	16721.81
761.08	16871.41
761.417	17026.88
761.754	17182.81
762.091	17344.61
762.428	17588.9
762.765	17752.97
763.102	18056.91
763.438	18004.26
763.775	18285.15
764.112	18396.34
764.449	18607.63
764.785	18808.76
765.122	18890.56
765.458	18959.94
765.795	19258.24
766.131	19338.23
766.467	19480.38
766.804	19588.85
767.14	19672.24
767.476	19947.26
767.812	19997.2
768.148	20235.39
768.485	20245.78
768.821	20368.04
769.157	20543.17
769.492	20622.72
769.828	20797.41
770.164	20742.27
770.5	20876.73
770.836	21028.13
771.171	21038.3
771.507	21180.45
771.842	21153.78
772.178	21427.45
772.513	21408.01
772.849	21388.12
773.184	21462.7
773.519	21529.14
773.855	21614.11
774.19	21613.2
774.525	21749.02
774.86	21900.88
775.195	21849.13
775.53	21949.24
775.865	21967.09
776.2	21893.87
776.535	21848.45
776.87	21913.08
777.205	22030.14
777.539	22020.42
777.874	22083.02
778.209	22125.73
778.543	22057.71
778.878	22025.62
779.212	22212.74
779.547	22068.56
779.881	22151.95
780.215	22084.15
780.55	22160.31
780.884	22154.43
781.218	22153.98
781.552	22257.93
781.886	22091.38
782.22	22104.49
782.554	22166.18
782.888	21923.48
783.222	21973.87
783.556	21871.5
783.889	21987.2
784.223	21798.51
784.557	21770.03
784.89	21959.41
785.224	21798.73
785.557	21884.83
785.891	21801.67
786.224	21765.74
786.558	21763.71
786.891	21500.89
787.224	21549.02
787.557	21577.05
787.891	21615.69
788.224	21571.62
788.557	21582.47
788.89	21535.69
789.223	21539.08
789.556	21361.91
789.888	21395.58
790.221	21323.04
790.554	21086.44
790.887	21217.51
791.219	21142.03
791.552	21217.51
791.884	21131.41
792.217	21142.71
792.549	20982.71
792.882	20954.46
793.214	20872.21
793.546	20886.67
793.879	20769.61
794.211	20660.01
794.543	20849.83
794.875	20686.9
795.207	20682.83
795.539	20679.22
795.871	20613.68
796.203	20455.04
796.535	20461.37
796.867	20334.82
797.198	20219.12
797.53	20396.74
797.862	20188.16
798.193	20259.34
798.525	19996.07
798.856	20125.56
799.188	19964.88
799.519	19907.94
799.85	19789.97
800.182	19780.93
800.513	19837.88
800.844	19757.43
801.175	19848.96
801.506	19764.21
801.837	19622.75
802.168	19580.94
802.499	19518.34
802.83	19484.45
803.161	19432.24
803.491	19451.68
803.822	19381.17
804.153	19335.07
804.483	19215.75
804.814	19194.06
805.145	19063.21
805.475	19156.54
805.805	19011.24
806.136	19086.26
806.466	19029.32
806.796	18963.1
807.126	18912.71
807.457	18834.74
807.787	18804.92
808.117	18796.78
808.447	18656.44
808.777	18638.14
809.107	18617.35
809.436	18588.42
809.766	18574.41
810.096	18535.54
810.426	18312.27
810.755	18548.42
811.085	18342.78
811.414	18401.31
811.744	18290.13
812.073	18247.64
812.403	18183.69
812.732	18186.17
813.061	18171.49
813.39	18059.62
813.719	17987.54
814.049	18115.89
814.378	18038.38
814.707	17962.68
815.036	17904.15
815.365	17880.42
815.693	17743.47
816.022	17704.38
816.351	17743.25
816.68	17623.7
817.008	17682.23
817.337	17520.43
817.665	17525.85
817.994	17507.55
818.322	17529.69
818.651	17547.55
818.979	17375.57
819.307	17453.31
819.636	17376.93
819.964	17237.5
820.292	17324.05
820.62	17339.87
820.948	17194.34
821.276	17348.23
821.604	17151.17
821.932	17294.9
822.259	17294.22
822.587	17220.55
822.915	17209.93
823.243	17257.39
823.57	17169.03
823.898	17165.18
824.225	17166.54
824.553	17194.11
824.88	17153.66
825.207	17268.46
825.535	17206.99
825.862	17295.35
826.189	17180.55
826.516	17287.21
826.843	17236.82
827.17	17199.76
827.497	17254.67
827.824	17350.49
828.151	17313.65
828.478	17205.18
828.805	17346.65
829.131	17247.22
829.458	17330.83
829.785	17160.89
830.111	17343.26
830.438	17279.76
830.764	17331.51
831.09	17242.02
831.417	17256.03
831.743	17230.04
832.069	17274.33
832.395	17122.47
832.722	17197.05
833.048	17158.18
833.374	17169.48
833.7	17061.46
834.026	17194.79
834.351	17175.81
834.677	17072.98
835.003	17102.59
835.329	17085.19
835.654	16985.98
835.98	17050.61
836.306	17030.05
836.631	16868.69
836.956	17048.58
837.282	16958.86
837.607	16832.99
837.932	16830.5
838.258	16856.49
838.583	16850.39
838.908	16820.56
839.233	16656.5
839.558	16708.93
839.883	16635.93
840.208	16630.51
840.533	16542.83
840.858	16553.67
841.182	16508.93
841.507	16593
841.832	16535.37
842.156	16442.49
842.481	16514.58
842.805	16438.65
843.13	16394.58
843.454	16303.74
843.778	16287.69
844.103	16230.75
844.427	16192.78
844.751	16258.09
845.075	16239.33
845.399	16184.65
845.723	16011.09
846.047	16105.33
846.371	15944.2
846.695	15910.53
847.019	15791.89
847.343	15784.66
847.666	15644.09
847.99	15582.85
848.313	15609.52
848.637	15479.35
848.96	15461.05
849.284	15358.23
849.607	15397.32
849.931	15307.61
850.254	15191.45
850.577	15207.5
850.9	15064.45
851.223	15082.75
851.546	14953.04
851.869	14762.76
852.192	14971.8
852.515	14802.31
852.838	14708.07
853.161	14760.05
853.483	14678.92
853.806	14528.19
854.129	14524.58
854.451	14456.55
854.774	14352.38
855.096	14394.86
855.419	14356.9
855.741	14308.54
856.063	14203.23
856.385	14101.31
856.708	14083.01
857.03	14088.43
857.352	14113.06
857.674	14039.84
857.996	13945.83
858.318	13882.33
858.64	13857.7
858.961	13813.63
859.283	13854.76
859.605	13698.83
859.926	13721.21
860.248	13768.44
860.57	13664.71
860.891	13743.35
861.212	13582.91
861.534	13518.27
861.855	13486.64
862.176	13534.09
862.498	13537.48
862.819	13574.32
863.14	13395.79
863.461	13352.63
863.782	13344.72
864.103	13413.87
864.424	13367.32
864.745	13305.62
865.065	13314.66
865.386	13258.17
865.707	13157.61
866.027	13225.17
866.348	13207.32
866.668	13113.09
866.989	13161
867.309	13084.84
867.63	13081
867.95	13073.09
868.27	13001.9
868.59	13064.5
868.91	12986.31
869.23	12985.41
869.55	12905.64
869.87	12978.18
870.19	12852.53
870.51	12917.61
870.83	13013.43
871.15	12853.43
871.469	12838.29
871.789	12874.45
872.109	12788.12
872.428	12784.96
872.748	12807.56
873.067	12702.02
873.386	12756.94
873.706	12690.05
874.025	12700.67
874.344	12612.08
874.663	12647.79
874.982	12587.9
875.301	12622.7
875.62	12515.59
875.939	12432.2
876.258	12509.71
876.577	12439.66
876.896	12534.8
877.214	12392.88
877.533	12450.05
877.852	12380.68
878.17	12326.89
878.489	12391.3
878.807	12385.87
879.125	12339.77
879.444	12332.32
879.762	12211.64
880.08	12311.3
880.398	12231.08
880.716	12276.27
881.034	12175.03
881.352	12235.82
881.67	12091.65
881.988	12224.07
882.306	12100.68
882.624	12153.56
882.941	11985.89
883.259	11996.51
883.577	11926
883.894	11940.91
884.212	11921.71
884.529	11935.04
884.846	11909.28
885.164	11833.35
885.481	11768.26
885.798	11768.94
886.115	11717.42
886.432	11702.5
886.75	11647.82
887.067	11735.27
887.383	11611.43
887.7	11618.66
888.017	11542.06
888.334	11632.45
888.651	11518.55
888.967	11514.49
889.284	11427.03
889.6	11344.77
889.917	11316.75
890.233	11387.94
890.55	11308.39
890.866	11328.28
891.182	11246.92
891.498	11241.27
891.815	11218.67
892.131	11201.73
892.447	11190.2
892.763	11158.34
893.079	11025.46
893.395	10951.79
893.71	10944.78
894.026	10993.37
894.342	10951.79
894.657	10957.21
894.973	10844.67
895.289	10835.63
895.604	10832.47
895.92	10745.92
896.235	10685.13
896.55	10652.59
896.865	10627.73
897.181	10700.5
897.496	10695.52
897.811	10564.45
898.126	10494.63
898.441	10526.94
898.756	10461.41
899.071	10407.85
899.386	10420.05
899.7	10237.68
900.015	10267.74
900.33	10133.28
900.644	10213.28
900.959	10201.3
901.273	10118.14
901.588	10104.8
901.902	10077.46
902.216	10042.21
902.531	10045.82
902.845	9955.66
903.159	9884.92
903.473	9800.41
903.787	9768.99
904.101	9802.67
904.415	9715.44
904.729	9695.55
905.042	9676.79
905.356	9630.02
905.67	9616
905.984	9607.87
906.297	9624.82
906.611	9508.89
906.924	9489.45
907.237	9498.27
907.551	9418.04
907.864	9388.21
908.177	9369.91
908.491	9345.73
908.804	9206.07
909.117	9251.27
909.43	9148.45
909.743	9083.36
910.056	9081.33
910.368	9030.71
910.681	9049.69
910.994	8938.06
911.307	9025.74
911.619	8837.04
911.932	8875.46
912.244	8772.18
912.557	8823.26
912.869	8789.13
913.181	8707.33
913.494	8695.8
913.806	8651.51
914.118	8629.36
914.43	8570.16
914.742	8490.16
915.054	8478.41
915.366	8472.98
915.678	8393.89
915.99	8415.81
916.302	8402.25
916.613	8292.88
916.925	8319.32
917.236	8244.97
917.548	8199.77
917.859	8342.82
918.171	8114.57
918.482	8138.3
918.794	8085.87
919.105	8061.69
919.416	8062.82
919.727	8047.23
920.038	7963.84
920.349	7909.38
920.66	7898.31
920.971	7848.59
921.282	7887.69
921.593	7840.68
921.903	7784.64
922.214	7703.74
922.525	7694.7
922.835	7685.89
923.146	7557.53
923.456	7647.02
923.767	7497.87
924.077	7572.67
924.387	7524.31
924.697	7439.34
925.008	7406.12
925.318	7400.47
925.628	7373.13
925.938	7335.84
926.248	7273.47
926.558	7287.7
926.867	7311.66
927.177	7253.81
927.487	7190.53
927.796	7203.86
928.106	7121.15
928.416	7080.25
928.725	7107.37
929.034	7074.15
929.344	7021.72
929.653	6988.05
929.962	6915.74
930.271	6917.09
930.581	6865.34
930.89	6846.13
931.199	6859.24
931.508	6772.01
931.817	6842.97
932.125	6776.76
932.434	6738.11
932.743	6671.67
933.051	6639.36
933.36	6662.41
933.669	6566.82
933.977	6620.6
934.286	6606.37
934.594	6505.35
934.902	6465.58
935.21	6500.15
935.519	6443.88
935.827	6428.74
936.135	6405.47
936.443	6337.9
936.751	6317.79
937.059	6313.27
937.367	6280.27
937.674	6294.06
937.982	6228.52
938.29	6202.99
938.597	6214.51
938.905	6148.3
939.213	6076.66
939.52	6052.71
939.827	6063.56
940.135	6079.6
940.442	6021.97
940.749	5972.48
941.056	5994.86
941.363	5963.22
941.67	5912.15
941.977	5842.09
942.284	5842.09
942.591	5836.44
942.898	5812.94
943.205	5793.51
943.511	5720.29
943.818	5757.12
944.125	5675.09
944.431	5715.32
944.738	5629.44
945.044	5609.33
945.35	5584.47
945.657	5549.44
945.963	5571.59
946.269	5505.83
946.575	5519.61
946.881	5470.35
947.187	5438.94
947.493	5409.79
947.799	5399.84
948.105	5401.43
948.41	5357.36
948.716	5353.52
949.022	5294.76
949.327	5290.47
949.633	5210.92
949.938	5257.02
950.244	5263.58
950.549	5237.14
950.854	5173.64
951.16	5178.61
951.465	5177.93
951.77	5123.69
952.075	5086.63
952.38	5101.77
952.685	5087.54
952.99	5026.29
953.294	5044.37
953.599	4973.41
953.904	4986.97
954.209	4944.94
954.513	4916.01
954.818	4916.92
955.122	4877.6
955.426	4900.42
955.731	4878.95
956.035	4807.09
956.339	4842.57
956.643	4777.49
956.948	4765.74
957.252	4740.65
957.556	4694.78
957.86	4735.23
958.163	4679.18
958.467	4667.21
958.771	4662.24
959.075	4608.45
959.378	4604.61
959.682	4544.27
959.985	4561.67
960.289	4538.85
960.592	4512.41
960.896	4503.82
961.199	4458.63
961.502	4459.08
961.805	4436.03
962.108	4424.95
962.411	4393.99
962.714	4357.84
963.017	4370.04
963.32	4360.78
963.623	4305.18
963.926	4293.43
964.228	4218.18
964.531	4223.83
964.833	4253.89
965.136	4187.9
965.438	4166.43
965.741	4188.12
966.043	4153.32
966.345	4161.68
966.648	4156.94
966.95	4135.7
967.252	4113.55
967.554	4077.62
967.856	4053.44
968.158	4030.16
968.46	4016.6
968.761	4006.89
969.063	4003.04
969.365	3928.02
969.666	3949.94
969.968	3917.85
970.269	3953.55
970.571	3890.28
970.872	3877.62
971.174	3858.87
971.475	3832.88
971.776	3800.11
972.077	3786.55
972.378	3830.17
972.679	3808.93
972.98	3804.86
973.281	3743.16
973.582	3769.38
973.883	3693.67
974.183	3689.61
974.484	3701.58
974.785	3674.69
975.085	3670.85
975.386	3651.87
975.686	3600.34
975.986	3589.5
976.287	3590.85
976.587	3528.71
976.887	3604.18
977.187	3572.32
977.487	3546.56
977.787	3495.26
978.087	3539.33
978.387	3520.57
978.687	3501.81
978.987	3490.06
979.286	3452.32
979.586	3408.48
979.885	3397.18
980.185	3395.38
980.484	3410.52
980.784	3351.08
981.083	3387.92
981.382	3331.88
981.682	3284.19
981.981	3328.71
982.28	3322.61
982.579	3264.98
982.878	3242.84
983.177	3247.58
983.475	3204.2
983.774	3211.65
984.073	3181.15
984.372	3149.28
984.67	3166
984.969	3138.66
985.267	3120.13
985.566	3128.04
985.864	3040.81
986.162	3112.9
986.461	3032.45
986.759	3054.82
987.057	3044.2
987.355	3050.75
987.653	3015.27
987.951	2987.93
988.249	2984.31
988.547	3015.5
988.844	2959.23
989.142	2933.47
989.44	2959
989.737	2937.76
990.035	2931.21
990.332	2857.31
990.63	2879.46
990.927	2895.95
991.224	2853.7
991.521	2829.29
991.819	2798.78
992.116	2817.09
992.413	2842.17
992.71	2768.73
993.006	2783.42
993.303	2772.79
993.6	2756.98
993.897	2743.19
994.193	2734.15
994.49	2729.18
994.787	2690.08
995.083	2660.48
995.379	2652.8
995.676	2664.1
995.972	2633.14
996.268	2634.72
996.565	2610.54
996.861	2578.45
997.157	2617.77
997.453	2567.15
997.749	2545.91
998.044	2582.52
998.34	2519.69
998.636	2511.11
998.932	2511.33
999.227	2469.3
999.523	2471.56
999.818	2439.02
1000.114	2446.48
1000.409	2447.38
1000.704	2416.42
1001	2433.59
1001.295	2395.18
1001.59	2394.05
1001.885	2414.84
1002.18	2357.21
1002.475	2310.21
1002.77	2344.78
1003.065	2324.22
1003.359	2319.02
1003.654	2300.26
1003.949	2285.12
1004.243	2292.81
1004.538	2270.21
1004.832	2228.63
1005.127	2276.08
1005.421	2234.73
1005.715	2198.57
1006.009	2206.71
1006.304	2190.21
1006.598	2184.56
1006.892	2150.66
1007.186	2145.92
1007.48	2165.58
1007.773	2159.25
1008.067	2110.44
1008.361	2099.14
1008.655	2069.54
1008.948	2086.03
1009.242	2071.8
1009.535	2051.46
1009.829	2060.72
1010.122	2008.75
1010.415	2011.46
1010.708	1995.87
1011.001	1971.69
1011.295	1954.28
1011.588	1967.84
1011.881	1938.69
1012.173	1904.79
1012.466	1923.78
1012.759	1923.33
1013.052	1890.11
1013.344	1895.53
1013.637	1871.12
1013.93	1878.35
1014.222	1865.7
1014.514	1853.72
1014.807	1856.21
1015.099	1835.64
1015.391	1832.71
1015.683	1820.73
1015.976	1803.33
1016.268	1777.11
1016.56	1773.27
1016.851	1749.77
1017.143	1756.1
1017.435	1750.45
1017.727	1731.69
1018.018	1701.18
1018.31	1731.92
1018.602	1716.78
1018.893	1715.87
1019.185	1655.99
1019.476	1667.06
1019.767	1660.73
1020.058	1662.54
1020.35	1618.93
1020.641	1643.33
1020.932	1615.54
1021.223	1602.2
1021.514	1583.9
1021.804	1550
1022.095	1588.87
1022.386	1572.6
1022.677	1532.15
1022.967	1519.95
1023.258	1507.97
1023.548	1507.52
1023.839	1535.99
1024.129	1511.81
1024.419	1487.63
1024.709	1455.31
1025	1486.95
1025.29	1445.15
1025.58	1440.85
1025.87	1434.98
1026.16	1415.09
1026.449	1426.16
1026.739	1422.55
1027.029	1424.36
1027.319	1377.12
1027.608	1404.24
1027.898	1384.13
1028.187	1358.59
1028.477	1337.58
1028.766	1359.95
1029.055	1333.51
1029.344	1325.37
1029.634	1324.7
1029.923	1302.32
1030.212	1294.19
1030.501	1288.77
1030.79	1284.92
1031.078	1285.15
1031.367	1259.16
1031.656	1256
1031.945	1263.68
1032.233	1244.7
1032.522	1242.67
1032.81	1230.46
1033.099	1205.6
1033.387	1205.15
1033.675	1195.66
1033.963	1186.17
1034.251	1194.98
1034.54	1145.27
1034.828	1158.15
1035.116	1139.62
1035.403	1143.68
1035.691	1136.68
1035.979	1153.4
1036.267	1140.75
1036.554	1114.98
1036.842	1121.09
1037.129	1097.58
1037.417	1111.82
1037.704	1099.84
1037.992	1090.58
1038.279	1050.13
1038.566	1092.39
1038.853	1092.39
1039.14	1092.39
