Data from hue_270_FLMS001491_00004.txt Node
Date: Tue Feb 07 15:56:41 GMT 2017
User: dcchb
Spectrometer: FLMS00149
Trigger mode: 0
Integration Time (sec): 2.000000E-2
Scans to average: 10
Electric dark correction enabled: true
Nonlinearity correction enabled: false
Boxcar width: 0
XAxis mode: Wavelengths
Number of Pixels in Spectrum: 2048
>>>>>Begin Spectral Data<<<<<
341.393	-6.81
341.776	-6.81
342.16	-6.81
342.543	-57.65
342.927	-63.08
343.31	-71.89
343.693	-58.56
344.077	-68.5
344.46	-63.98
344.843	-42.51
345.226	-39.12
345.61	-23.98
345.993	-13.14
346.376	-7.94
346.759	2.91
347.142	20.76
347.525	36.58
347.908	61.89
348.291	72.06
348.674	84.72
349.057	110.7
349.44	130.82
349.823	140.98
350.206	167.42
350.588	199.06
350.971	202.23
351.354	201.77
351.737	217.37
352.119	246.29
352.502	272.51
352.884	253.75
353.267	288.55
353.65	287.42
354.032	291.26
354.414	289.23
354.797	295.11
355.179	315.67
355.562	290.59
355.944	312.96
356.326	321.55
356.709	327.42
357.091	343.24
357.473	331.71
357.855	327.19
358.238	333.3
358.62	315.67
359.002	340.75
359.384	327.87
359.766	346.63
360.148	332.84
360.53	322.9
360.912	328.32
361.294	338.27
361.676	326.97
362.057	318.16
362.439	308.66
362.821	318.83
363.203	311.83
363.584	314.54
363.966	303.69
364.348	323.81
364.729	317.25
365.111	317.03
365.493	314.09
365.874	315.67
366.256	299.85
366.637	338.04
367.019	316.12
367.4	296.01
367.781	310.92
368.163	312.51
368.544	316.57
368.925	319.06
369.306	322.45
369.688	302.34
370.069	299.62
370.45	307.08
370.831	312.51
371.212	304.6
371.593	295.11
371.974	306.86
372.355	298.04
372.736	322
373.117	308.66
373.498	307.99
373.879	325.61
374.26	315.67
374.641	304.6
375.021	319.06
375.402	306.86
375.783	318.83
376.163	293.75
376.544	319.96
376.925	325.61
377.305	321.32
377.686	332.17
378.066	310.25
378.447	321.77
378.827	317.25
379.208	324.71
379.588	347.08
379.968	315.67
380.349	328.32
380.729	322.45
381.109	340.08
381.489	336.23
381.87	331.26
382.25	308.66
382.63	350.47
383.01	352.73
383.39	341.88
383.77	337.82
384.15	345.95
384.53	343.47
384.91	352.5
385.29	366.97
385.67	352.5
386.049	371.04
386.429	340.3
386.809	362.45
387.189	352.05
387.568	339.85
387.948	362.45
388.328	339.17
388.707	358.83
389.087	359.51
389.466	351.6
389.846	391.15
390.225	374.43
390.605	358.61
390.984	356.8
391.363	373.07
391.743	362.67
392.122	381.88
392.501	379.17
392.881	383.92
393.26	383.92
393.639	373.07
394.018	366.06
394.397	382.33
394.776	391.37
395.155	393.63
395.534	371.49
395.913	408.1
396.292	385.95
396.671	384.82
397.05	401.32
397.429	397.93
397.808	398.38
398.186	373.97
398.565	416.23
398.944	389.34
399.323	408.55
399.701	424.37
400.08	400.41
400.458	416.46
400.837	426.4
401.215	439.28
401.594	427.31
401.972	434.99
402.351	453.52
402.729	431.37
403.107	448.1
403.486	428.89
403.864	440.64
404.242	435.67
404.62	423.46
404.999	439.96
405.377	469.56
405.755	458.49
406.133	465.04
406.511	458.94
406.889	475.67
407.267	481.32
407.645	477.02
408.023	460.52
408.401	487.87
408.779	472.5
409.156	492.84
409.534	514.76
409.912	499.85
410.29	517.02
410.667	512.27
411.045	521.09
411.422	536
411.8	541.65
412.178	560.18
412.555	548.43
412.933	558.15
413.31	576.91
413.687	574.42
414.065	572.84
414.442	571.93
414.819	614.42
415.197	578.04
415.574	589.33
415.951	597.02
416.328	609.45
416.705	621.2
417.082	633.63
417.46	641.99
417.837	637.92
418.214	618.03
418.591	657.81
418.967	665.94
419.344	658.49
419.721	677.47
420.098	678.82
420.475	685.83
420.852	684.93
421.228	695.77
421.605	693.74
421.982	729.22
422.358	735.55
422.735	737.58
423.111	744.58
423.488	762.21
423.864	783.45
424.241	794.75
424.617	797.92
424.994	779.39
425.37	810.35
425.746	818.03
426.123	811.25
426.499	846.28
426.875	834.3
427.251	874.53
427.627	862.1
428.003	872.49
428.379	900.06
428.756	891.47
429.132	904.13
429.507	924.92
429.883	921.76
430.259	923.79
430.635	938.25
431.011	931.92
431.387	964.47
431.763	1000.62
432.138	995.43
432.514	1002.88
432.89	998.82
433.265	1037.23
433.641	1073.16
434.016	1074.07
434.392	1054.18
434.767	1112.94
435.143	1092.82
435.518	1125.37
435.894	1152.03
436.269	1154.52
436.644	1168.08
437.02	1195.42
437.395	1213.5
437.77	1224.8
438.145	1230.22
438.52	1251.24
438.895	1279.26
439.271	1293.27
439.646	1298.92
440.021	1319.26
440.395	1309.09
440.77	1312.48
441.145	1340.95
441.52	1357.45
441.895	1401.74
442.27	1368.75
442.645	1383.66
443.019	1415.53
443.394	1402.19
443.769	1427.5
444.143	1424.79
444.518	1437.9
444.892	1459.14
445.267	1464.34
445.641	1472.7
446.016	1477.22
446.39	1519.93
446.764	1508.86
447.139	1493.94
447.513	1547.28
447.887	1529.2
448.262	1538.69
448.636	1575.98
449.01	1562.42
449.384	1592.25
449.758	1586.82
450.132	1586.6
450.506	1606.94
450.88	1630.66
451.254	1636.31
451.628	1654.17
452.002	1668.18
452.376	1668.4
452.75	1660.04
453.123	1708.85
453.497	1731.68
453.871	1722.41
454.244	1774.39
454.618	1774.39
454.992	1808.74
455.365	1811.45
455.739	1813.03
456.112	1834.95
456.486	1868.4
456.859	1868.17
457.232	1868.62
457.606	1854.61
457.979	1927.15
458.352	1908.4
458.725	1967.15
459.099	1981.39
459.472	1961.05
459.845	2025.46
460.218	2029.75
460.591	2030.2
460.964	2032.01
461.337	2093.02
461.71	2139.58
462.083	2158.56
462.456	2147.26
462.829	2166.92
463.201	2193.36
463.574	2192.91
463.947	2246.47
464.32	2226.35
464.692	2305.45
465.065	2275.17
465.438	2324.66
465.81	2319.23
466.183	2340.48
466.555	2357.42
466.928	2402.17
467.3	2420.25
467.672	2451.21
468.045	2498.89
468.417	2536.85
468.789	2483.07
469.161	2569.17
469.534	2602.84
469.906	2634.93
470.278	2640.81
470.65	2675.16
471.022	2703.86
471.394	2771.42
471.766	2780.46
472.138	2807.13
472.51	2850.07
472.882	2911.99
473.253	2909.5
473.625	2951.08
473.997	2947.92
474.369	2999.89
474.74	3017.97
475.112	3039.67
475.484	3093
475.855	3153.56
476.227	3156.05
476.598	3205.76
476.97	3282.37
477.341	3300.45
477.713	3344.97
478.084	3342.26
478.455	3427.9
478.827	3471.52
479.198	3527.79
479.569	3569.6
479.94	3620.67
480.311	3647.56
480.682	3725.07
481.053	3772.98
481.424	3823.83
481.795	3880.32
482.166	3888.01
482.537	3954.67
482.908	4010.26
483.279	4050.03
483.65	4103.82
484.021	4171.61
484.391	4192.18
484.762	4235.11
485.133	4188.34
485.503	4311.95
485.874	4418.39
486.244	4401.44
486.615	4448.67
486.985	4489.35
487.356	4533.86
487.726	4599.4
488.097	4684.59
488.467	4662.9
488.837	4756.46
489.207	4824.7
489.578	4898.83
489.948	4884.14
490.318	4928.43
490.688	4932.05
491.058	5021.53
491.428	5046.84
491.798	5105.83
492.168	5193.51
492.538	5229.44
492.908	5236.22
493.278	5307.85
493.648	5349.89
494.017	5371.36
494.387	5350.57
494.757	5409.32
495.126	5451.58
495.496	5468.75
495.866	5484.35
496.235	5594.4
496.605	5556.66
496.974	5684.12
497.344	5682.08
497.713	5712.82
498.082	5679.14
498.452	5741.97
498.821	5755.98
499.19	5787.39
499.559	5841.63
499.928	5914.17
500.298	5900.16
500.667	5951.45
501.036	5930.89
501.405	5974.05
501.774	6008.63
502.143	6008.4
502.512	6022.64
502.88	6071.45
503.249	6049.3
503.618	6079.13
503.987	6063.09
504.356	6166.59
504.724	6179.92
505.093	6125.01
505.462	6163.88
505.83	6237.32
506.199	6191.9
506.567	6282.97
506.936	6297.89
507.304	6358.45
507.672	6345.79
508.041	6336.98
508.409	6390.54
508.777	6459.91
509.145	6430.54
509.514	6448.39
509.882	6495.39
510.25	6517.99
510.618	6466.92
510.986	6512.34
511.354	6538.33
511.722	6566.13
512.09	6584.88
512.458	6574.94
512.826	6641.61
513.193	6628.05
513.561	6644.77
513.929	6668.27
514.297	6741.94
514.664	6776.06
515.032	6774.03
515.4	6803.18
515.767	6756.86
516.135	6825.78
516.502	6798.89
516.869	6912.11
517.237	6857.19
517.604	6774.93
517.972	6880.47
518.339	6895.38
518.706	6933.12
519.073	6923.41
519.44	6943.52
519.808	6950.98
520.175	6982.16
520.542	7010.86
520.909	7124.3
521.276	7037.3
521.643	7103.74
522.009	7061.03
522.376	7136.51
522.743	7190.97
523.11	7237.75
523.477	7214.92
523.843	7241.14
524.21	7355.48
524.577	7299.44
524.943	7299.89
525.31	7368.59
525.676	7412.21
526.043	7374.24
526.409	7417.4
526.776	7476.39
527.142	7499.89
527.508	7545.31
527.874	7501.47
528.241	7565.42
528.607	7593.9
528.973	7631.18
529.339	7585.31
529.705	7648.81
530.071	7646.78
530.437	7712.99
530.803	7712.31
531.169	7705.98
531.535	7754.12
531.901	7710.5
532.267	7793.89
532.632	7825.75
532.998	7804.06
533.364	7798.64
533.73	7866.66
534.095	7872.99
534.461	7858.3
534.826	7884.06
535.192	7964.51
535.557	8013.32
535.923	7896.94
536.288	7962.25
536.653	7945.3
537.019	7973.1
537.384	7928.8
537.749	7953.43
538.114	7961.12
538.479	7963.83
538.845	7989.59
539.21	7987.11
539.575	8025.98
539.94	8046.31
540.305	8104.39
540.67	8052.87
541.034	8090.15
541.399	8112.53
541.764	8142.81
542.129	8169.02
542.494	8164.28
542.858	8142.36
543.223	8161.79
543.587	8153.88
543.952	8139.19
544.316	8119.98
544.681	8142.36
545.045	8221
545.41	8199.98
545.774	8179.19
546.138	8202.02
546.503	8188.46
546.867	8226.65
547.231	8268
547.595	8277.04
547.959	8305.97
548.324	8259.42
548.688	8250.83
549.052	8336.93
549.416	8317.49
549.779	8355.46
550.143	8329.92
550.507	8371.05
550.871	8347.32
551.235	8294.89
551.599	8372.18
551.962	8393.42
552.326	8353.88
552.689	8464.16
553.053	8393.88
553.417	8453.53
553.78	8533.76
554.143	8465.74
554.507	8477.71
554.87	8512.29
555.234	8541.67
555.597	8509.13
555.96	8531.05
556.323	8563.36
556.686	8582.8
557.05	8537.83
557.413	8571.72
557.776	8570.82
558.139	8659.41
558.502	8629.58
558.865	8701.21
559.228	8723.13
559.59	8776.46
559.953	8795.67
560.316	8825.28
560.679	8848.33
561.041	8822.34
561.404	8933.75
561.767	8940.3
562.129	8900.53
562.492	9016.46
562.854	8970.36
563.217	9026.18
563.579	8986.63
563.941	9087.87
564.304	9093.97
564.666	9191.59
565.028	9131.03
565.39	9185.94
565.753	9207.19
566.115	9277.02
566.477	9246.28
566.839	9262.78
567.201	9291.03
567.563	9325.38
567.925	9388.2
568.287	9432.04
568.648	9380.52
569.01	9521.08
569.372	9527.4
569.734	9500.06
570.095	9559.49
570.457	9618.25
570.819	9613.96
571.18	9579.83
571.542	9607.4
571.903	9681.98
572.265	9781.86
572.626	9749.55
572.987	9840.39
573.349	9773.95
573.71	9856.66
574.071	9921.07
574.432	9916.32
574.794	9939.15
575.155	9929.2
575.516	9921.07
575.877	10016.21
576.238	10044
576.599	10075.64
576.96	10139.37
577.32	10125.81
577.681	10157.22
578.042	10240.61
578.403	10171
578.763	10215.75
579.124	10231.57
579.485	10273.6
579.845	10378.68
580.206	10296.2
580.566	10321.28
580.927	10383.65
581.287	10450.54
581.648	10378.91
582.008	10416.65
582.368	10505.91
582.728	10527.83
583.089	10553.37
583.449	10538.23
583.809	10604.21
584.169	10628.84
584.529	10612.57
584.889	10783.19
585.249	10687.15
585.609	10693.7
585.969	10769.86
586.329	10721.95
586.688	10823.42
587.048	10796.07
587.408	10886.47
587.768	10857.31
588.127	10848.5
588.487	10933.24
588.846	10939.35
589.206	10900.25
589.565	10920.14
589.925	10970.08
590.284	10921.04
590.643	10937.76
591.003	11069.74
591.362	11127.59
591.721	11047.82
592.08	11148.15
592.44	11142.05
592.799	11195.16
593.158	11174.37
593.517	11193.58
593.876	11221.6
594.235	11186.12
594.593	11258.43
594.952	11295.95
595.311	11273.8
595.67	11206
596.029	11431.08
596.387	11401.93
596.746	11404.64
597.104	11436.28
597.463	11394.02
597.822	11418.43
598.18	11380.46
598.538	11518.76
598.897	11470.18
599.255	11373.23
599.613	11532.55
599.972	11546.11
600.33	11502.49
600.688	11508.37
601.046	11613.68
601.404	11526.45
601.762	11634.69
602.12	11636.28
602.478	11563.74
602.836	11646.9
603.194	11523.28
603.552	11671.08
603.91	11575.71
604.268	11616.62
604.625	11598.99
604.983	11669.5
605.341	11566.9
605.698	11701.58
606.056	11768.48
606.413	11718.99
606.771	11686.67
607.128	11708.59
607.485	11723.28
607.843	11642.15
608.2	11789.04
608.557	11816.38
608.914	11810.06
609.272	11860.9
609.629	11851.64
609.986	11905.65
610.343	11854.8
610.7	11893.9
611.057	11905.65
611.414	11897.74
611.771	11948.81
612.127	11962.37
612.484	11882.82
612.841	11955.14
613.198	11925.99
613.554	11996.94
613.911	12010.96
614.267	11979.54
614.624	12040.79
614.98	12036.04
615.337	12050.5
615.693	12039.2
616.05	12018.19
616.406	12162.36
616.762	12047.34
617.118	12081.01
617.475	12145.64
617.831	12095.25
618.187	12159.43
618.543	12126.88
618.899	12167.34
619.255	12208.92
619.611	12226.77
619.967	12117.85
620.323	12259.99
620.678	12232.42
621.034	12152.65
621.39	12123.72
621.746	12169.82
622.101	12332.53
622.457	12154.68
622.812	12220.44
623.168	12165.98
623.523	12182.48
623.879	12304.51
624.234	12187.9
624.589	12238.29
624.945	12213.89
625.3	12236.49
625.655	12193.1
626.01	12195.58
626.365	12235.36
626.72	12213.66
627.075	12161.23
627.43	12187.67
627.785	12167.11
628.14	12167.34
628.495	12199.65
628.85	12158.3
629.205	12162.14
629.559	12155.36
629.914	12071.97
630.269	12127.79
630.623	12114
630.978	12132.31
631.332	12100.67
631.687	12134.34
632.041	12045.08
632.396	12093.44
632.75	11926.21
633.104	12074.91
633.459	12015.02
633.813	12028.81
634.167	12040.11
634.521	12003.5
634.875	11932.31
635.229	11957.85
635.583	11921.01
635.937	11921.69
636.291	11898.64
636.645	11949.71
636.999	11872.88
637.352	11898.42
637.706	11891.64
638.06	11842.37
638.413	11864.29
638.767	11885.53
639.121	11794.01
639.474	11761.02
639.828	11758.76
640.181	11775.03
640.534	11709.27
640.888	11654.81
641.241	11627.46
641.594	11771.41
641.947	11731.19
642.301	11662.72
642.654	11757.63
643.007	11755.59
643.36	11632.89
643.713	11558.31
644.066	11718.99
644.419	11586.33
644.771	11638.54
645.124	11520.8
645.477	11455.72
645.83	11356.74
646.182	11344.08
646.535	11347.24
646.888	11291.43
647.24	11261.37
647.593	11326
647.945	11216.4
648.298	11129.85
648.65	11195.61
649.002	11120.36
649.355	11297.08
649.707	11290.52
650.059	11244.42
650.411	11411.88
650.763	11449.16
651.115	11583.85
651.467	11501.14
651.819	11463.63
652.171	11490.74
652.523	11456.17
652.875	11391.54
653.227	11395.83
653.578	11512.66
653.93	11432.89
654.282	11440.12
654.633	11411.42
654.985	11438.77
655.337	11469.95
655.688	11412.55
656.039	11424.3
656.391	11331.88
656.742	11429.05
657.094	11370.07
657.445	11445.55
657.796	11406.45
658.147	11364.19
658.498	11404.42
658.849	11366
659.2	11417.3
659.551	11433.34
659.902	11398.09
660.253	11384.31
660.604	11476.51
660.955	11330.3
661.306	11359.67
661.656	11438.09
662.007	11452.78
662.358	11446
662.708	11466.79
663.059	11463.17
663.409	11397.86
663.76	11455.49
664.11	11444.87
664.461	11429.95
664.811	11469.05
665.161	11440.35
665.511	11378.66
665.862	11367.81
666.212	11430.63
666.562	11459.78
666.912	11435.38
667.262	11405.77
667.612	11362.38
667.962	11436.51
668.312	11417.3
668.662	11378.2
669.011	11470.18
669.361	11396.28
669.711	11349.73
670.06	11351.99
670.41	11370.75
670.76	11395.83
671.109	11383.4
671.459	11276.96
671.808	11347.7
672.157	11318.09
672.507	11287.81
672.856	11360.13
673.205	11319.22
673.554	11400.8
673.904	11262.27
674.253	11283.06
674.602	11270.41
674.951	11067.7
675.3	11048.49
675.649	11224.31
675.998	11209.39
676.346	11215.95
676.695	11256.85
677.044	11221.6
677.393	11201.94
677.741	11240.13
678.09	11187.7
678.438	11107.02
678.787	11144.31
679.135	11159.23
679.484	11049.4
679.832	11123.97
680.181	11015.28
680.529	11092.79
680.877	10994.71
681.225	10957.42
681.573	11076.06
681.922	10966.01
682.27	10918.33
682.618	10907.48
682.966	10840.36
683.314	10954.71
683.661	10909.74
684.009	10858.67
684.357	10869.74
684.705	10819.57
685.053	10819.57
685.4	10827.26
685.748	10650.09
686.095	10748.62
686.443	10677.66
686.79	10608.96
687.138	10715.4
687.485	10643.31
687.832	10653.48
688.18	10652.35
688.527	10619.81
688.874	10549.75
689.221	10527.6
689.568	10491.22
689.915	10482.63
690.262	10460.71
690.609	10400.6
690.956	10420.26
691.303	10345.91
691.65	10292.81
691.997	10228.86
692.344	10211.91
692.69	10184.79
693.037	10227.5
693.383	10119.48
693.73	10142.08
694.077	10044
694.423	10025.47
694.769	9997.67
695.116	9950.9
695.462	9975.53
695.808	9994.06
696.155	9993.83
696.501	9952.93
696.847	9893.5
697.193	9751.35
697.539	9800.17
697.885	9727.63
698.231	9725.14
698.577	9695.99
698.923	9648.53
699.269	9635.65
699.614	9595.43
699.96	9542.55
700.306	9549.55
700.651	9463.23
700.997	9430.91
701.342	9468.42
701.688	9442.89
702.033	9384.13
702.379	9355.88
702.724	9345.26
703.069	9339.16
703.415	9308.2
703.76	9254.87
704.105	9218.71
704.45	9225.72
704.795	9139.84
705.14	9124.7
705.485	9017.14
705.83	9106.62
706.175	9026.4
706.52	8975.55
706.865	9072.73
707.209	8948.66
707.554	8958.15
707.899	8932.39
708.243	8920.19
708.588	8827.31
708.932	8809.91
709.277	8833.64
709.621	8885.39
709.966	8757.71
710.31	8731.49
710.654	8740.31
710.998	8721.32
711.342	8712.51
711.687	8647.2
712.031	8611.95
712.375	8640.87
712.719	8650.59
713.063	8629.58
713.407	8581.22
713.75	8592.97
714.094	8584.6
714.438	8532.18
714.782	8503.25
715.125	8489.92
715.469	8517.94
715.812	8524.04
716.156	8372.41
716.499	8454.44
716.843	8432.97
717.186	8386.42
717.53	8424.83
717.873	8413.31
718.216	8359.53
718.559	8345.74
718.902	8315.23
719.246	8401.56
719.589	8281.34
719.932	8285.63
720.275	8309.13
720.617	8236.14
720.96	8251.05
721.303	8237.27
721.646	8280.66
721.989	8223.71
722.331	8292.86
722.674	8226.42
723.016	8235.01
723.359	8228.91
723.701	8151.17
724.044	8181.23
724.386	8126.09
724.729	8200.43
725.071	8161.34
725.413	8142.36
725.755	8153.66
726.097	8075.24
726.439	8082.47
726.782	8066.2
727.124	8137.84
727.465	8056.94
727.807	8098.52
728.149	8071.62
728.491	8087.67
728.833	8053.09
729.175	7969.71
729.516	8017.61
729.858	8021
730.199	8024.62
730.541	8065.75
730.882	8025.3
731.224	8023.04
731.565	7938.75
731.906	7973.77
732.248	8016.94
732.589	7970.84
732.93	7955.02
733.271	7956.15
733.612	7933.55
733.953	8027.11
734.294	7959.76
734.635	7872.08
734.976	7997.28
735.317	7955.69
735.658	7935.36
735.999	7983.94
736.339	8000.44
736.68	7947.56
737.021	7956.37
737.361	7951.4
737.702	7959.76
738.042	7976.49
738.383	7998.18
738.723	7917.28
739.063	7968.12
739.404	7983.04
739.744	7945.75
740.084	7990.27
740.424	7966.99
740.764	7981.91
741.104	7989.59
741.444	7986.88
741.784	7974.9
742.124	8006.54
742.464	8020.55
742.804	7958.63
743.143	7998.86
743.483	8094.45
743.823	8014.22
744.162	8118.18
744.502	8069.36
744.841	8050.61
745.181	8197.27
745.52	8192.07
745.86	8173.09
746.199	8203.15
746.538	8253.99
746.877	8294.22
747.216	8313.88
747.556	8322.92
747.895	8369.7
748.234	8349.58
748.573	8422.58
748.911	8495.57
749.25	8517.04
749.589	8593.87
749.928	8587.99
750.267	8726.07
750.605	8731.95
750.944	8780.53
751.283	8838.16
751.621	8890.59
751.96	8969.91
752.298	9067.98
752.636	9150.47
752.975	9173.74
753.313	9273.85
753.651	9404.92
753.989	9453.28
754.327	9494.86
754.666	9596.1
755.004	9706.16
755.342	9835.65
755.679	9975.3
756.017	10008.97
756.355	10117.45
756.693	10220.95
757.031	10357.67
757.368	10489.87
757.706	10582.07
758.044	10708.16
758.381	10848.05
758.719	10943.41
759.056	11116.97
759.394	11276.06
759.731	11338.66
760.068	11543.17
760.405	11594.24
760.743	11716.05
761.08	11969.83
761.417	12009.83
761.754	12200.33
762.091	12301.12
762.428	12459.08
762.765	12628.79
763.102	12887.32
763.438	12864.27
763.775	13064.26
764.112	13250.02
764.449	13435.32
764.785	13508.32
765.122	13591.93
765.458	13722.32
765.795	13925.71
766.131	14073.95
766.467	14178.36
766.804	14274.4
767.14	14379.93
767.476	14524.34
767.812	14693.82
768.148	14892.24
768.485	14929.3
768.821	14989.18
769.157	15117.09
769.492	15295.39
769.828	15427.81
770.164	15407.02
770.5	15520.47
770.836	15656.74
771.171	15796.39
771.507	15768.82
771.842	15855.6
772.178	16061.7
772.513	16116.38
772.849	16179.89
773.184	16283.61
773.519	16312.99
773.855	16408.58
774.19	16497.39
774.525	16530.16
774.86	16647.44
775.195	16648.12
775.53	16756.82
775.865	16786.42
776.2	16659.19
776.535	16844.5
776.87	16887.66
777.205	16867.55
777.539	16951.62
777.874	17036.81
778.209	16949.36
778.543	17060.99
778.878	17046.98
779.212	17145.74
779.547	17167.43
779.881	17239.74
780.215	17239.52
780.55	17284.49
780.884	17242.46
781.218	17272.29
781.552	17349.57
781.886	17356.13
782.22	17317.26
782.554	17251.27
782.888	17162.23
783.222	17265.28
783.556	17235
783.889	17217.15
784.223	17160.2
784.557	17189.12
784.89	17243.36
785.224	17168.79
785.557	17251.95
785.891	17132.63
786.224	17161.33
786.558	17193.87
786.891	16985.06
787.224	17081.78
787.557	17140.54
787.891	17121.78
788.224	16998.85
788.557	17120.65
788.89	17095.12
789.223	17040.2
789.556	16956.14
789.888	17030.71
790.221	16936.02
790.554	16880.88
790.887	16938.28
791.219	16761.34
791.552	16794.33
791.884	16738.29
792.217	16828.91
792.549	16769.7
792.882	16614.68
793.214	16634.11
793.546	16731.96
793.879	16580.1
794.211	16551.17
794.543	16568.12
794.875	16530.61
795.207	16655.58
795.539	16509.14
795.871	16562.7
796.203	16308.24
796.535	16297.17
796.867	16266.66
797.198	16278.64
797.53	16247.91
797.862	16183.73
798.193	16271.41
798.525	16232.54
798.856	16174.69
799.188	15980.79
799.519	15967.69
799.85	15900.8
800.182	15992.09
800.513	15990.96
800.844	15818.99
801.175	15930.63
801.506	15902.6
801.837	15783.74
802.168	15793.68
802.499	15764.53
802.83	15698.77
803.161	15652.44
803.491	15688.82
803.822	15653.8
804.153	15607.24
804.483	15503.07
804.814	15409.74
805.145	15494.48
805.475	15505.55
805.805	15392.11
806.136	15452.67
806.466	15358.66
806.796	15279.12
807.126	15168.39
807.457	15239.35
807.787	15260.36
808.117	15051.78
808.447	15140.82
808.777	15107.15
809.107	15130.42
809.436	15051.78
809.766	15029.86
810.096	14992.57
810.426	14943.53
810.755	14956.19
811.085	14927.71
811.414	14908.05
811.744	14772.46
812.073	14765.69
812.403	14664.67
812.732	14674.16
813.061	14770.66
813.39	14577.44
813.719	14621.96
814.049	14655.41
814.378	14644.11
814.707	14527.95
815.036	14520.95
815.365	14495.41
815.693	14334.51
816.022	14395.53
816.351	14351.68
816.68	14280.27
817.008	14374.28
817.337	14248.64
817.665	14257.45
817.994	14232.37
818.322	14196.89
818.651	14139.04
818.979	14106.95
819.307	14232.59
819.636	14144.01
819.964	14092.03
820.292	14125.25
820.62	14095.42
820.948	14075.76
821.276	14103.56
821.604	14001.19
821.932	14068.75
822.259	14156.66
822.587	14059.26
822.915	14026.27
823.243	13975.42
823.57	14085.93
823.898	14103.56
824.225	13961.64
824.553	14009.55
824.88	13996.67
825.207	14112.14
825.535	13968.64
825.862	14072.82
826.189	14059.04
826.516	14068.75
826.843	14154.63
827.17	14114.85
827.497	14256.55
827.824	14149.88
828.151	14184.91
828.478	14139.26
828.805	14208.19
829.131	14047.74
829.458	14048.19
829.785	14029.66
830.111	14024.01
830.438	14171.8
830.764	14033.5
831.09	14059.26
831.417	13982.65
831.743	14109.43
832.069	14099.26
832.395	14053.39
832.722	14143.55
833.048	14071.69
833.374	14050.9
833.7	13880.96
834.026	14027.17
834.351	14012.03
834.677	14019.26
835.003	14099.71
835.329	13963.9
835.654	13913.96
835.98	13933.16
836.306	13912.15
836.631	13819.04
836.956	13917.35
837.282	13881.87
837.607	13865.6
837.932	13857.91
838.258	13823.34
838.583	13811.36
838.908	13646.62
839.233	13770.23
839.558	13589.44
839.883	13699.27
840.208	13594.19
840.533	13575.43
840.858	13531.82
841.182	13688.88
841.507	13571.59
841.832	13565.26
842.156	13527.98
842.481	13540.18
842.805	13451.82
843.13	13398.72
843.454	13354.42
843.778	13375.44
844.103	13341.99
844.427	13304.48
844.751	13251.6
845.075	13263.13
845.399	13187.65
845.723	13123.69
846.047	13094.09
846.371	13038.95
846.695	13006.18
847.019	12971.16
847.343	12853.65
847.666	12829.01
847.99	12771.39
848.313	12739.3
848.637	12661.11
848.96	12660.43
849.284	12613.43
849.607	12624.95
849.931	12452.98
850.254	12412.3
850.577	12309.7
850.9	12272.64
851.223	12211.4
851.546	12213.66
851.869	12160.56
852.192	12200.1
852.515	12067.68
852.838	12036.72
853.161	12039.43
853.483	11954.01
853.806	11925.08
854.129	11974.35
854.451	11838.3
854.774	11768.7
855.096	11832.88
855.419	11676.5
855.741	11713.79
856.063	11594.92
856.385	11644.64
856.708	11600.57
857.03	11568.03
857.352	11595.15
857.674	11514.47
857.996	11412.1
858.318	11352.67
858.64	11417.75
858.961	11375.94
859.283	11345.66
859.605	11275.61
859.926	11247.59
860.248	11302.95
860.57	11270.41
860.891	11285.1
861.212	11089.85
861.534	11134.14
861.855	11045.56
862.176	11117.87
862.498	11069.96
862.819	11067.03
863.14	10998.33
863.461	11021.83
863.782	10982.06
864.103	10959.46
864.424	10891.66
864.745	11022.28
865.065	10894.15
865.386	10907.03
865.707	10828.61
866.027	10926.24
866.348	10822.06
866.668	10842.85
866.989	10754.49
867.309	10720.37
867.63	10758.78
867.95	10742.74
868.27	10693.25
868.59	10683.76
868.91	10658.22
869.23	10654.61
869.55	10640.6
869.87	10653.02
870.19	10549.98
870.51	10584.78
870.83	10612.12
871.15	10552.46
871.469	10503.2
871.789	10544.78
872.109	10544.1
872.428	10469.3
872.748	10526.02
873.067	10449.41
873.386	10413.71
873.706	10422.52
874.025	10383.88
874.344	10340.49
874.663	10410.09
874.982	10372.58
875.301	10343.65
875.62	10297.55
875.939	10284.45
876.258	10331.23
876.577	10277.44
876.896	10220.95
877.214	10185.69
877.533	10316.31
877.852	10220.04
878.17	10189.76
878.489	10184.79
878.807	10197.67
879.125	10196.09
879.444	10151.12
879.762	10086.71
880.08	10123.32
880.398	10097.79
880.716	10078.35
881.034	10049.43
881.352	10005.58
881.67	9983.66
881.988	9964
882.306	9874.06
882.624	9917
882.941	9864.12
883.259	9859.37
883.577	9829.09
883.894	9781.18
884.212	9801.3
884.529	9790.9
884.846	9740.28
885.164	9716.33
885.481	9662.99
885.798	9757.68
886.115	9598.82
886.432	9578.7
886.75	9593.17
887.067	9631.81
887.383	9556.78
887.7	9576.44
888.017	9536.22
888.334	9531.47
888.651	9526.27
888.967	9550.91
889.284	9413.51
889.6	9402.44
889.917	9325.38
890.233	9376.22
890.55	9307.52
890.866	9344.13
891.182	9253.29
891.498	9273.63
891.815	9179.17
892.131	9176.68
892.447	9129.68
892.763	9160.18
893.079	9103.91
893.395	9078.38
893.71	9082.22
894.026	9080.86
894.342	8983.92
894.657	8923.58
894.973	8905.73
895.289	8894.2
895.604	8859.85
895.92	8809.46
896.235	8820.08
896.55	8788.89
896.865	8749.57
897.181	8685.62
897.496	8745.96
897.811	8658.95
898.126	8679.97
898.441	8590.93
898.756	8571.05
899.071	8538.73
899.386	8523.82
899.7	8476.59
900.015	8418.73
900.33	8383.71
900.644	8386.87
900.959	8370.37
901.273	8298.51
901.588	8273.2
901.902	8224.16
902.216	8179.87
902.531	8199.08
902.845	8163.82
903.159	8102.36
903.473	8066.2
903.787	8008.12
904.101	7994.11
904.415	8016.94
904.729	7997.28
905.042	7954.34
905.356	7894.91
905.67	7873.89
905.984	7907.79
906.297	7849.03
906.611	7830.73
906.924	7814.23
907.237	7801.35
907.551	7718.41
907.864	7691.07
908.177	7634.35
908.491	7601.81
908.804	7562.03
909.117	7554.35
909.43	7474.58
909.743	7538.98
910.056	7483.84
910.368	7425.77
910.681	7407.46
910.994	7349.16
911.307	7332.21
911.619	7313.23
911.932	7267.13
912.244	7231.87
912.557	7199.33
912.869	7160.46
913.181	7166.11
913.494	7080.24
913.806	7084.53
914.118	7074.81
914.43	7014.25
914.742	7035.94
915.054	6934.25
915.366	6946.68
915.678	6876.4
915.99	6933.57
916.302	6808.15
916.613	6857.19
916.925	6841.83
917.236	6796.63
917.548	6764.09
917.859	6727.03
918.171	6702.62
918.482	6673.02
918.794	6638.67
919.105	6629.4
919.416	6623.07
919.727	6562.51
920.038	6532.91
920.349	6491.78
920.66	6534.04
920.971	6422.4
921.282	6467.6
921.593	6396.41
921.903	6370.88
922.214	6372.91
922.525	6316.64
922.835	6281.61
923.146	6298.79
923.456	6247.72
923.767	6205.01
924.077	6173.59
924.387	6153.03
924.697	6135.86
925.008	6137.21
925.318	6128.85
925.628	6092.69
925.938	6009.31
926.248	6031.23
926.558	5995.52
926.867	6023.99
927.177	5972.02
927.487	5919.82
927.796	5885.69
928.106	5825.58
928.416	5835.07
928.725	5824
929.034	5776.77
929.344	5828.75
929.653	5784.45
929.962	5765.7
930.271	5715.3
930.581	5731.57
930.89	5638.69
931.199	5651.57
931.508	5617.9
931.817	5599.6
932.125	5560.28
932.434	5521.86
932.743	5511.24
933.051	5507.62
933.36	5471.01
933.669	5452.71
933.977	5467.4
934.286	5437.79
934.594	5411.81
934.902	5371.58
935.21	5333.39
935.519	5328.87
935.827	5356.22
936.135	5301.98
936.443	5254.3
936.751	5255.65
937.059	5230.57
937.367	5156.9
937.674	5226.95
937.982	5146.05
938.29	5172.94
938.597	5172.94
938.905	5116.22
939.213	5070.8
939.52	5057.24
939.827	4983.12
940.135	5048.2
940.442	4961.88
940.749	4987.86
941.056	4967.3
941.363	4916.68
941.67	4943.12
941.977	4844.14
942.284	4871.93
942.591	4861.31
942.898	4807.3
943.205	4846.85
943.511	4800.52
943.818	4777.7
944.125	4701.09
944.431	4692.96
944.738	4709
945.044	4648.66
945.35	4622.45
945.657	4648.44
945.963	4609.12
946.269	4568.89
946.575	4573.18
946.881	4572.51
947.187	4540.87
947.493	4518.5
947.799	4477.14
948.105	4489.8
948.41	4474.43
948.716	4436.24
949.022	4422.91
949.327	4392.62
949.633	4340.42
949.938	4391.95
950.244	4348.56
950.549	4305.62
950.854	4296.58
951.16	4302.23
951.465	4255.68
951.77	4283.25
952.075	4221.78
952.38	4171.61
952.685	4182.23
952.99	4160.54
953.294	4176.36
953.599	4103.82
953.904	4120.09
954.209	4111.95
954.513	4110.6
954.818	4029.24
955.122	4051.16
955.426	3975.23
955.731	3994.89
956.035	4016.59
956.339	3979.53
956.643	3978.85
956.948	3959.87
957.252	3984.5
957.556	3934.33
957.86	3871.73
958.163	3897.5
958.467	3881.23
958.771	3786.54
959.075	3837.61
959.378	3846.42
959.682	3836.93
959.985	3783.15
960.289	3750.61
960.592	3764.62
960.896	3705.41
961.199	3693.89
961.502	3690.72
961.805	3668.8
962.108	3680.1
962.411	3683.49
962.714	3614.11
963.017	3631.29
963.32	3628.58
963.623	3579.76
963.926	3575.47
964.228	3562.14
964.531	3551.06
964.833	3551.29
965.136	3511.07
965.438	3480.78
965.741	3492.54
966.043	3461.12
966.345	3494.8
966.648	3438.3
966.95	3443.95
967.252	3388.36
967.554	3436.27
967.856	3428.36
968.158	3329.83
968.46	3370.73
968.761	3353.33
969.063	3312.43
969.365	3323.27
969.666	3310.62
969.968	3322.6
970.269	3275.82
970.571	3230.85
970.872	3270.39
971.174	3254.35
971.475	3199.21
971.776	3200.79
972.077	3197.4
972.378	3178.65
972.679	3177.06
972.98	3155.14
973.281	3102.26
973.582	3112.21
973.883	3070.4
974.183	3078.53
974.484	3079.44
974.785	3053.22
975.085	3042.6
975.386	3029.5
975.686	3031.53
975.986	3012.77
976.287	2980.91
976.587	2993.11
976.887	2975.26
977.187	2969.61
977.487	2933.91
977.787	2933
978.087	2933.23
978.387	2916.51
978.687	2893
978.987	2861.14
979.286	2872.44
979.586	2849.39
979.885	2831.54
980.185	2813.68
980.484	2798.77
980.784	2810.52
981.083	2801.48
981.382	2793.57
981.682	2762.61
981.981	2741.82
982.28	2726.68
982.579	2726.68
982.878	2714.7
983.177	2685.1
983.475	2643.07
983.774	2703.18
984.073	2659.34
984.372	2625.21
984.67	2637.42
984.969	2638.32
985.267	2615.72
985.566	2610.75
985.864	2578.21
986.162	2584.08
986.461	2584.99
986.759	2571.66
987.057	2535.05
987.355	2510.87
987.653	2536.85
987.951	2485.56
988.249	2515.16
988.547	2466.35
988.844	2480.36
989.142	2476.52
989.44	2449.17
989.737	2445.11
990.035	2436.97
990.332	2411.43
990.63	2405.33
990.927	2392.45
991.224	2371.21
991.521	2352.68
991.819	2361.49
992.116	2365.11
992.413	2343.41
992.71	2356.52
993.006	2315.84
993.303	2307.93
993.6	2309.29
993.897	2308.61
994.193	2263.87
994.49	2257.31
994.787	2258.22
995.083	2257.54
995.379	2246.01
995.676	2245.56
995.972	2240.36
996.268	2194.26
996.565	2199.91
996.861	2196.3
997.157	2168.5
997.453	2160.14
997.749	2147.71
998.044	2134.38
998.34	2109.07
998.636	2099.58
998.932	2088.28
999.227	2054.16
999.523	2069.07
999.818	2056.19
1000.114	2072.01
1000.409	2025.68
1000.704	2033.59
1001	2049.64
1001.295	2020.03
1001.59	2008.96
1001.885	2004.89
1002.18	1984.55
1002.475	1975.96
1002.77	1973.93
1003.065	1991.33
1003.359	1963.08
1003.654	1922.63
1003.949	1919.02
1004.243	1900.26
1004.538	1888.06
1004.832	1841.73
1005.127	1916.53
1005.421	1896.87
1005.715	1879.02
1006.009	1828.4
1006.304	1865.23
1006.598	1835.63
1006.892	1817.78
1007.186	1838.57
1007.48	1833.37
1007.773	1802.18
1008.067	1779.59
1008.361	1771.22
1008.655	1730.32
1008.948	1763.54
1009.242	1719.93
1009.535	1730.1
1009.829	1720.38
1010.122	1713.6
1010.415	1699.36
1010.708	1682.64
1011.001	1667.05
1011.295	1675.86
1011.588	1669.08
1011.881	1621.85
1012.173	1654.84
1012.466	1628.4
1012.759	1628.4
1013.052	1614.84
1013.344	1597.44
1013.637	1593.6
1013.93	1578.24
1014.222	1564.9
1014.514	1575.75
1014.807	1534.62
1015.099	1516.32
1015.391	1514.28
1015.683	1504.34
1015.976	1532.81
1016.268	1504.34
1016.56	1505.92
1016.851	1467.05
1017.143	1496.66
1017.435	1460.72
1017.727	1439.03
1018.018	1491.91
1018.31	1465.7
1018.602	1453.72
1018.893	1421.4
1019.185	1398.13
1019.476	1399.03
1019.767	1379.6
1020.058	1403.32
1020.35	1376.66
1020.641	1359.48
1020.932	1379.14
1021.223	1355.19
1021.514	1343.89
1021.804	1343.21
1022.095	1329.65
1022.386	1305.02
1022.677	1326.49
1022.967	1313.16
1023.258	1307.28
1023.548	1286.27
1023.839	1284.46
1024.129	1268.19
1024.419	1278.36
1024.709	1261.86
1025	1219.15
1025.29	1251.92
1025.58	1220.05
1025.87	1221.18
1026.16	1207.85
1026.449	1225.02
1026.739	1189.32
1027.029	1206.49
1027.319	1176.21
1027.608	1197
1027.898	1149.09
1028.187	1164.01
1028.477	1172.6
1028.766	1144.8
1029.055	1146.61
1029.344	1123.78
1029.634	1131.69
1029.923	1128.53
1030.212	1119.26
1030.501	1097.57
1030.79	1095.76
1031.078	1111.81
1031.367	1085.82
1031.656	1093.5
1031.945	1082.2
1032.233	1063.22
1032.522	1073.62
1032.81	1055.31
1033.099	1053.73
1033.387	1011.47
1033.675	1023.67
1033.963	1025.03
1034.251	1013.73
1034.54	1003.34
1034.828	1002.43
1035.116	1004.01
1035.403	979.61
1035.691	986.61
1035.979	1004.24
1036.267	964.92
1036.554	978.48
1036.842	946.61
1037.129	955.65
1037.417	971.47
1037.704	943.68
1037.992	964.01
1038.279	925.37
1038.566	923.34
1038.853	923.34
1039.14	923.34
