Data from hue_30_FLMS001491_85.txt Node
Date: Mon Feb 06 15:06:12 GMT 2017
User: dcchb
Spectrometer: FLMS00149
Trigger mode: 0
Integration Time (sec): 2.000000E-2
Scans to average: 10
Electric dark correction enabled: true
Nonlinearity correction enabled: false
Boxcar width: 0
XAxis mode: Wavelengths
Number of Pixels in Spectrum: 2048
>>>>>Begin Spectral Data<<<<<
341.393	-9.53
341.776	-9.53
342.16	-9.53
342.543	-75.29
342.927	-67.84
343.31	-73.26
343.693	-70.32
344.077	-70.1
344.46	-69.19
344.843	-40.72
345.226	-38.91
345.61	-34.17
345.993	-16.31
346.376	-0.72
346.759	24.59
347.142	26.4
347.525	44.48
347.908	49.67
348.291	71.82
348.674	86.96
349.057	109.79
349.44	124.02
349.823	147.07
350.206	164.25
350.588	198.37
350.971	203.57
351.354	219.61
351.737	223
352.119	240.86
352.502	243.12
352.884	280.63
353.267	257.35
353.65	300.97
354.032	290.35
354.414	314.53
354.797	297.58
355.179	320.85
355.562	320.18
355.944	321.31
356.326	310.68
356.709	320.63
357.091	340.74
357.473	335.77
357.855	355.43
358.238	347.52
358.62	340.51
359.002	326.5
359.384	348.42
359.766	336.9
360.148	340.51
360.53	327.86
360.912	343
361.294	349.1
361.676	340.51
362.057	337.12
362.439	318.82
362.821	320.18
363.203	319.27
363.584	321.98
363.966	321.53
364.348	328.31
364.729	340.06
365.111	348.42
365.493	301.87
365.874	319.27
366.256	323.11
366.637	322.21
367.019	317.92
367.4	313.17
367.781	324.92
368.163	311.36
368.544	327.63
368.925	315.2
369.306	340.51
369.688	314.07
370.069	328.99
370.45	319.05
370.831	314.98
371.212	316.33
371.593	291.25
371.974	307.75
372.355	313.62
372.736	335.32
373.117	306.84
373.498	340.06
373.879	315.66
374.26	326.28
374.641	320.4
375.021	333.96
375.402	328.08
375.783	297.8
376.163	339.38
376.544	325.15
376.925	325.37
377.305	321.08
377.686	350.46
378.066	341.64
378.447	319.72
378.827	339.16
379.208	325.37
379.588	355.65
379.968	349.1
380.349	342.1
380.729	335.77
381.109	344.58
381.489	351.59
381.87	357.69
382.25	344.13
382.63	343.45
383.01	357.69
383.39	339.61
383.77	362.43
384.15	339.38
384.53	354.75
384.91	342.32
385.29	376.9
385.67	360.85
386.049	338.93
386.429	351.59
386.809	376.9
387.189	361.08
387.568	350.68
387.948	340.51
388.328	371.02
388.707	370.12
389.087	382.32
389.466	363.34
389.846	379.61
390.225	374.86
390.605	392.26
390.984	367.86
391.363	396.33
391.743	378.7
392.122	382.32
392.501	409.21
392.881	385.26
393.26	408.76
393.639	369.21
394.018	381.19
394.397	395.2
394.776	407.18
395.155	382.55
395.534	401.3
395.913	391.81
396.292	398.82
396.671	396.33
397.05	403.11
397.429	401.98
397.808	412.15
398.186	420.74
398.565	392.04
398.944	384.13
399.323	403.56
399.701	392.49
400.08	393.62
400.458	417.57
400.837	412.38
401.215	411.47
401.594	413.28
401.972	408.76
402.351	418.93
402.729	429.78
403.107	418.03
403.486	419.83
403.864	441.75
404.242	420.74
404.62	439.27
404.999	431.13
405.377	449.66
405.755	437.01
406.133	445.14
406.511	451.92
406.889	469.55
407.267	466.84
407.645	444.24
408.023	452.38
408.401	464.13
408.779	478.59
409.156	475.43
409.534	472.04
409.912	478.36
410.29	481.75
410.667	486.5
411.045	479.72
411.422	491.02
411.8	490.79
412.178	500.96
412.555	512.94
412.933	517.46
413.31	492.83
413.687	513.39
414.065	517.46
414.442	516.55
414.819	517.91
415.197	508.87
415.574	526.5
415.951	523.33
416.328	526.05
416.705	537.34
417.082	540.96
417.46	533.73
417.837	557.46
418.214	558.81
418.591	568.98
418.967	573.05
419.344	585.7
419.721	550.68
420.098	559.26
420.475	575.76
420.852	564.69
421.228	564.01
421.605	573.95
421.982	591.58
422.358	594.29
422.735	597.23
423.111	608.76
423.488	594.74
423.864	606.5
424.241	613.73
424.617	609.21
424.994	587.06
425.37	589.32
425.746	622.31
426.123	638.36
426.499	641.97
426.875	620.51
427.251	634.74
427.627	637.91
428.003	664.12
428.379	675.42
428.756	658.47
429.132	675.65
429.507	678.58
429.883	687.85
430.259	684.46
430.635	680.17
431.011	702.99
431.387	724.01
431.763	717.68
432.138	702.54
432.514	728.07
432.89	735.31
433.265	739.83
433.641	742.09
434.016	747.96
434.392	748.64
434.767	760.39
435.143	772.82
435.518	751.12
435.894	799.94
436.269	776.21
436.644	822.99
437.02	779.37
437.395	811.01
437.77	818.92
438.145	817.56
438.52	844.91
438.895	830.44
439.271	834.06
439.646	847.17
440.021	840.61
440.395	844.68
440.77	852.36
441.145	853.27
441.52	847.17
441.895	875.87
442.27	865.02
442.645	858.01
443.019	879.26
443.394	890.33
443.769	893.27
444.143	894.62
444.518	909.99
444.892	917.45
445.267	940.27
445.641	898.01
446.016	911.12
446.39	961.51
446.764	947.73
447.139	919.93
447.513	933.49
447.887	948.63
448.262	951.12
448.636	979.59
449.01	966.94
449.384	981.63
449.758	1005.35
450.132	994.28
450.506	1017.33
450.88	1007.39
451.254	994.51
451.628	1015.98
452.002	1039.93
452.376	1037.67
452.75	1053.72
453.123	1027.5
453.497	1072.47
453.871	1076.77
454.244	1086.48
454.618	1097.78
454.992	1122.19
455.365	1108.4
455.739	1122.19
456.112	1137.55
456.486	1152.47
456.859	1156.99
457.232	1181.17
457.606	1173.94
457.979	1178.23
458.352	1214.61
458.725	1188.63
459.099	1240.83
459.472	1262.07
459.845	1277.21
460.218	1291.68
460.591	1274.73
460.964	1308.17
461.337	1312.24
461.71	1392.92
462.083	1365.35
462.456	1367.38
462.829	1372.58
463.201	1393.14
463.574	1379.13
463.947	1418.23
464.32	1457.55
464.692	1443.76
465.065	1433.59
465.438	1476.75
465.81	1504.32
466.183	1532.12
466.555	1537.54
466.928	1547.71
467.3	1538.67
467.672	1606.7
468.045	1628.84
468.417	1661.16
468.789	1650.99
469.161	1646.24
469.534	1692.34
469.906	1731.66
470.278	1733.92
470.65	1728.73
471.022	1772.57
471.394	1829.29
471.766	1835.39
472.138	1880.59
472.51	1902.05
472.882	1913.58
473.253	1980.92
473.625	2009.17
473.997	2036.97
474.369	2056.4
474.74	2089.62
475.112	2091.2
475.484	2161.48
475.855	2174.82
476.227	2220.69
476.598	2304.98
476.97	2325.32
477.341	2341.82
477.713	2417.52
478.084	2436.28
478.455	2530.06
478.827	2553.79
479.198	2591.3
479.569	2653.45
479.94	2714.46
480.311	2761.92
480.682	2815.25
481.053	2855.48
481.424	2927.34
481.795	3010.95
482.166	3030.39
482.537	3085.53
482.908	3159.2
483.279	3224.73
483.65	3283.26
484.021	3366.87
484.391	3409.81
484.762	3458.62
485.133	3515.35
485.503	3562.35
485.874	3664.95
486.244	3739.29
486.615	3754.21
486.985	3854.09
487.356	3960.98
487.726	3965.96
488.097	4067.42
488.467	4162.79
488.837	4238.04
489.207	4300.86
489.578	4402.1
489.948	4406.62
490.318	4513.74
490.688	4518.26
491.058	4609.55
491.428	4729.32
491.798	4805.93
492.168	4906.72
492.538	4956.89
492.908	4990.56
493.278	5086.6
493.648	5138.13
494.017	5202.76
494.387	5287.73
494.757	5327.05
495.126	5368.63
495.496	5436.42
495.866	5456.31
496.235	5579.47
496.605	5590.09
496.974	5737.66
497.344	5756.87
497.713	5804.32
498.082	5808.62
498.452	5925.68
498.821	6015.62
499.19	6032.79
499.559	6103.75
499.928	6145.56
500.298	6173.13
500.667	6290.64
501.036	6245.9
501.405	6351.88
501.774	6354.14
502.143	6422.16
502.512	6476.62
502.88	6512.33
503.249	6504.65
503.618	6595.49
503.987	6611.76
504.356	6705.54
504.724	6689.5
505.093	6727.69
505.462	6842.49
505.83	6875.26
506.199	6844.98
506.567	6975.37
506.936	6987.12
507.304	7127.45
507.672	7089.94
508.041	7175.59
508.409	7243.83
508.777	7228.92
509.145	7334
509.514	7289.94
509.882	7376.71
510.25	7432.53
510.618	7459.65
510.986	7483.6
511.354	7538.06
511.722	7588.01
512.09	7761.56
512.458	7665.97
512.826	7785.06
513.193	7746.87
513.561	7839.3
513.929	7912.52
514.297	7947.55
514.664	8048.11
515.032	8013.98
515.4	8013.76
515.767	8087.65
516.135	8132.63
516.502	8051.5
516.869	8280.19
517.237	8232.74
517.604	8250.59
517.972	8346.4
518.339	8395.67
518.706	8396.35
519.073	8401.32
519.44	8483.12
519.808	8541.2
520.175	8580.07
520.542	8649.22
520.909	8705.72
521.276	8663.01
521.643	8824.36
522.009	8768.99
522.376	8906.39
522.743	8940.74
523.11	8993.85
523.477	9046.73
523.843	9086.05
524.21	9202.2
524.577	9230.68
524.943	9256.66
525.31	9279.04
525.676	9424.12
526.043	9420.95
526.409	9473.83
526.776	9579.59
527.142	9552.93
527.508	9632.02
527.874	9692.58
528.241	9778.01
528.607	9802.41
528.973	9849.19
529.339	9845.8
529.705	9933.03
530.071	10022.29
530.437	10062.74
530.803	10124.21
531.169	10195.62
531.535	10220.03
531.901	10258.9
532.267	10284.88
532.632	10363.98
532.998	10365.56
533.364	10478.33
533.73	10481.49
534.095	10517.42
534.461	10642.84
534.826	10575.95
535.192	10655.5
535.557	10740.92
535.923	10759
536.288	10794.25
536.653	10900.46
537.019	10834.25
537.384	10881.03
537.749	10924.87
538.114	11001.25
538.479	10988.14
538.845	11093.45
539.21	11067.92
539.575	11163.51
539.94	11217.29
540.305	11265.88
540.67	11302.49
541.034	11362.82
541.399	11444.18
541.764	11484.4
542.129	11498.86
542.494	11521.91
542.858	11643.04
543.223	11548.35
543.587	11638.52
543.952	11633.55
544.316	11765.98
544.681	11755.13
545.045	11910.83
545.41	11874.45
545.774	11909.7
546.138	12043.26
546.503	12037.16
546.867	11977.5
547.231	12153.99
547.595	12146.98
547.959	12178.62
548.324	12194.44
548.688	12223.59
549.052	12323.7
549.416	12322.12
549.779	12352.85
550.143	12459.29
550.507	12386.07
550.871	12542
551.235	12573.86
551.599	12551.94
551.962	12624.71
552.326	12709.91
552.689	12788.77
553.053	12806.17
553.417	12772.96
553.78	12959.16
554.143	12873.74
554.507	12992.61
554.87	12956
555.234	13093.85
555.597	12997.58
555.96	13125.04
556.323	13152.38
556.686	13208.42
557.05	13264.24
557.413	13297.01
557.776	13385.37
558.139	13438.7
558.502	13333.62
558.865	13402.77
559.228	13566.83
559.59	13593.27
559.953	13563.89
560.316	13777.67
560.679	13673.27
561.041	13816.32
561.404	13946.03
561.767	13925.92
562.129	13897.67
562.492	14023.54
562.854	14070.1
563.217	14105.35
563.579	14112.58
563.941	14214.27
564.304	14335.63
564.666	14319.36
565.028	14374.72
565.39	14381.05
565.753	14513.25
566.115	14554.15
566.477	14524.32
566.839	14632.57
567.201	14632.12
567.563	14609.52
567.925	14753.69
568.287	14755.95
568.648	14772.45
569.01	14920.47
569.372	15078.66
569.734	15067.58
570.095	15072.56
570.457	15226.9
570.819	15210.86
571.18	15295.15
571.542	15354.13
571.903	15337.41
572.265	15445.2
572.626	15456.95
572.987	15567.46
573.349	15662.14
573.71	15796.15
574.071	15809.71
574.432	15905.98
574.794	16030.72
575.155	16075.24
575.516	16028.69
575.877	16205.18
576.238	16272.52
576.599	16376.25
576.96	16501.67
577.32	16628.22
577.681	16696.47
578.042	16876.12
578.403	16982.11
578.763	16971.26
579.124	17186.62
579.485	17342.55
579.845	17501.87
580.206	17533.96
580.566	17718.59
580.927	17823.22
581.287	18113.83
581.648	18028.18
582.008	18418
582.368	18415.97
582.728	18703.19
583.089	18859.35
583.449	18977.76
583.809	19316.51
584.169	19461.82
584.529	19549.73
584.889	19938.42
585.249	19957.85
585.609	20135.7
585.969	20550.15
586.329	20772.74
586.688	20963.93
587.048	21238.72
587.408	21303.13
587.768	21606.17
588.127	21818.82
588.487	21920.29
588.846	22404.34
589.206	22557.56
589.565	22851.79
589.925	23168.16
590.284	23359.12
590.643	23633.91
591.003	23906.45
591.362	24358.64
591.721	24545.75
592.08	24779.42
592.44	25104.16
592.799	25449.68
593.158	25642.45
593.517	26010.8
593.876	26370.11
594.235	26577.79
594.593	26766.49
594.952	27174.61
595.311	27295.29
595.67	27676.07
596.029	28096.17
596.387	28458.64
596.746	28776.6
597.104	28875.81
597.463	29116.03
597.822	29494.78
598.18	29622.91
598.538	29891.38
598.897	30379.5
599.255	30500.62
599.613	31226.93
599.972	31263.54
600.33	31558.68
600.688	31712.12
601.046	32067.59
601.404	32441.14
601.762	32548.48
602.12	33034.8
602.478	33198.63
602.836	33512.3
603.194	33526.99
603.552	33930.59
603.91	34032.96
604.268	34427.98
604.625	34483.12
604.983	34930.11
605.341	34917.23
605.698	35287.17
606.056	35605.8
606.413	35842.86
606.771	36090.99
607.128	36347.48
607.485	36355.16
607.843	36577.98
608.2	37078.76
608.557	37261.12
608.914	37315.59
609.272	37730.72
609.629	38004.16
609.986	38266.07
610.343	38226.3
610.7	38780.18
611.057	38815.66
611.414	38958.26
611.771	39087.29
612.127	39310.34
612.484	39426.04
612.841	39805.01
613.198	39726.6
613.554	39916.2
613.911	40176.53
614.267	40416.07
614.624	40451.1
614.98	40634.37
615.337	40881.37
615.693	41016.05
616.05	41064.64
616.406	41398.42
616.762	41411.3
617.118	41609.03
617.475	41531.07
617.831	41677.51
618.187	41997.72
618.543	42247.89
618.899	42406.98
619.255	42449.24
619.611	42500.76
619.967	42658.95
620.323	42971.03
620.678	42677.25
621.034	42762.22
621.39	42889.9
621.746	43004.02
622.101	43397.46
622.457	43198.6
622.812	43367.4
623.168	43574.63
623.523	43539.6
623.879	43650.34
624.234	43485.37
624.589	43630.22
624.945	43904.11
625.3	43924.9
625.655	43948.18
626.01	44026.82
626.365	44265.91
626.72	44169.19
627.075	44241.05
627.43	44224.11
627.785	44253.03
628.14	44469.07
628.495	44418
628.85	44446.92
629.205	44349.75
629.559	44689.86
629.914	44404.44
630.269	44613.02
630.623	44469.3
630.978	44359.47
631.332	44607.37
631.687	44783.41
632.041	44643.98
632.396	44695.05
632.75	44644.43
633.104	44532.35
633.459	44565.34
633.813	44437.43
634.167	44579.8
634.521	44736.86
634.875	44702.51
635.229	44566.7
635.583	44568.96
635.937	44540.48
636.291	44583.64
636.645	44549.75
636.999	44461.16
637.352	44678.78
637.706	44510.43
638.06	44680.59
638.413	44572.8
638.767	44392.69
639.121	44531.44
639.474	44387.04
639.828	44488.96
640.181	44479.24
640.534	44466.81
640.888	44352.69
641.241	44288.51
641.594	44395.17
641.947	44276.31
642.301	44268.85
642.654	44327.61
643.007	44287.61
643.36	44282.41
643.713	44214.61
644.066	44339.36
644.419	44072.7
644.771	43883.32
645.124	43480.17
645.477	43484.01
645.83	43125.38
646.182	43086.06
646.535	43039.5
646.888	43174.42
647.24	42913.18
647.593	43116.56
647.945	43012.39
648.298	42808.1
648.65	42931.94
649.002	42798.83
649.355	43043.57
649.707	42785.27
650.059	43067.98
650.411	43370.34
650.763	43558.59
651.115	43970.33
651.467	43691.92
651.819	43793.83
652.171	43784.57
652.523	43643.1
652.875	43569.43
653.227	43618.02
653.578	43821.63
653.93	43657.57
654.282	43439.04
654.633	43425.03
654.985	43607.62
655.337	43465.71
655.688	43452.6
656.039	43784.34
656.391	43210.35
656.742	43391.59
657.094	43455.99
657.445	43435.43
657.796	43439.49
658.147	43441.08
658.498	43245.37
658.849	43408.76
659.2	43335.54
659.551	43281.31
659.902	43411.25
660.253	43206.96
660.604	43217.13
660.955	43108.2
661.306	43288.31
661.656	43118.82
662.007	43335.77
662.358	43262.77
662.708	43242.44
663.059	43189.78
663.409	42886.06
663.76	43174.87
664.11	43188.88
664.461	43390.46
664.811	43255.09
665.161	43253.51
665.511	43093.97
665.862	43271.14
666.212	43257.8
666.562	43404.92
666.912	43188.65
667.262	43110.91
667.612	43051.26
667.962	43112.27
668.312	43062.78
668.662	43380.29
669.011	43078.6
669.361	43037.7
669.711	43031.37
670.06	42938.26
670.41	42788.21
670.76	42758.16
671.109	43062.55
671.459	42810.36
671.808	42837.25
672.157	42952.95
672.507	42778.72
672.856	42902.33
673.205	42712.05
673.554	42931.03
673.904	42775.1
674.253	43007.19
674.602	42862.33
674.951	42298.96
675.3	42024.39
675.649	42736.01
675.998	42659.4
676.346	42732.85
676.695	42898.04
677.044	42507.09
677.393	42674.54
677.741	42706.86
678.09	42487.88
678.438	42502.57
678.787	42670.93
679.135	42554.32
679.484	42303.48
679.832	42388.67
680.181	42203.59
680.529	42387.09
680.877	42232.52
681.225	42170.6
681.573	42321.78
681.922	42037.27
682.27	41944.17
682.618	42041.11
682.966	41945.3
683.314	41916.37
683.661	41809.25
684.009	41668.69
684.357	41728.8
684.705	41540.11
685.053	41497.17
685.4	41505.31
685.748	41388.02
686.095	41329.27
686.443	41228.03
686.79	41128.82
687.138	41327.01
687.485	41251.98
687.832	41028.03
688.18	41169.04
688.527	40840.69
688.874	40728.38
689.221	40755.27
689.568	40708.49
689.915	40563.86
690.262	40483.86
690.609	40547.37
690.956	40363.87
691.303	40264.66
691.65	40251.1
691.997	40231.22
692.344	40009.98
692.69	39871.68
693.037	39864.9
693.383	39626.26
693.73	39738.35
694.077	39507.39
694.423	39567.96
694.769	39333.61
695.116	39296.55
695.462	39203.45
695.808	39149.44
696.155	39089.1
696.501	38859.5
696.847	38939.72
697.193	38615.21
697.539	38779.95
697.885	38513.52
698.231	38278.95
698.577	38470.58
698.923	38274.66
699.269	38203.92
699.614	38029.47
699.96	37968.9
700.306	37923.71
700.651	37893.42
700.997	37829.92
701.342	37714.22
701.688	37674.9
702.033	37407.34
702.379	37422.02
702.724	37291.86
703.069	37356.49
703.415	36897.29
703.76	36900.68
704.105	37029.94
704.45	36824.75
704.795	36706.56
705.14	36544.99
705.485	36630.86
705.83	36366.91
706.175	36503.63
706.52	36233.36
706.865	36234.03
707.209	36245.78
707.554	36042.63
707.899	36235.84
708.243	36150.87
708.588	35982.97
708.932	35680.15
709.277	35550.44
709.621	35679.02
709.966	35480.83
710.31	35591.11
710.654	35296.43
710.998	35277.67
711.342	35347.5
711.687	35142.76
712.031	35101.18
712.375	34790.23
712.719	35086.04
713.063	34908.87
713.407	34954.29
713.75	34878.81
714.094	34762.21
714.438	34562.21
714.782	34759.5
715.125	34557.24
715.469	34540.97
715.812	34371.94
716.156	34205.16
716.499	34188.66
716.843	34319.73
717.186	33930.59
717.53	34094.88
717.873	34133.75
718.216	34057.59
718.559	33928.33
718.902	33636.14
719.246	33735.57
719.589	33711.39
719.932	33435.46
720.275	33585.29
720.617	33618.73
720.96	33535.35
721.303	33471.39
721.646	33389.59
721.989	33209.71
722.331	33312.98
722.674	33261.68
723.016	33270.04
723.359	33056.49
723.701	33201.34
724.044	32921.35
724.386	32833.67
724.729	32935.36
725.071	32829.15
725.413	32765.42
725.755	32707.35
726.097	32602.72
726.439	32448.82
726.782	32603.17
727.124	32566.78
727.465	32475.04
727.807	32341.03
728.149	32291.99
728.491	32268.49
728.833	32338.54
729.175	32267.13
729.516	32032.34
729.858	32210.86
730.199	31936.29
730.541	32045.89
730.882	31900.36
731.224	31978.1
731.565	31780.14
731.906	31798.44
732.248	31840.25
732.589	31708.5
732.93	31565.68
733.271	31605.68
733.612	31617.66
733.953	31682.51
734.294	31565.91
734.635	31330.89
734.976	31460.83
735.317	31306.71
735.658	31253.37
735.999	31351.9
736.339	31221.06
736.68	31306.25
737.021	31235.52
737.361	31040.72
737.702	31340.6
738.042	31046.82
738.383	31054.06
738.723	30983.32
739.063	30986.71
739.404	30913.72
739.744	30855.19
740.084	30733.84
740.424	30855.64
740.764	30670.79
741.104	30737.68
741.444	30605.03
741.784	30497.69
742.124	30569.32
742.464	30628.98
742.804	30497.91
743.143	30373.17
743.483	30292.49
743.823	30200.52
744.162	30208.43
744.502	30297.24
744.841	30081.88
745.181	30267.18
745.52	30049.56
745.86	30135.44
746.199	30031.48
746.538	30024.48
746.877	30067.64
747.216	29902.22
747.556	29889.12
747.895	29989.45
748.234	29810.25
748.573	29677.14
748.911	29754.88
749.25	29571.61
749.589	29598.5
749.928	29605.05
750.267	29539.29
750.605	29384.95
750.944	29384.72
751.283	29304.05
751.621	29517.6
751.96	29278.96
752.298	29132.98
752.636	29160.77
752.975	29021.12
753.313	28943.15
753.651	29056.14
753.989	28885.75
754.327	28816.38
754.666	28791.52
755.004	28771.86
755.342	28796.94
755.679	28697.28
756.017	28573.67
756.355	28617.06
756.693	28461.58
757.031	28514.91
757.368	28363.73
757.706	28285.09
758.044	28209.16
758.381	28259.33
758.719	28259.78
759.056	28218.2
759.394	28101.82
759.731	27975.04
760.068	27812.79
760.405	27700.25
760.743	27700.47
761.08	27740.92
761.417	27659.57
761.754	27481.95
762.091	27492.79
762.428	27312.69
762.765	27237.21
763.102	27185.01
763.438	27129.87
763.775	27006.71
764.112	27100.04
764.449	26930.77
764.785	26893.04
765.122	26684.23
765.458	26585.25
765.795	26514.51
766.131	26475.19
766.467	26455.31
766.804	26299.15
767.14	26169.67
767.476	26194.07
767.812	25971.93
768.148	26032.95
768.485	25964.47
768.821	25751.6
769.157	25691.71
769.492	25638.61
769.828	25597.7
770.164	25479.74
770.5	25367.43
770.836	25356.81
771.171	25213.76
771.507	25131.5
771.842	25046.3
772.178	24883.6
772.513	24910.49
772.849	24879.08
773.184	24679.76
773.519	24684.73
773.855	24547.33
774.19	24497.62
774.525	24449.48
774.86	24313.89
775.195	24338.3
775.53	24212.43
775.865	24075.71
776.2	23889.72
776.535	23759.33
776.87	23814.92
777.205	23693.57
777.539	23564.54
777.874	23652.67
778.209	23375.16
778.543	23380.36
778.878	23323.19
779.212	23227.82
779.547	23238.89
779.881	23097.2
780.215	22899.24
780.55	22979.24
780.884	22900.82
781.218	22822.86
781.552	22788.06
781.886	22669.87
782.22	22527.05
782.554	22433.94
782.888	22361.63
783.222	22081.64
783.556	22169.09
783.889	22126.16
784.223	21858.37
784.557	21868.31
784.89	21905.82
785.224	21745.37
785.557	21692.27
785.891	21550.8
786.224	21565.49
786.558	21551.93
786.891	21292.51
787.224	21259.96
787.557	21150.14
787.891	21264.71
788.224	21147.65
788.557	21019.97
788.89	20944.94
789.223	21031.72
789.556	20764.84
789.888	20782.91
790.221	20702.69
790.554	20610.72
790.887	20462.7
791.219	20375.02
791.552	20479.87
791.884	20247.33
792.217	20256.37
792.549	20149.94
792.882	19981.13
793.214	19942.71
793.546	20094.8
793.879	19851.87
794.211	19688.71
794.543	19826.78
794.875	19672.66
795.207	19757.86
795.539	19656.62
795.871	19653.23
796.203	19418.88
796.535	19309.96
796.867	19262.95
797.198	19179.34
797.53	19227.93
797.862	19052.11
798.193	19194.71
798.525	18955.39
798.856	18993.58
799.188	18759.92
799.519	18744.55
799.85	18718.11
800.182	18757.43
800.513	18666.13
800.844	18478.57
801.175	18626.81
801.506	18542.75
801.837	18451.9
802.168	18296.2
802.499	18328.52
802.83	18153.38
803.161	18168.52
803.491	18162.19
803.822	18074.06
804.153	17945.93
804.483	17888.75
804.814	17827.96
805.145	17811.69
805.475	17774.41
805.805	17712.03
806.136	17734.41
806.466	17693.96
806.796	17553.62
807.126	17548.2
807.457	17443.34
807.787	17526.05
808.117	17378.48
808.447	17326.51
808.777	17363.12
809.107	17197.25
809.436	17277.92
809.766	17233.85
810.096	17050.58
810.426	17060.07
810.755	17086.97
811.085	17092.16
811.414	16988.66
811.744	16834.77
812.073	16802.45
812.403	16782.34
812.732	16741.21
813.061	16718.84
813.39	16556.81
813.719	16543.7
814.049	16672.74
814.378	16535.57
814.707	16553.87
815.036	16433.42
815.365	16316.14
815.693	16223.03
816.022	16263.71
816.351	16245.41
816.68	16113.66
817.008	16176.71
817.337	16053.55
817.665	16043.38
817.994	16002.25
818.322	15990.95
818.651	15860.78
818.979	15921.35
819.307	15928.13
819.636	15897.62
819.964	15737.85
820.292	15770.84
820.62	15764.06
820.948	15704.86
821.276	15777.17
821.604	15760.9
821.932	15715.93
822.259	15732.2
822.587	15667.12
822.915	15675.03
823.243	15720.45
823.57	15592.09
823.898	15684.52
824.225	15600.23
824.553	15627.8
824.88	15687
825.207	15745.98
825.535	15655.37
825.862	15587.34
826.189	15565.65
826.516	15708.92
826.843	15714.12
827.17	15686.78
827.497	15581.02
827.824	15609.72
828.151	15740.11
828.478	15610.85
828.805	15629.83
829.131	15696.04
829.458	15548.7
829.785	15558.19
830.111	15635.48
830.438	15663.27
830.764	15553.9
831.09	15648.81
831.417	15527.68
831.743	15546.22
832.069	15672.09
832.395	15480.91
832.722	15549.83
833.048	15520.68
833.374	15546.67
833.7	15464.64
834.026	15505.76
834.351	15445.43
834.677	15401.13
835.003	15414.69
835.329	15344.19
835.654	15405.65
835.98	15358.42
836.306	15362.49
836.631	15280.69
836.956	15282.95
837.282	15282.72
837.607	15253.12
837.932	15160.91
838.258	15280.69
838.583	15202.72
838.908	15135.38
839.233	15097.64
839.558	15119.33
839.883	15029.62
840.208	15030.52
840.533	14924.08
840.858	14982.84
841.182	14986.68
841.507	14988.04
841.832	14856.29
842.156	14788.5
842.481	14833.47
842.805	14874.14
843.13	14765.9
843.454	14765.45
843.778	14663.75
844.103	14642.74
844.427	14656.97
844.751	14620.59
845.075	14524.32
845.399	14444.1
845.723	14391.22
846.047	14430.54
846.371	14319.13
846.695	14289.53
847.019	14143.77
847.343	14191.45
847.666	14017.67
847.99	13980.83
848.313	14009.98
848.637	13883.21
848.96	13875.3
849.284	13788.3
849.607	13823.32
849.931	13707.39
850.254	13600.5
850.577	13583.1
850.9	13386.5
851.223	13471.47
851.546	13425.59
851.869	13311.02
852.192	13395.31
852.515	13280.96
852.838	13204.36
853.161	13193.96
853.483	13067.86
853.806	13032.38
854.129	13014.98
854.451	13036.23
854.774	13024.93
855.096	12877.59
855.419	12886.62
855.741	12908.77
856.063	12739.74
856.385	12723.46
856.708	12744.26
857.03	12620.87
857.352	12650.7
857.674	12611.38
857.996	12547.88
858.318	12516.01
858.64	12544.03
858.961	12453.42
859.283	12450.93
859.605	12346.3
859.926	12383.36
860.248	12334.32
860.57	12281.89
860.891	12309.01
861.212	12257.26
861.534	12214.78
861.855	12169.81
862.176	12210.71
862.498	12143.82
862.819	12076.02
863.14	12079.19
863.461	12036.7
863.782	12052.07
864.103	12053.88
864.424	11925.97
864.745	12006.87
865.065	11904.05
865.386	11807.1
865.707	11870.38
866.027	11867.22
866.348	11804.84
866.668	11834
866.989	11765.07
867.309	11732.53
867.63	11710.61
867.95	11701.57
868.27	11631.52
868.59	11610.73
868.91	11624.51
869.23	11551.74
869.55	11621.8
869.87	11666.77
870.19	11567.11
870.51	11502.48
870.83	11585.64
871.15	11480.79
871.469	11496.15
871.789	11509.71
872.109	11515.81
872.428	11426.1
872.748	11485.76
873.067	11442.14
873.386	11461.8
873.706	11416.38
874.025	11368.25
874.344	11326.67
874.663	11331.19
874.982	11296.16
875.301	11313.78
875.62	11265.65
875.939	11296.61
876.258	11267.23
876.577	11164.64
876.896	11213
877.214	11111.53
877.533	11147.69
877.852	11124.86
878.17	11129.61
878.489	11119.67
878.807	11074.02
879.125	11022.27
879.444	11012.55
879.762	10992.21
880.08	10984.08
880.398	10978.65
880.716	10962.61
881.034	11011.42
881.352	10906.34
881.67	10870.41
881.988	10839.22
882.306	10933.23
882.624	10793.8
882.941	10743.63
883.259	10735.95
883.577	10700.02
883.894	10745.89
884.212	10638.55
884.529	10682.39
884.846	10613.46
885.164	10627.93
885.481	10553.8
885.798	10632.67
886.115	10498.89
886.432	10501.83
886.75	10473.81
887.067	10521.94
887.383	10466.12
887.7	10452.34
888.017	10384.09
888.334	10380.25
888.651	10420.02
888.967	10310.2
889.284	10229.07
889.6	10241.27
889.917	10161.72
890.233	10227.26
890.55	10102.97
890.866	10119.92
891.182	10091.67
891.498	10064.33
891.815	10041.73
892.131	9990.43
892.447	9991.33
892.763	9930.32
893.079	9968.74
893.395	9948.62
893.71	9914.5
894.026	9847.83
894.342	9865.46
894.657	9720.15
894.973	9749.76
895.289	9772.36
895.604	9702.53
895.92	9557.45
896.235	9574.62
896.55	9653.72
896.865	9567.39
897.181	9526.49
897.496	9572.59
897.811	9464.79
898.126	9461.86
898.441	9458.01
898.756	9383.21
899.071	9415.76
899.386	9387.96
899.7	9285.82
900.015	9185.7
900.33	9180.51
900.644	9157.23
900.959	9212.14
901.273	9152.26
901.588	9077.23
901.902	8962.43
902.216	9000.4
902.531	8990.46
902.845	8939.61
903.159	8921.08
903.473	8877.01
903.787	8829.56
904.101	8801.76
904.415	8810.35
904.729	8825.49
905.042	8686.73
905.356	8678.83
905.67	8648.09
905.984	8666.4
906.297	8603.12
906.611	8502.56
906.924	8556.12
907.237	8469.79
907.551	8437.93
907.864	8394.54
908.177	8413.97
908.491	8372.62
908.804	8306.86
909.117	8369.91
909.43	8232.96
909.743	8239.51
910.056	8145.51
910.368	8235.67
910.681	8169.01
910.994	8108.67
911.307	8036.13
911.619	8002.91
911.932	8007.66
912.244	7950.48
912.557	7964.72
912.869	7897.6
913.181	7869.81
913.494	7797.72
913.806	7837.94
914.118	7727.66
914.43	7756.14
914.742	7716.59
915.054	7677.27
915.366	7663.71
915.678	7566.76
915.99	7618.06
916.302	7500.33
916.613	7458.74
916.925	7503.26
917.236	7416.71
917.548	7390.95
917.859	7471.63
918.171	7355.47
918.482	7297.17
918.794	7253.33
919.105	7261.91
919.416	7188.24
919.727	7194.12
920.038	7167.9
920.349	7111.86
920.66	7084.07
920.971	7117.74
921.282	7066.44
921.593	7002.94
921.903	6988.93
922.214	6960.9
922.525	6937.4
922.835	6923.62
923.146	6863.28
923.456	6868.48
923.767	6820.12
924.077	6805.2
924.387	6786.22
924.697	6705.77
925.008	6675.26
925.318	6667.58
925.628	6635.72
925.938	6656.05
926.248	6600.46
926.558	6538.54
926.867	6536.28
927.177	6510.97
927.487	6432.56
927.796	6411.54
928.106	6425.33
928.416	6382.84
928.725	6369.96
929.034	6350.3
929.344	6332.45
929.653	6335.38
929.962	6224.88
930.271	6223.75
930.581	6244.77
930.89	6145.56
931.199	6110.53
931.508	6124.54
931.817	6126.12
932.125	6071.89
932.434	6063.53
932.743	5999.57
933.051	6003.64
933.36	5942.4
933.669	5949.63
933.977	5876.87
934.286	5873.48
934.594	5846.58
934.902	5807.04
935.21	5823.53
935.519	5747.6
935.827	5772.01
936.135	5727.04
936.443	5705.8
936.751	5659.7
937.059	5664.22
937.367	5642.52
937.674	5600.49
937.982	5558
938.29	5518.46
938.597	5564.56
938.905	5500.6
939.213	5451.57
939.52	5497.21
939.827	5485.92
940.135	5416.76
940.442	5395.75
940.749	5361.4
941.056	5336.99
941.363	5377.9
941.67	5293.15
941.977	5254.73
942.284	5270.78
942.591	5215.87
942.898	5199.14
943.205	5215.41
943.511	5214.06
943.818	5201.18
944.125	5154.62
944.431	5112.14
944.738	5091.8
945.044	5059.49
945.35	4988.53
945.657	4977
945.963	4981.97
946.269	5023.55
946.575	4952.37
946.881	4897.46
947.187	4902.65
947.493	4888.64
947.799	4871.92
948.105	4814.07
948.41	4842.77
948.716	4825.59
949.022	4794.86
949.327	4780.85
949.633	4707.18
949.938	4717.8
950.244	4717.57
950.549	4714.18
950.854	4674.41
951.16	4587.63
951.465	4620.85
951.77	4620.63
952.075	4558.71
952.38	4544.92
952.685	4533.85
952.99	4542.89
953.294	4499.5
953.599	4471.7
953.904	4460.63
954.209	4412.05
954.513	4452.04
954.818	4423.34
955.122	4405.49
955.426	4381.99
955.731	4349.45
956.035	4302.67
956.339	4310.8
956.643	4256.79
956.948	4274.65
957.252	4260.41
957.556	4242.11
957.86	4256.34
958.163	4217.47
958.467	4171.6
958.771	4200.07
959.075	4115.56
959.378	4094.77
959.682	4165.72
959.985	4128.89
960.289	4084.6
960.592	4059.51
960.896	4057.93
961.199	4037.59
961.502	4024.48
961.805	4012.73
962.108	3950.59
962.411	3961.21
962.714	3947.2
963.017	3930.48
963.32	3935.67
963.623	3867.43
963.926	3878.95
964.228	3841.89
964.531	3819.74
964.833	3821.78
965.136	3824.04
965.438	3776.81
965.741	3777.71
966.043	3736.36
966.345	3709.69
966.648	3711.72
966.95	3668.79
967.252	3694.78
967.554	3674.44
967.856	3639.64
968.158	3603.25
968.46	3634.66
968.761	3620.43
969.063	3592.63
969.365	3578.62
969.666	3551.73
969.968	3510.6
970.269	3495.68
970.571	3578.62
970.872	3511.05
971.174	3431.51
971.475	3456.36
971.776	3417.95
972.077	3433.54
972.378	3437.38
972.679	3429.02
972.98	3389.47
973.281	3387.89
973.582	3382.69
973.883	3332.75
974.183	3283.26
974.484	3336.59
974.785	3285.97
975.085	3264.5
975.386	3279.19
975.686	3208.69
975.986	3210.27
976.287	3220.66
976.587	3195.58
976.887	3209.59
977.187	3221.34
977.487	3168.69
977.787	3153.32
978.087	3106.99
978.387	3110.84
978.687	3128.24
978.987	3082.36
979.286	3064.96
979.586	3092.53
979.885	3036.94
980.185	3029.71
980.484	3032.42
980.784	3012.53
981.083	2990.61
981.382	3002.59
981.682	3003.95
981.981	2962.59
982.28	2931.86
982.579	2923.27
982.878	2948.81
983.177	2906.1
983.475	2910.84
983.774	2895.93
984.073	2846.21
984.372	2854.35
984.67	2841.46
984.969	2864.06
985.267	2853.89
985.566	2814.12
985.864	2828.13
986.162	2791.75
986.461	2803.27
986.759	2718.08
987.057	2756.95
987.355	2722.15
987.653	2714.69
987.951	2728.47
988.249	2678.76
988.547	2694.58
988.844	2710.17
989.142	2697.97
989.44	2649.61
989.737	2617.29
990.035	2608.93
990.332	2631.75
990.63	2576.39
990.927	2551.3
991.224	2589.04
991.521	2558.31
991.819	2549.95
992.116	2507.24
992.413	2545.2
992.71	2514.47
993.006	2546.78
993.303	2503.62
993.6	2475.37
993.897	2486.45
994.193	2479.21
994.49	2457.29
994.787	2450.06
995.083	2423.17
995.379	2388.82
995.676	2396.5
995.972	2386.56
996.268	2402.83
996.565	2384.98
996.861	2338.65
997.157	2331.87
997.453	2318.31
997.749	2329.61
998.044	2293.68
998.34	2286
998.636	2320.8
998.932	2259.33
999.227	2255.49
999.523	2246
999.818	2239.45
1000.114	2243.29
1000.409	2239.22
1000.704	2169.84
1001	2184.76
1001.295	2172.78
1001.59	2170.75
1001.885	2162.84
1002.18	2153.35
1002.475	2116.96
1002.77	2144.99
1003.065	2117.19
1003.359	2097.08
1003.654	2101.15
1003.949	2100.02
1004.243	2067.7
1004.538	2041.26
1004.832	2049.85
1005.127	2010.98
1005.421	1998.55
1005.715	2028.15
1006.009	2007.36
1006.304	1979.11
1006.598	1989.51
1006.892	1952.9
1007.186	1949.74
1007.48	1967.59
1007.773	1927.59
1008.067	1935.73
1008.361	1891.21
1008.655	1911.32
1008.948	1865.67
1009.242	1854.6
1009.535	1865.67
1009.829	1866.12
1010.122	1848.95
1010.415	1845.78
1010.708	1821.83
1011.001	1813.47
1011.295	1797.88
1011.588	1780.48
1011.881	1757.88
1012.173	1754.49
1012.466	1745
1012.759	1723.3
1013.052	1745.67
1013.344	1745.67
1013.637	1716.52
1013.93	1738.44
1014.222	1712.91
1014.514	1709.29
1014.807	1693.92
1015.099	1654.6
1015.391	1674.04
1015.683	1655.96
1015.976	1650.99
1016.268	1614.83
1016.56	1628.16
1016.851	1621.16
1017.143	1614.38
1017.435	1578
1017.727	1560.59
1018.018	1581.61
1018.31	1567.83
1018.602	1558.33
1018.893	1560.82
1019.185	1524.66
1019.476	1515.17
1019.767	1517.88
1020.058	1503.19
1020.35	1492.35
1020.641	1493.03
1020.932	1443.99
1021.223	1483.99
1021.514	1476.98
1021.804	1444.44
1022.095	1435.4
1022.386	1418.23
1022.677	1418.23
1022.967	1424.33
1023.258	1399.24
1023.548	1401.05
1023.839	1366.25
1024.129	1363.99
1024.419	1371.45
1024.709	1366.02
1025	1369.87
1025.29	1346.36
1025.58	1317.66
1025.87	1309.98
1026.16	1307.49
1026.449	1317.66
1026.739	1289.64
1027.029	1314.73
1027.319	1255.52
1027.608	1268.4
1027.898	1247.16
1028.187	1237.89
1028.477	1219.59
1028.766	1236.54
1029.055	1222.52
1029.344	1241.73
1029.634	1203.99
1029.923	1219.81
1030.212	1199.7
1030.501	1199.93
1030.79	1189.76
1031.078	1196.54
1031.367	1165.58
1031.656	1153.6
1031.945	1133.04
1032.233	1146.82
1032.522	1125.8
1032.81	1140.72
1033.099	1135.75
1033.387	1114.96
1033.675	1102.98
1033.963	1105.47
1034.251	1084.9
1034.54	1081.06
1034.828	1074.28
1035.116	1051.46
1035.403	1084.22
1035.691	1042.19
1035.979	1069.76
1036.267	1045.35
1036.554	1028.63
1036.842	1003.77
1037.129	1034.73
1037.417	1008.29
1037.704	988.41
1037.992	999.25
1038.279	984.56
1038.566	976.43
1038.853	976.43
1039.14	976.43
