Data from hue_150_FLMS001491_00064.txt Node
Date: Tue Feb 07 16:54:21 GMT 2017
User: dcchb
Spectrometer: FLMS00149
Trigger mode: 0
Integration Time (sec): 2.000000E-2
Scans to average: 10
Electric dark correction enabled: true
Nonlinearity correction enabled: false
Boxcar width: 0
XAxis mode: Wavelengths
Number of Pixels in Spectrum: 2048
>>>>>Begin Spectral Data<<<<<
341.393	-31.78
341.776	-31.78
342.16	-31.78
342.543	-45.56
342.927	-58.67
343.31	-70.87
343.693	-69.74
344.077	-61.38
344.46	-70.42
344.843	-59.57
345.226	-53.7
345.61	-31.55
345.993	-14.38
346.376	-0.82
346.759	18.39
347.142	37.82
347.525	49.12
347.908	57.03
348.291	55.9
348.674	101.33
349.057	112.85
349.44	113.08
349.823	122.79
350.206	164.37
350.588	219.29
350.971	196.46
351.354	215.67
351.737	214.77
352.119	243.92
352.502	264.48
352.884	287.08
353.267	290.47
353.65	302.45
354.032	303.35
354.414	304.71
354.797	331.83
355.179	323.92
355.562	316.69
355.944	342.9
356.326	353.75
356.709	326.4
357.091	359.62
357.473	337.93
357.855	338.83
358.238	327.99
358.62	349.45
359.002	341.77
359.384	347.65
359.766	331.6
360.148	352.62
360.53	330.92
360.912	335.9
361.294	333.18
361.676	343.13
362.057	342.22
362.439	335.9
362.821	329.34
363.203	333.18
363.584	346.06
363.966	323.01
364.348	332.96
364.729	337.7
365.111	309.46
365.493	343.58
365.874	320.98
366.256	343.35
366.637	330.47
367.019	329.34
367.4	320.3
367.781	317.59
368.163	335.22
368.544	328.66
368.925	298.38
369.306	311.26
369.688	311.04
370.069	307.42
370.45	305.16
370.831	311.94
371.212	332.05
371.593	314.65
371.974	317.14
372.355	342.67
372.736	321.66
373.117	309.46
373.498	317.36
373.879	321.66
374.26	305.16
374.641	319.17
375.021	302.45
375.402	340.19
375.783	313.75
376.163	351.04
376.544	319.17
376.925	318.95
377.305	337.48
377.686	334.54
378.066	342.22
378.447	323.69
378.827	350.13
379.208	342.22
379.588	335.22
379.968	339.51
380.349	362.34
380.729	330.7
381.109	355.1
381.489	355.78
381.87	348.1
382.25	347.19
382.63	335.67
383.01	361.66
383.39	364.59
383.77	367.76
384.15	364.37
384.53	342.9
384.91	366.85
385.29	349.23
385.67	356.69
386.049	377.93
386.429	353.3
386.809	369.11
387.189	380.87
387.568	378.83
387.948	374.09
388.328	361.88
388.707	349.68
389.087	366.18
389.466	373.18
389.846	389.91
390.225	378.15
390.605	382.22
390.984	346.06
391.363	379.28
391.743	359.17
392.122	371.6
392.501	387.87
392.881	392.39
393.26	393.75
393.639	410.24
394.018	386.29
394.397	385.84
394.776	379.74
395.155	385.84
395.534	417.47
395.913	384.93
396.292	407.31
396.671	414.54
397.05	407.98
397.429	408.89
397.808	400.98
398.186	414.09
398.565	395.78
398.944	397.36
399.323	425.38
399.701	427.87
400.08	415.89
400.458	432.84
400.837	427.64
401.215	431.49
401.594	427.19
401.972	428.77
402.351	426.51
402.729	431.49
403.107	407.08
403.486	422.67
403.864	423.58
404.242	426.06
404.62	428.77
404.999	449.56
405.377	442.11
405.755	444.14
406.133	455.67
406.511	477.59
406.889	430.36
407.267	447.53
407.645	447.53
408.023	485.5
408.401	466.51
408.779	471.26
409.156	478.49
409.534	453.63
409.912	464.03
410.29	489.79
410.667	496.79
411.045	489.34
411.422	507.19
411.8	488.43
412.178	510.13
412.555	476
412.933	508.77
413.31	501.99
413.687	522.33
414.065	506.29
414.442	520.98
414.819	548.09
415.197	538.6
415.574	513.52
415.951	531.82
416.328	542.44
416.705	544.25
417.082	538.6
417.46	549
417.837	567.53
418.214	571.82
418.591	578.6
418.967	567.53
419.344	576.34
419.721	574.31
420.098	562.56
420.475	569.11
420.852	587.19
421.228	606.17
421.605	584.93
421.982	554.87
422.358	620.86
422.735	610.24
423.111	594.42
423.488	596.91
423.864	652.05
424.241	632.84
424.617	630.35
424.994	634.19
425.37	617.92
425.746	622.22
426.123	627.64
426.499	653.4
426.875	632.16
427.251	640.97
427.627	673.51
428.003	684.13
428.379	661.76
428.756	663.12
429.132	693.63
429.507	696.34
429.883	716
430.259	709.9
430.635	704.02
431.011	709.67
431.387	718.03
431.763	734.08
432.138	770.91
432.514	710.57
432.89	774.3
433.265	744.7
433.641	782.44
434.016	776.56
434.392	815.2
434.767	807.07
435.143	800.52
435.518	805.71
435.894	783.12
436.269	813.62
436.644	817.24
437.02	838.48
437.395	836.67
437.77	864.02
438.145	848.42
438.52	844.36
438.895	861.98
439.271	890
439.646	915.31
440.021	907.41
440.395	876.22
440.77	893.39
441.145	907.63
441.52	917.57
441.895	917.57
442.27	950.57
442.645	933.39
443.019	930.91
443.394	949.21
443.769	986.27
444.143	952.83
444.518	973.17
444.892	989.21
445.267	979.72
445.641	990.34
446.016	985.6
446.39	997.57
446.764	995.76
447.139	1004.58
447.513	1025.14
447.887	1018.36
448.262	1018.59
448.636	1021.75
449.01	1040.28
449.384	1025.82
449.758	1038.02
450.132	1088.19
450.506	1073.5
450.88	1095.65
451.254	1086.38
451.628	1097.46
452.002	1105.14
452.376	1128.42
452.75	1139.49
453.123	1137.46
453.497	1127.06
453.871	1173.84
454.244	1183.33
454.618	1188.08
454.992	1199.15
455.365	1210.45
455.739	1269.2
456.112	1244.35
456.486	1259.26
456.859	1268.98
457.232	1277.11
457.606	1299.49
457.979	1312.14
458.352	1337.45
458.725	1319.15
459.099	1352.14
459.472	1386.26
459.845	1393.95
460.218	1451.8
460.591	1402.53
460.964	1429.65
461.337	1450.67
461.71	1491.57
462.083	1527.28
462.456	1501.29
462.829	1493.38
463.201	1552.13
463.574	1558.46
463.947	1609.76
464.32	1620.83
464.692	1646.6
465.065	1656.76
465.438	1671.68
465.81	1695.41
466.183	1709.64
466.555	1765.69
466.928	1791
467.3	1760.72
467.672	1832.8
468.045	1852.47
468.417	1873.26
468.789	1916.42
469.161	1932.24
469.534	1982.18
469.906	2005.46
470.278	2039.81
470.65	2071.44
471.022	2103.53
471.394	2175.85
471.766	2198.67
472.138	2237.54
472.51	2298.33
472.882	2343.98
473.253	2370.64
473.625	2412.9
473.997	2471.88
474.369	2518.89
474.74	2523.86
475.112	2566.12
475.484	2642.73
475.855	2751.88
476.227	2796.4
476.598	2872.33
476.97	2922.49
477.341	3004.53
477.713	3047.69
478.084	3123.17
478.455	3211.3
478.827	3264.41
479.198	3398.41
479.569	3458.98
479.94	3520.22
480.311	3647.67
480.682	3750.95
481.053	3801.79
481.424	3943.71
481.795	4022.8
482.166	4136.93
482.537	4184.38
482.908	4336.02
483.279	4399.74
483.65	4530.59
484.021	4666.4
484.391	4798.83
484.762	4851.93
485.133	4955.66
485.503	5055.09
485.874	5230.23
486.244	5305.71
486.615	5502.99
486.985	5627.28
487.356	5748.18
487.726	5858.46
488.097	6004.9
488.467	6100.94
488.837	6292.35
489.207	6400.82
489.578	6596.52
489.948	6676.75
490.318	6798.32
490.688	6918.55
491.058	7020.92
491.428	7255.71
491.798	7353.11
492.168	7554.24
492.538	7714.68
492.908	7816.83
493.278	8016.15
493.648	8082.13
494.017	8200.55
494.387	8367.55
494.757	8455.46
495.126	8648.22
495.496	8737.93
495.866	8804.15
496.235	8984.93
496.605	9090.24
496.974	9234.64
497.344	9337.69
497.713	9477.58
498.082	9559.83
498.452	9654.29
498.821	9854.06
499.19	9876.21
499.559	10012.48
499.928	10122.98
500.298	10283.2
500.667	10396.42
501.036	10451.79
501.405	10578.34
501.774	10601.39
502.143	10698.11
502.512	10805.45
502.88	10953.02
503.249	10967.25
503.618	11109.62
503.987	11147.14
504.356	11321.82
504.724	11340.13
505.093	11407.47
505.462	11432.78
505.83	11567.24
506.199	11667.35
506.567	11819.21
506.936	11863.73
507.304	11941.47
507.672	12042.03
508.041	12054.91
508.409	12175.81
508.777	12288.8
509.145	12338.52
509.514	12418.29
509.882	12415.8
510.25	12477.95
510.618	12634.55
510.986	12595.46
511.354	12698.73
511.722	12745.06
512.09	12889.01
512.458	12885.4
512.826	12948.44
513.193	13035.67
513.561	13047.65
513.929	13112.28
514.297	13226.86
514.664	13244.03
515.032	13270.24
515.4	13361.32
515.767	13343.46
516.135	13496.68
516.502	13434.53
516.869	13576.22
517.237	13623.46
517.604	13583.68
517.972	13713.62
518.339	13727.41
518.706	13778.03
519.073	13698.03
519.44	13763.11
519.808	13957.01
520.175	13871.58
520.542	13972.6
520.909	13982.99
521.276	14000.39
521.643	14191.8
522.009	14166.72
522.376	14166.94
522.743	14291.01
523.11	14404.45
523.477	14373.72
523.843	14431.34
524.21	14501.4
524.577	14537.1
524.943	14533.04
525.31	14564.9
525.676	14758.11
526.043	14718.34
526.409	14695.74
526.776	14823.65
527.142	14778.23
527.508	14865.68
527.874	14918.11
528.241	14876.98
528.607	14869.98
528.973	15025
529.339	14916.3
529.705	14999.46
530.071	15154.26
530.437	15139.35
530.803	15095.06
531.169	15115.17
531.535	14946.81
531.901	15020.03
532.267	14992.01
532.632	15127.14
532.998	15085.34
533.364	15182.28
533.73	15019.35
534.095	15141.83
534.461	15007.83
534.826	15158.56
535.192	15118.11
535.557	15154.94
535.923	15105.22
536.288	15052.57
536.653	15072
537.019	15019.12
537.384	15077.2
537.749	15114.49
538.114	14963.76
538.479	15031.78
538.845	14918.34
539.21	14880.37
539.575	14996.3
539.94	14930.31
540.305	14933.7
540.67	14901.84
541.034	14898.9
541.399	14853.03
541.764	14794.05
542.129	14813.25
542.494	14729.19
542.858	14776.19
543.223	14631.34
543.587	14680.6
543.952	14675.41
544.316	14580.94
544.681	14590.21
545.045	14614.16
545.41	14564.45
545.774	14594.5
546.138	14508.86
546.503	14554.96
546.867	14390.21
547.231	14426.15
547.595	14469.08
547.959	14471.79
548.324	14384.79
548.688	14360.39
549.052	14347.96
549.416	14272.48
549.779	14308.18
550.143	14314.51
550.507	14261.86
550.871	14270.67
551.235	14214.17
551.599	14295.98
551.962	14261.86
552.326	14227.28
552.689	14234.74
553.053	14145.48
553.417	14141.86
553.78	14239.48
554.143	13992.94
554.507	14083.78
554.87	14060.73
555.234	14107.74
555.597	14041.3
555.96	13998.59
556.323	14046.04
556.686	13989.55
557.05	13969.89
557.413	14069.55
557.776	13961.98
558.139	14053.05
558.502	14066.38
558.865	14009.21
559.228	14122.2
559.59	14098.92
559.953	14008.08
560.316	14195.87
560.679	14166.72
561.041	14085.82
561.404	14138.92
561.767	14176.66
562.129	14088.98
562.492	14282.87
562.854	14133.27
563.217	14107.28
563.579	14228.86
563.941	14172.59
564.304	14207.39
564.666	14241.74
565.028	14201.07
565.39	14287.62
565.753	14320.16
566.115	14386.15
566.477	14390.67
566.839	14308.64
567.201	14442.19
567.563	14428.63
567.925	14432.02
568.287	14429.99
568.648	14450.78
569.01	14437.22
569.372	14545.24
569.734	14399.25
570.095	14503.66
570.457	14578.91
570.819	14543.88
571.18	14557.22
571.542	14612.81
571.903	14665.46
572.265	14653.94
572.626	14654.39
572.987	14654.61
573.349	14725.8
573.71	14726.25
574.071	14767.83
574.432	14722.41
574.794	14752.01
575.155	14794.72
575.516	14757.21
575.877	14833.59
576.238	14786.14
576.599	14862.97
576.96	14827.94
577.32	14791.11
577.681	14831.79
578.042	14814.61
578.403	14870.43
578.763	14834.5
579.124	14913.36
579.485	14869.75
579.845	14942.52
580.206	14915.4
580.566	14864.78
580.927	14904.1
581.287	14909.98
581.648	14794.72
582.008	14984.78
582.368	14807.15
582.728	14847.15
583.089	14795.85
583.449	14836.3
583.809	14889.86
584.169	14784.33
584.529	14807.83
584.889	14914.27
585.249	14842.63
585.609	14763.09
585.969	14799.47
586.329	14846.47
586.688	14811.9
587.048	14815.74
587.408	14716.31
587.768	14785.68
588.127	14691
588.487	14785.68
588.846	14849.41
589.206	14742.75
589.565	14767.15
589.925	14850.09
590.284	14752.47
590.643	14712.92
591.003	14801.5
591.362	14781.39
591.721	14733.48
592.08	14757.44
592.44	14802.86
592.799	14757.66
593.158	14670.89
593.517	14724.22
593.876	14735.06
594.235	14719.47
594.593	14752.69
594.952	14717.44
595.311	14752.24
595.67	14717.89
596.029	14707.49
596.387	14760.15
596.746	14692.58
597.104	14682.41
597.463	14680.83
597.822	14776.42
598.18	14710.88
598.538	14580.49
598.897	14639.47
599.255	14587.72
599.613	14762.86
599.972	14629.98
600.33	14710.88
600.688	14664.33
601.046	14736.19
601.404	14745.46
601.762	14707.49
602.12	14739.81
602.478	14686.25
602.836	14709.3
603.194	14654.84
603.552	14736.42
603.91	14656.42
604.268	14723.09
604.625	14685.8
604.983	14723.99
605.341	14647.61
605.698	14768.74
606.056	14750.88
606.413	14760.37
606.771	14748.17
607.128	14777.32
607.485	14716.76
607.843	14663.2
608.2	14803.54
608.557	14754.05
608.914	14738.23
609.272	14835.63
609.629	14809.41
609.986	14834.5
610.343	14755.85
610.7	14888.73
611.057	14822.29
611.414	14866.59
611.771	14839.92
612.127	14923.08
612.484	14845.34
612.841	14992.46
613.198	14830.43
613.554	14892.57
613.911	14883.08
614.267	14901.16
614.624	14947.26
614.98	14911.56
615.337	15008.73
615.693	14969.18
616.05	14933.03
616.406	15116.75
616.762	15045.56
617.118	14985.45
617.475	15015.06
617.831	15020.25
618.187	15081.5
618.543	15089.18
618.899	15017.99
619.255	15112.46
619.611	15082.63
619.967	15141.83
620.323	15184.32
620.678	15133.92
621.034	15075.39
621.39	15052.57
621.746	15065
622.101	15157.88
622.457	15093.47
622.812	15104.32
623.168	15118.78
623.523	15072.46
623.879	15055.73
624.234	14987.71
624.589	15086.69
624.945	15204.2
625.3	15125.56
625.655	15159.01
626.01	15166.47
626.365	15199.23
626.72	15111.55
627.075	15101.38
627.43	15111.78
627.785	15142.74
628.14	15224.54
628.495	15153.81
628.85	15152.23
629.205	15103.19
629.559	15102.74
629.914	15147.03
630.269	15092.34
630.623	15046.02
630.978	15050.76
631.332	15071.1
631.687	15156.07
632.041	15035.62
632.396	15028.16
632.75	15031.33
633.104	14950.65
633.459	14913.59
633.813	14898.9
634.167	14928.51
634.521	15008.5
634.875	14833.14
635.229	14889.86
635.583	14813.71
635.937	14814.84
636.291	14810.09
636.645	14752.69
636.999	14704.56
637.352	14790.66
637.706	14726.25
638.06	14782.07
638.413	14671.56
638.767	14662.75
639.121	14695.29
639.474	14601.96
639.828	14597.44
640.181	14578.68
640.534	14603.99
640.888	14541.62
641.241	14520.61
641.594	14497.78
641.947	14527.61
642.301	14453.49
642.654	14534.62
643.007	14554.96
643.36	14529.87
643.713	14529.19
644.066	14503.43
644.419	14431.8
644.771	14332.82
645.124	14279.03
645.477	14174.85
645.83	14157.68
646.182	14108.87
646.535	14035.65
646.888	14175.08
647.24	13940.96
647.593	14103.89
647.945	13973.05
648.298	13979.15
648.65	13957.46
649.002	13836.78
649.355	13950.45
649.707	13973.5
650.059	13981.41
650.411	14182.54
650.763	14158.58
651.115	14324.23
651.467	14304.79
651.819	14242.42
652.171	14260.05
652.523	14213.72
652.875	14156.32
653.227	14122.43
653.578	14314.51
653.93	14263.44
654.282	14132.14
654.633	14149.09
654.985	14184.8
655.337	14284.91
655.688	14248.75
656.039	14272.93
656.391	14186.83
656.742	14215.08
657.094	14158.58
657.445	14207.85
657.796	14289.88
658.147	14276.55
658.498	14208.3
658.849	14252.14
659.2	14209.2
659.551	14173.05
659.902	14241.07
660.253	14140.96
660.604	14239.94
660.955	14241.29
661.306	14222.54
661.656	14211.69
662.007	14289.65
662.358	14259.6
662.708	14284.45
663.059	14288.52
663.409	14139.15
663.76	14330.1
664.11	14300.27
664.461	14311.35
664.811	14308.41
665.161	14229.99
665.511	14254.4
665.862	14243.33
666.212	14334.62
666.562	14230.9
666.912	14277.68
667.262	14237.9
667.612	14288.75
667.962	14271.8
668.312	14202.65
668.662	14386.37
669.011	14247.62
669.361	14171.24
669.711	14238.35
670.06	14223.44
670.41	14156.55
670.76	14102.54
671.109	14317.22
671.459	14219.82
671.808	14162.42
672.157	14209.43
672.507	14033.16
672.856	14067.29
673.205	14144.8
673.554	14183.67
673.904	14082.2
674.253	14165.59
674.602	14178.69
674.951	13867.29
675.3	13805.37
675.649	14005.14
675.998	13992.49
676.346	14021.41
676.695	14058.25
677.044	13986.38
677.393	13999.04
677.741	14010.79
678.09	14000.39
678.438	13900.51
678.787	13965.14
679.135	13930.11
679.484	13888.76
679.832	13947.51
680.181	13790.91
680.529	13793.39
680.877	13882.66
681.225	13694.64
681.573	13841.98
681.922	13735.32
682.27	13678.82
682.618	13668.65
682.966	13706.84
683.314	13659.84
683.661	13630.01
684.009	13490.35
684.357	13602.66
684.705	13499.62
685.053	13505.04
685.4	13451.48
685.748	13443.35
686.095	13366.51
686.443	13398.15
686.79	13394.31
687.138	13338.49
687.485	13403.12
687.832	13285.61
688.18	13289.23
688.527	13231.15
688.874	13238.61
689.221	13186.86
689.568	13169.91
689.915	13080.87
690.262	13086.52
690.609	13060.53
690.956	12992.29
691.303	13038.61
691.65	12879.29
691.997	12862.8
692.344	12861.44
692.69	12689.69
693.037	12762.46
693.383	12647.66
693.73	12671.16
694.077	12540.77
694.423	12586.19
694.769	12612.63
695.116	12497.38
695.462	12470.94
695.808	12478.85
696.155	12494.45
696.501	12315.24
696.847	12366.09
697.193	12206.54
697.539	12295.81
697.885	12127.68
698.231	12196.83
698.577	12112.76
698.923	12070.28
699.269	12038.19
699.614	11954.8
699.96	12008.81
700.306	12017.62
700.651	11808.59
700.997	11804.07
701.342	11819.43
701.688	11705.77
702.033	11630.51
702.379	11691.3
702.724	11661.7
703.069	11634.58
703.415	11446.11
703.76	11585.09
704.105	11456.73
704.45	11466.22
704.795	11412.21
705.14	11340.8
705.485	11333.35
705.83	11340.13
706.175	11322.72
706.52	11296.06
706.865	11242.28
707.209	11229.39
707.554	11139.23
707.899	11160.7
708.243	11042.73
708.588	11075.5
708.932	11032.34
709.277	11054.03
709.621	11015.39
709.966	10930.19
710.31	10902.62
710.654	10928.16
710.998	10848.39
711.342	10852.45
711.687	10787.82
712.031	10759.8
712.375	10712.8
712.719	10800.93
713.063	10756.41
713.407	10719.58
713.75	10643.87
714.094	10642.74
714.438	10610.65
714.782	10630.54
715.125	10554.84
715.469	10589.86
715.812	10570.2
716.156	10476.19
716.499	10492.01
716.843	10524.55
717.186	10431.45
717.53	10449.08
717.873	10422.86
718.216	10394.39
718.559	10401.17
718.902	10313.94
719.246	10326.37
719.589	10290.89
719.932	10275.97
720.275	10268.29
720.617	10312.36
720.96	10239.82
721.303	10311.9
721.646	10220.16
721.989	10209.99
722.331	10283.43
722.674	10169.08
723.016	10165.69
723.359	10211.12
723.701	10160.72
724.044	10099.03
724.386	10076.2
724.729	10077.56
725.071	10075.75
725.413	10087.5
725.755	10049.99
726.097	10108.75
726.439	10004.79
726.782	10043.44
727.124	10019.26
727.465	10026.94
727.807	9994.62
728.149	9988.3
728.491	9954.17
728.833	9909.65
729.175	9912.59
729.516	10041.85
729.858	9956.89
730.199	10015.19
730.541	9974.06
730.882	10030.56
731.224	9965.7
731.565	9979.71
731.906	9904.68
732.248	9970.44
732.589	9938.58
732.93	9861.07
733.271	9875.98
733.612	9938.35
733.953	9866.04
734.294	9891.58
734.635	9830.79
734.976	9904.46
735.317	9803.67
735.658	9834.18
735.999	9937
736.339	9829.88
736.68	9904.23
737.021	9947.85
737.361	9791.69
737.702	9915.3
738.042	9910.78
738.383	9874.63
738.723	9894.74
739.063	9847.74
739.404	9897
739.744	9937.22
740.084	9809.54
740.424	9907.39
740.764	9919.37
741.104	9939.03
741.444	9853.38
741.784	9898.36
742.124	9944.68
742.464	9898.58
742.804	9947.62
743.143	10010.44
743.483	9965.92
743.823	9997.56
744.162	10042.76
744.502	10080.72
744.841	10027.62
745.181	10114.85
745.52	10103.77
745.86	10165.47
746.199	10246.37
746.538	10298.8
746.877	10341.73
747.216	10407.49
747.556	10377.89
747.895	10405.69
748.234	10424.9
748.573	10436.19
748.911	10609.75
749.25	10625.57
749.589	10679.8
749.928	10678.22
750.267	10803.42
750.605	10772.91
750.944	10793.47
751.283	10885.9
751.621	11034.14
751.96	11044.31
752.298	11236.17
752.636	11252.9
752.975	11343.97
753.313	11414.47
753.651	11555.49
753.989	11558.42
754.327	11646.78
754.666	11748.7
755.004	11866.44
755.342	12061.46
755.679	12143.27
756.017	12308.01
756.355	12398.18
756.693	12506.42
757.031	12642.46
757.368	12756.59
757.706	12898.95
758.044	12982.79
758.381	13174.43
758.719	13335.1
759.056	13512.05
759.394	13573.06
759.731	13614.64
760.068	13919.72
760.405	13991.13
760.743	14112.93
761.08	14336.66
761.417	14483.55
761.754	14667.72
762.091	14785.46
762.428	14920.6
762.765	15029.07
763.102	15184.32
763.438	15314.48
763.775	15386.8
764.112	15628.37
764.449	15813.91
764.785	15937.74
765.122	16045.09
765.458	16130.73
765.795	16309.49
766.131	16370.28
766.467	16571.85
766.804	16699.76
767.14	16807.1
767.476	16932.07
767.812	16998.06
768.148	17315.56
768.485	17233.76
768.821	17471.49
769.157	17534.31
769.492	17720.3
769.828	17783.57
770.164	17773.4
770.5	17926.17
770.836	18026.5
771.171	18049.55
771.507	18141.3
771.842	18176.33
772.178	18370.68
772.513	18352.14
772.849	18427.62
773.184	18466.72
773.519	18625.81
773.855	18647.28
774.19	18635.75
774.525	18677.33
774.86	18823.54
775.195	18872.36
775.53	18926.14
775.865	18865.8
776.2	18876.65
776.535	18772.02
776.87	18938.12
777.205	18993.71
777.539	19043.2
777.874	19158.23
778.209	19046.59
778.543	19155.74
778.878	19141.73
779.212	19102.63
779.547	19182.18
779.881	19296.98
780.215	19196.42
780.55	19246.81
780.884	19221.5
781.218	19233.48
781.552	19361.38
781.886	19311.67
782.22	19184.21
782.554	19180.37
782.888	19066.02
783.222	19089.53
783.556	19136.53
783.889	19134.5
784.223	19035.52
784.557	19057.21
784.89	19050.43
785.224	19004.78
785.557	18870.1
785.891	18922.53
786.224	18955.74
786.558	19027.83
786.891	18892.02
787.224	18831
787.557	18882.98
787.891	18811.34
788.224	18822.19
788.557	18929.76
788.89	18834.17
789.223	18845.92
789.556	18633.72
789.888	18711.23
790.221	18703.55
790.554	18600.05
790.887	18466.49
791.219	18403.89
791.552	18483.89
791.884	18287.74
792.217	18415.42
792.549	18386.49
792.882	18303.78
793.214	18169.55
793.546	18349.21
793.879	18123.45
794.211	18153.96
794.543	18165.48
794.875	18102.89
795.207	18201.41
795.539	18053.17
795.871	18004.36
796.203	17928.43
796.535	17863.34
796.867	17765.95
797.198	17850.46
797.53	17820.18
797.862	17814.53
798.193	17635.1
798.525	17729.79
798.856	17712.16
799.188	17528.89
799.519	17476.46
799.85	17448.44
800.182	17407.76
800.513	17496.57
800.844	17215.23
801.175	17426.52
801.506	17307.43
801.837	17233.3
802.168	17177.71
802.499	17123.25
802.83	17057.04
803.161	17063.59
803.491	17110.14
803.822	17111.5
804.153	16921.45
804.483	16841.9
804.814	16880.32
805.145	16843.26
805.475	16853.65
805.805	16685.3
806.136	16726.65
806.466	16670.38
806.796	16653.43
807.126	16615.47
807.457	16530.72
807.787	16648.01
808.117	16434
808.447	16446.88
808.777	16479.43
809.107	16392.42
809.436	16270.17
809.766	16439.65
810.096	16237.85
810.426	16230.39
810.755	16207.57
811.085	16158.08
811.414	16235.36
811.744	16072.66
812.073	16057.29
812.403	16122.15
812.732	15933.23
813.061	15940.23
813.39	15849.16
813.719	15867.01
814.049	15967.35
814.378	15846.45
814.707	15874.02
815.036	15874.02
815.365	15679.9
815.693	15599.45
816.022	15640.8
816.351	15574.82
816.68	15446.46
817.008	15604.19
817.337	15373.24
817.665	15460.02
817.994	15500.92
818.322	15418.21
818.651	15432.45
818.979	15283.52
819.307	15400.36
819.636	15424.09
819.964	15317.42
820.292	15369.62
820.62	15277.42
820.948	15238.78
821.276	15361.49
821.604	15145.9
821.932	15321.04
822.259	15229.74
822.587	15236.52
822.915	15279.46
823.243	15280.59
823.57	15246.46
823.898	15314.71
824.225	15182.51
824.553	15151.78
824.88	15260.25
825.207	15281.26
825.535	15151.55
825.862	15316.74
826.189	15220.02
826.516	15250.98
826.843	15293.92
827.17	15312.22
827.497	15333.47
827.824	15302.51
828.151	15303.19
828.478	15227.71
828.805	15252.57
829.131	15279.68
829.458	15200.36
829.785	15195.84
830.111	15229.97
830.438	15309.29
830.764	15202.4
831.09	15251.21
831.417	15162.17
831.743	15177.31
832.069	15308.83
832.395	15048.5
832.722	15249.63
833.048	15167.6
833.374	15049.41
833.7	15057.77
834.026	15101.38
834.351	15142.29
834.677	15138.9
835.003	15035.17
835.329	15085.79
835.654	15090.76
835.98	14949.97
836.306	14987.71
836.631	14949.52
836.956	15022.74
837.282	15050.54
837.607	14964.21
837.932	14878.56
838.258	14900.48
838.583	14860.94
838.908	14814.38
839.233	14813.93
839.558	14790.88
839.883	14762.63
840.208	14719.47
840.533	14705.69
840.858	14690.09
841.182	14718.12
841.507	14652.13
841.832	14574.84
842.156	14592.92
842.481	14538.91
842.805	14559.02
843.13	14503.43
843.454	14491.91
843.778	14368.75
844.103	14365.81
844.427	14332.36
844.751	14400.38
845.075	14322.42
845.399	14252.37
845.723	14216.89
846.047	14192.25
846.371	14121.07
846.695	14068.87
847.019	13964.24
847.343	13957.68
847.666	13882.88
847.99	13873.84
848.313	13789.1
848.637	13705.26
848.96	13678.82
849.284	13635.88
849.607	13459.39
849.931	13462.78
850.254	13425.72
850.577	13357.02
850.9	13296.91
851.223	13230.25
851.546	13165.84
851.869	13123.81
852.192	13210.58
852.515	13071.83
852.838	12964.26
853.161	13020.76
853.483	12954.09
853.806	12849.24
854.129	12916.58
854.451	12799.97
854.774	12758.85
855.096	12709.81
855.419	12630.71
855.741	12570.6
856.063	12574.44
856.385	12561.56
856.708	12472.53
857.03	12530.38
857.352	12491.06
857.674	12413.54
857.996	12376.71
858.318	12338.97
858.64	12352.3
858.961	12329.25
859.283	12235.92
859.605	12192.31
859.926	12172.42
860.248	12148.92
860.57	12093.55
860.891	12094
861.212	12060.11
861.534	12026.44
861.855	11924.74
862.176	11912.31
862.498	11911.41
862.819	11916.38
863.14	11895.14
863.461	11869.15
863.782	11877.74
864.103	11837.29
864.424	11762.94
864.745	11813.79
865.065	11808.59
865.386	11708.03
865.707	11637.07
866.027	11655.37
866.348	11668.48
866.668	11646.78
866.989	11599.78
867.309	11575.6
867.63	11586.9
867.95	11555.26
868.27	11514.13
868.59	11493.34
868.91	11589.61
869.23	11428.94
869.55	11457.18
869.87	11463.51
870.19	11455.15
870.51	11437.3
870.83	11443.17
871.15	11357.53
871.469	11316.85
871.789	11352.78
872.109	11297.64
872.428	11256.96
872.748	11277.98
873.067	11236.85
873.386	11242.95
873.706	11222.16
874.025	11182.62
874.344	11168.38
874.663	11168.38
874.982	11162.5
875.301	11138.77
875.62	11113.46
875.939	11117.08
876.258	11109.62
876.577	11064.2
876.896	11106.23
877.214	11007.25
877.533	10994.6
877.852	11128.83
878.17	10993.24
878.489	11001.6
878.807	10966.58
879.125	10957.76
879.444	10988.04
879.762	10958.67
880.08	10846.13
880.398	10871.66
880.716	10830.76
881.034	10797.54
881.352	10877.54
881.67	10814.26
881.988	10756.19
882.306	10746.24
882.624	10704.21
882.941	10661.27
883.259	10578.11
883.577	10598.22
883.894	10560.71
884.212	10611.11
884.529	10533.59
884.846	10588.28
885.164	10525.91
885.481	10363.43
885.798	10479.36
886.115	10379.25
886.432	10437.78
886.75	10362.98
887.067	10427.38
887.383	10358.46
887.7	10284.56
888.017	10320.94
888.334	10309.42
888.651	10241.4
888.967	10247.27
889.284	10143.77
889.6	10183.09
889.917	10086.6
890.233	10079.37
890.55	10045.24
890.866	10033.49
891.182	10036.88
891.498	9941.52
891.815	9987.62
892.131	9910.11
892.447	9882.08
892.763	9861.97
893.079	9814.29
893.395	9873.05
893.71	9765.03
894.026	9755.08
894.342	9685.48
894.657	9636.67
894.973	9670.11
895.289	9647.06
895.604	9627.18
895.92	9469.67
896.235	9490.23
896.55	9496.78
896.865	9477.58
897.181	9428.31
897.496	9437.12
897.811	9385.37
898.126	9360.29
898.441	9276.9
898.756	9309.44
899.071	9241.65
899.386	9200.97
899.7	9198.94
900.015	9090.92
900.33	9038.94
900.644	8986.74
900.959	9081.43
901.273	9038.04
901.588	8944.93
901.902	8921.43
902.216	8896.57
902.531	8861.77
902.845	8884.6
903.159	8754.66
903.473	8776.13
903.787	8700.65
904.101	8634.89
904.415	8645.28
904.729	8587.88
905.042	8558.73
905.356	8538.84
905.67	8487.55
905.984	8529.35
906.297	8439.18
906.611	8444.83
906.924	8396.93
907.237	8353.99
907.551	8391.05
907.864	8330.26
908.177	8226.31
908.491	8224.28
908.804	8228.57
909.117	8183.37
909.43	8072.64
909.743	8035.81
910.056	8093.43
910.368	8029.93
910.681	8026.99
910.994	7979.54
911.307	7972.53
911.619	7866.32
911.932	7878.07
912.244	7810.73
912.557	7816.83
912.869	7739.54
913.181	7678.3
913.494	7704.97
913.806	7617.51
914.118	7625.87
914.43	7607.57
914.742	7635.36
915.054	7497.51
915.366	7483.28
915.678	7471.53
915.99	7449.38
916.302	7450.96
916.613	7378.65
916.925	7383.39
917.236	7315.37
917.548	7312.21
917.859	7321.02
918.171	7240.57
918.482	7221.36
918.794	7133.68
919.105	7167.81
919.416	7116.06
919.727	7092.1
920.038	7077.41
920.349	6965.1
920.66	7042.16
920.971	6977.53
921.282	6974.59
921.593	6909.51
921.903	6863.18
922.214	6864.54
922.525	6800.58
922.835	6799.23
923.146	6759.46
923.456	6744.54
923.767	6705.9
924.077	6690.08
924.387	6693.69
924.697	6666.58
925.008	6613.92
925.318	6594.71
925.628	6542.06
925.938	6549.97
926.248	6516.98
926.558	6437.88
926.867	6443.31
927.177	6416.64
927.487	6407.83
927.796	6348.39
928.106	6382.74
928.416	6320.6
928.725	6300.48
929.034	6304.33
929.344	6242.63
929.653	6242.41
929.962	6128.51
930.271	6183.88
930.581	6144.33
930.89	6137.1
931.199	6146.14
931.508	6104.33
931.817	6029.08
932.125	5999.93
932.434	6030.43
932.743	5940.49
933.051	5923.54
933.36	5920.61
933.669	5863.89
933.977	5911.79
934.286	5880.38
934.594	5845.81
934.902	5775.75
935.21	5771.68
935.519	5743.66
935.827	5714.51
936.135	5763.32
936.443	5667.51
936.751	5653.72
937.059	5666.83
937.367	5581.41
937.674	5613.04
937.982	5568.98
938.29	5530.56
938.597	5531.24
938.905	5448.76
939.213	5433.39
939.52	5401.07
939.827	5445.82
940.135	5413.73
940.442	5356.55
940.749	5409.66
941.056	5370.79
941.363	5332.37
941.67	5270.45
941.977	5271.13
942.284	5204.02
942.591	5178.93
942.898	5183.9
943.205	5194.3
943.511	5141.42
943.818	5135.99
944.125	5103.91
944.431	5065.71
944.738	5039.27
945.044	5012.61
945.35	4972.16
945.657	5019.16
945.963	4949.11
946.269	4957.69
946.575	4912.72
946.881	4909.11
947.187	4886.06
947.493	4831.6
947.799	4820.3
948.105	4832.27
948.41	4814.87
948.716	4786.63
949.022	4765.16
949.327	4752.73
949.633	4736.23
949.938	4684.03
950.244	4673.41
950.549	4685.16
950.854	4606.52
951.16	4622.11
951.465	4604.26
951.77	4582.56
952.075	4589.34
952.38	4588.66
952.685	4530.81
952.99	4503.02
953.294	4469.8
953.599	4501.89
953.904	4437.26
954.209	4391.61
954.513	4400.2
954.818	4392.29
955.122	4345.73
955.426	4363.59
955.731	4342.8
956.035	4351.38
956.339	4270.93
956.643	4296.69
956.948	4242.91
957.252	4260.76
957.556	4223.93
957.86	4240.65
958.163	4178.96
958.467	4151.84
958.771	4215.79
959.075	4152.52
959.378	4120.43
959.682	4139.18
959.985	4071.84
960.289	4042.46
960.592	4045.85
960.896	4026.19
961.199	4007.21
961.502	4023.71
961.805	3944.61
962.108	3942.58
962.411	3932.41
962.714	3938.29
963.017	3899.64
963.32	3940.77
963.623	3853.09
963.926	3909.36
964.228	3818.29
964.531	3811.96
964.833	3763.6
965.136	3789.59
965.438	3748.69
965.741	3742.13
966.043	3701.46
966.345	3718.63
966.648	3678.86
966.95	3674.79
967.252	3635.02
967.554	3662.81
967.856	3621.23
968.158	3646.99
968.46	3629.59
968.761	3591.85
969.063	3509.15
969.365	3557.96
969.666	3543.49
969.968	3528.35
970.269	3503.04
970.571	3509.82
970.872	3494.68
971.174	3430.5
971.475	3470.5
971.776	3455.59
972.077	3408.81
972.378	3403.61
972.679	3446.77
972.98	3405.87
973.281	3392.99
973.582	3349.15
973.883	3347.79
974.183	3309.15
974.484	3315.48
974.785	3291.07
975.085	3309.6
975.386	3296.72
975.686	3247.01
975.986	3211.98
976.287	3223.05
976.587	3221.02
976.887	3225.54
977.187	3212.43
977.487	3189.83
977.787	3113.45
978.087	3161.58
978.387	3091.75
978.687	3098.76
978.987	3084.3
979.286	3134.24
979.586	3089.04
979.885	3067.35
980.185	3021.47
980.484	3020.34
980.784	2986.9
981.083	3037.07
981.382	2987.35
981.682	2979.44
981.981	2981.02
982.28	2966.11
982.579	2949.61
982.878	2943.74
983.177	2931.76
983.475	2896.73
983.774	2900.57
984.073	2866
984.372	2874.13
984.67	2851.76
984.969	2831.2
985.267	2835.04
985.566	2798.2
985.864	2814.47
986.162	2806.11
986.461	2752.78
986.759	2746
987.057	2680.24
987.355	2756.17
987.653	2708.94
987.951	2710.97
988.249	2665.55
988.547	2695.16
988.844	2677.08
989.142	2674.82
989.44	2659.22
989.737	2663.97
990.035	2638.21
990.332	2595.04
990.63	2598.66
990.927	2588.94
991.224	2542.84
991.521	2575.38
991.819	2540.81
992.116	2530.41
992.413	2534.71
992.71	2516.63
993.006	2510.53
993.303	2475.73
993.6	2520.92
993.897	2447.25
994.193	2472.79
994.49	2437.08
994.787	2440.92
995.083	2411.55
995.379	2424.88
995.676	2386.24
995.972	2357.76
996.268	2378.33
996.565	2351.21
996.861	2376.07
997.157	2355.96
997.453	2303.3
997.749	2317.99
998.044	2268.27
998.34	2285.9
998.636	2266.92
998.932	2269.4
999.227	2269.18
999.523	2229.18
999.818	2237.99
1000.114	2219.91
1000.409	2216.52
1000.704	2212.23
1001	2195.51
1001.295	2193.02
1001.59	2188.73
1001.885	2148.28
1002.18	2122.51
1002.475	2106.7
1002.77	2101.27
1003.065	2092.46
1003.359	2097.88
1003.654	2088.39
1003.949	2085
1004.243	2061.73
1004.538	2041.61
1004.832	2044.1
1005.127	2020.82
1005.421	2016.98
1005.715	1962.52
1006.009	2006.13
1006.304	2001.16
1006.598	1970.2
1006.892	1962.52
1007.186	1933.14
1007.48	1934.05
1007.773	1902.41
1008.067	1911.9
1008.361	1918
1008.655	1911.45
1008.948	1918
1009.242	1898.34
1009.535	1873.26
1009.829	1844.33
1010.122	1842.97
1010.415	1838
1010.708	1820.15
1011.001	1798.23
1011.295	1773.82
1011.588	1779.25
1011.881	1778.34
1012.173	1759.81
1012.466	1762.07
1012.759	1733.37
1013.052	1762.3
1013.344	1733.15
1013.637	1731.79
1013.93	1698.57
1014.222	1697.67
1014.514	1673.71
1014.807	1679.81
1015.099	1653.83
1015.391	1665.8
1015.683	1631.91
1015.976	1625.13
1016.268	1645.24
1016.56	1616.09
1016.851	1620.38
1017.143	1596.65
1017.435	1586.94
1017.727	1598.69
1018.018	1579.03
1018.31	1566.15
1018.602	1529.99
1018.893	1542.19
1019.185	1512.14
1019.476	1495.86
1019.767	1527.28
1020.058	1492.7
1020.35	1463.1
1020.641	1487.73
1020.932	1457
1021.223	1464.68
1021.514	1434.17
1021.804	1448.86
1022.095	1421.06
1022.386	1428.52
1022.677	1405.92
1022.967	1416.54
1023.258	1383.33
1023.548	1370.22
1023.839	1364.34
1024.129	1371.8
1024.419	1356.89
1024.709	1343.78
1025	1338.81
1025.29	1319.15
1025.58	1334.96
1025.87	1289.77
1026.16	1300.39
1026.449	1303.1
1026.739	1305.59
1027.029	1285.25
1027.319	1271.46
1027.608	1283.89
1027.898	1239.6
1028.187	1259.26
1028.477	1239.6
1028.766	1213.84
1029.055	1192.37
1029.344	1217.23
1029.634	1203.67
1029.923	1225.82
1030.212	1206.61
1030.501	1174.97
1030.79	1145.59
1031.078	1135.65
1031.367	1165.25
1031.656	1177.68
1031.945	1127.51
1032.233	1151.01
1032.522	1146.5
1032.81	1122.09
1033.099	1111.02
1033.387	1086.38
1033.675	1103.33
1033.963	1102.43
1034.251	1111.47
1034.54	1070.34
1034.828	1073.95
1035.116	1056.33
1035.403	1063.11
1035.691	1052.49
1035.979	1029.89
1036.267	1033.28
1036.554	1033.96
1036.842	1019.49
1037.129	1031.24
1037.417	1014.75
1037.704	1024.46
1037.992	995.31
1038.279	1008.87
1038.566	993.28
1038.853	993.28
1039.14	993.28
