Data from hue_26_FLMS001491_00068.txt Node
Date: Tue Feb 07 17:14:21 GMT 2017
User: dcchb
Spectrometer: FLMS00149
Trigger mode: 0
Integration Time (sec): 2.000000E-2
Scans to average: 10
Electric dark correction enabled: true
Nonlinearity correction enabled: false
Boxcar width: 0
XAxis mode: Wavelengths
Number of Pixels in Spectrum: 2048
>>>>>Begin Spectral Data<<<<<
341.393	-21.58
341.776	-21.58
342.16	-21.58
342.543	-53.22
342.927	-75.37
343.31	-58.87
343.693	-92.77
344.077	-66.78
344.46	-47.34
344.843	-50.96
345.226	-25.88
345.61	-41.47
345.993	-10.51
346.376	-2.6
346.759	2.37
347.142	21.81
347.525	33.78
347.908	59.77
348.291	76.04
348.674	101.13
349.057	102.26
349.44	129.15
349.823	156.04
350.206	158.53
350.588	198.98
350.971	211.41
351.354	233.78
351.737	247.34
352.119	243.27
352.502	281.91
352.884	268.58
353.267	285.76
353.65	286.66
354.032	294.57
354.414	319.2
354.797	303.38
355.179	306.32
355.562	337.28
355.944	333.66
356.326	347
356.709	332.53
357.091	353.78
357.473	344.28
357.855	349.48
358.238	356.26
358.62	360.78
359.002	359.43
359.384	352.65
359.766	361.69
360.148	362.82
360.53	364.4
360.912	339.99
361.294	340.22
361.676	328.01
362.057	330.95
362.439	320.1
362.821	333.44
363.203	327.11
363.584	321.69
363.966	331.18
364.348	324.85
364.729	346.09
365.111	322.82
365.493	338.64
365.874	331.63
366.256	331.86
366.637	315.13
367.019	319.2
367.4	336.15
367.781	339.31
368.163	312.2
368.544	311.07
368.925	332.53
369.306	315.81
369.688	319.88
370.069	328.69
370.45	305.42
370.831	328.24
371.212	331.18
371.593	329.14
371.974	316.49
372.355	318.07
372.736	347.9
373.117	323.95
373.498	296.15
373.879	323.72
374.26	335.25
374.641	314.46
375.021	312.65
375.402	338.64
375.783	354.45
376.163	354
376.544	342.25
376.925	324.62
377.305	332.08
377.686	340.67
378.066	334.57
378.447	331.4
378.827	364.62
379.208	345.87
379.588	337.73
379.968	336.83
380.349	351.06
380.729	353.78
381.109	363.95
381.489	339.99
381.87	359.88
382.25	329.6
382.63	360.1
383.01	375.24
383.39	356.26
383.77	344.06
384.15	377.05
384.53	355.81
384.91	356.04
385.29	375.92
385.67	387.9
386.049	382.93
386.429	344.28
386.809	389.26
387.189	365.08
387.568	380.44
387.948	384.51
388.328	375.24
388.707	387.9
389.087	372.53
389.466	361.01
389.846	410.5
390.225	392.87
390.605	393.55
390.984	393.32
391.363	412.08
391.743	384.51
392.122	377.96
392.501	369.59
392.881	395.36
393.26	389.26
393.639	399.2
394.018	396.71
394.397	409.14
394.776	412.08
395.155	404.4
395.534	413.21
395.913	420.21
396.292	429.03
396.671	402.81
397.05	417.28
397.429	419.09
397.808	418.18
398.186	422.93
398.565	407.56
398.944	418.86
399.323	429.71
399.701	424.96
400.08	434.23
400.458	419.76
400.837	431.97
401.215	426.99
401.594	422.93
401.972	450.27
402.351	455.92
402.729	427.9
403.107	433.1
403.486	443.72
403.864	450.04
404.242	455.02
404.62	450.72
404.999	450.5
405.377	450.72
405.755	462.7
406.133	465.86
406.511	460.21
406.889	476.94
407.267	482.36
407.645	473.09
408.023	475.58
408.401	476.26
408.779	488.01
409.156	478.74
409.534	492.53
409.912	486.2
410.29	504.51
410.667	481.23
411.045	511.06
411.422	512.42
411.8	519.2
412.178	512.87
412.555	502.7
412.933	511.29
413.31	536.37
413.687	506.31
414.065	534.79
414.442	554
414.819	556.26
415.197	549.25
415.574	564.17
415.951	543.38
416.328	564.84
416.705	576.82
417.082	558.52
417.46	565.3
417.837	569.82
418.214	588.8
418.591	568.01
418.967	569.36
419.344	585.63
419.721	588.57
420.098	588.8
420.475	570.72
420.852	599.42
421.228	601.68
421.605	624.96
421.982	600.55
422.358	623.6
422.735	609.59
423.111	618.4
423.488	638.06
423.864	661.34
424.241	653.2
424.617	653.66
424.994	624.96
425.37	651.85
425.746	647.1
426.123	678.51
426.499	650.72
426.875	651.62
427.251	654.79
427.627	678.74
428.003	706.08
428.379	694.11
428.756	677.84
429.132	709.92
429.507	694.33
429.883	714.44
430.259	711.96
430.635	709.25
431.011	716.25
431.387	727.78
431.763	744.27
432.138	753.54
432.514	771.84
432.89	761.67
433.265	777.49
433.641	773.65
434.016	762.58
434.392	786.98
434.767	796.48
435.143	781.34
435.518	816.81
435.894	816.14
436.269	826.76
436.644	859.98
437.02	826.98
437.395	838.06
437.77	829.02
438.145	883.03
438.52	880.09
438.895	890.71
439.271	892.52
439.646	873.08
440.021	887.77
440.395	895
440.77	907.21
441.145	906.76
441.52	933.2
441.895	932.74
442.27	924.61
442.645	893.87
443.019	900.88
443.394	929.35
443.769	945.4
444.143	942.01
444.518	975.45
444.892	950.6
445.267	965.74
445.641	949.01
446.016	970.48
446.39	980.2
446.764	973.87
447.139	993.99
447.513	1001.44
447.887	988.56
448.262	997.15
448.636	996.24
449.01	1015.23
449.384	1023.14
449.758	1017.04
450.132	1064.49
450.506	1071.27
450.88	1062.01
451.254	1027.88
451.628	1081.21
452.002	1069.24
452.376	1082.8
452.75	1108.11
453.123	1078.95
453.497	1124.6
453.871	1125.06
454.244	1146.52
454.618	1159.63
454.992	1163.7
455.365	1154.66
455.739	1175.45
456.112	1194.21
456.486	1217.93
456.859	1221.78
457.232	1234.2
457.606	1246.18
457.979	1254.09
458.352	1279.4
458.725	1304.03
459.099	1309.01
459.472	1316.01
459.845	1345.39
460.218	1334.54
460.591	1327.99
460.964	1379.96
461.337	1383.58
461.71	1409.34
462.083	1399.85
462.456	1425.61
462.829	1422
463.201	1461.77
463.574	1470.58
463.947	1469.68
464.32	1501.99
464.692	1512.16
465.065	1549
465.438	1563.91
465.81	1554.87
466.183	1583.35
466.555	1627.87
466.928	1617.47
467.3	1630.35
467.672	1636
468.045	1692.72
468.417	1718.49
468.789	1717.58
469.161	1722.1
469.534	1770.91
469.906	1811.36
470.278	1798.71
470.65	1813.17
471.022	1858.37
471.394	1911.7
471.766	1927.29
472.138	1931.81
472.51	1980.85
472.882	2025.6
473.253	2038.48
473.625	2019.72
473.997	2099.94
474.369	2115.99
474.74	2148.31
475.112	2248.19
475.484	2212.26
475.855	2290.9
476.227	2287.06
476.598	2338.81
476.97	2419.94
477.341	2431.46
477.713	2519.59
478.084	2484.57
478.455	2590.33
478.827	2586.71
479.198	2664.68
479.569	2708.97
479.94	2754.84
480.311	2827.16
480.682	2877.1
481.053	2918
481.424	2985.57
481.795	3025.8
482.166	3067.15
482.537	3132.69
482.908	3178.33
483.279	3254.49
483.65	3301.04
484.021	3362.74
484.391	3428.95
484.762	3479.12
485.133	3481.6
485.503	3538.55
485.874	3645.44
486.244	3673.01
486.615	3753.69
486.985	3796.62
487.356	3922.72
487.726	3961.14
488.097	4000.23
488.467	4046.56
488.837	4123.17
489.207	4214.01
489.578	4273.45
489.948	4287.68
490.318	4339.66
490.688	4435.7
491.058	4456.04
491.428	4548.24
491.798	4609.26
492.168	4686.77
492.538	4700.33
492.908	4811.96
493.278	4867.56
493.648	4886.76
494.017	4957.04
494.387	5020.09
494.757	5067.78
495.126	5095.12
495.496	5146.64
495.866	5183.93
496.235	5263.7
496.605	5257.6
496.974	5313.87
497.344	5389.12
497.713	5463.7
498.082	5429.8
498.452	5570.81
498.821	5576.69
499.19	5594.99
499.559	5626.18
499.928	5672.96
500.298	5724.26
500.667	5811.03
501.036	5806.51
501.405	5897.13
501.774	5896
502.143	5962.67
502.512	6019.39
502.88	6032.04
503.249	6037.92
503.618	6083.34
503.987	6123.12
504.356	6134.87
504.724	6179.84
505.093	6178.03
505.462	6237.69
505.83	6314.75
506.199	6331.25
506.567	6470.23
506.936	6414.63
507.304	6445.14
507.672	6481.3
508.041	6559.26
508.409	6571.92
508.777	6630.22
509.145	6640.39
509.514	6656.66
509.882	6715.64
510.25	6713.16
510.618	6792.25
510.986	6844
511.354	6887.16
511.722	6977.56
512.09	6943.21
512.458	6937.78
512.826	7016.43
513.193	7070.66
513.561	7081.51
513.929	7107.27
514.297	7169.42
514.664	7232.01
515.032	7201.96
515.4	7235.4
515.767	7331.9
516.135	7352.46
516.502	7320.15
516.869	7396.53
517.237	7388.85
517.604	7429.07
517.972	7484.89
518.339	7528.28
518.706	7568.95
519.073	7645.34
519.44	7620.03
519.808	7650.76
520.175	7700.25
520.542	7789.96
520.909	7745.22
521.276	7735.73
521.643	7910.64
522.009	7976.63
522.376	8002.61
522.743	8053.91
523.11	8096.62
523.477	8169.16
523.843	8196.73
524.21	8252.33
524.577	8344.75
524.943	8391.98
525.31	8311.31
525.676	8459.78
526.043	8491.19
526.409	8421.13
526.776	8587.46
527.142	8643.73
527.508	8694.35
527.874	8692.99
528.241	8768.7
528.607	8803.27
528.973	8875.59
529.339	8860.9
529.705	8968.24
530.071	8982.7
530.437	9034.45
530.803	9071.74
531.169	9164.17
531.535	9113.09
531.901	9145.86
532.267	9238.29
532.632	9300.66
532.998	9317.61
533.364	9403.71
533.73	9391.5
534.095	9457.94
534.461	9491.61
534.826	9643.25
535.192	9603.48
535.557	9661.33
535.923	9684.38
536.288	9739.97
536.653	9792.17
537.019	9746.52
537.384	9785.39
537.749	9841.44
538.114	9864.03
538.479	9848.67
538.845	9994.65
539.21	10016.57
539.575	10042.11
539.94	9984.26
540.305	10111.71
540.67	10084.14
541.034	10194.42
541.399	10237.36
541.764	10296.11
542.129	10339.73
542.494	10357.35
542.858	10359.39
543.223	10401.87
543.587	10475.32
543.952	10496.33
544.316	10499.95
544.681	10462.21
545.045	10542.21
545.41	10706.27
545.774	10704.69
546.138	10695.2
546.503	10762.54
546.867	10781.07
547.231	10891.13
547.595	10937.9
547.959	10945.59
548.324	10949.43
548.688	10902.2
549.052	11013.83
549.416	11049.99
549.779	11123.21
550.143	11180.38
550.507	11197.11
550.871	11188.29
551.235	11268.52
551.599	11349.65
551.962	11383.99
552.326	11336.09
552.689	11445.91
553.053	11391
553.417	11426.71
553.78	11637.32
554.143	11607.49
554.507	11629.64
554.87	11603.2
555.234	11751.22
555.597	11693.59
555.96	11771.33
556.323	11792.12
556.686	11847.71
557.05	11906.92
557.413	11942.85
557.776	11945.79
558.139	12053.58
558.502	12035.95
558.865	12069.63
559.228	12138.78
559.59	12287.25
559.953	12231.43
560.316	12388.49
560.679	12400.01
561.041	12360.47
561.404	12571.99
561.767	12490.63
562.129	12498.54
562.492	12661.25
562.854	12613.57
563.217	12607.47
563.579	12667.8
563.941	12687.01
564.304	12801.58
564.666	12814.01
565.028	12832.09
565.39	12911.41
565.753	12925.65
566.115	13040.67
566.477	13120.9
566.839	13177.85
567.201	13238.18
567.563	13237.96
567.925	13259.65
568.287	13442.02
568.648	13373.32
569.01	13446.09
569.372	13509.59
569.734	13506.2
570.095	13634.1
570.457	13705.52
570.819	13713.42
571.18	13792.97
571.542	13863.7
571.903	13871.84
572.265	13896.24
572.626	13973.53
572.987	14052.85
573.349	14123.36
573.71	14216.91
574.071	14260.08
574.432	14366.29
574.794	14464.14
575.155	14432.5
575.516	14601.09
575.877	14603.34
576.238	14683.34
576.599	14806.5
576.96	14888.76
577.32	14947.97
577.681	15040.4
578.042	15222.54
578.403	15244.46
578.763	15365.13
579.124	15521.51
579.485	15609.87
579.845	15702.75
580.206	15812.58
580.566	15911.79
580.927	16060.71
581.287	16265.45
581.648	16380.7
582.008	16599.45
582.368	16692.56
582.728	16883.06
583.089	17038.76
583.449	17163.5
583.809	17317.85
584.169	17551.52
584.529	17694.11
584.889	18069.24
585.249	18182.23
585.609	18298.84
585.969	18653.18
586.329	18832.84
586.688	19090.23
587.048	19343.33
587.408	19465.36
587.768	19783.32
588.127	20005.24
588.487	20315.74
588.846	20666.01
589.206	20720.7
589.565	21090.63
589.925	21432.09
590.284	21704.63
590.643	22105.75
591.003	22330.15
591.362	22657.82
591.721	22993.18
592.08	23256.45
592.44	23573.96
592.799	23883.33
593.158	24143.21
593.517	24506.36
593.876	24898.67
594.235	25167.81
594.593	25479.44
594.952	25804.86
595.311	26144.51
595.67	26410.72
596.029	26900.2
596.387	27309.68
596.746	27650.23
597.104	27713.51
597.463	28264.68
597.822	28629.64
598.18	28757.55
598.538	29063.08
598.897	29620.8
599.255	29724.3
599.613	30451.29
599.972	30604.51
600.33	30947.77
600.688	31208.33
601.046	31632.95
601.404	32079.04
601.762	32275.42
602.12	32728.97
602.478	32979.36
602.836	33427.26
603.194	33589.96
603.552	33888.94
603.91	33951.76
604.268	34533.22
604.625	34572.31
604.983	35168.45
605.341	35160.09
605.698	35694.77
606.056	35998.49
606.413	36223.79
606.771	36687.74
607.128	36879.37
607.485	36905.36
607.843	37262.86
608.2	37621.5
608.557	37922.05
608.914	38036.18
609.272	38601.81
609.629	38807.45
609.986	39200.66
610.343	39126.54
610.7	39623.48
611.057	39811.72
611.414	39892.4
611.771	40200.19
612.127	40466.62
612.484	40558.37
612.841	41005.36
613.198	41098.92
613.554	41358.57
613.911	41637.44
614.267	41872.01
614.624	41959.91
614.98	42247.36
615.337	42411.88
615.693	42633.57
616.05	42773.45
616.406	43036.27
616.762	43056.38
617.118	43172.09
617.475	43308.58
617.831	43584.5
618.187	43866.3
618.543	43908.11
618.899	44232.4
619.255	44290.47
619.611	44364.37
619.967	44674.42
620.323	44770.46
620.678	44650.69
621.034	44766.62
621.39	44888.88
621.746	45007.29
622.101	45569.08
622.457	45358.47
622.812	45522.53
623.168	45708.29
623.523	45765.24
623.879	45981.05
624.234	45776.99
624.589	46035.96
624.945	46134.27
625.3	46168.84
625.655	46255.17
626.01	46384.66
626.365	46558.89
626.72	46546.23
627.075	46595.05
627.43	46606.8
627.785	46654.93
628.14	46837.53
628.495	46826
628.85	46768.37
629.205	46736.29
629.559	47003.85
629.914	46856.28
630.269	47115.03
630.623	46951.87
630.978	46781.93
631.332	47122.72
631.687	47186.22
632.041	46934.7
632.396	47234.8
632.75	46964.98
633.104	47229.83
633.459	47043.62
633.813	47095.6
634.167	47125.43
634.521	47121.36
634.875	47131.53
635.229	47066.22
635.583	47061.47
635.937	47125.2
636.291	47107.35
636.645	47107.8
636.999	46992.1
637.352	47170.85
637.706	46988.71
638.06	47109.16
638.413	47156.61
638.767	47150.96
639.121	47137.18
639.474	46949.84
639.828	47104.19
640.181	47108.25
640.534	47157.29
640.888	46911.2
641.241	46831.2
641.594	46800.01
641.947	46992.55
642.301	46903.06
642.654	47045.66
643.007	47015.6
643.36	46884.76
643.713	46886.34
644.066	47089.72
644.419	46687.7
644.771	46618.1
645.124	46216.3
645.477	46173.36
645.83	45853.14
646.182	45749.42
646.535	45499.71
646.888	45864.9
647.24	45497.67
647.593	45857.89
647.945	45543.1
648.298	45609.99
648.65	45481.18
649.002	45332.93
649.355	45572.7
649.707	45599.59
650.059	45731.11
650.411	46240.71
650.763	46183.98
651.115	46553.01
651.467	46411.55
651.819	46352.11
652.171	46462.39
652.523	46329.74
652.875	46287.71
653.227	46135.62
653.578	46526.8
653.93	46381.94
654.282	46165.68
654.633	45978.34
654.985	46274.38
655.337	46216.75
655.688	46346.69
656.039	46355.96
656.391	46033.25
656.742	46205.68
657.094	46207.26
657.445	46360.7
657.796	46157.77
658.147	46186.24
658.498	46072.35
658.849	46228.05
659.2	46233.25
659.551	46033.93
659.902	46064.89
660.253	46037.09
660.604	46158.45
660.955	45958
661.306	46012.69
661.656	45938.79
662.007	46058.56
662.358	46003.42
662.708	46003.2
663.059	46073.25
663.409	45739.25
663.76	46110.99
664.11	45955.29
664.461	46039.81
664.811	46007.26
665.161	45931.56
665.511	46050.65
665.862	45919.81
666.212	46100.82
666.562	45983.08
666.912	45879.81
667.262	45822.86
667.612	45860.83
667.962	45878.91
668.312	45921.17
668.662	46092.91
669.011	45911.9
669.361	45922.3
669.711	45805.91
670.06	45776.08
670.41	45742.64
670.76	45682.98
671.109	45856.99
671.459	45621.51
671.808	45790.32
672.157	45744.67
672.507	45518.01
672.856	45611.57
673.205	45651.57
673.554	45704.67
673.904	45534.73
674.253	45745.35
674.602	45602.98
674.951	44979.04
675.3	44786.73
675.649	45522.31
675.998	45457
676.346	45413.16
676.695	45511.01
677.044	45216.55
677.393	45435.53
677.741	45484.57
678.09	45272.14
678.438	45186.5
678.787	45260.62
679.135	45326.15
679.484	45162.77
679.832	45219.71
680.181	44889.1
680.529	45132.94
680.877	44930.23
681.225	44948.31
681.573	45172.94
681.922	44886.16
682.27	44654.08
682.618	44939.5
682.966	44675.77
683.314	44700.86
683.661	44650.69
684.009	44395.1
684.357	44369.34
684.705	44299.74
685.053	44459.96
685.4	44323.02
685.748	44167.77
686.095	44160.53
686.443	43967.32
686.79	43916.25
687.138	44041.44
687.485	43967.32
687.832	43827.89
688.18	43821.11
688.527	43542.47
688.874	43567.1
689.221	43458.86
689.568	43422.25
689.915	43422.47
690.262	43352.19
690.609	43228.81
690.956	42976.61
691.303	43050.05
691.65	42780.68
691.997	42865.43
692.344	42558.99
692.69	42579.78
693.037	42597.41
693.383	42330.07
693.73	42476.74
694.077	42220.25
694.423	42115.62
694.769	42069.52
695.116	42025.9
695.462	41949.74
695.808	41780.71
696.155	41965.34
696.501	41674.72
696.847	41511.79
697.193	41322.64
697.539	41401.74
697.885	41278.35
698.231	41113.83
698.577	41136.21
698.923	40996.55
699.269	40755.2
699.614	40723.34
699.96	40633.62
700.306	40546.84
700.651	40485.6
700.997	40338.94
701.342	40237.02
701.688	40121.09
702.033	40071.38
702.379	40010.13
702.724	39969.91
703.069	40183.69
703.415	39579.41
703.76	39680.2
704.105	39656.02
704.45	39396.37
704.795	39347.1
705.14	39101.23
705.485	39183.26
705.83	39027.56
706.175	38948.24
706.52	38937.39
706.865	38762.48
707.209	38755.7
707.554	38622.6
707.899	38672.32
708.243	38433.68
708.588	38426.45
708.932	38057.42
709.277	38129.28
709.621	38216.74
709.966	37865.56
710.31	37953.47
710.654	37590.09
710.998	37693.36
711.342	37831.21
711.687	37734.71
712.031	37600.25
712.375	37360.26
712.719	37389.86
713.063	37348.74
713.407	37438.45
713.75	37195.97
714.094	37136.99
714.438	36962.3
714.782	37050.66
715.125	36950.55
715.469	36952.81
715.812	36778.81
716.156	36435.99
716.499	36639.15
716.843	36657.23
717.186	36467.18
717.53	36637.79
717.873	36530
718.216	36535.2
718.559	36295.88
718.902	36032.61
719.246	36182.44
719.589	36130.01
719.932	35931.15
720.275	35952.39
720.617	35878.49
720.96	35801.43
721.303	35807.31
721.646	35702.68
721.989	35485.73
722.331	35697.25
722.674	35564.83
723.016	35521.66
723.359	35324.38
723.701	35565.28
724.044	35219.75
724.386	35159.64
724.729	35229.7
725.071	35197.61
725.413	35022.47
725.755	35109.7
726.097	34951.51
726.439	34744.06
726.782	34708.8
727.124	35017.27
727.465	34829.93
727.807	34629.03
728.149	34728.24
728.491	34415.25
728.833	34681.46
729.175	34504.29
729.516	34492.77
729.858	34435.82
730.199	34399.43
730.541	34302.94
730.882	34423.39
731.224	34313.56
731.565	33982.72
731.906	34150.18
732.248	34183.62
732.589	34008.94
732.93	33891.65
733.271	33932.78
733.612	33970.75
733.953	33877.87
734.294	33645.1
734.635	33658.44
734.976	33660.47
735.317	33644.88
735.658	33684.2
735.999	33609.62
736.339	33460.25
736.68	33632.22
737.021	33420.7
737.361	33243.08
737.702	33365.34
738.042	33278.11
738.383	33301.38
738.723	33379.35
739.063	33124.21
739.404	33190.65
739.744	33017.1
740.084	32996.08
740.424	33076.53
740.764	32963.54
741.104	32957.89
741.444	32820.04
741.784	32684.9
742.124	32755.64
742.464	32770.55
742.804	32583.66
743.143	32438.81
743.483	32654.62
743.823	32193.16
744.162	32356.55
744.502	32412.14
744.841	32335.99
745.181	32382.54
745.52	32090.12
745.86	32307.29
746.199	32169.44
746.538	32122.21
746.877	32213.73
747.216	32135.77
747.556	32159.27
747.895	32088.31
748.234	32047.18
748.573	31910.23
748.911	31880.86
749.25	31832.04
749.589	31672.95
749.928	31763.8
750.267	31851.25
750.605	31687.19
750.944	31672.95
751.283	31448.55
751.621	31576.46
751.96	31299.18
752.298	31439.51
752.636	31440.19
752.975	31172.17
753.313	31188.45
753.651	31225.05
753.989	30997.49
754.327	30999.75
754.666	30844.5
755.004	30982.12
755.342	31006.3
755.679	30893.54
756.017	30700.55
756.355	30752.52
756.693	30419.88
757.031	30532.87
757.368	30343.04
757.706	30400.67
758.044	30337.85
758.381	30311.41
758.719	30150.05
759.056	30208.81
759.394	30145.99
759.731	30013.56
760.068	29977.18
760.405	29812.89
760.743	29826.67
761.08	29840.01
761.417	29567.25
761.754	29615.61
762.091	29521.82
762.428	29460.36
762.765	29195.28
763.102	29480.92
763.438	29199.57
763.775	29056.52
764.112	29074.38
764.449	29062.63
764.785	28894.49
765.122	28661.51
765.458	28676.87
765.795	28726.36
766.131	28600.94
766.467	28541.28
766.804	28216.09
767.14	28155.98
767.476	28187.39
767.812	27948.08
768.148	28117.79
768.485	27950.11
768.821	27718.71
769.157	27699.05
769.492	27602.78
769.828	27578.14
770.164	27288.21
770.5	27302.45
770.836	27394.42
771.171	27243.92
771.507	27136.57
771.842	26796.92
772.178	26828.79
772.513	26754.66
772.849	26698.17
773.184	26537.49
773.519	26558.74
773.855	26423.6
774.19	26280.78
774.525	26244.39
774.86	26147.9
775.195	26169.59
775.53	26202.36
775.865	25928.7
776.2	25705.2
776.535	25650.06
776.87	25577.29
777.205	25575.26
777.539	25362.38
777.874	25428.14
778.209	25232.44
778.543	25182.05
778.878	25051.88
779.212	24985.44
779.547	24836.52
779.881	24962.85
780.215	24794.94
780.55	24714.04
780.884	24606.02
781.218	24534.61
781.552	24438.57
781.886	24388.62
782.22	24269.53
782.554	24160.16
782.888	23995.64
783.222	23922.87
783.556	23801.97
783.889	23737.57
784.223	23587.74
784.557	23518.14
784.89	23550.23
785.224	23425.26
785.557	23314.75
785.891	23214.19
786.224	23182.78
786.558	23179.62
786.891	22952.28
787.224	22863.92
787.557	22774.2
787.891	22707.54
788.224	22806.29
788.557	22750.02
788.89	22611.5
789.223	22565.62
789.556	22391.39
789.888	22358.62
790.221	22239.08
790.554	22087.89
790.887	22099.87
791.219	21928.35
791.552	21965.64
791.884	21911.18
792.217	21801.57
792.549	21711.18
792.882	21548.25
793.214	21536.27
793.546	21496.95
793.879	21390.96
794.211	21270.51
794.543	21350.96
794.875	21280.68
795.207	21307.12
795.539	21134.02
795.871	21116.39
796.203	20813.58
796.535	20704.2
796.867	20748.49
797.198	20753.92
797.53	20787.36
797.862	20588.95
798.193	20695.16
798.525	20440.25
798.856	20450.2
799.188	20329.52
799.519	20117.1
799.85	20098.79
800.182	20156.65
800.513	20154.39
800.844	19894.96
801.175	19997.55
801.506	20028.29
801.837	19845.24
802.168	19802.3
802.499	19638.69
802.83	19595.76
803.161	19605.02
803.491	19539.26
803.822	19506.72
804.153	19436.66
804.483	19272.6
804.814	19287.06
805.145	19192.6
805.475	19236.9
805.805	19049.33
806.136	19172.26
806.466	19036.67
806.796	19029.44
807.126	18883.68
807.457	18831.71
807.787	18828.09
808.117	18748.77
808.447	18635.33
808.777	18704.48
809.107	18622.22
809.436	18602.79
809.766	18428.33
810.096	18522.34
810.426	18429.01
810.755	18426.52
811.085	18427.43
811.414	18260.42
811.744	18122.35
812.073	18063.59
812.403	18115.12
812.732	17969.58
813.061	18029.7
813.39	17859.76
813.719	17862.92
814.049	17928.46
814.378	17871.28
814.707	17748.35
815.036	17813.88
815.365	17641.68
815.693	17511.06
816.022	17516.04
816.351	17464.29
816.68	17398.3
817.008	17429.49
817.337	17328.24
817.665	17271.52
817.994	17327.34
818.322	17265.42
818.651	17222.03
818.979	17046.67
819.307	17176.38
819.636	17166.67
819.964	16932.32
820.292	17050.74
820.62	17009.16
820.948	17039.44
821.276	17012.32
821.604	16891.42
821.932	16962.38
822.259	17001.25
822.587	17015.03
822.915	16949.05
823.243	17024.98
823.57	16797.41
823.898	16916.28
824.225	16861.59
824.553	16856.39
824.88	16871.99
825.207	16973.9
825.535	16835.6
825.862	16866.56
826.189	16821.14
826.516	16956.28
826.843	16975.49
827.17	16998.76
827.497	16912.89
827.824	16857.07
828.151	16945.88
828.478	16827.92
828.805	16920.8
829.131	16848.03
829.458	16735.49
829.785	16713.8
830.111	16885.09
830.438	16933
830.764	16872.44
831.09	16906.34
831.417	16832.21
831.743	16752.67
832.069	16795.83
832.395	16660.01
832.722	16795.83
833.048	16706.79
833.374	16768.71
833.7	16666.57
834.026	16697.75
834.351	16655.27
834.677	16675.61
835.003	16677.41
835.329	16666.12
835.654	16597.87
835.98	16547.25
836.306	16606.68
836.631	16534.82
836.956	16515.61
837.282	16477.19
837.607	16484.43
837.932	16441.49
838.258	16386.35
838.583	16369.17
838.908	16241.27
839.233	16322.4
839.558	16338.89
839.883	16296.18
840.208	16238.1
840.533	16132.57
840.858	16173.47
841.182	16225.45
841.507	16118.33
841.832	16023.42
842.156	16008.05
842.481	15975.96
842.805	15965.57
843.13	16026.58
843.454	15982.97
843.778	15894.38
844.103	15851.67
844.427	15744.33
844.751	15717.21
845.075	15735.52
845.399	15675.86
845.723	15612.13
846.047	15515.41
846.371	15480.38
846.695	15455.75
847.019	15340.73
847.343	15313.16
847.666	15168.98
847.99	15163.56
848.313	15111.81
848.637	15014.41
848.96	15037.23
849.284	14972.6
849.607	14920.62
849.931	14846.95
850.254	14719.05
850.577	14715.21
850.9	14562.44
851.223	14554.53
851.546	14414.42
851.869	14521.99
852.192	14479.05
852.515	14356.8
852.838	14231.6
853.161	14267.08
853.483	14084.71
853.806	14075.9
854.129	14166.07
854.451	14034.32
854.774	14004.26
855.096	13896.92
855.419	13876.36
855.741	13880.2
856.063	13812.18
856.385	13765.4
856.708	13790.48
857.03	13789.81
857.352	13717.04
857.674	13685.18
857.996	13546.88
858.318	13498.29
858.64	13493.09
858.961	13382.81
859.283	13380.78
859.605	13290.61
859.926	13388.69
860.248	13244.74
860.57	13317.5
860.891	13210.61
861.212	13181.24
861.534	13212.87
861.855	13116.15
862.176	13051.07
862.498	13170.84
862.819	13142.37
863.14	13120.67
863.461	13068.7
863.782	12926.33
864.103	13011.75
864.424	12939.66
864.745	12952.77
865.065	12806.1
865.386	12793.22
865.707	12777.86
866.027	12829.83
866.348	12774.69
866.668	12734.47
866.989	12780.12
867.309	12691.08
867.63	12658.31
867.95	12688.37
868.27	12519.11
868.59	12577.41
868.91	12516.17
869.23	12564.53
869.55	12526.56
869.87	12604.75
870.19	12513.46
870.51	12582.61
870.83	12546.45
871.15	12457.86
871.469	12397.08
871.789	12433.68
872.109	12432.55
872.428	12298.77
872.748	12451.09
873.067	12337.42
873.386	12383.74
873.706	12265.78
874.025	12327.7
874.344	12235.05
874.663	12237.98
874.982	12208.38
875.301	12254.71
875.62	12158.21
875.939	12166.35
876.258	12109.17
876.577	12142.62
876.896	12074.15
877.214	12041.15
877.533	12056.52
877.852	11963.87
878.17	12007.71
878.489	11953.25
878.807	11975.84
879.125	11973.36
879.444	11839.8
879.762	11908.05
880.08	11872.34
880.398	11818.79
880.716	11769.52
881.034	11799.58
881.352	11836.86
881.67	11682.97
881.988	11749.63
882.306	11721.39
882.624	11649.98
882.941	11624.89
883.259	11586.02
883.577	11523.43
883.894	11569.75
884.212	11488.62
884.529	11589.41
884.846	11510.54
885.164	11426.48
885.481	11426.25
885.798	11376.54
886.115	11417.89
886.432	11413.82
886.75	11327.95
887.067	11245.47
887.383	11245.02
887.7	11207.95
888.017	11190.1
888.334	11217.22
888.651	11106.71
888.967	11068.3
889.284	11051.57
889.6	11101.52
889.917	11007.51
890.233	10988.3
890.55	10969.54
890.866	10976.32
891.182	10884.8
891.498	10833.5
891.815	10825.82
892.131	10784.91
892.447	10813.16
892.763	10785.82
893.079	10782.88
893.395	10727.06
893.71	10702.66
894.026	10657.01
894.342	10577.91
894.657	10516.45
894.973	10507.41
895.289	10493.4
895.604	10438.48
895.92	10447.3
896.235	10418.82
896.55	10397.58
896.865	10311.25
897.181	10279.84
897.496	10270.8
897.811	10301.09
898.126	10189
898.441	10165.95
898.756	10132.5
899.071	10102.67
899.386	10057.02
899.7	9963.24
900.015	9909
900.33	9852.51
900.644	9927.76
900.959	9870.14
901.273	9775
901.588	9821.1
901.902	9761.44
902.216	9796.69
902.531	9749.46
902.845	9697.71
903.159	9663.81
903.473	9576.81
903.787	9581.56
904.101	9473.31
904.415	9481.45
904.729	9422.24
905.042	9402.58
905.356	9410.26
905.67	9306.31
905.984	9301.79
906.297	9281
906.611	9188.12
906.924	9234.67
907.237	9144.73
907.551	9145.64
907.864	9106.54
908.177	9065.19
908.491	9050.04
908.804	8993.32
909.117	8976.37
909.43	8884.85
909.743	8859.32
910.056	8815.02
910.368	8832.65
910.681	8824.06
910.994	8722.6
911.307	8771.63
911.619	8679.21
911.932	8629.94
912.244	8623.16
912.557	8586.55
912.869	8493.22
913.181	8525.76
913.494	8414.81
913.806	8389.95
914.118	8372.77
914.43	8396.5
914.742	8286.9
915.054	8333.68
915.366	8243.96
915.678	8236.28
915.99	8124.19
916.302	8114.25
916.613	8088.94
916.925	8040.35
917.236	8024.31
917.548	7998.32
917.859	7992.67
918.171	7976.17
918.482	7907.25
918.794	7897.08
919.105	7885.56
919.416	7820.7
919.727	7764.43
920.038	7768.95
920.349	7696.86
920.66	7746.8
920.971	7622.51
921.282	7638.78
921.593	7576.64
921.903	7530.31
922.214	7539.35
922.525	7461.39
922.835	7466.13
923.146	7394.04
923.456	7393.14
923.767	7357.21
924.077	7330.77
924.387	7281.28
924.697	7229.3
925.008	7196.76
925.318	7186.82
925.628	7203.54
925.938	7135.74
926.248	7060.72
926.558	7043.09
926.867	7099.36
927.177	7013.94
927.487	6951.12
927.796	6950.21
928.106	6933.72
928.416	6872.25
928.725	6844.45
929.034	6817.79
929.344	6896.88
929.653	6843.1
929.962	6714.51
930.271	6709.77
930.581	6644.68
930.89	6640.16
931.199	6566.72
931.508	6598.58
931.817	6581.18
932.125	6547.06
932.434	6550.68
932.743	6440.85
933.051	6391.13
933.36	6408.31
933.669	6358.36
933.977	6290.57
934.286	6347.97
934.594	6338.7
934.902	6239.95
935.21	6294.18
935.519	6219.38
935.827	6185.71
936.135	6170.8
936.443	6112.72
936.751	6091.7
937.059	6134.87
937.367	6033.63
937.674	6084.02
937.982	6081.31
938.29	6005.6
938.597	5975.1
938.905	5900.52
939.213	5926.96
939.52	5919.05
939.827	5897.59
940.135	5872.73
940.442	5769
940.749	5837.7
941.056	5839.51
941.363	5787.08
941.67	5717.25
941.977	5663.47
942.284	5716.35
942.591	5621.43
942.898	5624.15
943.205	5626.86
943.511	5567.65
943.818	5554.32
944.125	5511.15
944.431	5489.01
944.738	5472.96
945.044	5430.7
945.35	5414.43
945.657	5439.29
945.963	5356.13
946.269	5309.13
946.575	5327.43
946.881	5293.31
947.187	5342.57
947.493	5240.2
947.799	5240.2
948.105	5245.4
948.41	5182.35
948.716	5184.61
949.022	5166.53
949.327	5160.43
949.633	5088.57
949.938	5130.15
950.244	5105.74
950.549	5059.41
950.854	5078.17
951.16	4985.52
951.465	5004.5
951.77	4928.12
952.075	4896.93
952.38	4912.07
952.685	4897.39
952.99	4849.93
953.294	4891.28
953.599	4802.92
953.904	4814.22
954.209	4749.59
954.513	4752.08
954.818	4725.64
955.122	4701.23
955.426	4682.25
955.731	4707.79
956.035	4615.13
956.339	4606.09
956.643	4592.08
956.948	4585.98
957.252	4538.75
957.556	4543.95
957.86	4525.87
958.163	4551.86
958.467	4532.2
958.771	4472.99
959.075	4457.4
959.378	4453.56
959.682	4429.15
959.985	4378.98
960.289	4405.65
960.592	4380.34
960.896	4299.21
961.199	4332.2
961.502	4328.81
961.805	4281.36
962.108	4280.68
962.411	4221.92
962.714	4220.57
963.017	4232.77
963.32	4211.3
963.623	4155.94
963.926	4179.66
964.228	4195.26
964.531	4116.39
964.833	4134.47
965.136	4046.33
965.438	4078.42
965.741	4046.33
966.043	4008.82
966.345	4028.26
966.648	3989.16
966.95	3998.43
967.252	3939.67
967.554	3968.37
967.856	3963.85
968.158	3864.19
968.46	3902.38
968.761	3865.55
969.063	3835.04
969.365	3846.79
969.666	3851.09
969.968	3799.34
970.269	3791.43
970.571	3770.86
970.872	3703.52
971.174	3760.01
971.475	3706.91
971.776	3730.18
972.077	3665.78
972.378	3662.16
972.679	3655.84
972.98	3648.6
973.281	3649.28
973.582	3602.05
973.883	3602.96
974.183	3601.15
974.484	3595.5
974.785	3525.22
975.085	3550.53
975.386	3543.52
975.686	3492.45
975.986	3462.85
976.287	3487.25
976.587	3443.41
976.887	3434.15
977.187	3445.45
977.487	3457.42
977.787	3372.23
978.087	3376.3
978.387	3324.09
978.687	3340.14
978.987	3319.12
979.286	3296.3
979.586	3332.68
979.885	3292.68
980.185	3277.54
980.484	3272.12
980.784	3219.01
981.083	3205.9
981.382	3175.85
981.682	3194.38
981.981	3173.59
982.28	3145.34
982.579	3159.58
982.878	3147.6
983.177	3107.38
983.475	3148.5
983.774	3114.16
984.073	3075.96
984.372	3066.02
984.67	3062.41
984.969	3066.93
985.267	3056.08
985.566	3023.31
985.864	2962.29
986.162	3013.82
986.461	2976.76
986.759	2965.46
987.057	2952.58
987.355	2956.19
987.653	2928.4
987.951	2903.31
988.249	2888.17
988.547	2883.65
988.844	2880.49
989.142	2852.24
989.44	2866.93
989.737	2814.28
990.035	2792.36
990.332	2805.69
990.63	2786.48
990.927	2804.11
991.224	2796.42
991.521	2698.57
991.819	2722.53
992.116	2726.37
992.413	2686.14
992.71	2708.29
993.006	2701.74
993.303	2657.44
993.6	2675.3
993.897	2643.21
994.193	2670.55
994.49	2637.11
994.787	2597.11
995.083	2609.99
995.379	2598.91
995.676	2553.72
995.972	2571.12
996.268	2564.57
996.565	2538.35
996.861	2509.88
997.157	2502.19
997.453	2486.6
997.749	2455.19
998.044	2462.42
998.34	2467.84
998.636	2485.25
998.932	2418.58
999.227	2421.74
999.523	2414.51
999.818	2399.6
1000.114	2394.85
1000.409	2362.54
1000.704	2382.2
1001	2347.62
1001.295	2313.05
1001.59	2338.36
1001.885	2318.24
1002.18	2291.35
1002.475	2275.53
1002.77	2266.95
1003.065	2250.68
1003.359	2276.21
1003.654	2200.06
1003.949	2207.96
1004.243	2209.09
1004.538	2176.55
1004.832	2157.8
1005.127	2160.51
1005.421	2179.72
1005.715	2158.93
1006.009	2125.71
1006.304	2153.05
1006.598	2088.19
1006.892	2115.54
1007.186	2103.11
1007.48	2082.77
1007.773	2078.25
1008.067	2042.77
1008.361	2003
1008.655	2015.65
1008.948	2045.48
1009.242	2013.62
1009.535	1984.02
1009.829	1975.2
1010.122	1972.72
1010.415	1962.55
1010.708	1934.53
1011.001	1951.02
1011.295	1939.27
1011.588	1946.28
1011.881	1885.49
1012.173	1887.97
1012.466	1906.73
1012.759	1864.24
1013.052	1866.28
1013.344	1851.36
1013.637	1817.01
1013.93	1824.92
1014.222	1825.6
1014.514	1803.46
1014.807	1778.6
1015.099	1791.25
1015.391	1769.78
1015.683	1767.75
1015.976	1740.41
1016.268	1737.47
1016.56	1706.28
1016.851	1723.46
1017.143	1698.83
1017.435	1697.92
1017.727	1671.48
1018.018	1668.09
1018.31	1672.16
1018.602	1661.09
1018.893	1671.03
1019.185	1634.19
1019.476	1608.43
1019.767	1612.27
1020.058	1605.95
1020.35	1586.06
1020.641	1537.02
1020.932	1569.11
1021.223	1568.43
1021.514	1554.65
1021.804	1515.55
1022.095	1536.57
1022.386	1527.3
1022.677	1517.81
1022.967	1518.04
1023.258	1491.6
1023.548	1478.94
1023.839	1462.67
1024.129	1462.9
1024.419	1448.44
1024.709	1416.35
1025	1428.55
1025.29	1429.68
1025.58	1427.19
1025.87	1393.52
1026.16	1370.7
1026.449	1389
1026.739	1365.5
1027.029	1374.99
1027.319	1356.46
1027.608	1371.15
1027.898	1329.12
1028.187	1300.42
1028.477	1337.93
1028.766	1315.78
1029.055	1319.63
1029.344	1279.4
1029.634	1280.76
1029.923	1282.57
1030.212	1254.77
1030.501	1280.98
1030.79	1231.72
1031.078	1215.45
1031.367	1222
1031.656	1219.52
1031.945	1227.88
1032.233	1216.35
1032.522	1180.19
1032.81	1205.96
1033.099	1169.12
1033.387	1184.26
1033.675	1171.83
1033.963	1158.95
1034.251	1187.43
1034.54	1154.21
1034.828	1134.55
1035.116	1144.94
1035.403	1113.76
1035.691	1129.57
1035.979	1107.43
1036.267	1103.13
1036.554	1094.32
1036.842	1077.15
1037.129	1071.72
1037.417	1057.94
1037.704	1063.14
1037.992	1049.8
1038.279	1060.42
1038.566	1041.89
1038.853	1041.89
1039.14	1041.89
