Data from hue_210_FLMS001491_00060.txt Node
Date: Tue Feb 07 16:41:25 GMT 2017
User: dcchb
Spectrometer: FLMS00149
Trigger mode: 0
Integration Time (sec): 2.000000E-2
Scans to average: 10
Electric dark correction enabled: true
Nonlinearity correction enabled: false
Boxcar width: 0
XAxis mode: Wavelengths
Number of Pixels in Spectrum: 2048
>>>>>Begin Spectral Data<<<<<
341.393	-14.46
341.776	-14.46
342.16	-14.46
342.543	-77.29
342.927	-69.6
343.31	-65.53
343.693	-61.69
344.077	-78.19
344.46	-53.78
344.843	-58.53
345.226	-44.74
345.61	-25.54
345.993	-33.45
346.376	-0.23
346.759	16.72
347.142	24.18
347.525	28.47
347.908	68.92
348.291	75.03
348.674	101.01
349.057	107.34
349.44	121.13
349.823	146.21
350.206	157.28
350.588	211.07
350.971	226.66
351.354	211.75
351.737	249.48
352.119	241.35
352.502	275.02
352.884	256.04
353.267	270.5
353.65	306.21
354.032	286.09
354.414	299.65
354.797	306.88
355.179	334.45
355.562	319.99
355.944	315.02
356.326	336.71
356.709	326.32
357.091	321.8
357.473	340.1
357.855	341.46
358.238	340.56
358.62	313.21
359.002	331.97
359.384	322.03
359.766	348.47
360.148	322.93
360.53	329.03
360.912	328.8
361.294	323.16
361.676	342.59
362.057	328.35
362.439	321.35
362.821	303.27
363.203	338.52
363.584	313.89
363.966	316.6
364.348	330.16
364.729	322.03
365.111	315.25
365.493	303.49
365.874	317.28
366.256	324.96
366.637	314.12
367.019	332.19
367.4	312.99
367.781	322.48
368.163	322.03
368.544	305.75
368.925	322.25
369.306	315.92
369.688	324.06
370.069	292.2
370.45	302.14
370.831	337.84
371.212	306.21
371.593	331.29
371.974	304.62
372.355	327.22
372.736	303.72
373.117	307.56
373.498	326.09
373.879	327.45
374.26	317.73
374.641	318.18
375.021	316.83
375.402	317.96
375.783	309.6
376.163	318.64
376.544	324.06
376.925	327.45
377.305	324.06
377.686	313.21
378.066	324.96
378.447	330.84
378.827	321.35
379.208	328.58
379.588	327.45
379.968	340.78
380.349	337.17
380.729	335.36
381.109	336.94
381.489	327.22
381.87	329.48
382.25	325.87
382.63	332.65
383.01	314.12
383.39	345.3
383.77	334
384.15	374.45
384.53	338.3
384.91	357.05
385.29	354.34
385.67	352.31
386.049	341.01
386.429	357.05
386.809	336.94
387.189	369.03
387.568	366.32
387.948	357.5
388.328	351.86
388.707	371.74
389.087	354.34
389.466	394.57
389.846	367.67
390.225	358.18
390.605	360.67
390.984	371.29
391.363	373.1
391.743	364.06
392.122	366.32
392.501	362.93
392.881	366.09
393.26	390.72
393.639	373.78
394.018	383.94
394.397	371.06
394.776	374
395.155	384.4
395.534	392.08
395.913	388.69
396.292	378.3
396.671	386.66
397.05	388.92
397.429	379.88
397.808	381.91
398.186	397.5
398.565	389.14
398.944	427.33
399.323	399.76
399.701	419.65
400.08	395.92
400.458	398.41
400.837	397.73
401.215	410.84
401.594	430.95
401.972	433.21
402.351	409.03
402.729	423.49
403.107	395.02
403.486	424.17
403.864	437.5
404.242	435.69
404.62	436.6
404.999	419.2
405.377	426.2
405.755	447.9
406.133	435.69
406.511	454.9
406.889	484.06
407.267	461.46
407.645	452.19
408.023	470.04
408.401	477.28
408.779	482.93
409.156	463.26
409.534	480.67
409.912	477.5
410.29	519.31
410.667	505.98
411.045	522.92
411.422	524.28
411.8	534.22
412.178	561.57
412.555	543.94
412.933	578.06
413.31	561.79
413.687	573.32
414.065	593.2
414.442	592.98
414.819	591.17
415.197	612.64
415.574	614
415.951	637.05
416.328	627.55
416.705	639.31
417.082	644.73
417.46	668.23
417.837	660.32
418.214	679.08
418.591	657.84
418.967	691.73
419.344	707.78
419.721	707.1
420.098	701
420.475	722.69
420.852	746.65
421.228	732.86
421.605	772.41
421.982	783.93
422.358	794.1
422.735	798.4
423.111	819.41
423.488	832.29
423.864	823.48
424.241	856.02
424.617	873.42
424.994	868.45
425.37	880.65
425.746	907.32
426.123	907.09
426.499	923.14
426.875	922.24
427.251	947.77
427.627	959.52
428.003	989.58
428.379	990.26
428.756	998.62
429.132	1003.36
429.507	1025.96
429.883	1028.9
430.259	1047.2
430.635	1064.83
431.011	1058.05
431.387	1096.02
431.763	1080.2
432.138	1090.14
432.514	1122.46
432.89	1143.25
433.265	1184.15
433.641	1186.86
434.016	1197.48
434.392	1229.8
434.767	1253.07
435.143	1302.34
435.518	1304.15
435.894	1332.39
436.269	1339.4
436.644	1370.13
437.02	1411.49
437.395	1402.45
437.77	1442.9
438.145	1452.84
438.52	1474.54
438.895	1493.52
439.271	1525.84
439.646	1543.69
440.021	1568.09
440.395	1600.18
440.77	1576.46
441.145	1639.73
441.52	1618.71
441.895	1641.09
442.27	1669.79
442.645	1662.1
443.019	1707.07
443.394	1708.66
443.769	1746.85
444.143	1723.34
444.518	1783.68
444.892	1754.3
445.267	1783.68
445.641	1808.77
446.016	1827.07
446.39	1843.12
446.764	1857.13
447.139	1871.82
447.513	1880.63
447.887	1903
448.262	1875.88
448.636	1907.75
449.01	1951.14
449.384	1973.73
449.758	1947.29
450.132	1982.09
450.506	2015.31
450.88	2029.55
451.254	2027.74
451.628	2045.82
452.002	2081.3
452.376	2077.91
452.75	2123.11
453.123	2125.59
453.497	2166.27
453.871	2163.11
454.244	2218.47
454.618	2227.29
454.992	2236.1
455.365	2263.67
455.739	2312.03
456.112	2315.87
456.486	2330.56
456.859	2356.32
457.232	2401.29
457.606	2400.39
457.979	2437.45
458.352	2461.4
458.725	2498.24
459.099	2526.26
459.472	2561.97
459.845	2579.82
460.218	2618.69
460.591	2623.89
460.964	2637.44
461.337	2702.08
461.71	2722.64
462.083	2774.62
462.456	2712.7
462.829	2763.09
463.201	2821.62
463.574	2824.56
463.947	2851.45
464.32	2925.57
464.692	2953.82
465.065	2989.98
465.438	3041.05
465.81	3009.19
466.183	3079.69
466.555	3132.35
466.928	3160.14
467.3	3172.8
467.672	3215.28
468.045	3267.71
468.417	3308.84
468.789	3302.29
469.161	3327.37
469.534	3363.98
469.906	3446.24
470.278	3457.99
470.65	3500.92
471.022	3516.29
471.394	3665.21
471.766	3658.66
472.138	3687.13
472.51	3790.41
472.882	3796.28
473.253	3864.31
473.625	3905.43
473.997	3969.61
474.369	4003.06
474.74	4019.56
475.112	4086.45
475.484	4159.21
475.855	4205.99
476.227	4240.11
476.598	4345.87
476.97	4398.08
477.341	4483.27
477.713	4504.51
478.084	4557.17
478.455	4612.53
478.827	4669.48
479.198	4825.86
479.569	4822.47
479.94	4933.88
480.311	4962.81
480.682	5031.96
481.053	5132.07
481.424	5224.5
481.795	5230.6
482.166	5319.63
482.537	5401.67
482.908	5443.92
483.279	5519.85
483.65	5569.12
484.021	5759.85
484.391	5713.52
484.762	5800.75
485.133	5839.62
485.503	5915.55
485.874	6003.68
486.244	6040.75
486.615	6137.47
486.985	6266.28
487.356	6324.35
487.726	6366.84
488.097	6398.25
488.467	6410
488.837	6567.96
489.207	6663.78
489.578	6704.23
489.948	6738.35
490.318	6852.93
490.688	6899.03
491.058	6969.53
491.428	7020.15
491.798	7108.06
492.168	7187.83
492.538	7209.3
492.908	7249.53
493.278	7285.68
493.648	7373.14
494.017	7426.92
494.387	7514.6
494.757	7588.28
495.126	7597.77
495.496	7622.85
495.866	7687.48
496.235	7727.93
496.605	7827.59
496.974	7820.13
497.344	7840.25
497.713	7862.17
498.082	7955.72
498.452	8022.84
498.821	8051.54
499.19	8004.31
499.559	8103.06
499.928	8186.45
500.298	8174.93
500.667	8237.07
501.036	8211.54
501.405	8229.84
501.774	8290.4
502.143	8279.1
502.512	8309.84
502.88	8371.53
503.249	8348.48
503.618	8440.46
503.987	8384.86
504.356	8451.08
504.724	8531.53
505.093	8430.51
505.462	8529.95
505.83	8501.02
506.199	8562.26
506.567	8605.2
506.936	8640
507.304	8690.84
507.672	8634.35
508.041	8690.39
508.409	8693.56
508.777	8743.72
509.145	8799.32
509.514	8840.45
509.882	8789.15
510.25	8784.4
510.618	8917.05
510.986	8864.4
511.354	8979.2
511.722	8907.56
512.09	8997.28
512.458	8878.64
512.826	8995.02
513.193	8941.46
513.561	8934.91
513.929	9025.75
514.297	9054.68
514.664	9070.5
515.032	9110.72
515.4	9127.44
515.767	9108.01
516.135	9136.03
516.502	9042.25
516.869	9129.93
517.237	9142.58
517.604	9089.25
517.972	9188.01
518.339	9119.99
518.706	9119.31
519.073	9146.43
519.44	9134
519.808	9197.72
520.175	9175.58
520.542	9192.98
520.909	9169.48
521.276	9154.11
521.643	9221.9
522.009	9217.16
522.376	9206.99
522.743	9308.91
523.11	9304.84
523.477	9284.05
523.843	9342.81
524.21	9402.46
524.577	9240.89
524.943	9383.26
525.31	9304.16
525.676	9355.91
526.043	9374.22
526.409	9331.51
526.776	9427.55
527.142	9361.34
527.508	9341.9
527.874	9332.64
528.241	9397.27
528.607	9389.13
528.973	9384.16
529.339	9375.12
529.705	9372.63
530.071	9353.88
530.437	9392.52
530.803	9367.44
531.169	9373.99
531.535	9262.58
531.901	9256.03
532.267	9253.77
532.632	9234.56
532.998	9238.18
533.364	9265.29
533.73	9236.37
534.095	9295.35
534.461	9170.83
534.826	9178.06
535.192	9165.86
535.557	9109.59
535.923	9099.65
536.288	9112.53
536.653	9095.81
537.019	8999.31
537.384	8959.54
537.749	9004.51
538.114	8944.17
538.479	8951.18
538.845	8942.59
539.21	8882.03
539.575	8880.22
539.94	8850.39
540.305	8886.77
540.67	8787.79
541.034	8766.78
541.399	8718.87
541.764	8666.21
542.129	8652.88
542.494	8597.51
542.858	8627.34
543.223	8627.12
543.587	8585.08
543.952	8541.7
544.316	8490.85
544.681	8473.9
545.045	8444.3
545.41	8425.09
545.774	8429.83
546.138	8328.59
546.503	8283.62
546.867	8239.56
547.231	8285.43
547.595	8242.72
547.959	8170.86
548.324	8157.07
548.688	8076.17
549.052	8120.24
549.416	8112.33
549.779	8052.9
550.143	8046.57
550.507	8041.37
550.871	7935.84
551.235	7920.92
551.599	7961.82
551.962	7813.13
552.326	7820.36
552.689	7863.52
553.053	7737.65
553.417	7730.42
553.78	7762.51
554.143	7752.79
554.507	7708.05
554.87	7708.95
555.234	7724.54
555.597	7617.43
555.96	7694.94
556.323	7640.25
556.686	7555.51
557.05	7614.49
557.413	7590.53
557.776	7479.58
558.139	7526.36
558.502	7475.28
558.865	7501.05
559.228	7477.09
559.59	7456.3
559.953	7501.27
560.316	7505.34
560.679	7425.79
561.041	7491.55
561.404	7459.46
561.767	7478.67
562.129	7411.33
562.492	7468.73
562.854	7366.59
563.217	7380.14
563.579	7399.58
563.941	7372.69
564.304	7396.87
564.666	7361.39
565.028	7353.7
565.39	7399.35
565.753	7396.19
566.115	7394.38
566.477	7336.98
566.839	7418.11
567.201	7464.44
567.563	7407.49
567.925	7481.84
568.287	7411.78
568.648	7392.8
569.01	7433.02
569.372	7390.54
569.734	7450.43
570.095	7427.15
570.457	7477.77
570.819	7401.61
571.18	7430.99
571.542	7493.36
571.903	7442.06
572.265	7447.26
572.626	7481.84
572.987	7475.74
573.349	7505.79
573.71	7471.67
574.071	7490.65
574.432	7467.15
574.794	7560.48
575.155	7468.5
575.516	7501.05
575.877	7577.88
576.238	7531.1
576.599	7528.84
576.96	7589.18
577.32	7542.17
577.681	7537.43
578.042	7569.29
578.403	7535.85
578.763	7539.01
579.124	7622.85
579.485	7591.21
579.845	7648.61
580.206	7576.07
580.566	7590.76
580.927	7586.69
581.287	7687.03
581.648	7583.08
582.008	7619.91
582.368	7595.28
582.728	7654.94
583.089	7656.52
583.449	7631.21
583.809	7590.76
584.169	7682.96
584.529	7649.52
584.889	7677.31
585.249	7742.17
585.609	7709.85
585.969	7670.08
586.329	7719.35
586.688	7713.7
587.048	7679.8
587.408	7706.92
587.768	7613.36
588.127	7724.54
588.487	7695.84
588.846	7752.79
589.206	7710.98
589.565	7727.93
589.925	7795.5
590.284	7746.91
590.643	7694.94
591.003	7783.07
591.362	7790.08
591.721	7733.36
592.08	7740.81
592.44	7809.51
592.799	7836.63
593.158	7808.38
593.517	7730.42
593.876	7783.98
594.235	7758.89
594.593	7765.67
594.952	7773.35
595.311	7706.46
595.67	7795.73
596.029	7869.85
596.387	7843.41
596.746	7825.78
597.104	7744.2
597.463	7773.58
597.822	7872.34
598.18	7775.61
598.538	7747.37
598.897	7799.57
599.255	7757.99
599.613	7873.01
599.972	7739.91
600.33	7829.17
600.688	7804.09
601.046	7822.62
601.404	7801.6
601.762	7823.98
602.12	7859.23
602.478	7817.42
602.836	7888.61
603.194	7803.86
603.552	7786.91
603.91	7803.18
604.268	7790.3
604.625	7792.79
604.983	7812
605.341	7823.52
605.698	7894.26
606.056	7867.36
606.413	7849.51
606.771	7854.93
607.128	7889.28
607.485	7853.13
607.843	7869.4
608.2	7827.59
608.557	7919.79
608.914	7886.12
609.272	7915.95
609.629	7939.45
609.986	7961.15
610.343	7859.45
610.7	7928.15
611.057	7983.52
611.414	7884.09
611.771	7921.37
612.127	7984.65
612.484	7898.32
612.841	7983.97
613.198	7950.98
613.554	7910.3
613.911	7975.84
614.267	7993.01
614.624	7916.4
614.98	7958.66
615.337	8029.39
615.693	7943.97
616.05	8025.1
616.406	8011.54
616.762	7964.31
617.118	7975.84
617.475	8021.03
617.831	8055.16
618.187	8011.77
618.543	8033.01
618.899	8079.79
619.255	8056.29
619.611	8018.55
619.967	8041.82
620.323	8054.03
620.678	8047.25
621.034	8065.32
621.39	8045.44
621.746	8019.9
622.101	8116.17
622.457	8011.09
622.812	8111.2
623.168	8087.02
623.523	8082.73
623.879	8127.02
624.234	8087.92
624.589	8092.67
624.945	8060.58
625.3	8108.04
625.655	8067.36
626.01	8059.45
626.365	8102.84
626.72	8034.59
627.075	7998.43
627.43	8081.37
627.785	8048.38
628.14	8063.74
628.495	7996.17
628.85	8051.09
629.205	7982.39
629.559	8040.92
629.914	7961.37
630.269	8030.75
630.623	8019.45
630.978	7949.17
631.332	8024.2
631.687	8052.9
632.041	7968.38
632.396	7950.3
632.75	7981.94
633.104	7955.05
633.459	7961.6
633.813	7930.64
634.167	7927.48
634.521	7899.45
634.875	7924.99
635.229	7870.08
635.583	7857.87
635.937	7860.13
636.291	7843.86
636.645	7860.36
636.999	7836.4
637.352	7861.71
637.706	7778.78
638.06	7833.69
638.413	7808.16
638.767	7797.99
639.121	7829.4
639.474	7744.2
639.828	7767.93
640.181	7787.37
640.534	7787.14
640.888	7753.47
641.241	7683.19
641.594	7773.81
641.947	7779.46
642.301	7771.55
642.654	7779.23
643.007	7712.57
643.36	7750.53
643.713	7733.58
644.066	7741.49
644.419	7686.13
644.771	7681.15
645.124	7592.12
645.477	7563.19
645.83	7591.89
646.182	7501.27
646.535	7492.68
646.888	7451.1
647.24	7429.41
647.593	7464.66
647.945	7495.17
648.298	7463.98
648.65	7402.97
649.002	7409.97
649.355	7418.11
649.707	7405.91
650.059	7481.39
650.411	7573.81
650.763	7555.28
651.115	7630.08
651.467	7549.41
651.819	7625.34
652.171	7638.67
652.523	7589.18
652.875	7586.24
653.227	7523.19
653.578	7666.69
653.93	7583.76
654.282	7633.47
654.633	7595.28
654.985	7606.81
655.337	7590.99
655.688	7620.14
656.039	7626.47
656.391	7621.04
656.742	7648.16
657.094	7669.4
657.445	7655.39
657.796	7648.39
658.147	7587.6
658.498	7639.12
658.849	7666.92
659.2	7682.28
659.551	7653.81
659.902	7579.24
660.253	7657.88
660.604	7726.8
660.955	7581.72
661.306	7744.88
661.656	7580.82
662.007	7690.87
662.358	7681.38
662.708	7646.58
663.059	7736.07
663.409	7659.69
663.76	7723.64
664.11	7688.39
664.461	7691.78
664.811	7731.55
665.161	7714.37
665.511	7734.94
665.862	7648.39
666.212	7760.02
666.562	7764.54
666.912	7686.13
667.262	7665.34
667.612	7731.1
667.962	7745.56
668.312	7772.45
668.662	7713.7
669.011	7708.27
669.361	7637.99
669.711	7730.42
670.06	7651.78
670.41	7681.61
670.76	7684.09
671.109	7749.63
671.459	7740.81
671.808	7708.72
672.157	7695.39
672.507	7667.14
672.856	7707.82
673.205	7675.28
673.554	7634.83
673.904	7614.04
674.253	7706.92
674.602	7638.67
674.951	7523.87
675.3	7508.73
675.649	7645.9
675.998	7616.75
676.346	7576.3
676.695	7581.27
677.044	7621.95
677.393	7603.19
677.741	7621.27
678.09	7569.52
678.438	7536.98
678.787	7520.71
679.135	7537.2
679.484	7527.94
679.832	7493.36
680.181	7460.82
680.529	7525.45
680.877	7437.54
681.225	7475.51
681.573	7525.68
681.922	7451.33
682.27	7439.35
682.618	7343.08
682.966	7425.79
683.314	7385.79
683.661	7459.69
684.009	7329.98
684.357	7355.51
684.705	7327.72
685.053	7371.56
685.4	7280.26
685.748	7225.35
686.095	7287.04
686.443	7266.7
686.79	7210.66
687.138	7203.2
687.485	7258.11
687.832	7227.15
688.18	7187.16
688.527	7180.38
688.874	7087.27
689.221	7132.92
689.568	7086.37
689.915	7041.4
690.262	7074.84
690.609	7050.66
690.956	6948.52
691.303	7036.43
691.65	6958.24
691.997	6938.8
692.344	6908.52
692.69	6939.7
693.037	6934.05
693.383	6777.67
693.73	6855.64
694.077	6780.16
694.423	6807.5
694.769	6804.79
695.116	6767.51
695.462	6754.17
695.808	6655.64
696.155	6739.48
696.501	6640.28
696.847	6616.1
697.193	6549.66
697.539	6574.74
697.885	6556.21
698.231	6517.57
698.577	6505.59
698.923	6477.8
699.269	6439.6
699.614	6413.39
699.96	6394.18
700.306	6372.94
700.651	6359.15
700.997	6296.33
701.342	6307.4
701.688	6284.58
702.033	6275.77
702.379	6234.41
702.724	6203.9
703.069	6220.63
703.415	6092.27
703.76	6179.5
704.105	6156.45
704.45	6101.53
704.795	6098.14
705.14	6088.65
705.485	6110.57
705.83	6033.06
706.175	6028.99
706.52	6021.08
706.865	5975.44
707.209	5967.98
707.554	5872.61
707.899	5899.05
708.243	5900.18
708.588	5905.38
708.932	5852.73
709.277	5828.77
709.621	5848.43
709.966	5826.29
710.31	5775.67
710.654	5710.36
710.998	5757.59
711.342	5782.67
711.687	5730.7
712.031	5726.4
712.375	5658.38
712.719	5703.58
713.063	5709.91
713.407	5741.54
713.75	5685.95
714.094	5652.51
714.438	5711.49
714.782	5604.15
715.125	5650.47
715.469	5631.26
715.812	5586.52
716.156	5589.01
716.499	5552.4
716.843	5658.83
717.186	5563.92
717.53	5570.47
717.873	5545.16
718.216	5525.28
718.559	5583.36
718.902	5464.72
719.246	5515.11
719.589	5517.82
719.932	5497.48
720.275	5479.86
720.617	5504.94
720.96	5467.2
721.303	5427.43
721.646	5457.71
721.989	5443.92
722.331	5473.53
722.674	5387.43
723.016	5485.05
723.359	5430.14
723.701	5427.88
724.044	5399.18
724.386	5412.51
724.729	5434.89
725.071	5420.65
725.413	5443.47
725.755	5463.81
726.097	5418.16
726.439	5440.08
726.782	5381.55
727.124	5398.5
727.465	5382.91
727.807	5361.89
728.149	5418.61
728.491	5385.4
728.833	5405.28
729.175	5409.58
729.516	5388.78
729.858	5383.14
730.199	5416.81
730.541	5393.98
730.882	5391.72
731.224	5398.28
731.565	5368.67
731.906	5388.56
732.248	5383.81
732.589	5384.72
732.93	5348.11
733.271	5374.55
733.612	5419.52
733.953	5410.03
734.294	5343.81
734.635	5348.56
734.976	5414.55
735.317	5377.94
735.658	5402.34
735.999	5410.48
736.339	5395.79
736.68	5428.33
737.021	5434.89
737.361	5433.3
737.702	5455.9
738.042	5446.18
738.383	5471.27
738.723	5488.9
739.063	5435.11
739.404	5459.97
739.744	5500.19
740.084	5512.62
740.424	5485.96
740.764	5535.22
741.104	5538.61
741.444	5477.6
741.784	5551.27
742.124	5569.35
742.464	5575.22
742.804	5588.55
743.143	5571.15
743.483	5629
743.823	5631.49
744.162	5651.83
744.502	5695.9
744.841	5704.48
745.181	5783.12
745.52	5746.97
745.86	5813.86
746.199	5844.14
746.538	5867.87
746.877	5936.79
747.216	5941.76
747.556	5961.43
747.895	6006.62
748.234	6031.93
748.573	6120.97
748.911	6163.45
749.25	6205.49
749.589	6273.51
749.928	6331.81
750.267	6379.49
750.605	6449.32
750.944	6493.16
751.283	6575.87
751.621	6724.79
751.96	6771.57
752.298	6838.69
752.636	6986.93
752.975	6973.15
753.313	7090.66
753.651	7241.17
753.989	7303.76
754.327	7399.35
754.666	7462.63
755.004	7611.33
755.342	7773.81
755.679	7898.55
756.017	7975.61
756.355	8173.57
756.693	8279.33
757.031	8381.7
757.368	8483.39
757.706	8613.33
758.044	8785.08
758.381	8909.37
758.719	9071.85
759.056	9228.23
759.394	9328.79
759.731	9449.7
760.068	9712.06
760.405	9839.52
760.743	9924.71
761.08	10096.91
761.417	10248.77
761.754	10519.72
762.091	10588.87
762.428	10817.34
762.765	10906.38
763.102	11157.67
763.438	11228.86
763.775	11355.18
764.112	11701.39
764.449	11830.65
764.785	11872.68
765.122	12066.8
765.458	12185.44
765.795	12337.75
766.131	12566
766.467	12687.12
766.804	12791.75
767.14	12865.88
767.476	13078.07
767.812	13232.42
768.148	13426.77
768.485	13466.31
768.821	13668.34
769.157	13751.95
769.492	13893.87
769.828	14056.35
770.164	14028.56
770.5	14178.61
770.836	14313.3
771.171	14403.01
771.507	14453.63
771.842	14647.75
772.178	14732.04
772.513	14795.54
772.849	14894.3
773.184	14915.99
773.519	15018.36
773.855	15052.49
774.19	15118.7
774.525	15244.34
774.86	15395.98
775.195	15445.24
775.53	15484.11
775.865	15514.39
776.2	15560.72
776.535	15487.5
776.87	15624.67
777.205	15685.46
777.539	15679.81
777.874	15744.44
778.209	15757.78
778.543	15852.69
778.878	15848.17
779.212	15786.03
779.547	15831.22
779.881	15967.49
780.215	15958.45
780.55	16117.77
780.884	16064.44
781.218	16040.03
781.552	15987.83
781.886	15974.5
782.22	16017.88
782.554	16084.55
782.888	16014.04
783.222	16059.92
783.556	16008.62
783.889	16044.78
784.223	15942.86
784.557	15986.25
784.89	16026.25
785.224	16028.28
785.557	15988.51
785.891	15990.09
786.224	16024.89
786.558	16009.97
786.891	15885.68
787.224	15888.17
787.557	15897.44
787.891	15946.93
788.224	15960.26
788.557	15909.19
788.89	15969.75
789.223	15939.24
789.556	15841.17
789.888	15876.42
790.221	15814.27
790.554	15739.93
790.887	15781.51
791.219	15757.1
791.552	15749.42
791.884	15601.4
792.217	15664.9
792.549	15656.31
792.882	15562.3
793.214	15545.13
793.546	15652.92
793.879	15553.94
794.211	15440.27
794.543	15508.74
794.875	15428.97
795.207	15544.9
795.539	15399.37
795.871	15444.79
796.203	15299.03
796.535	15245.7
796.867	15234.4
797.198	15258.81
797.53	15279.15
797.862	15188.98
798.193	15259.94
798.525	15052.26
798.856	15156.44
799.188	14975.43
799.519	15028.08
799.85	14939.04
800.182	14894.52
800.513	14873.51
800.844	14845.26
801.175	14934.3
801.506	14895.65
801.837	14740.63
802.168	14785.6
802.499	14745.83
802.83	14678.71
803.161	14668.77
803.491	14649.33
803.822	14640.74
804.153	14593.97
804.483	14478.49
804.814	14460.41
805.145	14379.28
805.475	14431.26
805.805	14366.4
806.136	14356.91
806.466	14472.84
806.796	14423.58
807.126	14244.37
807.457	14216.8
807.787	14258.83
808.117	14176.8
808.447	14212.28
808.777	14223.58
809.107	14190.36
809.436	14097.48
809.766	14130.25
810.096	13949.24
810.426	13960.76
810.755	13973.87
811.085	14071.72
811.414	13977.94
811.744	13840.77
812.073	13877.83
812.403	13815
812.732	13745.18
813.061	13759.41
813.39	13683.71
813.719	13749.02
814.049	13754.67
814.378	13744.95
814.707	13668.34
815.036	13654.78
815.365	13625.86
815.693	13545.18
816.022	13503.15
816.351	13459.76
816.68	13390.61
817.008	13518.74
817.337	13354.68
817.665	13306.77
817.994	13371.63
818.322	13364.39
818.651	13364.39
818.979	13285.53
819.307	13363.04
819.636	13265.19
819.964	13199.2
820.292	13211.18
820.62	13283.72
820.948	13196.49
821.276	13232.19
821.604	13232.65
821.932	13245.75
822.259	13265.87
822.587	13222.25
822.915	13219.54
823.243	13199.2
823.57	13165.76
823.898	13195.36
824.225	13212.31
824.553	13178.41
824.88	13202.82
825.207	13202.82
825.535	13196.49
825.862	13196.49
826.189	13152.65
826.516	13255.92
826.843	13211.4
827.17	13262.7
827.497	13251.85
827.824	13267.22
828.151	13256.37
828.478	13230.84
828.805	13311.51
829.131	13291.63
829.458	13228.58
829.785	13213.89
830.111	13185.42
830.438	13229.48
830.764	13241.46
831.09	13218.64
831.417	13132.54
831.743	13222.93
832.069	13201.46
832.395	13176.38
832.722	13241.91
833.048	13149.71
833.374	13186.32
833.7	13114.23
834.026	13179.99
834.351	13208.24
834.677	13170.05
835.003	13168.92
835.329	13110.39
835.654	13049.15
835.98	13077.85
836.306	13032.2
836.631	13057.51
836.956	13084.18
837.282	12922.37
837.607	12940.9
837.932	12933.22
838.258	12976.83
838.583	12909.49
838.908	12930.51
839.233	12899.32
839.558	12912.88
839.883	12796.73
840.208	12831.3
840.533	12813.9
840.858	12803.73
841.182	12816.16
841.507	12779.78
841.832	12718.31
842.156	12674.92
842.481	12611.65
842.805	12654.13
843.13	12542.04
843.454	12548.14
843.778	12552.44
844.103	12547.24
844.427	12459.11
844.751	12480.35
845.075	12417.53
845.399	12413.23
845.723	12348.15
846.047	12387.7
846.371	12263.18
846.695	12273.12
847.019	12157.19
847.343	12151.54
847.666	12048.27
847.99	11997.42
848.313	12016.41
848.637	11934.6
848.96	11860.25
849.284	11897.09
849.607	11792.91
849.931	11751.33
850.254	11705.23
850.577	11612.8
850.9	11503.2
851.223	11620.49
851.546	11529.41
851.869	11413.49
852.192	11458.91
852.515	11342.07
852.838	11292.81
853.161	11352.7
853.483	11331.45
853.806	11236.09
854.129	11233.38
854.451	11133.04
854.774	11157.22
855.096	11118.35
855.419	11070.67
855.741	11043.33
856.063	10967.4
856.385	10990.67
856.708	10919.94
857.03	10897.11
857.352	10885.14
857.674	10865.25
857.996	10834.29
858.318	10781.64
858.64	10759.94
858.961	10711.13
859.283	10683.11
859.605	10645.6
859.926	10621.87
860.248	10601.53
860.57	10621.19
860.891	10556.11
861.212	10526.05
861.534	10458.71
861.855	10480.63
862.176	10450.35
862.498	10423.91
862.819	10481.31
863.14	10398.6
863.461	10408.09
863.782	10361.99
864.103	10375.77
864.424	10299.84
864.745	10297.81
865.065	10293.74
865.386	10252.16
865.707	10224.14
866.027	10199.51
866.348	10265.72
866.668	10188.88
866.989	10169.68
867.309	10083.8
867.63	10146.85
867.95	10160.18
868.27	10058.27
868.59	10037.25
868.91	10021.66
869.23	10021.43
869.55	10016.69
869.87	10006.52
870.19	9966.29
870.51	10062.33
870.83	10007.65
871.15	9928.78
871.469	9967.2
871.789	9921.77
872.109	9933.3
872.428	9866.41
872.748	9901.43
873.067	9901.66
873.386	9908.21
873.706	9879.29
874.025	9801.55
874.344	9809.01
874.663	9773.53
874.982	9761.78
875.301	9772.85
875.62	9722.23
875.939	9725.39
876.258	9686.98
876.577	9699.18
876.896	9670.25
877.214	9629.8
877.533	9651.5
877.852	9639.52
878.17	9608.11
878.489	9597.04
878.807	9632.97
879.125	9546.19
879.444	9594.1
879.762	9541.67
880.08	9535.34
880.398	9508.45
880.716	9462.58
881.034	9511.61
881.352	9458.28
881.67	9397.49
881.988	9402.46
882.306	9338.74
882.624	9393.65
882.941	9342.58
883.259	9304.84
883.577	9303.48
883.894	9259.19
884.212	9302.81
884.529	9228.23
884.846	9242.47
885.164	9148.46
885.481	9146.88
885.798	9079.54
886.115	9100.55
886.432	9133.77
886.75	9138.06
887.067	9126.31
887.383	9037.5
887.7	9076.15
888.017	8994.11
888.334	9070.27
888.651	8936.49
888.967	8984.62
889.284	8929.48
889.6	8919.09
889.917	8849.03
890.233	8890.39
890.55	8812.42
890.866	8874.34
891.182	8751.41
891.498	8702.14
891.815	8742.59
892.131	8672.31
892.447	8654.01
892.763	8594.12
893.079	8584.86
893.395	8590.73
893.71	8515.03
894.026	8550.96
894.342	8497.18
894.657	8432.55
894.973	8396.62
895.289	8428.7
895.604	8390.51
895.92	8334.02
896.235	8279.56
896.55	8327.92
896.865	8332.66
897.181	8264.19
897.496	8226.45
897.811	8207.92
898.126	8140.8
898.441	8165.44
898.756	8129.5
899.071	8057.87
899.386	8035.49
899.7	7973.12
900.015	7955.5
900.33	7927.25
900.644	7950.75
900.959	7957.98
901.273	7857.65
901.588	7871.88
901.902	7841.15
902.216	7811.32
902.531	7760.93
902.845	7758.44
903.159	7669.18
903.473	7611.55
903.787	7652.91
904.101	7561.16
904.415	7621.04
904.729	7564.77
905.042	7526.81
905.356	7534.94
905.67	7501.27
905.984	7439.35
906.297	7450.2
906.611	7385.34
906.924	7408.17
907.237	7334.5
907.551	7294.72
907.864	7279.36
908.177	7275.97
908.491	7207.49
908.804	7208.4
909.117	7122.07
909.43	7110.77
909.743	7035.97
910.056	7054.73
910.368	7079.59
910.681	7014.5
910.994	6966.37
911.307	6939.7
911.619	6904.9
911.932	6922.53
912.244	6849.09
912.557	6817.45
912.869	6767.28
913.181	6788.07
913.494	6758.24
913.806	6659.03
914.118	6710.11
914.43	6644.35
914.742	6615.19
915.054	6610.9
915.366	6584.01
915.678	6574.52
915.99	6535.42
916.302	6477.8
916.613	6464.91
916.925	6445.25
917.236	6437.12
917.548	6370.91
917.859	6354.64
918.171	6328.42
918.482	6306.73
918.794	6291.13
919.105	6272.83
919.416	6256.11
919.727	6252.49
920.038	6186.73
920.349	6189.89
920.66	6164.81
920.971	6146.73
921.282	6096.34
921.593	6098.14
921.903	6025.15
922.214	6045.04
922.525	6027.19
922.835	5937.25
923.146	5943.12
923.456	5960.07
923.767	5906.29
924.077	5873.97
924.387	5879.39
924.697	5870.13
925.008	5857.93
925.318	5859.51
925.628	5850.69
925.938	5761.88
926.248	5756.01
926.558	5686.18
926.867	5715.1
927.177	5757.14
927.487	5613.64
927.796	5575.9
928.106	5585.16
928.416	5536.13
928.725	5569.8
929.034	5481.89
929.344	5493.41
929.653	5495.9
929.962	5442.57
930.271	5388.33
930.581	5362.57
930.89	5389.46
931.199	5339.97
931.508	5345.62
931.817	5314.21
932.125	5322.12
932.434	5276.02
932.743	5285.28
933.051	5254.78
933.36	5168.9
933.669	5162.35
933.977	5217.49
934.286	5169.13
934.594	5121.9
934.902	5064.27
935.21	5035.8
935.519	5033.54
935.827	5033.09
936.135	4955.35
936.443	4972.52
936.751	5000.32
937.059	4947.67
937.367	4956.03
937.674	4921.9
937.982	4920.32
938.29	4900.66
938.597	4854.11
938.905	4836.93
939.213	4832.19
939.52	4758.07
939.827	4763.94
940.135	4776.15
940.442	4732.3
940.749	4697.28
941.056	4743.83
941.363	4637.17
941.67	4704.74
941.977	4701.57
942.284	4596.49
942.591	4571.41
942.898	4599.43
943.205	4586.77
943.511	4561.69
943.818	4548.81
944.125	4540.45
944.431	4510.62
944.738	4487.57
945.044	4442.37
945.35	4449.37
945.657	4398.98
945.963	4364.63
946.269	4366.44
946.575	4352.43
946.881	4289.83
947.187	4316.95
947.493	4291.41
947.799	4304.52
948.105	4283.73
948.41	4249.38
948.716	4243.5
949.022	4232.88
949.327	4170.96
949.633	4158.76
949.938	4188.36
950.244	4166.67
950.549	4133
950.854	4077.63
951.16	4086.45
951.465	4061.81
951.77	4041.7
952.075	4019.78
952.38	4029.95
952.685	3993.79
952.99	3970.52
953.294	3973
953.599	3949.27
953.904	3914.93
954.209	3916.96
954.513	3910.86
954.818	3868.37
955.122	3841.03
955.426	3824.31
955.731	3879.22
956.035	3788.83
956.339	3782.95
956.643	3796.51
956.948	3784.76
957.252	3778.21
957.556	3726.23
957.86	3755.83
958.163	3711.54
958.467	3679.9
958.771	3681.71
959.075	3653.24
959.378	3613.24
959.682	3645.33
959.985	3605.55
960.289	3592.22
960.592	3616.4
960.896	3582.5
961.199	3580.24
961.502	3546.35
961.805	3522.85
962.108	3508.61
962.411	3463.64
962.714	3462.51
963.017	3473.81
963.32	3467.25
963.623	3427.93
963.926	3443.07
964.228	3381.15
964.531	3362.4
964.833	3359.91
965.136	3348.61
965.438	3348.39
965.741	3295.51
966.043	3293.92
966.345	3308.39
966.648	3281.72
966.95	3293.92
967.252	3252.12
967.554	3253.93
967.856	3248.28
968.158	3190.65
968.46	3182.52
968.761	3193.14
969.063	3133.7
969.365	3142.52
969.666	3159.92
969.968	3141.39
970.269	3110.43
970.571	3112.46
970.872	3107.26
971.174	3050.99
971.475	3064.55
971.776	3063.2
972.077	3048.73
972.378	3000.15
972.679	3030.2
972.98	2997.44
973.281	2977.1
973.582	2995.4
973.883	2973.03
974.183	2939.58
974.484	2944.33
974.785	2936.65
975.085	2907.27
975.386	2941.17
975.686	2872.92
975.986	2905.23
976.287	2883.99
976.587	2848.96
976.887	2794.73
977.187	2808.74
977.487	2805.8
977.787	2838.34
978.087	2773.94
978.387	2778.23
978.687	2775.29
978.987	2772.36
979.286	2733.71
979.586	2739.81
979.885	2740.49
980.185	2711.12
980.484	2685.81
980.784	2670.44
981.083	2681.74
981.382	2651.23
981.682	2662.53
981.981	2620.27
982.28	2636.99
982.579	2586.6
982.878	2598.8
983.177	2585.02
983.475	2559.03
983.774	2584.79
984.073	2571.23
984.372	2532.81
984.67	2514.96
984.969	2509.09
985.267	2496.21
985.566	2496.66
985.864	2492.59
986.162	2485.81
986.461	2478.58
986.759	2439.48
987.057	2443.78
987.355	2446.72
987.653	2427.28
987.951	2411.24
988.249	2386.83
988.547	2396.55
988.844	2357
989.142	2390.67
989.44	2308.64
989.737	2337.34
990.035	2346.83
990.332	2312.03
990.63	2311.8
990.927	2285.36
991.224	2298.7
991.521	2295.08
991.819	2277.68
992.116	2273.84
992.413	2262.09
992.71	2242.88
993.006	2243.33
993.303	2206.95
993.6	2227.51
993.897	2204.24
994.193	2200.39
994.49	2199.49
994.787	2131.47
995.083	2163.78
995.379	2143.9
995.676	2127.4
995.972	2126.05
996.268	2115.2
996.565	2108.19
996.861	2074.52
997.157	2096.22
997.453	2084.24
997.749	2071.81
998.044	2045.37
998.34	2028.2
998.636	2021.42
998.932	2032.71
999.227	2014.64
999.523	2002.66
999.818	2000.63
1000.114	2003.79
1000.409	2001.76
1000.704	2005.82
1001	1951.81
1001.295	1929.67
1001.59	1934.64
1001.885	1910.23
1002.18	1916.11
1002.475	1907.29
1002.77	1900.52
1003.065	1852.61
1003.359	1854.64
1003.654	1884.47
1003.949	1857.8
1004.243	1851.93
1004.538	1843.12
1004.832	1807.18
1005.127	1822.32
1005.421	1817.58
1005.715	1781.42
1006.009	1789.78
1006.304	1787.3
1006.598	1747.98
1006.892	1725.38
1007.186	1744.13
1007.48	1708.66
1007.773	1730.12
1008.067	1707.98
1008.361	1728.54
1008.655	1698.26
1008.948	1712.95
1009.242	1702.1
1009.535	1641.99
1009.829	1665.94
1010.122	1639.73
1010.415	1682.67
1010.708	1607.87
1011.001	1603.57
1011.295	1621.88
1011.588	1584.14
1011.881	1570.58
1012.173	1568.09
1012.466	1591.6
1012.759	1571.71
1013.052	1541.88
1013.344	1539.85
1013.637	1514.54
1013.93	1524.25
1014.222	1519.96
1014.514	1547.76
1014.807	1504.37
1015.099	1474.31
1015.391	1486.74
1015.683	1504.59
1015.976	1480.19
1016.268	1475.89
1016.56	1456.91
1016.851	1442.45
1017.143	1434.09
1017.435	1443.8
1017.727	1439.06
1018.018	1432.28
1018.31	1438.38
1018.602	1388.66
1018.893	1386.18
1019.185	1362.68
1019.476	1387.76
1019.767	1364.03
1020.058	1357.7
1020.35	1336.24
1020.641	1325.84
1020.932	1337.82
1021.223	1327.2
1021.514	1291.94
1021.804	1331.26
1022.095	1301.21
1022.386	1260.31
1022.677	1291.49
1022.967	1276.8
1023.258	1281.32
1023.548	1246.07
1023.839	1249.91
1024.129	1254.2
1024.419	1223.7
1024.709	1235.45
1025	1209.46
1025.29	1222.79
1025.58	1196.8
1025.87	1203.81
1026.16	1174.88
1026.449	1187.09
1026.739	1149.57
1027.029	1141.21
1027.319	1167.65
1027.608	1150.03
1027.898	1154.09
1028.187	1155.22
1028.477	1128.11
1028.766	1139.18
1029.055	1086.75
1029.344	1126.52
1029.634	1088.78
1029.923	1085.62
1030.212	1100.99
1030.501	1066.86
1030.79	1089.69
1031.078	1071.38
1031.367	1042.91
1031.656	1045.17
1031.945	1038.16
1032.233	1031.39
1032.522	1043.81
1032.81	1037.71
1033.099	1017.6
1033.387	1035.45
1033.675	1011.27
1033.963	1013.98
1034.251	1002.01
1034.54	983.48
1034.828	986.64
1035.116	992.74
1035.403	971.73
1035.691	978.51
1035.979	941.9
1036.267	962.69
1036.554	947.32
1036.842	969.47
1037.129	906.42
1037.417	924.27
1037.704	933.99
1037.992	927.89
1038.279	921.11
1038.566	912.52
1038.853	912.52
1039.14	912.52
