Data from hue_140_FLMS001491_00011.txt Node
Date: Tue Feb 07 16:55:28 GMT 2017
User: dcchb
Spectrometer: FLMS00149
Trigger mode: 0
Integration Time (sec): 2.000000E-2
Scans to average: 10
Electric dark correction enabled: true
Nonlinearity correction enabled: false
Boxcar width: 0
XAxis mode: Wavelengths
Number of Pixels in Spectrum: 2048
>>>>>Begin Spectral Data<<<<<
341.393	-1.5
341.776	-1.5
342.16	-1.5
342.543	-66.81
342.927	-71.1
343.31	-75.62
343.693	-72.46
344.077	-39.46
344.46	-51.44
344.843	-50.08
345.226	-46.24
345.61	-23.19
345.993	-40.37
346.376	-9.63
346.759	17.71
347.142	26.75
347.525	24.26
347.908	76.92
348.291	63.36
348.674	82.34
349.057	117.14
349.44	121.89
349.823	135.9
350.206	187.2
350.588	207.54
350.971	210.02
351.354	213.86
351.737	245.28
352.119	254.32
352.502	262.22
352.884	273.3
353.267	283.69
353.65	285.73
354.032	296.35
354.414	300.42
354.797	306.52
355.179	337.48
355.562	331.15
355.944	342.22
356.326	322.34
356.709	334.54
357.091	343.35
357.473	342.67
357.855	333.41
358.238	339.74
358.62	352.17
359.002	351.94
359.384	311.04
359.766	326.86
360.148	339.74
360.53	319.62
360.912	333.64
361.294	328.21
361.676	320.08
362.057	336.35
362.439	320.08
362.821	315.1
363.203	308.78
363.584	330.92
363.966	331.38
364.348	316.01
364.729	321.66
365.111	290.47
365.493	328.89
365.874	323.69
366.256	332.96
366.637	321.88
367.019	325.05
367.4	320.08
367.781	327.99
368.163	324.14
368.544	299.74
368.925	326.86
369.306	317.82
369.688	307.2
370.069	306.52
370.45	316.91
370.831	315.1
371.212	329.57
371.593	338.61
371.974	307.87
372.355	323.69
372.736	315.1
373.117	325.73
373.498	309
373.879	325.73
374.26	327.99
374.641	308.33
375.021	287.76
375.402	321.43
375.783	352.84
376.163	333.41
376.544	322.79
376.925	319.17
377.305	346.06
377.686	342.67
378.066	330.7
378.447	325.95
378.827	324.14
379.208	331.15
379.588	341.32
379.968	322.79
380.349	349
380.729	334.09
381.109	341.32
381.489	339.28
381.87	340.19
382.25	337.03
382.63	316.46
383.01	350.58
383.39	346.29
383.77	342.9
384.15	313.52
384.53	340.41
384.91	348.55
385.29	342.45
385.67	358.49
386.049	343.58
386.429	349.23
386.809	342.9
387.189	356.23
387.568	355.33
387.948	339.96
388.328	350.36
388.707	347.42
389.087	357.59
389.466	388.78
389.846	349.23
390.225	363.69
390.605	375.89
390.984	361.43
391.363	380.64
391.743	383.13
392.122	354.2
392.501	356.69
392.881	365.27
393.26	383.58
393.639	381.09
394.018	385.16
394.397	398.72
394.776	371.15
395.155	385.39
395.534	371.15
395.913	406.63
396.292	400.75
396.671	399.62
397.05	394.88
397.429	384.71
397.808	408.66
398.186	390.13
398.565	396.23
398.944	388.55
399.323	395.1
399.701	397.14
400.08	421.77
400.458	404.14
400.837	398.72
401.215	415.22
401.594	386.06
401.972	422.67
402.351	399.62
402.729	415.22
403.107	424.48
403.486	397.59
403.864	422.67
404.242	422.45
404.62	425.84
404.999	420.41
405.377	433.07
405.755	418.83
406.133	416.8
406.511	429.23
406.889	435.55
407.267	435.1
407.645	433.07
408.023	430.36
408.401	441.88
408.779	467.87
409.156	451.82
409.534	468.1
409.912	457.93
410.29	451.15
410.667	450.92
411.045	457.7
411.422	460.19
411.8	466.29
412.178	442.78
412.555	481.2
412.933	498.83
413.31	496.34
413.687	487.08
414.065	500.18
414.442	485.5
414.819	499.73
415.197	492.28
415.574	515.1
415.951	512.84
416.328	492.95
416.705	506.29
417.082	519.39
417.46	505.61
417.837	513.97
418.214	526.17
418.591	528.66
418.967	503.57
419.344	524.14
419.721	533.86
420.098	524.82
420.475	543.8
420.852	539.05
421.228	544.7
421.605	553.06
421.982	538.83
422.358	527.53
422.735	556.45
423.111	541.09
423.488	580.63
423.864	580.18
424.241	565.95
424.617	577.47
424.994	576.57
425.37	576.57
425.746	592.61
426.123	593.06
426.499	572.27
426.875	601.65
427.251	565.95
427.627	598.26
428.003	609.11
428.379	593.97
428.756	609.11
429.132	610.92
429.507	621.09
429.883	606.85
430.259	624.93
430.635	657.69
431.011	634.42
431.387	662.21
431.763	656.11
432.138	668.77
432.514	645.04
432.89	680.29
433.265	661.76
433.641	667.41
434.016	705.83
434.392	687.3
434.767	684.59
435.143	730.46
435.518	716.9
435.894	702.21
436.269	733.85
436.644	731.36
437.02	746.73
437.395	749.9
437.77	752.16
438.145	777.01
438.52	758.93
438.895	777.47
439.271	767.97
439.646	759.16
440.021	800.29
440.395	773.4
440.77	792.38
441.145	789.44
441.52	815.2
441.895	821.53
442.27	811.14
442.645	825.15
443.019	838.03
443.394	810.23
443.769	832.83
444.143	834.87
444.518	843.23
444.892	846.62
445.267	841.42
445.641	857.24
446.016	856.11
446.39	852.04
446.764	887.75
447.139	912.6
447.513	904.92
447.887	911.47
448.262	886.16
448.636	893.62
449.01	921.42
449.384	916.67
449.758	912.38
450.132	939.5
450.506	938.37
450.88	939.27
451.254	946.27
451.628	983.11
452.002	995.76
452.376	957.8
452.75	981.75
453.123	972.94
453.497	991.47
453.871	1019.27
454.244	1012.94
454.618	1028.08
454.992	1007.74
455.365	1031.47
455.739	1075.76
456.112	1104.01
456.486	1085.93
456.859	1096.55
457.232	1116.44
457.606	1107.63
457.979	1128.42
458.352	1177.91
458.725	1172.48
459.099	1167.29
459.472	1203.22
459.845	1212.26
460.218	1208.19
460.591	1223.78
460.964	1214.52
461.337	1249.09
461.71	1292.93
462.083	1297.23
462.456	1293.84
462.829	1329.77
463.201	1277.11
463.574	1324.34
463.947	1332.25
464.32	1369.54
464.692	1386.04
465.065	1400.73
465.438	1449.76
465.81	1458.13
466.183	1472.81
466.555	1503.77
466.928	1546.48
467.3	1532.25
467.672	1562.53
468.045	1605.47
468.417	1609.31
468.789	1618.8
469.161	1630.78
469.534	1682.98
469.906	1719.81
470.278	1741.06
470.65	1785.35
471.022	1826.7
471.394	1832.13
471.766	1878.23
472.138	1877.32
472.51	1949.19
472.882	1986.7
473.253	2021.95
473.625	2074.38
473.997	2121.38
474.369	2095.62
474.74	2172.46
475.112	2227.14
475.484	2281.38
475.855	2326.35
476.227	2425.56
476.598	2422.85
476.97	2513.69
477.341	2613.35
477.713	2617.87
478.084	2683.63
478.455	2796.85
478.827	2859.44
479.198	2955.26
479.569	2982.83
479.94	3080
480.311	3151.19
480.682	3251.07
481.053	3341.92
481.424	3471.18
481.795	3526.77
482.166	3595.92
482.537	3710.72
482.908	3816.03
483.279	3890.15
483.65	3992.75
484.021	4145.29
484.391	4204.72
484.762	4305.51
485.133	4414.21
485.503	4507.31
485.874	4637.02
486.244	4731.26
486.615	4893.06
486.985	5013.51
487.356	5136.67
487.726	5257.57
488.097	5367.63
488.467	5513.39
488.837	5648.07
489.207	5766.94
489.578	5881.96
489.948	6022.53
490.318	6187.49
490.688	6221.84
491.058	6435.62
491.428	6580.7
491.798	6699.57
492.168	6837.19
492.538	6974.36
492.908	7100.91
493.278	7236.96
493.648	7369.16
494.017	7521.47
494.387	7684.18
494.757	7757.39
495.126	7883.72
495.496	7979.08
495.866	8084.62
496.235	8253.2
496.605	8354.89
496.974	8429.24
497.344	8608.9
497.713	8741.32
498.082	8829.91
498.452	8927.99
498.821	9070.13
499.19	9071.48
499.559	9314.64
499.928	9286.62
500.298	9404.36
500.667	9594.86
501.036	9607.06
501.405	9799.83
501.774	9813.39
502.143	9888.41
502.512	10028.07
502.88	10170.21
503.249	10142.42
503.618	10236.43
503.987	10332.02
504.356	10339.93
504.724	10477.78
505.093	10522.07
505.462	10662.86
505.83	10745.56
506.199	10809.07
506.567	10977.42
506.936	10948.72
507.304	11064.88
507.672	11142.16
508.041	11145.1
508.409	11275.49
508.777	11374.7
509.145	11420.8
509.514	11505.77
509.882	11513.23
510.25	11555.26
510.618	11627.35
510.986	11698.53
511.354	11782.37
511.722	11886.78
512.09	11952.76
512.458	11982.14
512.826	12030.05
513.193	12012.2
513.561	12118.41
513.929	12219.65
514.297	12289.48
514.664	12268.69
515.032	12370.15
515.4	12345.97
515.767	12476.82
516.135	12486.76
516.502	12373.54
516.869	12636.81
517.237	12598.17
517.604	12555.91
517.972	12658.96
518.339	12693.76
518.706	12704.38
519.073	12753.2
519.44	12708.23
519.808	12896.02
520.175	12831.16
520.542	12952.06
520.909	12990.93
521.276	12936.92
521.643	13065.73
522.009	13013.75
522.376	13129.91
522.743	13149.8
523.11	13248.1
523.477	13266.18
523.843	13357.7
524.21	13397.7
524.577	13412.61
524.943	13470.01
525.31	13432.27
525.676	13533.97
526.043	13489
526.409	13482.44
526.776	13610.35
527.142	13658.26
527.508	13610.12
527.874	13652.16
528.241	13660.97
528.607	13646.05
528.973	13710.91
529.339	13648.99
529.705	13755.88
530.071	13812.38
530.437	13785.03
530.803	13789.55
531.169	13837.24
531.535	13707.07
531.901	13685.15
532.267	13712.27
532.632	13741.19
532.998	13797.91
533.364	13822.32
533.73	13845.37
534.095	13808.08
534.461	13793.17
534.826	13691.93
535.192	13762.66
535.557	13767.63
535.923	13682.21
536.288	13732.61
536.653	13651.48
537.019	13576.22
537.384	13622.55
537.749	13638.6
538.114	13581.87
538.479	13538.26
538.845	13615.32
539.21	13446.06
539.575	13484.7
539.94	13507.07
540.305	13532.16
540.67	13424.59
541.034	13420.52
541.399	13372.61
541.764	13416
542.129	13326.51
542.494	13315.67
542.858	13299.4
543.223	13248.32
543.587	13320.64
543.952	13229.34
544.316	13122.23
544.681	13072.74
545.045	13115.9
545.41	13118.61
545.774	13062.57
546.138	13024.6
546.503	12961.33
546.867	12945.06
547.231	12946.41
547.595	12946.86
547.959	12886.3
548.324	12873.64
548.688	12854.44
549.052	12784.61
549.416	12824.61
549.779	12798.39
550.143	12707.55
550.507	12795.23
550.871	12773.99
551.235	12608.11
551.599	12694.44
551.962	12621.67
552.326	12547.1
552.689	12674.33
553.053	12562.01
553.417	12488.34
553.78	12578.96
554.143	12528.57
554.507	12528.12
554.87	12473.43
555.234	12525.86
555.597	12419.65
555.96	12463.94
556.323	12398.4
556.686	12382.81
557.05	12408.8
557.413	12411.28
557.776	12360.89
558.139	12401.34
558.502	12338.74
558.865	12319.76
559.228	12418.74
559.59	12432.75
559.953	12390.27
560.316	12420.1
560.679	12354.34
561.041	12450.38
561.404	12385.3
561.767	12497.38
562.129	12408.8
562.492	12444.05
562.854	12376.93
563.217	12417.39
563.579	12502.81
563.941	12465.75
564.304	12387.1
564.666	12513.88
565.028	12404.28
565.39	12517.04
565.753	12550.04
566.115	12476.37
566.477	12528.34
566.839	12547.1
567.201	12579.42
567.563	12500.55
567.925	12621.67
568.287	12591.39
568.648	12532.41
569.01	12597.72
569.372	12670.94
569.734	12586.65
570.095	12703.48
570.457	12698.96
570.819	12669.81
571.18	12676.36
571.542	12759.52
571.903	12718.17
572.265	12782.57
572.626	12717.72
572.987	12744.16
573.349	12741.67
573.71	12791.16
574.071	12764.27
574.432	12780.31
574.794	12878.62
575.155	12845.4
575.516	12743.93
575.877	12853.53
576.238	12818.05
576.599	12896.24
576.96	12877.03
577.32	12790.71
577.681	12882.91
578.042	12901.44
578.403	12841.78
578.763	12947.99
579.124	12918.62
579.485	12920.42
579.845	12907.32
580.206	12873.87
580.566	12846.07
580.927	12786.87
581.287	12886.3
581.648	12877.71
582.008	12918.39
582.368	12830.26
582.728	12919.75
583.089	12879.97
583.449	12881.33
583.809	12903.93
584.169	12902.57
584.529	12847.66
584.889	12914.1
585.249	12848.79
585.609	12830.26
585.969	12861.67
586.329	12792.97
586.688	12835
587.048	12794.32
587.408	12748.22
587.768	12791.16
588.127	12683.59
588.487	12728.11
588.846	12850.14
589.206	12655.35
589.565	12693.99
589.925	12774.89
590.284	12730.15
590.643	12721.11
591.003	12785.29
591.362	12783.93
591.721	12689.92
592.08	12662.8
592.44	12811.73
592.799	12730.37
593.158	12693.54
593.517	12646.31
593.876	12588.68
594.235	12676.59
594.593	12662.12
594.952	12676.36
595.311	12698.51
595.67	12656.48
596.029	12607.66
596.387	12681.56
596.746	12688.34
597.104	12596.59
597.463	12573.99
597.822	12630.94
598.18	12568.12
598.538	12545.74
598.897	12639.75
599.255	12532.64
599.613	12747.32
599.972	12620.32
600.33	12617.83
600.688	12588
601.046	12672.29
601.404	12712.07
601.762	12687.89
602.12	12720.88
602.478	12637.94
602.836	12663.25
603.194	12616.48
603.552	12663.48
603.91	12585.97
604.268	12644.5
604.625	12557.27
604.983	12643.14
605.341	12589.58
605.698	12632.07
606.056	12710.71
606.413	12577.16
606.771	12664.38
607.128	12722.69
607.485	12574.22
607.843	12656.93
608.2	12642.69
608.557	12703.71
608.914	12661.45
609.272	12672.52
609.629	12704.84
609.986	12738.51
610.343	12664.16
610.7	12793.19
611.057	12773.53
611.414	12769.69
611.771	12782.57
612.127	12787.55
612.484	12773.99
612.841	12860.99
613.198	12864.61
613.554	12745.29
613.911	12898.05
614.267	12935.11
614.624	12858.73
614.98	12940.54
615.337	12974.43
615.693	12908.45
616.05	12870.25
616.406	12918.84
616.762	12920.87
617.118	12878.84
617.475	12913.87
617.831	12940.08
618.187	13009.69
618.543	13002
618.899	13039.06
619.255	12992.51
619.611	13036.8
619.967	13066.86
620.323	13010.59
620.678	12966.3
621.034	12912.06
621.39	12963.59
621.746	12949.8
622.101	13128.78
622.457	12918.62
622.812	13003.58
623.168	12983.25
623.523	13018.05
623.879	13047.65
624.234	12980.99
624.589	12978.5
624.945	13013.98
625.3	13057.37
625.655	13026.86
626.01	13035.45
626.365	12928.11
626.72	13095.33
627.075	13007.65
627.43	12998.61
627.785	13006.07
628.14	13004.04
628.495	13027.99
628.85	13020.53
629.205	13009.46
629.559	13047.65
629.914	13044.49
630.269	12988.44
630.623	12977.82
630.978	12983.7
631.332	13001.32
631.687	12949.57
632.041	12944.83
632.396	12898.05
632.75	12788.22
633.104	12853.08
633.459	12832.74
633.813	12801.78
634.167	12816.02
634.521	12855.11
634.875	12794.1
635.229	12764.49
635.583	12746.19
635.937	12768.11
636.291	12688.56
636.645	12768.11
636.999	12703.93
637.352	12756.59
637.706	12645.63
638.06	12706.87
638.413	12612.41
638.767	12701.9
639.121	12623.71
639.474	12531.05
639.828	12497.84
640.181	12612.41
640.534	12562.92
640.888	12557.04
641.241	12452.41
641.594	12496.03
641.947	12593.65
642.301	12459.19
642.654	12522.24
643.007	12486.54
643.36	12464.84
643.713	12489.02
644.066	12531.28
644.419	12503.03
644.771	12437.72
645.124	12304.62
645.477	12341.91
645.83	12128.81
646.182	12123.16
646.535	12049.26
646.888	12174.23
647.24	12030.05
647.593	12152.76
647.945	12033.21
648.298	12003.61
648.65	12039.09
649.002	11945.99
649.355	12063.95
649.707	11993.44
650.059	12075.7
650.411	12246.54
650.763	12309.37
651.115	12392.75
651.467	12309.14
651.819	12339.65
652.171	12286.09
652.523	12304.62
652.875	12272.98
653.227	12258.52
653.578	12384.17
653.93	12338.97
654.282	12159.54
654.633	12229.14
654.985	12232.08
655.337	12287.22
655.688	12294.9
656.039	12267.11
656.391	12204.28
656.742	12233.89
657.094	12264.85
657.445	12322.47
657.796	12311.63
658.147	12301.23
658.498	12258.29
658.849	12280.67
659.2	12343.49
659.551	12213.1
659.902	12312.53
660.253	12300.33
660.604	12294.68
660.955	12265.98
661.306	12295.81
661.656	12337.39
662.007	12263.72
662.358	12336.94
662.708	12268.01
663.059	12315.47
663.409	12270.72
663.76	12391.4
664.11	12317.28
664.461	12439.53
664.811	12355.01
665.161	12354.34
665.511	12259.65
665.862	12383.71
666.212	12339.65
666.562	12385.97
666.912	12266.65
667.262	12330.61
667.612	12401.79
667.962	12338.07
668.312	12336.26
668.662	12393.88
669.011	12282.7
669.361	12382.36
669.711	12305.3
670.06	12366.31
670.41	12304.62
670.76	12269.82
671.109	12344.39
671.459	12342.81
671.808	12325.64
672.157	12316.37
672.507	12189.37
672.856	12180.56
673.205	12232.53
673.554	12263.49
673.904	12210.16
674.253	12274.34
674.602	12239.31
674.951	12025.53
675.3	12131.74
675.649	12195.47
675.998	12279.76
676.346	12239.99
676.695	12199.31
677.044	12109.14
677.393	12134.45
677.741	12241.57
678.09	12164.28
678.438	12078.64
678.787	12184.4
679.135	12094.91
679.484	12035.25
679.832	12047.23
680.181	11960.22
680.529	11985.31
680.877	11983.72
681.225	11963.16
681.573	11956.15
681.922	11915.03
682.27	11788.02
682.618	11873.9
682.966	11882.03
683.314	11884.07
683.661	11830.96
684.009	11697.63
684.357	11801.58
684.705	11733.79
685.053	11750.51
685.4	11703.05
685.748	11632.77
686.095	11577.41
686.443	11631.64
686.79	11544.87
687.138	11580.35
687.485	11655.15
687.832	11559.55
688.18	11570.18
688.527	11462.61
688.874	11533.57
689.221	11407.47
689.568	11386.9
689.915	11361.82
690.262	11404.98
690.609	11348.49
690.956	11237.53
691.303	11287.47
691.65	11245.44
691.997	11191.88
692.344	11130.19
692.69	11097.65
693.037	11055.16
693.383	11014.71
693.73	10966.58
694.077	10966.12
694.423	10902.17
694.769	10928.38
695.116	10866.69
695.462	10807.26
695.808	10769.75
696.155	10772.68
696.501	10753.02
696.847	10666.47
697.193	10637.77
697.539	10635.74
697.885	10570.88
698.231	10496.53
698.577	10508.73
698.923	10526.81
699.269	10497.89
699.614	10371.34
699.96	10380.83
700.306	10306.25
700.651	10246.82
700.997	10214.28
701.342	10204.56
701.688	10158.46
702.033	10099.71
702.379	10141.06
702.724	10094.28
703.069	10134.06
703.415	9978.58
703.76	9944.23
704.105	9890.9
704.45	9961.63
704.795	9922.31
705.14	9814.74
705.485	9904.68
705.83	9757.79
706.175	9797.79
706.52	9798.92
706.865	9733.61
707.209	9779.26
707.554	9646.84
707.899	9688.42
708.243	9626.27
708.588	9627.18
708.932	9582.66
709.277	9555.77
709.621	9532.72
709.966	9515.54
710.31	9474.19
710.654	9459.27
710.998	9419.72
711.342	9374.3
711.687	9341.76
712.031	9306.73
712.375	9267.86
712.719	9287.75
713.063	9282.55
713.407	9287.98
713.75	9232.61
714.094	9262.67
714.438	9181.99
714.782	9202.1
715.125	9131.37
715.469	9121.65
715.812	9137.7
716.156	9127.3
716.499	9142.9
716.843	9148.77
717.186	9014.54
717.53	9029.23
717.873	9118.26
718.216	9068.09
718.559	8994.65
718.902	8945.84
719.246	9010.02
719.589	8940.87
719.932	8885.95
720.275	8902.68
720.617	8937.02
720.96	8894.54
721.303	8890.25
721.646	8892.96
721.989	8825.39
722.331	8850.7
722.674	8867.87
723.016	8866.07
723.359	8799.18
723.701	8816.58
724.044	8738.39
724.386	8786.97
724.729	8836.24
725.071	8748.56
725.413	8800.08
725.755	8727.31
726.097	8662.23
726.439	8687.09
726.782	8720.08
727.124	8751.49
727.465	8721.44
727.807	8741.32
728.149	8781.55
728.491	8671.04
728.833	8696.13
729.175	8706.97
729.516	8703.58
729.858	8723.25
730.199	8683.92
730.541	8615
730.882	8675.11
731.224	8743.13
731.565	8645.06
731.906	8627.65
732.248	8673.53
732.589	8555.57
732.93	8558.5
733.271	8609.12
733.612	8578.39
733.953	8657.48
734.294	8661.55
734.635	8566.87
734.976	8615.45
735.317	8561.22
735.658	8619.75
735.999	8575.9
736.339	8558.5
736.68	8625.85
737.021	8576.13
737.361	8607.32
737.702	8611.84
738.042	8595.56
738.383	8620.65
738.723	8605.06
739.063	8649.57
739.404	8698.61
739.744	8727.09
740.084	8677.82
740.424	8673.3
740.764	8687.54
741.104	8783.36
741.444	8732.51
741.784	8738.84
742.124	8811.83
742.464	8736.58
742.804	8788.55
743.143	8769.12
743.483	8858.38
743.823	8783.58
744.162	8796.92
744.502	8871.94
744.841	8891.6
745.181	8961.21
745.52	8946.29
745.86	9064.48
746.199	9003.69
746.538	9036.01
746.877	9127.3
747.216	9136.57
747.556	9162.1
747.895	9224.7
748.234	9193.29
748.573	9238.03
748.911	9318.26
749.25	9422.44
749.589	9461.08
749.928	9513.96
750.267	9617.01
750.605	9700.39
750.944	9703.11
751.283	9798.25
751.621	9882.08
751.96	9932.48
752.298	9958.69
752.636	10094.96
752.975	10116.2
753.313	10287.5
753.651	10403.43
753.989	10484.1
754.327	10539.47
754.666	10625.79
755.004	10751.89
755.342	10931.1
755.679	11074.82
756.017	11052.9
756.355	11376.06
756.693	11387.36
757.031	11573.79
757.368	11637.74
757.706	11817.4
758.044	11894.69
758.381	12135.58
758.719	12330.61
759.056	12442.7
759.394	12614.67
759.731	12602.24
760.068	12872.97
760.405	13053.07
760.743	13108.67
761.08	13271.83
761.417	13456.45
761.754	13593.17
762.091	13779.61
762.428	13875.2
762.765	13924.92
763.102	14213.72
763.438	14391.12
763.775	14490.78
764.112	14631.34
764.449	14944.55
764.785	14973.7
765.122	14990.2
765.458	15244.43
765.795	15359.45
766.131	15525.33
766.467	15683.51
766.804	15778.65
767.14	15810.29
767.476	15988.36
767.812	16101.36
768.148	16298.19
768.485	16258.87
768.821	16344.74
769.157	16575.47
769.492	16568.46
769.828	16902.01
770.164	16872.86
770.5	16953.54
770.836	17100.43
771.171	17178.84
771.507	17338.84
771.842	17292.51
772.178	17471.94
772.513	17550.36
772.849	17579.96
773.184	17669
773.519	17766.4
773.855	17733.63
774.19	17916.22
774.525	17940.18
774.86	18049.1
775.195	18082.32
775.53	18059.5
775.865	18083.9
776.2	18124.58
776.535	18128.65
776.87	18145.6
777.205	18237.8
777.539	18273.05
777.874	18428.98
778.209	18268.53
778.543	18307.4
778.878	18261.53
779.212	18348.98
779.547	18315.76
779.881	18464.68
780.215	18368.42
780.55	18449.77
780.884	18500.39
781.218	18396.44
781.552	18473.27
781.886	18512.37
782.22	18413.61
782.554	18451.35
782.888	18290.23
783.222	18297.91
783.556	18334.29
783.889	18342.65
784.223	18281.41
784.557	18305.37
784.89	18320.73
785.224	18256.33
785.557	18226.95
785.891	18231.02
786.224	18167.52
786.558	18188.08
786.891	18156.22
787.224	18120.06
787.557	18077.35
787.891	18130.46
788.224	18080.97
788.557	18093.17
788.89	18097.24
789.223	18177.01
789.556	17977.47
789.888	17963.68
790.221	18001.19
790.554	17762.33
790.887	17916.45
791.219	17789
791.552	17713.74
791.884	17769.11
792.217	17695.66
792.549	17736.34
792.882	17661.32
793.214	17525.73
793.546	17664.03
793.879	17477.59
794.211	17389.68
794.543	17569.34
794.875	17437.82
795.207	17530.47
795.539	17378.38
795.871	17388.1
796.203	17267.65
796.535	17213.42
796.867	17089.8
797.198	17210.25
797.53	17148.11
797.862	17023.37
798.193	17126.64
798.525	16947.66
798.856	16955.8
799.188	16811.85
799.519	16794.45
799.85	16777.95
800.182	16836.93
800.513	16766.65
800.844	16673.54
801.175	16755.58
801.506	16671.28
801.837	16503.38
802.168	16578.18
802.499	16550.84
802.83	16518.29
803.161	16480.1
803.491	16427.45
803.822	16468.8
804.153	16389.26
804.483	16251.86
804.814	16111.53
805.145	16317.85
805.475	16273.1
805.805	16127.8
806.136	16003.96
806.466	16144.07
806.796	16130.28
807.126	16011.19
807.457	15909.04
807.787	16030.62
808.117	15890.29
808.447	15788.14
808.777	15872.21
809.107	15771.65
809.436	15759.44
809.766	15762.16
810.096	15641.26
810.426	15628.15
810.755	15676.96
811.085	15646
811.414	15635.83
811.744	15475.16
812.073	15476.51
812.403	15443.29
812.732	15377.31
813.061	15434.26
813.39	15282.17
813.719	15405.56
814.049	15400.58
814.378	15307.7
814.707	15272.9
815.036	15197.2
815.365	15141.61
815.693	15089.18
816.022	15122.17
816.351	15007.83
816.68	14991.1
817.008	15048.05
817.337	14853.71
817.665	14903.87
817.994	14876.3
818.322	14898.45
818.651	14787.94
818.979	14813.03
819.307	14814.16
819.636	14842.63
819.964	14805.35
820.292	14780.04
820.62	14778.23
820.948	14714.05
821.276	14728.96
821.604	14705.46
821.932	14697.78
822.259	14709.75
822.587	14719.47
822.915	14712.69
823.243	14685.8
823.57	14595.86
823.898	14611.68
824.225	14703.43
824.553	14651.45
824.88	14621.62
825.207	14732.35
825.535	14663.2
825.862	14727.16
826.189	14651.9
826.516	14697.78
826.843	14721.51
827.17	14752.69
827.497	14825.68
827.824	14771.45
828.151	14736.87
828.478	14707.95
828.805	14831.79
829.131	14761.28
829.458	14712.24
829.785	14652.81
830.111	14708.4
830.438	14695.74
830.764	14737.1
831.09	14758.79
831.417	14693.48
831.743	14644.22
832.069	14733.26
832.395	14573.71
832.722	14726.93
833.048	14671.56
833.374	14605.35
833.7	14508.86
834.026	14596.99
834.351	14572.81
834.677	14595.41
835.003	14547.27
835.329	14568.29
835.654	14583.88
835.98	14455.52
836.306	14458.46
836.631	14458.24
836.956	14401.06
837.282	14451.23
837.607	14399.93
837.932	14374.62
838.258	14403.55
838.583	14385.7
838.908	14307.73
839.233	14375.98
839.558	14210.78
839.883	14177.34
840.208	14192.48
840.533	14252.37
840.858	14158.13
841.182	14140.28
841.507	14176.89
841.832	14121.07
842.156	14135.31
842.481	14020.51
842.805	14000.39
843.13	13998.36
843.454	14035.42
843.778	13867.29
844.103	13906.39
844.427	13822.09
844.751	13882.66
845.075	13820.96
845.399	13772.15
845.723	13707.07
846.047	13730.35
846.371	13611.03
846.695	13599.28
847.019	13485.15
847.343	13440.18
847.666	13427.98
847.99	13406.06
848.313	13320.64
848.637	13249.91
848.96	13242.67
849.284	13178.04
849.607	13155.9
849.931	13089.46
850.254	12985.51
850.577	12940.31
850.9	12871.84
851.223	12800.88
851.546	12831.84
851.869	12699.41
852.192	12706.19
852.515	12634.1
852.838	12580.32
853.161	12575.35
853.483	12523.82
853.806	12512.52
854.129	12389.14
854.451	12394.79
854.774	12328.35
855.096	12270.5
855.419	12258.52
855.741	12204.51
856.063	12150.5
856.385	12183.04
856.708	12128.13
857.03	12041.35
857.352	12024.18
857.674	12073.44
857.996	11986.89
858.318	11877.06
858.64	11916.16
858.961	11829.6
859.283	11809.27
859.605	11750.96
859.926	11802.94
860.248	11775.82
860.57	11651.3
860.891	11720
861.212	11633.23
861.534	11658.31
861.855	11572.89
862.176	11565.66
862.498	11565.2
862.819	11510.74
863.14	11516.84
863.461	11481.36
863.782	11458.31
864.103	11383.97
864.424	11455.83
864.745	11436.62
865.065	11399.33
865.386	11331.09
865.707	11209.28
866.027	11249.51
866.348	11231.88
866.668	11286.34
866.989	11273.01
867.309	11164.08
867.63	11167.93
867.95	11194.59
868.27	11159.79
868.59	11150.75
868.91	11108.27
869.23	11082.51
869.55	11040.25
869.87	11121.37
870.19	11060.13
870.51	11030.98
870.83	11090.41
871.15	11065.1
871.469	10996.63
871.789	11055.16
872.109	10993.24
872.428	10927.71
872.748	10897.88
873.067	10905.79
873.386	10886.8
873.706	10875.96
874.025	10820.14
874.344	10809.74
874.663	10834.6
874.982	10781.5
875.301	10764.77
875.62	10753.7
875.939	10779.46
876.258	10775.85
876.577	10737.2
876.896	10699.01
877.214	10664.44
877.533	10687.04
877.852	10674.83
878.17	10663.31
878.489	10643.42
878.807	10651.1
879.125	10624.89
879.444	10598.9
879.762	10539.02
880.08	10533.82
880.398	10501.73
880.716	10497.21
881.034	10428.06
881.352	10447.49
881.67	10430.32
881.988	10386.48
882.306	10363.43
882.624	10346.93
882.941	10268.06
883.259	10259.93
883.577	10258.57
883.894	10295.41
884.212	10302.86
884.529	10175.64
884.846	10124.79
885.164	10215.64
885.481	10174.05
885.798	10149.65
886.115	10064.45
886.432	10056.54
886.75	10057.67
887.067	10046.15
887.383	9944.23
887.7	9975.19
888.017	9934.74
888.334	9947.39
888.651	9893.16
888.967	9840.28
889.284	9814.97
889.6	9781.75
889.917	9793.27
890.233	9773.84
890.55	9767.74
890.866	9737.46
891.182	9657.23
891.498	9657.01
891.815	9604.13
892.131	9555.54
892.447	9584.24
892.763	9514.41
893.079	9521.87
893.395	9469.67
893.71	9486.61
894.026	9437.35
894.342	9414.3
894.657	9371.36
894.973	9337.01
895.289	9316.9
895.604	9339.27
895.92	9225.6
896.235	9160.07
896.55	9205.94
896.865	9088.66
897.181	9081.88
897.496	9069.22
897.811	9101.99
898.126	9049.34
898.441	8965.72
898.756	9004.14
899.071	8911.04
899.386	8959.85
899.7	8855.67
900.015	8793.75
900.33	8796.46
900.644	8735.45
900.959	8758.27
901.273	8740.42
901.588	8605.96
901.902	8646.19
902.216	8600.31
902.531	8606.41
902.845	8500.43
903.159	8450.94
903.473	8440.54
903.787	8422.91
904.101	8351.05
904.415	8360.77
904.729	8358.06
905.042	8273.77
905.356	8270.6
905.67	8292.52
905.984	8264.73
906.297	8155.35
906.611	8166.42
906.924	8106.31
907.237	8117.61
907.551	8090.72
907.864	8037.61
908.177	8002.59
908.491	7997.39
908.804	7915.36
909.117	7882.82
909.43	7854.34
909.743	7798.52
910.056	7798.52
910.368	7726.89
910.681	7762.37
910.994	7712.42
911.307	7673.78
911.619	7561.69
911.932	7624.74
912.244	7553.11
912.557	7553.33
912.869	7481.92
913.181	7483.28
913.494	7483.73
913.806	7435.14
914.118	7424.3
914.43	7322.6
914.742	7302.49
915.054	7250.29
915.366	7285.09
915.678	7249.84
915.99	7203.96
916.302	7130.07
916.613	7125.55
916.925	7117.41
917.236	7087.36
917.548	7048.94
917.859	7034.25
918.171	6944.31
918.482	6977.53
918.794	6887.14
919.105	6977.98
919.416	6848.04
919.727	6849.17
920.038	6866.57
920.349	6781.83
920.66	6768.95
920.971	6809.17
921.282	6764.43
921.593	6693.02
921.903	6666.58
922.214	6670.64
922.525	6642.4
922.835	6569.63
923.146	6565.34
923.456	6567.6
923.767	6515.85
924.077	6490.54
924.387	6442.18
924.697	6448.73
925.008	6382.52
925.318	6354.72
925.628	6322.4
925.938	6416.87
926.248	6295.74
926.558	6232.24
926.867	6257.32
927.177	6277.66
927.487	6213.03
927.796	6152.69
928.106	6193.59
928.416	6133.26
928.725	6067.04
929.034	6034.5
929.344	6047.38
929.653	6068.4
929.962	5993.15
930.271	5956.31
930.581	5939.36
930.89	5903.43
931.199	5923.32
931.508	5887.61
931.817	5907.73
932.125	5858.24
932.434	5843.32
932.743	5781.63
933.051	5735.75
933.36	5718.58
933.669	5697.11
933.977	5647.39
934.286	5693.27
934.594	5647.17
934.902	5599.49
935.21	5535.53
935.519	5587.96
935.827	5557.45
936.135	5495.08
936.443	5486.49
936.751	5443.33
937.059	5422.09
937.367	5417.12
937.674	5426.61
937.982	5390.68
938.29	5381.86
938.597	5324.92
938.905	5302.54
939.213	5223
939.52	5227.52
939.827	5260.06
940.135	5220.29
940.442	5170.12
940.749	5182.1
941.056	5152.49
941.363	5104.81
941.67	5103.23
941.977	5096
942.284	5057.58
942.591	5056.67
942.898	5018.48
943.205	5020.74
943.511	4969.22
943.818	4966.06
944.125	4910.01
944.431	4929.22
944.738	4924.02
945.044	4900.75
945.35	4851.48
945.657	4797.25
945.963	4783.46
946.269	4759.51
946.575	4799.96
946.881	4687.42
947.187	4730.36
947.493	4658.27
947.799	4707.31
948.105	4703.01
948.41	4665.05
948.716	4653.97
949.022	4637.48
949.327	4600.19
949.633	4537.59
949.938	4594.54
950.244	4536.69
950.549	4514.32
950.854	4543.69
951.16	4520.42
951.465	4444.71
951.77	4440.87
952.075	4380.08
952.38	4411.95
952.685	4386.18
952.99	4375.79
953.294	4362
953.599	4301.21
953.904	4306.64
954.209	4277.71
954.513	4282.46
954.818	4260.54
955.122	4228.67
955.426	4212.4
955.731	4201.56
956.035	4139.86
956.339	4172.4
956.643	4127.89
956.948	4101.45
957.252	4078.85
957.556	4115
957.86	4041.11
958.163	4065.97
958.467	4075.23
958.771	4014.67
959.075	4022.8
959.378	3978.74
959.682	3978.06
959.985	3957.72
960.289	3933.09
960.592	3912.75
960.896	3887.67
961.199	3886.31
961.502	3850.83
961.805	3843.83
962.108	3793.88
962.411	3823.49
962.714	3795.92
963.017	3798.63
963.32	3797.5
963.623	3759.99
963.926	3722.02
964.228	3755.24
964.531	3702.36
964.833	3724.96
965.136	3670.95
965.438	3658.07
965.741	3615.13
966.043	3656.26
966.345	3605.87
966.648	3617.16
966.95	3585.53
967.252	3581.69
967.554	3575.13
967.856	3568.58
968.158	3542.59
968.46	3491.52
968.761	3463.27
969.063	3504.85
969.365	3452.2
969.666	3461.91
969.968	3450.16
970.269	3370.62
970.571	3406.32
970.872	3384.63
971.174	3358.41
971.475	3381.92
971.776	3296.5
972.077	3360
972.378	3262.82
972.679	3294.24
972.98	3284.74
973.281	3277.96
973.582	3261.69
973.883	3267.12
974.183	3214.92
974.484	3206.1
974.785	3218.76
975.085	3203.62
975.386	3182.83
975.686	3145.54
975.986	3107.35
976.287	3113.68
976.587	3091.53
976.887	3082.26
977.187	3089.72
977.487	3078.87
977.787	3055.37
978.087	3051.76
978.387	3026.45
978.687	3061.47
978.987	3008.59
979.286	2949.16
979.586	2980.12
979.885	2943.06
980.185	2961.36
980.484	2920.23
980.784	2910.52
981.083	2931.08
981.382	2830.74
981.682	2893.57
981.981	2881.59
982.28	2865.09
982.579	2857.41
982.878	2824.87
983.177	2817.86
983.475	2812.44
983.774	2780.12
984.073	2803.17
984.372	2759.56
984.67	2773.35
984.969	2757.07
985.267	2747.36
985.566	2725.66
985.864	2729.96
986.162	2705.55
986.461	2694.7
986.759	2649.96
987.057	2693.12
987.355	2629.62
987.653	2645.44
987.951	2643.63
988.249	2603.18
988.547	2610.41
988.844	2589.4
989.142	2577.19
989.44	2564.31
989.737	2581.94
990.035	2580.58
990.332	2520.7
990.63	2528.15
990.927	2504.43
991.224	2509.85
991.521	2462.84
991.819	2445.22
992.116	2440.02
992.413	2432.11
992.71	2441.38
993.006	2431.43
993.303	2396.86
993.6	2449.96
993.897	2387.37
994.193	2374.26
994.49	2372.68
994.787	2326.58
995.083	2344.2
995.379	2343.53
995.676	2324.77
995.972	2345.79
996.268	2303.98
996.565	2333.36
996.861	2299.01
997.157	2257.2
997.453	2260.59
997.749	2267.6
998.044	2213.59
998.34	2249.97
998.636	2241.61
998.932	2200.25
999.227	2173.36
999.523	2147.37
999.818	2192.57
1000.114	2176.75
1000.409	2163.87
1000.704	2129.29
1001	2089.52
1001.295	2108.73
1001.59	2122.74
1001.885	2088.84
1002.18	2085.45
1002.475	2087.49
1002.77	2039.58
1003.065	2009.98
1003.359	2015.62
1003.654	2001.16
1003.949	2018.11
1004.243	1987.6
1004.538	1994.83
1004.832	1996.64
1005.127	1952.8
1005.421	1963.65
1005.715	1934.72
1006.009	1947.38
1006.304	1903.76
1006.598	1947.38
1006.892	1913.93
1007.186	1890.2
1007.48	1885.68
1007.773	1853.14
1008.067	1864.67
1008.361	1818.12
1008.655	1832.58
1008.948	1834.61
1009.242	1836.42
1009.535	1822.41
1009.829	1816.53
1010.122	1781.73
1010.415	1746.03
1010.708	1740.15
1011.001	1773.6
1011.295	1753.03
1011.588	1765.46
1011.881	1712.58
1012.173	1710.77
1012.466	1702.64
1012.759	1693.83
1013.052	1664.67
1013.344	1699.93
1013.637	1687.72
1013.93	1635.07
1014.222	1656.31
1014.514	1663.09
1014.807	1620.16
1015.099	1601.17
1015.391	1577.67
1015.683	1588.52
1015.976	1593.04
1016.268	1578.8
1016.56	1564.34
1016.851	1544.45
1017.143	1533.15
1017.435	1548.52
1017.727	1501.74
1018.018	1509.2
1018.31	1518.69
1018.602	1506.71
1018.893	1500.16
1019.185	1501.29
1019.476	1445.92
1019.767	1468.07
1020.058	1442.53
1020.35	1438.01
1020.641	1446.6
1020.932	1446.6
1021.223	1415.19
1021.514	1402.53
1021.804	1396.66
1022.095	1371.35
1022.386	1365.02
1022.677	1361.63
1022.967	1343.55
1023.258	1330.45
1023.548	1340.16
1023.839	1332.03
1024.129	1344.91
1024.419	1343.78
1024.709	1304.91
1025	1306.72
1025.29	1328.41
1025.58	1280.73
1025.87	1289.77
1026.16	1260.62
1026.449	1273.72
1026.739	1254.52
1027.029	1273.95
1027.319	1267.85
1027.608	1223.78
1027.898	1217.91
1028.187	1217
1028.477	1235.31
1028.766	1186.49
1029.055	1175.87
1029.344	1187.62
1029.634	1157.34
1029.923	1187.17
1030.212	1143.33
1030.501	1153.05
1030.79	1154.86
1031.078	1137.23
1031.367	1132.48
1031.656	1144.46
1031.945	1123.9
1032.233	1143.33
1032.522	1088.42
1032.81	1090.45
1033.099	1086.16
1033.387	1070.57
1033.675	1080.73
1033.963	1069.89
1034.251	1064.92
1034.54	1039.83
1034.828	1049.32
1035.116	1035.76
1035.403	1031.92
1035.691	1028.53
1035.979	995.99
1036.267	1028.76
1036.554	1002.54
1036.842	971.58
1037.129	1007.74
1037.417	1019.94
1037.704	990.57
1037.992	964.58
1038.279	946.27
1038.566	973.17
1038.853	973.17
1039.14	973.17
