Data from hue_260_FLMS001491_00087.txt Node
Date: Tue Feb 07 15:59:43 GMT 2017
User: dcchb
Spectrometer: FLMS00149
Trigger mode: 0
Integration Time (sec): 2.000000E-2
Scans to average: 10
Electric dark correction enabled: true
Nonlinearity correction enabled: false
Boxcar width: 0
XAxis mode: Wavelengths
Number of Pixels in Spectrum: 2048
>>>>>Begin Spectral Data<<<<<
341.393	-26.14
341.776	-26.14
342.16	-26.14
342.543	-74.05
342.927	-76.76
343.31	-60.27
343.693	-72.02
344.077	-74.05
344.46	-63.43
344.843	-79.25
345.226	-29.53
345.61	-18.46
345.993	-7.84
346.376	-19.36
346.759	19.28
347.142	23.57
347.525	25.15
347.908	67.64
348.291	80.52
348.674	83.91
349.057	124.14
349.44	116.9
349.823	130.69
350.206	156.45
350.588	173.4
350.971	182.44
351.354	203
351.737	221.53
352.119	239.16
352.502	246.17
352.884	274.64
353.267	296.79
353.65	288.88
354.032	266.28
354.414	281.87
354.797	313.73
355.179	290.68
355.562	311.47
355.944	312.38
356.326	326.16
356.709	322.1
357.091	323.45
357.473	346.5
357.855	343.11
358.238	346.28
358.62	307.86
359.002	325.26
359.384	327.75
359.766	326.62
360.148	325.03
360.53	328.2
360.912	313.28
361.294	338.59
361.676	325.94
362.057	303.79
362.439	332.72
362.821	312.15
363.203	326.16
363.584	306.28
363.966	319.61
364.348	311.7
364.729	330.01
365.111	308.31
365.493	309.67
365.874	301.31
366.256	306.5
366.637	301.98
367.019	289.33
367.4	306.5
367.781	304.92
368.163	298.37
368.544	294.75
368.925	305.83
369.306	298.37
369.688	303.57
370.069	319.84
370.45	308.54
370.831	294.07
371.212	303.34
371.593	289.33
371.974	306.5
372.355	313.28
372.736	298.14
373.117	319.61
373.498	304.02
373.879	319.61
374.26	327.29
374.641	317.58
375.021	300.85
375.402	325.03
375.783	303.11
376.163	285.71
376.544	331.59
376.925	323.9
377.305	307.63
377.686	311.7
378.066	298.37
378.447	320.29
378.827	333.17
379.208	302.66
379.588	320.06
379.968	315.99
380.349	338.59
380.729	332.49
381.109	327.75
381.489	319.84
381.87	337.24
382.25	355.32
382.63	332.49
383.01	328.42
383.39	316.9
383.77	325.71
384.15	346.5
384.53	354.41
384.91	341.3
385.29	344.24
385.67	339.95
386.049	329.78
386.429	337.69
386.809	361.42
387.189	357.12
387.568	351.25
387.948	356.67
388.328	365.94
388.707	349.44
389.087	345.82
389.466	370.46
389.846	351.7
390.225	353.96
390.605	367.29
390.984	352.38
391.363	350.8
391.743	365.94
392.122	375.88
392.501	368.65
392.881	374.98
393.26	369.78
393.639	386.28
394.018	365.03
394.397	374.75
394.776	383.79
395.155	391.47
395.534	365.71
395.913	377.24
396.292	399.16
396.671	378.37
397.05	397.12
397.429	407.97
397.808	391.25
398.186	392.6
398.565	387.63
398.944	421.98
399.323	403.22
399.701	400.29
400.08	401.19
400.458	433.28
400.837	392.83
401.215	423.79
401.594	424.47
401.972	397.57
402.351	401.19
402.729	428.76
403.107	418.14
403.486	428.08
403.864	421.98
404.242	416.78
404.62	423.34
404.999	448.65
405.377	427.86
405.755	429.44
406.133	451.58
406.511	434.64
406.889	460.4
407.267	440.96
407.645	475.09
408.023	498.81
408.401	465.37
408.779	467.4
409.156	491.36
409.534	502.43
409.912	503.56
410.29	490
410.667	510.57
411.045	512.6
411.422	513.05
411.8	549.66
412.178	526.38
412.555	518.7
412.933	546.95
413.31	560.73
413.687	553.28
414.065	580.85
414.442	570
414.819	581.98
415.197	570.45
415.574	597.12
415.951	626.95
416.328	608.64
416.705	615.42
417.082	638.92
417.46	650.45
417.837	627.17
418.214	625.82
418.591	647.51
418.967	658.36
419.344	676.89
419.721	674.63
420.098	658.58
420.475	688.87
420.852	692.93
421.228	708.07
421.605	696.78
421.982	746.27
422.358	745.59
422.735	743.55
423.111	749.88
423.488	739.26
423.864	772.71
424.241	771.58
424.617	805.02
424.994	772.48
425.37	826.72
425.746	833.95
426.123	812.93
426.499	837.34
426.875	856.09
427.251	878.92
427.627	889.76
428.003	878.47
428.379	918.46
428.756	898.58
429.132	936.09
429.507	927.05
429.883	951.91
430.259	958.92
430.635	957.56
431.011	956.88
431.387	1008.63
431.763	1020.83
432.138	981.29
432.514	1029.42
432.89	1034.62
433.265	1054.05
433.641	1091.34
434.016	1103.54
434.392	1120.49
434.767	1117.33
435.143	1121.17
435.518	1136.09
435.894	1157.78
436.269	1162.53
436.644	1198.68
437.02	1222.19
437.395	1225.8
437.77	1228.29
438.145	1273.03
438.52	1292.69
438.895	1303.09
439.271	1349.41
439.646	1340.83
440.021	1363.88
440.395	1365.68
440.77	1367.94
441.145	1397.55
441.52	1419.47
441.895	1425.8
442.27	1402.07
442.645	1417.21
443.019	1454.04
443.394	1477.32
443.769	1512.35
444.143	1482.52
444.518	1517.77
444.892	1507.83
445.267	1545.79
445.641	1527.04
446.016	1544.44
446.39	1541.72
446.764	1560.93
447.139	1581.5
447.513	1599.35
447.887	1589.18
448.262	1625.79
448.636	1625.11
449.01	1641.84
449.384	1652.46
449.758	1659.01
450.132	1680.25
450.506	1696.98
450.88	1725.9
451.254	1699.01
451.628	1728.39
452.002	1755.96
452.376	1743.53
452.75	1788.5
453.123	1812.23
453.497	1840.25
453.871	1818.33
454.244	1854.26
454.618	1871.89
454.992	1889.51
455.365	1884.54
455.739	1927.25
456.112	1981.49
456.486	1969.06
456.859	1954.6
457.232	2008.61
457.606	2033.69
457.979	2024.2
458.352	2071.2
458.725	2090.41
459.099	2118.66
459.472	2138.32
459.845	2163.18
460.218	2180.8
460.591	2178.09
460.964	2202.27
461.337	2231.88
461.71	2276.39
462.083	2273.68
462.456	2295.38
462.829	2352.33
463.201	2345.32
463.574	2369.95
463.947	2378.31
464.32	2427.58
464.692	2442.27
465.065	2471.87
465.438	2482.49
465.81	2555.26
466.183	2571.98
466.555	2636.84
466.928	2621.02
467.3	2611.75
467.672	2637.74
468.045	2715.25
468.417	2719.55
468.789	2726.1
469.161	2767
469.534	2822.37
469.906	2875.48
470.278	2884.74
470.65	2922.03
471.022	2955.7
471.394	3024.62
471.766	3007.68
472.138	3057.62
472.51	3096.26
472.882	3148.24
473.253	3168.57
473.625	3207.22
473.997	3277.5
474.369	3314.33
474.74	3337.84
475.112	3361.79
475.484	3427.55
475.855	3410.38
476.227	3500.54
476.598	3571.95
476.97	3642.91
477.341	3674.1
477.713	3731.95
478.084	3740.09
478.455	3801.1
478.827	3811.5
479.198	3929.46
479.569	3925.84
479.94	4045.16
480.311	4086.29
480.682	4162.67
481.053	4182.79
481.424	4245.38
481.795	4296.45
482.166	4331.48
482.537	4398.6
482.908	4479.27
483.279	4506.62
483.65	4596.11
484.021	4706.84
484.391	4751.81
484.762	4761.98
485.133	4775.09
485.503	4867.97
485.874	4969.66
486.244	4962.88
486.615	5030.22
486.985	5124.68
487.356	5159.93
487.726	5202.42
488.097	5293.26
488.467	5316.32
488.837	5379.59
489.207	5424.11
489.578	5514.73
489.948	5561.28
490.318	5622.3
490.688	5620.94
491.058	5682.18
491.428	5764.44
491.798	5760.6
492.168	5895.96
492.538	5882.85
492.908	5963.98
493.278	6034.94
493.648	6029.06
494.017	6112.9
494.387	6142.28
494.757	6186.35
495.126	6180.47
495.496	6271.77
495.866	6282.17
496.235	6349.96
496.605	6397.87
496.974	6378.43
497.344	6434.7
497.713	6491.43
498.082	6441.71
498.452	6526
498.821	6548.37
499.19	6574.36
499.559	6564.87
499.928	6654.58
500.298	6735.49
500.667	6719.67
501.036	6736.39
501.405	6797.18
501.774	6825.2
502.143	6864.07
502.512	6809.84
502.88	6915.82
503.249	6883.05
503.618	6927.35
503.987	6999.43
504.356	6981.36
504.724	7003.5
505.093	7033.78
505.462	7046.21
505.83	7108.81
506.199	7152.2
506.567	7135.93
506.936	7186.55
507.304	7228.81
507.672	7178.86
508.041	7248.92
508.409	7300.67
508.777	7314.23
509.145	7344.28
509.514	7327.79
509.882	7380.22
510.25	7404.17
510.618	7433.32
510.986	7397.39
511.354	7485.75
511.722	7526.43
512.09	7584.73
512.458	7514
512.826	7608.01
513.193	7589.25
513.561	7581.79
513.929	7530.49
514.297	7674.67
514.664	7706.53
515.032	7701.79
515.4	7772.97
515.767	7747.44
516.135	7804.84
516.502	7674.22
516.869	7877.83
517.237	7805.74
517.604	7720.77
517.972	7883.48
518.339	7894.55
518.706	7864.72
519.073	7833.31
519.44	7862.46
519.808	7917.83
520.175	7967.77
520.542	7932.97
520.909	7973.19
521.276	7975.23
521.643	7987.43
522.009	8033.76
522.376	8032.63
522.743	8088.22
523.11	8127.54
523.477	8156.69
523.843	8180.65
524.21	8207.99
524.577	8165.28
524.943	8250.7
525.31	8288.44
525.676	8304.26
526.043	8367.76
526.409	8342.9
526.776	8355.56
527.142	8385.16
527.508	8371.15
527.874	8483.46
528.241	8425.16
528.607	8460.19
528.973	8513.75
529.339	8480.75
529.705	8511.49
530.071	8589.9
530.437	8525.72
530.803	8535.67
531.169	8597.36
531.535	8511.49
531.901	8573.86
532.267	8591.26
532.632	8546.96
532.998	8619.73
533.364	8589.45
533.73	8589.68
534.095	8633.74
534.461	8581.09
534.826	8604.59
535.192	8697.7
535.557	8662.44
535.923	8657.24
536.288	8665.61
536.653	8629.67
537.019	8569.11
537.384	8654.98
537.749	8687.75
538.114	8657.02
538.479	8620.41
538.845	8614.99
539.21	8586.06
539.575	8615.44
539.94	8567.98
540.305	8683.23
540.67	8647.98
541.034	8666.06
541.399	8635.55
541.764	8613.63
542.129	8644.59
542.494	8609.56
542.858	8652.27
543.223	8633.97
543.587	8686.17
543.952	8606.4
544.316	8622.44
544.681	8576.57
545.045	8660.86
545.41	8617.7
545.774	8563.91
546.138	8618.6
546.503	8593.29
546.867	8499.06
547.231	8624.25
547.595	8594.42
547.959	8579.96
548.324	8627.87
548.688	8611.14
549.052	8584.93
549.416	8573.4
549.779	8595.32
550.143	8564.37
550.507	8547.19
550.871	8606.4
551.235	8518.26
551.599	8586.06
551.962	8645.27
552.326	8563.91
552.689	8577.92
553.053	8558.49
553.417	8530.02
553.78	8633.29
554.143	8595.55
554.507	8565.04
554.87	8561.65
555.234	8609.11
555.597	8571.14
555.96	8622.44
556.323	8597.58
556.686	8565.04
557.05	8628.77
557.413	8600.07
557.776	8658.15
558.139	8703.12
558.502	8661.76
558.865	8687.3
559.228	8761.2
559.59	8700.18
559.953	8754.42
560.316	8749.45
560.679	8712.38
561.041	8724.14
561.404	8720.52
561.767	8803
562.129	8813.17
562.492	8827.86
562.854	8840.52
563.217	8849.33
563.579	8859.5
563.941	8935.43
564.304	8880.74
564.666	8908.31
565.028	8964.13
565.39	8934.98
565.753	9041.41
566.115	9012.26
566.477	9047.06
566.839	9075.09
567.201	9108.08
567.563	9060.4
567.925	9131.13
568.287	9136.78
568.648	9167.51
569.01	9270.56
569.372	9123.22
569.734	9205.7
570.095	9232.14
570.457	9258.13
570.819	9280.5
571.18	9327.06
571.542	9346.49
571.903	9334.29
572.265	9360.28
572.626	9359.15
572.987	9387.85
573.349	9457.22
573.71	9459.26
574.071	9491.35
574.432	9462.65
574.794	9555.53
575.155	9529.54
575.516	9573.15
575.877	9586.49
576.238	9610.67
576.599	9679.59
576.96	9646.82
577.32	9698.57
577.681	9668.06
578.042	9700.38
578.403	9747.16
578.763	9743.54
579.124	9744.22
579.485	9809.08
579.845	9828.29
580.206	9823.99
580.566	9833.71
580.927	9928.85
581.287	9935.18
581.648	9922.52
582.008	10007.72
582.368	9901.51
582.728	9981.05
583.089	9969.53
583.449	9950.54
583.809	9951.9
584.169	10066.7
584.529	10000.71
584.889	10045
585.249	10045.46
585.609	10074.38
585.969	10077.09
586.329	9993.03
586.688	10103.99
587.048	10098.56
587.408	10132.46
587.768	10124.55
588.127	10077.09
588.487	10125
588.846	10153.02
589.206	10104.44
589.565	10173.36
589.925	10197.77
590.284	10166.58
590.643	10284.55
591.003	10227.15
591.362	10239.35
591.721	10267.82
592.08	10318.67
592.44	10263.98
592.799	10352.11
593.158	10273.92
593.517	10358.44
593.876	10339.91
594.235	10273.92
594.593	10304.88
594.952	10363.64
595.311	10330.65
595.67	10374.49
596.029	10436.86
596.387	10455.84
596.746	10487.25
597.104	10342.85
597.463	10400.48
597.822	10430.3
598.18	10445.9
598.538	10433.47
598.897	10470.98
599.255	10404.99
599.613	10545.1
599.972	10458.1
600.33	10487.93
600.688	10439.57
601.046	10554.6
601.404	10530.19
601.762	10494.94
602.12	10545.1
602.478	10644.76
602.836	10564.31
603.194	10546.23
603.552	10517.08
603.91	10563.18
604.268	10618.32
604.625	10545.33
604.983	10550.08
605.341	10488.83
605.698	10594.37
606.056	10603.86
606.413	10566.35
606.771	10624.2
607.128	10655.61
607.485	10528.38
607.843	10593.24
608.2	10675.95
608.557	10600.92
608.914	10623.97
609.272	10703.97
609.629	10667.81
609.986	10755.27
610.343	10613.12
610.7	10743.74
611.057	10725.21
611.414	10736.96
611.771	10746.45
612.127	10820.13
612.484	10750.52
612.841	10833.91
613.198	10813.35
613.554	10754.14
613.911	10836.62
614.267	10815.61
614.624	10850.63
614.98	10831.42
615.337	10902.16
615.693	10869.39
616.05	10826.23
616.406	10878.88
616.762	10877.75
617.118	10810.86
617.475	10883.63
617.831	10947.58
618.187	10874.59
618.543	10891.31
618.899	11041.14
619.255	10985.32
619.611	10851.54
619.967	10966.79
620.323	11039.55
620.678	10902.38
621.034	10950.52
621.39	10971.31
621.746	10861.03
622.101	10988.48
622.457	10982.83
622.812	11022.61
623.168	11035.71
623.523	11088.59
623.879	11007.69
624.234	10976.05
624.589	10999.56
624.945	10974.47
625.3	11027.13
625.655	11028.93
626.01	10983.06
626.365	10979.44
626.72	10974.47
627.075	10938.31
627.43	10923.85
627.785	10902.38
628.14	10986.22
628.495	10982.38
628.85	11001.14
629.205	10886.34
629.559	10966.56
629.914	10862.84
630.269	10898.32
630.623	10902.38
630.978	10864.87
631.332	10868.71
631.687	10918.43
632.041	10870.52
632.396	10849.73
632.75	10802.05
633.104	10821.71
633.459	10732.67
633.813	10765.66
634.167	10770.86
634.521	10826.9
634.875	10716.85
635.229	10744.42
635.583	10649.28
635.937	10676.17
636.291	10719.34
636.645	10706.68
636.999	10633.24
637.352	10651.77
637.706	10605.22
638.06	10654.71
638.413	10583.52
638.767	10610.41
639.121	10622.62
639.474	10473.92
639.828	10537.19
640.181	10576.29
640.534	10568.38
640.888	10482.28
641.241	10466.91
641.594	10430.98
641.947	10574.71
642.301	10491.09
642.654	10461.49
643.007	10544.43
643.36	10459.68
643.713	10450.64
644.066	10512.79
644.419	10459.23
644.771	10424.88
645.124	10294.49
645.477	10290.42
645.83	10262.4
646.182	10249.07
646.535	10135.85
646.888	10127.49
647.24	10071.67
647.593	10052.46
647.945	10107.83
648.298	9974.27
648.65	10020.15
649.002	9985.12
649.355	10093.59
649.707	10065.34
650.059	10164.32
650.411	10192.8
650.763	10184.44
651.115	10305.34
651.467	10326.8
651.819	10262.17
652.171	10282.96
652.523	10269.86
652.875	10295.62
653.227	10239.8
653.578	10280.93
653.93	10261.04
654.282	10267.15
654.633	10247.03
654.985	10221.27
655.337	10237.99
655.688	10216.3
656.039	10287.71
656.391	10203.64
656.742	10255.17
657.094	10253.13
657.445	10211.55
657.796	10261.5
658.147	10211.33
658.498	10145.79
658.849	10284.32
659.2	10201.84
659.551	10232.34
659.902	10219.91
660.253	10240.93
660.604	10210.65
660.955	10189.63
661.306	10294.49
661.656	10248.84
662.007	10243.87
662.358	10254.04
662.708	10251.33
663.059	10230.76
663.409	10188.05
663.76	10215.17
664.11	10275.28
664.461	10294.72
664.811	10279.12
665.161	10223.53
665.511	10226.02
665.862	10226.69
666.212	10277.77
666.562	10340.14
666.912	10321.38
667.262	10300.82
667.612	10226.69
667.962	10245.68
668.312	10155.06
668.662	10221.04
669.011	10246.13
669.361	10239.8
669.711	10230.54
670.06	10222.63
670.41	10182.85
670.76	10177.66
671.109	10197.09
671.459	10221.5
671.808	10192.34
672.157	10157.32
672.507	10028.73
672.856	10109.18
673.205	10133.82
673.554	10150.09
673.904	10102.18
674.253	10189.18
674.602	10105.12
674.951	9980.15
675.3	9971.11
675.649	10098.34
675.998	10056.76
676.346	10073.93
676.695	10096.3
677.044	10006.59
677.393	10026.7
677.741	10102.63
678.09	9973.37
678.438	9939.02
678.787	9999.81
679.135	9984.89
679.484	9912.13
679.832	9859.02
680.181	9913.93
680.529	9942.63
680.877	9887.49
681.225	9824.45
681.573	9899.02
681.922	9797.33
682.27	9819.93
682.618	9815.18
682.966	9758.91
683.314	9751.45
683.661	9806.37
684.009	9755.29
684.357	9695.63
684.705	9704.9
685.053	9726.82
685.4	9694.05
685.748	9639.14
686.095	9611.34
686.443	9585.81
686.79	9573.15
687.138	9521.18
687.485	9550.1
687.832	9586.49
688.18	9521.63
688.527	9412.93
688.874	9436.43
689.221	9451.12
689.568	9429.88
689.915	9398.02
690.262	9312.82
690.609	9350.11
690.956	9302.88
691.303	9308.3
691.65	9219.49
691.997	9236.44
692.344	9187.17
692.69	9181.07
693.037	9174.97
693.383	9115.76
693.73	9146.04
694.077	9030.79
694.423	9031.47
694.769	9091.81
695.116	8974.52
695.462	8969.33
695.808	8970
696.155	8896.56
696.501	8805.49
696.847	8834.41
697.193	8728.88
697.539	8800.52
697.885	8703.34
698.231	8670.58
698.577	8694.08
698.923	8638.26
699.269	8617.92
699.614	8610.24
699.96	8552.84
700.306	8590.35
700.651	8485.05
700.997	8468.77
701.342	8468.1
701.688	8450.24
702.033	8398.04
702.379	8390.13
702.724	8353.3
703.069	8373.64
703.415	8279.63
703.76	8256.58
704.105	8215
704.45	8250.93
704.795	8161.89
705.14	8107.65
705.485	8171.83
705.83	8139.29
706.175	8097.03
706.52	8084.6
706.865	8120.99
707.209	8087.99
707.554	7965.28
707.899	8091.84
708.243	7985.62
708.588	7940.43
708.932	7895.91
709.277	7938.62
709.621	7896.81
709.966	7852.52
710.31	7828.11
710.654	7770.49
710.998	7791.96
711.342	7803.93
711.687	7791.73
712.031	7742.69
712.375	7646.88
712.719	7713.31
713.063	7633.54
713.407	7736.59
713.75	7655.91
714.094	7650.72
714.438	7659.08
714.782	7615.92
715.125	7577.05
715.469	7594.45
715.812	7566.88
716.156	7563.49
716.499	7556.03
716.843	7465.86
717.186	7521.68
717.53	7558.06
717.873	7485.98
718.216	7489.14
718.559	7474.45
718.902	7439.42
719.246	7461.8
719.589	7461.8
719.932	7382.93
720.275	7355.81
720.617	7377.96
720.96	7410.5
721.303	7352.87
721.646	7322.59
721.989	7365.75
722.331	7415.02
722.674	7331.18
723.016	7358.3
723.359	7290.73
723.701	7291.4
724.044	7267.45
724.386	7288.47
724.729	7263.16
725.071	7266.77
725.413	7227.45
725.755	7211.86
726.097	7215.93
726.439	7195.59
726.782	7220.67
727.124	7247.56
727.465	7203.72
727.807	7214.34
728.149	7200.33
728.491	7134.12
728.833	7221.58
729.175	7148.36
729.516	7144.97
729.858	7156.49
730.199	7171.18
730.541	7154.23
730.882	7123.27
731.224	7160.33
731.565	7123.73
731.906	7145.87
732.248	7136.61
732.589	7123.5
732.93	7120.11
733.271	7155.59
733.612	7186.77
733.953	7149.71
734.294	7124.86
734.635	7089.83
734.976	7072.2
735.317	7101.58
735.658	7151.97
735.999	7148.58
736.339	7118.75
736.68	7194.23
737.021	7098.42
737.361	7107.91
737.702	7162.37
738.042	7074.69
738.383	7094.12
738.723	7186.1
739.063	7094.57
739.404	7106.1
739.744	7122.14
740.084	7134.8
740.424	7196.04
740.764	7187.9
741.104	7168.02
741.444	7090.05
741.784	7191.52
742.124	7173.22
742.464	7188.58
742.804	7198.07
743.143	7205.3
743.483	7239.88
743.823	7187.9
744.162	7196.27
744.502	7221.35
744.841	7281.91
745.181	7349.03
745.52	7368.01
745.86	7358.07
746.199	7379.76
746.538	7459.54
746.877	7455.69
747.216	7480.55
747.556	7530.49
747.895	7535.47
748.234	7527.56
748.573	7607.55
748.911	7559.19
749.25	7735.23
749.589	7667.21
749.928	7789.47
750.267	7824.95
750.605	7836.47
750.944	7936.59
751.283	7942.46
751.621	8035.34
751.96	8117.15
752.298	8192.62
752.636	8237.37
752.975	8308.1
753.313	8318.95
753.651	8420.41
753.989	8514.65
754.327	8568.21
754.666	8614.31
755.004	8728.2
755.342	8749.22
755.679	8915.77
756.017	9024.47
756.355	9113.5
756.693	9130.23
757.031	9360.5
757.368	9415.42
757.706	9475.08
758.044	9627.84
758.381	9754.84
758.719	9895.18
759.056	10032.58
759.394	10076.64
759.731	10231.21
760.068	10375.17
760.405	10392.11
760.743	10580.13
761.08	10632.33
761.417	10743.06
761.754	10912.33
762.091	11049.05
762.428	11115.26
762.765	11262.6
763.102	11416.49
763.438	11447
763.775	11599.54
764.112	11791.85
764.449	11873.2
764.785	11917.72
765.122	12066.42
765.458	12161.56
765.795	12244.49
766.131	12439.97
766.467	12530.81
766.804	12697.36
767.14	12745.5
767.476	12881.31
767.812	12870.92
768.148	12963.57
768.485	13109.1
768.821	13172.61
769.157	13322.88
769.492	13424.58
769.828	13526.95
770.164	13451.24
770.5	13602.65
770.836	13628.86
771.171	13700.95
771.507	13812.14
771.842	13873.38
772.178	14004.45
772.513	13995.18
772.849	14109.76
773.184	14083.99
773.519	14189.98
773.855	14197.44
774.19	14266.14
774.525	14281.95
774.86	14410.54
775.195	14385.91
775.53	14465.68
775.865	14456.41
776.2	14475.62
776.535	14392.23
776.87	14482.63
777.205	14493.47
777.539	14523.3
777.874	14668.39
778.209	14543.87
778.543	14628.84
778.878	14581.38
779.212	14577.54
779.547	14598.1
779.881	14685.56
780.215	14709.97
780.55	14668.39
780.884	14651.66
781.218	14745.22
781.552	14669.74
781.886	14628.84
782.22	14668.61
782.554	14630.42
782.888	14578.22
783.222	14677.2
783.556	14547.94
783.889	14608.5
784.223	14536.41
784.557	14531.21
784.89	14636.75
785.224	14465.9
785.557	14496.41
785.891	14445.79
786.224	14460.26
786.558	14547.94
786.891	14417.54
787.224	14455.28
787.557	14380.94
787.891	14427.71
788.224	14443.76
788.557	14479.01
788.89	14470.42
789.223	14338.22
789.556	14333.71
789.888	14333.93
790.221	14255.74
790.554	14135.97
790.887	14208.06
791.219	14132.81
791.552	14156.99
791.884	14083.99
792.217	14068.4
792.549	14040.61
792.882	14047.38
793.214	13971.23
793.546	14022.75
793.879	13941.62
794.211	13817.56
794.543	14017.56
794.875	13854.62
795.207	13884.9
795.539	13876.32
795.871	13871.57
796.203	13799.93
796.535	13682.42
796.867	13642.65
797.198	13659.15
797.53	13705.47
797.862	13626.38
798.193	13601.52
798.525	13547.06
798.856	13533.27
799.188	13460.06
799.519	13344.8
799.85	13313.62
800.182	13386.16
800.513	13439.04
800.844	13242.21
801.175	13359.49
801.506	13319.72
801.837	13278.82
802.168	13223.68
802.499	13218.48
802.83	13126.05
803.161	13127.41
803.491	13104.13
803.822	13103.23
804.153	13065.49
804.483	13020.75
804.814	12907.98
805.145	12918.83
805.475	12935.32
805.805	12768.55
806.136	12884.48
806.466	12788.66
806.796	12800.64
807.126	12815.33
807.457	12674.09
807.787	12717.48
808.117	12720.87
808.447	12626.41
808.777	12676.12
809.107	12645.84
809.436	12528.55
809.766	12602.9
810.096	12564.03
810.426	12563.58
810.755	12458.27
811.085	12432.74
811.414	12446.52
811.744	12335.57
812.073	12336.7
812.403	12329.69
812.732	12286.53
813.061	12269.58
813.39	12197.04
813.719	12154.33
814.049	12239.52
814.378	12249.92
814.707	12192.29
815.036	12165.85
815.365	12112.52
815.693	11959.53
816.022	12084.72
816.351	11962.02
816.68	11931.51
817.008	11931.28
817.337	11829.59
817.665	11900.32
817.994	11921.79
818.322	11874.56
818.651	11767.67
818.979	11802.7
819.307	11778.29
819.636	11848.35
819.964	11720.89
820.292	11803.15
820.62	11752.98
820.948	11746.65
821.276	11784.62
821.604	11708.01
821.932	11714.34
822.259	11823.26
822.587	11697.62
822.915	11702.14
823.243	11723.6
823.57	11729.71
823.898	11759.54
824.225	11692.42
824.553	11664.17
824.88	11653.32
825.207	11768.57
825.535	11679.31
825.862	11743.94
826.189	11693.77
826.516	11704.4
826.843	11771.96
827.17	11735.13
827.497	11754.11
827.824	11708.46
828.151	11830.49
828.478	11665.98
828.805	11850.61
829.131	11744.39
829.458	11739.87
829.785	11732.42
830.111	11712.53
830.438	11778.29
830.764	11695.81
831.09	11831.4
831.417	11679.99
831.743	11749.59
832.069	11672.31
832.395	11651.29
832.722	11753.43
833.048	11738.97
833.374	11668.46
833.7	11611.97
834.026	11660.55
834.351	11742.13
834.677	11643.83
835.003	11635.47
835.329	11643.38
835.654	11647
835.98	11520.67
836.306	11541.46
836.631	11575.36
836.956	11607.9
837.282	11615.13
837.607	11552.08
837.932	11502.82
838.258	11407.45
838.583	11498.07
838.908	11453.1
839.233	11374.46
839.558	11409.04
839.883	11415.82
840.208	11266.22
840.533	11397.06
840.858	11326.55
841.182	11312.32
841.507	11378.53
841.832	11289.72
842.156	11344.86
842.481	11258.08
842.805	11212.66
843.13	11153.45
843.454	11173.56
843.778	11047.92
844.103	11164.3
844.427	11136.27
844.751	11151.42
845.075	11066.9
845.399	11089.95
845.723	10972.89
846.047	10993.45
846.371	10887.24
846.695	10854.7
847.019	10787.58
847.343	10750.52
847.666	10696.29
847.99	10636.18
848.313	10620.13
848.637	10634.59
848.96	10565.67
849.284	10471.89
849.607	10422.4
849.931	10409.74
850.254	10368.61
850.577	10339.91
850.9	10269.18
851.223	10263.08
851.546	10254.26
851.869	10061.05
852.192	10166.13
852.515	10052.24
852.838	10102.18
853.161	10081.16
853.483	9982.63
853.806	9952.35
854.129	9967.27
854.451	9891.34
854.774	9861.05
855.096	9764.11
855.419	9842.52
855.741	9761.17
856.063	9719.82
856.385	9719.82
856.708	9725.92
857.03	9688.63
857.352	9588.07
857.674	9560.95
857.996	9627.61
858.318	9494.51
858.64	9598.01
858.961	9516.2
859.283	9447.05
859.605	9550.78
859.926	9520.05
860.248	9469.43
860.57	9353.27
860.891	9369.32
861.212	9388.07
861.534	9338.81
861.855	9285.48
862.176	9326.83
862.498	9346.04
862.819	9291.35
863.14	9275.53
863.461	9230.56
863.782	9140.85
864.103	9232.6
864.424	9113.5
864.745	9187.85
865.065	9087.06
865.386	9063.11
865.707	9093.84
866.027	9174.97
866.348	9135.42
866.668	9073.28
866.989	9049.32
867.309	9014.52
867.63	8988.99
867.95	9010.91
868.27	8929.33
868.59	9001.64
868.91	8966.61
869.23	8982.89
869.55	8895.43
869.87	8941.53
870.19	8884.81
870.51	8890.68
870.83	8894.98
871.15	8833.51
871.469	8805.49
871.789	8869.67
872.109	8834.41
872.428	8789.9
872.748	8770.69
873.067	8764.59
873.386	8730.01
873.706	8763.68
874.025	8736.79
874.344	8695.89
874.663	8728.88
874.982	8682.55
875.301	8674.64
875.62	8696.11
875.939	8640.52
876.258	8577.92
876.577	8645.04
876.896	8617.7
877.214	8543.35
877.533	8620.86
877.852	8550.58
878.17	8530.02
878.489	8549
878.807	8538.38
879.125	8513.07
879.444	8480.3
879.762	8456.12
880.08	8445.5
880.398	8445.5
880.716	8397.14
881.034	8492.05
881.352	8471.26
881.67	8345.39
881.988	8369.34
882.306	8348.55
882.624	8326.18
882.941	8342.68
883.259	8222
883.577	8207.54
883.894	8252.96
884.212	8234.88
884.529	8227.2
884.846	8205.05
885.164	8167.54
885.481	8165.05
885.798	8106.75
886.115	8132.74
886.432	8098.61
886.75	8080.99
887.067	8068.11
887.383	8017.26
887.7	8004.38
888.017	7965.28
888.334	8006.87
888.651	7957.83
888.967	7937.49
889.284	7930.26
889.6	7901.78
889.917	7835.57
890.233	7872.63
890.55	7796.93
890.866	7799.19
891.182	7787.89
891.498	7762.58
891.815	7704.05
892.131	7751.05
892.447	7669.02
892.763	7665.41
893.079	7649.81
893.395	7586.54
893.71	7613.2
894.026	7613.66
894.342	7557.16
894.657	7496.82
894.973	7511.74
895.289	7502.47
895.604	7509.7
895.92	7383.38
896.235	7438.52
896.55	7399.42
896.865	7351.74
897.181	7255.93
897.496	7250.28
897.811	7307.9
898.126	7216.15
898.441	7217.28
898.756	7202.59
899.071	7211.63
899.386	7142.71
899.7	7069.72
900.015	7091.64
900.33	7076.04
900.644	7056.61
900.959	7002.15
901.273	7010.28
901.588	6976.16
901.902	6902.49
902.216	6916.72
902.531	6811.64
902.845	6834.02
903.159	6843.73
903.473	6791.08
903.787	6797.86
904.101	6712.44
904.415	6758.09
904.729	6750.85
905.042	6616.62
905.356	6677.64
905.67	6630.18
905.984	6646.45
906.297	6617.98
906.611	6576.85
906.924	6559.45
907.237	6511.54
907.551	6473.8
907.864	6468.38
908.177	6456.4
908.491	6393.8
908.804	6393.12
909.117	6385.67
909.43	6351.32
909.743	6286.91
910.056	6323.97
910.368	6233.13
910.681	6262.73
910.994	6240.81
911.307	6209.4
911.619	6139.34
911.932	6224.31
912.244	6114.94
912.557	6111.77
912.869	6070.19
913.181	6067.93
913.494	6058.89
913.806	5979.57
914.118	5986.35
914.43	5897.09
914.742	5948.84
915.054	5911.1
915.366	5895.73
915.678	5881.05
915.99	5810.09
916.302	5795.85
916.613	5756.08
916.925	5796.08
917.236	5718.34
917.548	5670.88
917.859	5681.96
918.171	5716.08
918.482	5676.53
918.794	5607.15
919.105	5588.4
919.416	5575.74
919.727	5615.97
920.038	5524.67
920.349	5540.94
920.66	5483.32
920.971	5498.68
921.282	5519.7
921.593	5430.66
921.903	5360.38
922.214	5406.26
922.525	5330.33
922.835	5320.61
923.146	5347.05
923.456	5303.89
923.767	5317.67
924.077	5280.84
924.387	5208.97
924.697	5222.53
925.008	5220.5
925.318	5144.34
925.628	5172.36
925.938	5158.81
926.248	5107.51
926.558	5123.1
926.867	5033.84
927.177	5009.43
927.487	5011.46
927.796	4960.39
928.106	4966.95
928.416	5015.08
928.725	4952.93
929.034	4918.13
929.344	4922.2
929.653	4877.46
929.962	4862.09
930.271	4851.02
930.581	4822.99
930.89	4823.9
931.199	4770.79
931.508	4758.82
931.817	4739.83
932.125	4717.46
932.434	4702.09
932.743	4699.16
933.051	4630.91
933.36	4677.24
933.669	4619.16
933.977	4590.01
934.286	4617.58
934.594	4577.58
934.902	4564.7
935.21	4522.21
935.519	4544.58
935.827	4541.19
936.135	4466.85
936.443	4448.99
936.751	4477.92
937.059	4412.16
937.367	4371.93
937.674	4420.75
937.982	4343.91
938.29	4347.3
938.597	4372.16
938.905	4309.34
939.213	4347.53
939.52	4289.9
939.827	4303.23
940.135	4248.77
940.442	4307.53
940.749	4213.29
941.056	4209
941.363	4156.12
941.67	4164.25
941.977	4153.41
942.284	4127.19
942.591	4125.39
942.898	4087.65
943.205	4107.53
943.511	4070.7
943.818	4078.83
944.125	3983.24
944.431	4008.1
944.738	3978.5
945.044	3970.14
945.35	3943.92
945.657	3938.95
945.963	3943.92
946.269	3882.68
946.575	3896.92
946.881	3857.6
947.187	3844.72
947.493	3824.38
947.799	3869.57
948.105	3789.12
948.41	3795.68
948.716	3753.42
949.022	3759.75
949.327	3747.99
949.633	3710.71
949.938	3669.13
950.244	3682.91
950.549	3676.36
950.854	3654.89
951.16	3640.2
951.465	3653.53
951.77	3580.32
952.075	3609.24
952.38	3580.99
952.685	3555.01
952.99	3524.95
953.294	3512.52
953.599	3516.14
953.904	3548.23
954.209	3514.1
954.513	3481.11
954.818	3451.96
955.122	3424.16
955.426	3420.32
955.731	3418.96
956.035	3416.93
956.339	3384.84
956.643	3355.01
956.948	3346.65
957.252	3329.02
957.556	3339.64
957.86	3296.71
958.163	3289.48
958.467	3289.25
958.771	3316.59
959.075	3259.65
959.378	3275.24
959.682	3256.93
959.985	3216.71
960.289	3236.37
960.592	3155.24
960.896	3193.21
961.199	3189.14
961.502	3211.06
961.805	3128.35
962.108	3135.36
962.411	3148.24
962.714	3054.23
963.017	3098.29
963.32	3098.75
963.623	3055.36
963.926	3060.78
964.228	3058.75
964.531	3036.37
964.833	3041.8
965.136	2980.33
965.438	2989.6
965.741	2972.42
966.043	2976.04
966.345	2973.33
966.648	2948.47
966.95	2968.35
967.252	2897.4
967.554	2891.07
967.856	2887.68
968.158	2864.63
968.46	2878.64
968.761	2864.85
969.063	2861.24
969.365	2822.82
969.666	2823.27
969.968	2796.83
970.269	2805.87
970.571	2791.64
970.872	2777.85
971.174	2733.33
971.475	2725.65
971.776	2718.64
972.077	2722.26
972.378	2715.03
972.679	2692.88
972.98	2720.23
973.281	2661.92
973.582	2705.76
973.883	2671.41
974.183	2674.58
974.484	2652.66
974.785	2605.65
975.085	2597.52
975.386	2615.14
975.686	2621.02
975.986	2549.61
976.287	2568.36
976.587	2541.02
976.887	2552.32
977.187	2522.72
977.487	2508.25
977.787	2493.11
978.087	2507.35
978.387	2475.71
978.687	2463.28
978.987	2466.45
979.286	2467.58
979.586	2425.77
979.885	2445.2
980.185	2428.93
980.484	2404.3
980.784	2439.1
981.083	2409.95
981.382	2376.96
981.682	2392.78
981.981	2375.38
982.28	2346.9
982.579	2364.98
982.878	2333.12
983.177	2339.22
983.475	2315.72
983.774	2291.76
984.073	2261.25
984.372	2259.67
984.67	2280.46
984.969	2271.42
985.267	2256.96
985.566	2263.97
985.864	2237.07
986.162	2210.41
986.461	2208.15
986.759	2218.77
987.057	2182.61
987.355	2192.1
987.653	2162.95
987.951	2180.8
988.249	2152.33
988.547	2168.6
988.844	2144.65
989.142	2129.73
989.44	2146.45
989.737	2096.51
990.035	2094.7
990.332	2068.72
990.63	2086.8
990.927	2069.85
991.224	2073.01
991.521	2065.1
991.819	2042.73
992.116	2056.97
992.413	2037.76
992.71	1997.53
993.006	2020.81
993.303	1981.49
993.6	1991.43
993.897	1971.09
994.193	1952.11
994.49	1961.37
994.787	1950.08
995.083	1931.77
995.379	1929.74
995.676	1917.08
995.972	1910.3
996.268	1887.48
996.565	1908.72
996.861	1902.62
997.157	1875.73
997.453	1868.27
997.749	1863.52
998.044	1858.33
998.34	1842.51
998.636	1835.95
998.932	1832.79
999.227	1840.25
999.523	1818.1
999.818	1794.83
1000.114	1796.63
1000.409	1765.22
1000.704	1780.14
1001	1762.74
1001.295	1768.61
1001.59	1713.7
1001.885	1753.02
1002.18	1749.86
1002.475	1713.02
1002.77	1692.68
1003.065	1703.53
1003.359	1715.51
1003.654	1690.2
1003.949	1678.67
1004.243	1670.54
1004.538	1658.78
1004.832	1643.64
1005.127	1663.98
1005.421	1621.72
1005.715	1637.77
1006.009	1601.84
1006.304	1610.65
1006.598	1606.36
1006.892	1597.09
1007.186	1577.88
1007.48	1572.23
1007.773	1550.31
1008.067	1549.63
1008.361	1552.57
1008.655	1520.48
1008.948	1542.18
1009.242	1497.43
1009.535	1539.92
1009.829	1499.69
1010.122	1486.59
1010.415	1485.91
1010.708	1469.86
1011.001	1456.3
1011.295	1446.81
1011.588	1448.62
1011.881	1423.54
1012.173	1406.81
1012.466	1420.6
1012.759	1402.07
1013.052	1418.79
1013.344	1400.71
1013.637	1399.81
1013.93	1386.25
1014.222	1349.19
1014.514	1367.27
1014.807	1374.95
1015.099	1345.35
1015.391	1372.24
1015.683	1339.92
1015.976	1362.07
1016.268	1330.88
1016.56	1314.61
1016.851	1307.61
1017.143	1318.68
1017.435	1290.66
1017.727	1269.19
1018.018	1275.74
1018.31	1266.93
1018.602	1263.31
1018.893	1236.42
1019.185	1233.48
1019.476	1255.18
1019.767	1238.23
1020.058	1218.34
1020.35	1204.78
1020.641	1185.35
1020.932	1200.72
1021.223	1221.51
1021.514	1219.02
1021.804	1175.41
1022.095	1185.58
1022.386	1174.05
1022.677	1177.44
1022.967	1138.35
1023.258	1148.97
1023.548	1150.55
1023.839	1151.45
1024.129	1131.11
1024.419	1125.69
1024.709	1131.34
1025	1128.85
1025.29	1096.31
1025.58	1095.86
1025.87	1099.48
1026.16	1090.89
1026.449	1090.21
1026.739	1067.16
1027.029	1044.79
1027.319	1058.35
1027.608	1026.26
1027.898	1031.91
1028.187	1026.71
1028.477	1026.03
1028.766	1035.07
1029.055	1022.87
1029.344	1023.77
1029.634	1003.43
1029.923	1002.08
1030.212	971.57
1030.501	978.12
1030.79	991.46
1031.078	982.64
1031.367	986.94
1031.656	978.35
1031.945	951.01
1032.233	947.62
1032.522	948.52
1032.81	917.11
1033.099	936.54
1033.387	939.93
1033.675	902.19
1033.963	901.29
1034.251	912.59
1034.54	920.95
1034.828	893.61
1035.116	884.34
1035.403	896.77
1035.691	880.73
1035.979	868.97
1036.267	849.09
1036.554	849.77
1036.842	850.44
1037.129	859.71
1037.417	861.97
1037.704	843.89
1037.992	831.01
1038.279	857.22
1038.566	815.19
1038.853	815.19
1039.14	815.19
