Data from hue_220_FLMS001491_00099.txt Node
Date: Tue Feb 07 16:40:12 GMT 2017
User: dcchb
Spectrometer: FLMS00149
Trigger mode: 0
Integration Time (sec): 2.000000E-2
Scans to average: 10
Electric dark correction enabled: true
Nonlinearity correction enabled: false
Boxcar width: 0
XAxis mode: Wavelengths
Number of Pixels in Spectrum: 2048
>>>>>Begin Spectral Data<<<<<
341.393	-4.8
341.776	-4.8
342.16	-4.8
342.543	-77.79
342.927	-68.3
343.31	-79.38
343.693	-64.46
344.077	-59.49
344.46	-53.39
344.843	-55.65
345.226	-38.47
345.61	-24.46
345.993	-16.1
346.376	-19.27
346.759	-4.58
347.142	8.76
347.525	50.34
347.908	60.96
348.291	88.08
348.674	106.38
349.057	100.73
349.44	123.33
349.823	126.95
350.206	157.91
350.588	197.68
350.971	197
351.354	211.01
351.737	233.38
352.119	253.04
352.502	264.34
352.884	245.36
353.267	285.59
353.65	297.34
354.032	305.25
354.414	295.08
354.797	300.05
355.179	307.51
355.562	323.32
355.944	307.96
356.326	320.16
356.709	301.86
357.091	330.56
357.473	326.49
357.855	318.35
358.238	345.7
358.62	327.62
359.002	349.31
359.384	328.75
359.766	336.66
360.148	330.56
360.53	337.34
360.912	339.14
361.294	333.95
361.676	335.53
362.057	309.77
362.439	325.81
362.821	323.78
363.203	320.16
363.584	311.57
363.966	318.13
364.348	303.66
364.729	318.81
365.111	305.47
365.493	312.48
365.874	321.52
366.256	291.91
366.637	309.54
367.019	307.73
367.4	308.64
367.781	315.42
368.163	309.77
368.544	294.63
368.925	311.12
369.306	310.9
369.688	304.12
370.069	315.64
370.45	291.69
370.831	297.56
371.212	326.94
371.593	298.01
371.974	308.64
372.355	305.92
372.736	302.31
373.117	302.08
373.498	312.03
373.879	307.28
374.26	320.61
374.641	299.37
375.021	305.92
375.402	318.13
375.783	302.53
376.163	287.62
376.544	324.91
376.925	318.35
377.305	323.55
377.686	314.51
378.066	321.97
378.447	328.75
378.827	316.77
379.208	319.48
379.588	339.14
379.968	322.42
380.349	337.56
380.729	339.37
381.109	315.42
381.489	327.17
381.87	337.56
382.25	316.09
382.63	340.5
383.01	334.17
383.39	359.93
383.77	332.59
384.15	337.34
384.53	334.85
384.91	332.36
385.29	331.01
385.67	321.29
386.049	353.15
386.429	354.96
386.809	343.44
387.189	333.27
387.568	336.21
387.948	351.35
388.328	357.45
388.707	347.28
389.087	350.67
389.466	341.18
389.846	354.51
390.225	340.5
390.605	367.39
390.984	363.32
391.363	366.94
391.743	359.48
392.122	361.06
392.501	384.34
392.881	366.49
393.26	365.13
393.639	381.18
394.018	364.45
394.397	364.91
394.776	384.79
395.155	378.01
395.534	372.14
395.913	391.8
396.292	393.61
396.671	388.63
397.05	389.54
397.429	376.43
397.808	392.48
398.186	390.67
398.565	399.93
398.944	408.75
399.323	387.73
399.701	390.44
400.08	399.48
400.458	406.03
400.837	413.04
401.215	400.38
401.594	394.28
401.972	383.44
402.351	388.18
402.729	416.2
403.107	396.54
403.486	411.91
403.864	408.29
404.242	446.03
404.62	429.31
404.999	442.42
405.377	451.23
405.755	448.97
406.133	446.49
406.511	450.55
406.889	458.46
407.267	455.3
407.645	480.38
408.023	464.79
408.401	467.73
408.779	490.33
409.156	472.93
409.534	494.17
409.912	504.56
410.29	511.57
410.667	506.82
411.045	520.61
411.422	527.61
411.8	543.66
412.178	507.05
412.555	547.27
412.933	532.36
413.31	563.54
413.687	561.74
414.065	575.75
414.442	566.03
414.819	568.52
415.197	601.74
415.574	636.31
415.951	626.14
416.328	625.69
416.705	620.04
417.082	635.63
417.46	646.48
417.837	649.87
418.214	671.11
418.591	655.29
418.967	669.98
419.344	677.89
419.721	680.6
420.098	701.39
420.475	713.82
420.852	719.92
421.228	731
421.605	752.69
421.982	744.56
422.358	746.36
422.735	787.72
423.111	789.75
423.488	813.48
423.864	805.8
424.241	818.91
424.617	806.48
424.994	843.09
425.37	853.03
425.746	879.24
426.123	881.05
426.499	901.61
426.875	905.68
427.251	919.69
427.627	931.22
428.003	951.56
428.379	953.59
428.756	963.99
429.132	980.48
429.507	985.68
429.883	1008.96
430.259	996.53
430.635	1028.39
431.011	1037.66
431.387	1066.81
431.763	1071.55
432.138	1074.49
432.514	1100.48
432.89	1123.53
433.265	1132.12
433.641	1152
434.016	1185.68
434.392	1192.91
434.767	1215.28
435.143	1222.51
435.518	1240.59
435.894	1235.62
436.269	1274.03
436.644	1290.98
437.02	1330.08
437.395	1323.98
437.77	1374.6
438.145	1393.81
438.52	1431.77
438.895	1416.86
439.271	1435.84
439.646	1449.4
440.021	1480.13
440.395	1504.08
440.77	1526.68
441.145	1540.02
441.52	1545.67
441.895	1566.23
442.27	1595.38
442.645	1576.4
443.019	1642.61
443.394	1615.72
443.769	1658.66
444.143	1643.97
444.518	1676.06
444.892	1680.8
445.267	1702.72
445.641	1738.65
446.016	1718.99
446.39	1705.44
446.764	1744.08
447.139	1794.7
447.513	1768.26
447.887	1801.25
448.262	1782.72
448.636	1819.78
449.01	1820.23
449.384	1851.65
449.758	1843.74
450.132	1891.42
450.506	1873.34
450.88	1908.37
451.254	1879.44
451.628	1914.24
452.002	1954.02
452.376	1965.77
452.75	1973.68
453.123	2005.09
453.497	2040.34
453.871	2013
454.244	2096.16
454.618	2092.32
454.992	2096.39
455.365	2128.7
455.739	2174.58
456.112	2173.9
456.486	2178.42
456.859	2221.13
457.232	2290.28
457.606	2236.27
457.979	2241.92
458.352	2332.99
458.725	2345.42
459.099	2375.25
459.472	2428.35
459.845	2411.63
460.218	2413.21
460.591	2439.88
460.964	2432.42
461.337	2515.36
461.71	2579.99
462.083	2582.7
462.456	2557.16
462.829	2597.62
463.201	2588.35
463.574	2629.7
463.947	2674
464.32	2722.58
464.692	2760.32
465.065	2727.78
465.438	2782.24
465.81	2835.35
466.183	2838.96
466.555	2926.42
466.928	2922.35
467.3	2938.4
467.672	2971.84
468.045	3011.39
468.417	3043.25
468.789	3085.96
469.161	3066.76
469.534	3149.92
469.906	3203.7
470.278	3230.59
470.65	3225.62
471.022	3282.34
471.394	3362.57
471.766	3386.07
472.138	3409.35
472.51	3436.92
472.882	3511.49
473.253	3553.52
473.625	3586.52
473.997	3707.19
474.369	3685.5
474.74	3699.96
475.112	3798.26
475.484	3784.48
475.855	3863.34
476.227	3916.9
476.598	4009.56
476.97	4009.78
477.341	4093.4
477.713	4090.91
478.084	4157.12
478.455	4252.49
478.827	4277.35
479.198	4368.87
479.569	4376.55
479.94	4460.17
480.311	4528.41
480.682	4622.65
481.053	4704
481.424	4719.14
481.795	4780.16
482.166	4848.4
482.537	4903.54
482.908	4951
483.279	5042.97
483.65	5099.7
484.021	5228.28
484.391	5207.49
484.762	5296.3
485.133	5303.53
485.503	5355.73
485.874	5435.51
486.244	5519.12
486.615	5581.04
486.985	5616.97
487.356	5683.86
487.726	5727.25
488.097	5806.34
488.467	5823.75
488.837	5966.34
489.207	6007.02
489.578	6089.95
489.948	6113.23
490.318	6203.17
490.688	6223.28
491.058	6278.87
491.428	6367.69
491.798	6417.63
492.168	6487
492.538	6576.27
492.908	6630.05
493.278	6643.84
493.648	6698.3
494.017	6765.19
494.387	6806.32
494.757	6844.51
495.126	6887.45
495.496	6873.89
495.866	6963.83
496.235	7017.84
496.605	7043.37
496.974	7031.85
497.344	7087.89
497.713	7144.84
498.082	7200.43
498.452	7239.3
498.821	7267.32
499.19	7229.58
499.559	7300.77
499.928	7329.24
500.298	7369.24
500.667	7460.54
501.036	7429.13
501.405	7518.16
501.774	7434.55
502.143	7463.93
502.512	7523.36
502.88	7596.58
503.249	7590.7
503.618	7575.79
503.987	7615.34
504.356	7613.75
504.724	7671.38
505.093	7644.04
505.462	7637.48
505.83	7722.68
506.199	7760.42
506.567	7837.25
506.936	7780.76
507.304	7870.47
507.672	7900.98
508.041	7897.81
508.409	7941.66
508.777	7996.57
509.145	8036.12
509.514	8047.64
509.882	8015.1
510.25	8029.79
510.618	8072.05
510.986	8049
511.354	8099.62
511.722	8121.09
512.09	8170.58
512.458	8102.56
512.826	8145.27
513.193	8172.84
513.561	8227.98
513.929	8196.34
514.297	8238.82
514.664	8276.11
515.032	8242.44
515.4	8271.82
515.767	8226.85
516.135	8271.59
516.502	8232.95
516.869	8347.75
517.237	8331.7
517.604	8272.72
517.972	8380.97
518.339	8352.94
518.706	8375.54
519.073	8347.97
519.44	8372.6
519.808	8423.68
520.175	8370.12
520.542	8408.31
520.909	8404.69
521.276	8372.83
521.643	8460.74
522.009	8489.44
522.376	8509.32
522.743	8503.22
523.11	8537.35
523.477	8569.44
523.843	8569.44
524.21	8613.05
524.577	8643.56
524.943	8600.85
525.31	8607.85
525.676	8660.73
526.043	8644.69
526.409	8658.47
526.776	8668.19
527.142	8679.72
527.508	8693.5
527.874	8753.16
528.241	8625.03
528.607	8712.71
528.973	8757.45
529.339	8654.41
529.705	8766.49
530.071	8714.29
530.437	8731.69
530.803	8739.83
531.169	8763.33
531.535	8630.9
531.901	8724.23
532.267	8729.21
532.632	8763.33
532.998	8681.75
533.364	8741.86
533.73	8671.13
534.095	8711.8
534.461	8639.04
534.826	8642.88
535.192	8689.43
535.557	8754.52
535.923	8669.32
536.288	8708.19
536.653	8657.34
537.019	8585.48
537.384	8647.17
537.749	8567.63
538.114	8595.42
538.479	8542.32
538.845	8555.88
539.21	8482.43
539.575	8509.78
539.94	8520.4
540.305	8536.22
540.67	8500.28
541.034	8455.99
541.399	8454.64
541.764	8419.84
542.129	8402.43
542.494	8430.91
542.858	8437.24
543.223	8389.33
543.587	8422.32
543.952	8342.77
544.316	8323.79
544.681	8362.44
545.045	8320.18
545.41	8370.12
545.774	8326.96
546.138	8270.69
546.503	8299.16
546.867	8250.35
547.231	8284.7
547.595	8181.65
547.959	8222.55
548.324	8189.33
548.688	8136
549.052	8082.44
549.416	8075.21
549.779	8130.58
550.143	8098.71
550.507	8157.47
550.871	8085.15
551.235	8028.88
551.599	8072.27
551.962	8041.54
552.326	8071.37
552.689	8004.7
553.053	8011.71
553.417	7949.11
553.78	7990.69
554.143	7961.77
554.507	7939.85
554.87	8012.84
555.234	8003.57
555.597	7946.63
555.96	7997.93
556.323	7967.87
556.686	7919.96
557.05	7938.94
557.413	7909.34
557.776	7875.67
558.139	7943.46
558.502	7945.72
558.865	7940.53
559.228	7868.21
559.59	7927.42
559.953	7963.12
560.316	7947.53
560.679	7923.8
561.041	7903.24
561.404	7966.74
561.767	7954.31
562.129	7950.47
562.492	8033.18
562.854	7945.72
563.217	7993.41
563.579	7943.46
563.941	8030.24
564.304	8004.48
564.666	8061.88
565.028	7992.5
565.39	7997.93
565.753	8088.09
566.115	8037.47
566.477	8094.65
566.839	8058.94
567.201	8097.36
567.563	8102.33
567.925	8136.9
568.287	8104.14
568.648	8150.92
569.01	8147.98
569.372	8169.22
569.734	8147.07
570.095	8148.88
570.457	8214.64
570.819	8217.35
571.18	8210.12
571.542	8246.96
571.903	8288.77
572.265	8258.26
572.626	8319.5
572.987	8307.97
573.349	8322.89
573.71	8347.97
574.071	8320.18
574.432	8328.54
574.794	8394.75
575.155	8390.68
575.516	8363.79
575.877	8427.74
576.238	8413.06
576.599	8564.69
576.96	8522.66
577.32	8401.76
577.681	8486.5
578.042	8498.03
578.403	8484.69
578.763	8558.36
579.124	8552.94
579.485	8580.51
579.845	8652.15
580.206	8572.37
580.566	8634.74
580.927	8587.29
581.287	8584.8
581.648	8662.99
582.008	8631.81
582.368	8692.14
582.728	8763.55
583.089	8738.02
583.449	8758.36
583.809	8720.84
584.169	8768.07
584.529	8722.43
584.889	8833.84
585.249	8746.61
585.609	8747.96
585.969	8766.72
586.329	8794.29
586.688	8790.45
587.048	8888.75
587.408	8823.44
587.768	8798.36
588.127	8874.51
588.487	8826.15
588.846	8933.49
589.206	8904.57
589.565	8865.25
589.925	8872.48
590.284	8889.2
590.643	8887.85
591.003	8951.8
591.362	8975.53
591.721	8940.27
592.08	8973.72
592.44	9021.18
592.799	9011.46
593.158	9012.14
593.517	8976.88
593.876	9041.51
594.235	9020.27
594.593	9005.13
594.952	9023.66
595.311	9004.9
595.67	9056.43
596.029	9132.81
596.387	9097.78
596.746	9183.66
597.104	9121.51
597.463	9111.12
597.822	9128.52
598.18	9096.43
598.538	9080.61
598.897	9147.27
599.255	9089.65
599.613	9218.46
599.972	9171.23
600.33	9154.28
600.688	9119.25
601.046	9196.31
601.404	9164.67
601.762	9196.54
602.12	9192.7
602.478	9221.85
602.836	9257.55
603.194	9171.45
603.552	9169.87
603.91	9102.53
604.268	9174.39
604.625	9223.66
604.983	9273.6
605.341	9201.96
605.698	9229.31
606.056	9263.88
606.413	9221.85
606.771	9339.36
607.128	9290.32
607.485	9266.37
607.843	9278.57
608.2	9266.37
608.557	9341.17
608.914	9299.13
609.272	9320.15
609.629	9358.12
609.986	9379.36
610.343	9380.04
610.7	9401.96
611.057	9338.68
611.414	9406.93
611.771	9446.25
612.127	9366.93
612.484	9417.77
612.841	9467.72
613.198	9432.24
613.554	9456.42
613.911	9503.42
614.267	9474.72
614.624	9464.55
614.98	9472.69
615.337	9505.68
615.693	9535.51
616.05	9443.54
616.406	9506.13
616.762	9490.77
617.118	9496.87
617.475	9481.73
617.831	9474.04
618.187	9576.19
618.543	9501.84
618.899	9614.83
619.255	9575.28
619.611	9608.96
619.967	9571.67
620.323	9654.6
620.678	9575.74
621.034	9551.78
621.39	9585.68
621.746	9585.45
622.101	9636.53
622.457	9524.89
622.812	9557.43
623.168	9615.51
623.523	9604.44
623.879	9638.56
624.234	9568.73
624.589	9618.45
624.945	9637.43
625.3	9658.67
625.655	9586.81
626.01	9600.14
626.365	9527.38
626.72	9556.3
627.075	9539.35
627.43	9577.32
627.785	9510.2
628.14	9567.6
628.495	9625.45
628.85	9547.49
629.205	9498
629.559	9603.76
629.914	9540.48
630.269	9513.37
630.623	9593.14
630.978	9481.73
631.332	9511.78
631.687	9546.81
632.041	9462.29
632.396	9479.24
632.75	9441.05
633.104	9438.57
633.459	9391.56
633.813	9458.23
634.167	9394.05
634.521	9440.6
634.875	9359.7
635.229	9309.53
635.583	9320.15
635.937	9310.43
636.291	9357.44
636.645	9332.13
636.999	9236.54
637.352	9341.39
637.706	9363.77
638.06	9348.17
638.413	9342.97
638.767	9266.82
639.121	9319.92
639.474	9253.49
639.828	9246.93
640.181	9264.56
640.534	9201.28
640.888	9155.86
641.241	9121.29
641.594	9144.34
641.947	9199.25
642.301	9155.86
642.654	9166.48
643.007	9243.77
643.36	9197.44
643.713	9095.98
644.066	9118.12
644.419	9110.66
644.771	9088.97
645.124	8974.17
645.477	8996.09
645.83	8952.25
646.182	8855.3
646.535	8798.36
646.888	8856.21
647.24	8811.69
647.593	8890.78
647.945	8871.57
648.298	8848.52
648.65	8818.69
649.002	8815.3
649.355	8808.53
649.707	8876.32
650.059	8910.9
650.411	9011.01
650.763	9024.34
651.115	9124.9
651.467	9015.98
651.819	9025.47
652.171	9069.31
652.523	9026.6
652.875	9017.11
653.227	8999.03
653.578	9004
653.93	9029.08
654.282	8990.44
654.633	9022.08
654.985	9006.26
655.337	9028.86
655.688	9020.5
656.039	9051.46
656.391	8933.04
656.742	9022.98
657.094	8966.04
657.445	9068.18
657.796	9007.16
658.147	8992.93
658.498	9008.97
658.849	9011.68
659.2	9040.38
659.551	9032.93
659.902	9053.94
660.253	9004.45
660.604	9046.49
660.955	9033.38
661.306	9068.41
661.656	9007.16
662.007	9042.64
662.358	9017.79
662.708	9037.45
663.059	9072.47
663.409	8999.93
663.76	9093.26
664.11	9102.3
664.461	9065.47
664.811	9077.9
665.161	9103.21
665.511	9021.4
665.862	9085.35
666.212	9101.4
666.562	9110.44
666.912	9083.32
667.262	9105.01
667.612	9009.42
667.962	9105.24
668.312	9036.77
668.662	9099.37
669.011	9059.14
669.361	9066.15
669.711	9094.85
670.06	9026.37
670.41	9086.48
670.76	9035.86
671.109	9076.77
671.459	9064.11
671.808	9006.94
672.157	9007.39
672.507	8978.46
672.856	8908.86
673.205	8924.91
673.554	9088.97
673.904	8959.48
674.253	9034.51
674.602	8937.11
674.951	8898.47
675.3	8846.72
675.649	9022.98
675.998	8911.12
676.346	8900.27
676.695	8970.78
677.044	8881.74
677.393	8927.84
677.741	8956.54
678.09	8869.99
678.438	8906.83
678.787	8869.77
679.135	8881.52
679.484	8768.3
679.832	8861.63
680.181	8757.68
680.529	8793.61
680.877	8764.01
681.225	8755.42
681.573	8812.59
681.922	8742.76
682.27	8740.28
682.618	8686.49
682.966	8740.96
683.314	8719.49
683.661	8633.16
684.009	8631.58
684.357	8542.54
684.705	8621.86
685.053	8617.34
685.4	8559.72
685.748	8524.24
686.095	8493.73
686.443	8423.45
686.79	8488.76
687.138	8528.08
687.485	8526.95
687.832	8434.75
688.18	8456.44
688.527	8434.3
688.874	8328.09
689.221	8405.37
689.568	8295.54
689.915	8297.13
690.262	8343.45
690.609	8271.14
690.956	8183.91
691.303	8224.59
691.65	8158.6
691.997	8162.89
692.344	8093.97
692.69	8064.36
693.037	8112.5
693.383	7986.4
693.73	8069.34
694.077	7992.5
694.423	7986.63
694.769	8002.22
695.116	7886.06
695.462	7883.13
695.808	7887.19
696.155	7929.9
696.501	7805.16
696.847	7783.47
697.193	7837.25
697.539	7824.82
697.885	7695.33
698.231	7677.26
698.577	7657.6
698.923	7570.14
699.269	7592.74
699.614	7533.3
699.96	7540.31
700.306	7514.32
700.651	7526.07
700.997	7430.93
701.342	7425.51
701.688	7363.82
702.033	7399.07
702.379	7340.77
702.724	7386.87
703.069	7357.72
703.415	7276.14
703.76	7244.27
704.105	7258.51
704.45	7206.08
704.795	7181
705.14	7190.71
705.485	7112.75
705.83	7100.55
706.175	7093.77
706.52	7074.79
706.865	7052.19
707.209	7028.69
707.554	7019.19
707.899	7030.72
708.243	6998.4
708.588	6935.58
708.932	6931.29
709.277	6956.82
709.621	6937.61
709.966	6863.94
710.31	6910.27
710.654	6894.68
710.998	6854.23
711.342	6820.56
711.687	6815.13
712.031	6747.11
712.375	6728.13
712.719	6719.99
713.063	6752.76
713.407	6726.32
713.75	6759.54
714.094	6726.77
714.438	6609.26
714.782	6707.34
715.125	6662.59
715.469	6650.62
715.812	6637.74
716.156	6605.65
716.499	6611.97
716.843	6512.99
717.186	6586.89
717.53	6635.93
717.873	6649.03
718.216	6622.82
718.559	6583.27
718.902	6484.29
719.246	6552.31
719.589	6580.79
719.932	6471.64
720.275	6480.68
720.617	6481.58
720.96	6487.23
721.303	6522.71
721.646	6488.81
721.989	6429.83
722.331	6409.27
722.674	6484.97
723.016	6482.94
723.359	6437.06
723.701	6450.17
724.044	6434.58
724.386	6406.78
724.729	6424.63
725.071	6313.68
725.413	6435.25
725.755	6378.08
726.097	6360
726.439	6354.13
726.782	6322.26
727.124	6368.59
727.465	6315.48
727.807	6417.4
728.149	6318.87
728.491	6329.27
728.833	6353.45
729.175	6304.64
729.516	6332.21
729.858	6323.17
730.199	6325.65
730.541	6292.66
730.882	6279.55
731.224	6305.09
731.565	6254.92
731.906	6334.47
732.248	6322.49
732.589	6320.23
732.93	6265.77
733.271	6262.15
733.612	6319.33
733.953	6308.93
734.294	6327.46
734.635	6304.18
734.976	6355.93
735.317	6317.97
735.658	6297.86
735.999	6300.34
736.339	6272.77
736.68	6347.8
737.021	6347.35
737.361	6321.81
737.702	6381.24
738.042	6362.26
738.383	6312.09
738.723	6382.6
739.063	6297.63
739.404	6407.46
739.744	6336.95
740.084	6311.19
740.424	6390.96
740.764	6363.62
741.104	6442.94
741.444	6450.4
741.784	6420.11
742.124	6401.13
742.464	6442.49
742.804	6469.15
743.143	6437.51
743.483	6479.55
743.823	6508.02
744.162	6492.88
744.502	6557.74
744.841	6598.64
745.181	6633.22
745.52	6579.43
745.86	6647
746.199	6643.61
746.538	6765.19
746.877	6749.82
747.216	6793.21
747.556	6770.61
747.895	6883.38
748.234	6890.38
748.573	6962.92
748.911	6940.78
749.25	6988.46
749.589	7095.35
749.928	7181.68
750.267	7184.84
750.605	7255.35
750.944	7341.45
751.283	7331.05
751.621	7489.01
751.96	7480.65
752.298	7601.55
752.636	7695.56
752.975	7787.99
753.313	7836.35
753.651	7956.57
753.989	8057.36
754.327	8157.47
754.666	8206.51
755.004	8341.65
755.342	8491.47
755.679	8606.04
756.017	8685.36
756.355	8845.13
756.693	8953.15
757.031	9094.17
757.368	9195.86
757.706	9294.61
758.044	9389.3
758.381	9601.5
758.719	9775.05
759.056	9926.69
759.394	9974.14
759.731	10151.54
760.068	10294.59
760.405	10429.73
760.743	10612.09
761.08	10751.3
761.417	10927.34
761.754	11043.27
762.091	11239.2
762.428	11413.2
762.765	11548.34
763.102	11713.31
763.438	11901.1
763.775	12082.79
764.112	12216.8
764.449	12459.73
764.785	12581.53
765.122	12696.11
765.458	12891.58
765.795	13075.31
766.131	13156.43
766.467	13259.93
766.804	13412.47
767.14	13560.49
767.476	13743.54
767.812	13783.76
768.148	14015.17
768.485	14023.53
768.821	14173.81
769.157	14380.81
769.492	14401.37
769.828	14680.01
770.164	14769.27
770.5	14797.52
770.836	14922.04
771.171	15014.24
771.507	15145.08
771.842	15227.79
772.178	15270.05
772.513	15389.82
772.849	15538.52
773.184	15684.05
773.519	15643.37
773.855	15762.92
774.19	15923.37
774.525	15896.7
774.86	16046.75
775.195	16067.77
775.53	16038.62
775.865	16076.81
776.2	16105.51
776.535	16204.49
776.87	16250.14
777.205	16333.3
777.539	16353.86
777.874	16517.93
778.209	16434.77
778.543	16561.99
778.878	16551.15
779.212	16649.45
779.547	16603.12
779.881	16653.06
780.215	16655.78
780.55	16707.53
780.884	16672.73
781.218	16691.48
781.552	16743.01
781.886	16738.94
782.22	16777.13
782.554	16747.07
782.888	16710.24
783.222	16757.02
783.556	16644.93
783.889	16726.51
784.223	16621.43
784.557	16745.94
784.89	16808.99
785.224	16735.32
785.557	16638.6
785.891	16633.63
786.224	16610.13
786.558	16783.01
786.891	16578.72
787.224	16504.37
787.557	16538.04
787.891	16586.85
788.224	16658.49
788.557	16570.58
788.89	16657.58
789.223	16561.77
789.556	16528.32
789.888	16550.69
790.221	16554.99
790.554	16429.79
790.887	16451.26
791.219	16410.59
791.552	16397.48
791.884	16332.17
792.217	16320.87
792.549	16301.21
792.882	16228.22
793.214	16209.01
793.546	16250.59
793.879	16211.04
794.211	16163.59
794.543	16221.21
794.875	16044.04
795.207	16272.28
795.539	16126.75
795.871	16149.8
796.203	15977.38
796.535	15909.36
796.867	15953.87
797.198	15900.54
797.53	15997.04
797.862	15861.45
798.193	15903.93
798.525	15737.83
798.856	15807.89
799.188	15674.11
799.519	15628.91
799.85	15530.16
800.182	15606.54
800.513	15585.07
800.844	15494.9
801.175	15515.24
801.506	15639.31
801.837	15408.13
802.168	15444.96
802.499	15398.86
802.83	15379.65
803.161	15326.77
803.491	15291.29
803.822	15347.11
804.153	15262.37
804.483	15204.29
804.814	15167.23
805.145	15088.81
805.475	15075.71
805.805	14972.21
806.136	15117.29
806.466	15033.67
806.796	14947.12
807.126	14880
807.457	14914.81
807.787	14891.08
808.117	14840.46
808.447	14862.6
808.777	14872.09
809.107	14770.85
809.436	14697.86
809.766	14782.61
810.096	14597.3
810.426	14600.69
810.755	14611.31
811.085	14607.7
811.414	14545.55
811.744	14456.96
812.073	14446.8
812.403	14374.48
812.732	14415.38
813.061	14426.23
813.39	14360.92
813.719	14383.07
814.049	14393.24
814.378	14330.19
814.707	14234.37
815.036	14270.98
815.365	14143.75
815.693	14184.43
816.022	14117.31
816.351	14017.43
816.68	14000.03
817.008	14148.05
817.337	13951.89
817.665	13863.31
817.994	13993.47
818.322	13930.65
818.651	13826.25
818.979	13788.06
819.307	13868.73
819.636	13882.06
819.964	13872.35
820.292	13901.05
820.62	13848.84
820.948	13681.84
821.276	13881.84
821.604	13777.43
821.932	13770.65
822.259	13735.18
822.587	13787.15
822.915	13834.61
823.243	13796.87
823.57	13801.16
823.898	13740.37
824.225	13725.46
824.553	13738.11
824.88	13768.17
825.207	13856.08
825.535	13743.54
825.862	13770.65
826.189	13757.32
826.516	13838.45
826.843	13721.62
827.17	13836.87
827.497	13867.15
827.824	13775.4
828.151	13821.05
828.478	13822.4
828.805	13877.77
829.131	13817.89
829.458	13826.92
829.785	13758.23
830.111	13823.31
830.438	13858.56
830.764	13796.87
831.09	13836.87
831.417	13707.83
831.743	13724.78
832.069	13752.35
832.395	13756.19
832.722	13788.28
833.048	13756.87
833.374	13863.08
833.7	13651.79
834.026	13727.94
834.351	13687.49
834.677	13647.04
835.003	13743.08
835.329	13680.71
835.654	13696.98
835.98	13620.83
836.306	13718.68
836.631	13631
836.956	13653.82
837.282	13610.66
837.607	13556.88
837.932	13556.65
838.258	13583.54
838.583	13526.82
838.908	13453.6
839.233	13502.64
839.558	13450.21
839.883	13400.72
840.208	13372.02
840.533	13440.04
840.858	13293.38
841.182	13358.01
841.507	13348.75
841.832	13261.52
842.156	13309.42
842.481	13236.43
842.805	13194.62
843.13	13239.82
843.454	13162.76
843.778	13047.51
844.103	13065.14
844.427	13098.58
844.751	13116.66
845.075	13018.13
845.399	12973.84
845.723	12857.91
846.047	12968.87
846.371	12797.12
846.695	12807.74
847.019	12739.72
847.343	12660.18
847.666	12603
847.99	12594.87
848.313	12557.58
848.637	12421.09
848.96	12489.11
849.284	12429.45
849.607	12325.95
849.931	12316.23
850.254	12257.93
850.577	12192.39
850.9	12152.84
851.223	12131.6
851.546	12063.13
851.869	11938.84
852.192	12046.86
852.515	11865.17
852.838	11794.89
853.161	11843.47
853.483	11811.84
853.806	11702.01
854.129	11701.1
854.451	11659.98
854.774	11583.59
855.096	11552.18
855.419	11519.41
855.741	11483.48
856.063	11412.75
856.385	11464.5
856.708	11411.62
857.03	11439.19
857.352	11385.86
857.674	11286.88
857.996	11197.39
858.318	11203.72
858.64	11212.98
858.961	11202.36
859.283	11145.87
859.605	11076.04
859.926	11061.35
860.248	11062.03
860.57	10990.61
860.891	11029.26
861.212	10971.18
861.534	10911.52
861.855	10918.3
862.176	10989.94
862.498	10875.36
862.819	10889.15
863.14	10839.88
863.461	10827.23
863.782	10790.85
864.103	10833.56
864.424	10726.67
864.745	10796.27
865.065	10644.86
865.386	10658.87
865.707	10727.35
866.027	10650.28
866.348	10718.08
866.668	10666.1
866.989	10624.97
867.309	10521.7
867.63	10534.13
867.95	10518.31
868.27	10459.1
868.59	10588.82
868.91	10535.26
869.23	10481.02
869.55	10449.61
869.87	10504.53
870.19	10395.38
870.51	10435.83
870.83	10420.46
871.15	10340.69
871.469	10420.91
871.789	10412.55
872.109	10382.95
872.428	10314.02
872.748	10363.51
873.067	10290.07
873.386	10243.52
873.706	10288.49
874.025	10175.72
874.344	10161.94
874.663	10256.17
874.982	10259.33
875.301	10236.06
875.62	10097.08
875.939	10183.63
876.258	10158.32
876.577	10041.04
876.896	10116.97
877.214	10081.49
877.533	10128.49
877.852	9981.83
878.17	10007.14
878.489	10005.33
878.807	10029.96
879.125	9985.22
879.444	9954.94
879.762	9935.95
880.08	9927.82
880.398	9894.6
880.716	9911.32
881.034	9868.84
881.352	9792.68
881.67	9820.7
881.988	9853.47
882.306	9787.03
882.624	9786.58
882.941	9772.79
883.259	9748.61
883.577	9659.12
883.894	9655.73
884.212	9675.85
884.529	9676.53
884.846	9570.09
885.164	9640.82
885.481	9600.6
885.798	9528.28
886.115	9515.63
886.432	9515.17
886.75	9520.82
887.067	9419.58
887.383	9439.24
887.7	9449.64
888.017	9395.85
888.334	9396.31
888.651	9392.69
888.967	9371.67
889.284	9264.33
889.6	9310.43
889.917	9215.07
890.233	9199.02
890.55	9248.74
890.866	9229.31
891.182	9137.56
891.498	9162.64
891.815	9134.17
892.131	9081.74
892.447	9039.48
892.763	9064.56
893.079	8998.8
893.395	9012.36
893.71	8903.21
894.026	8925.81
894.342	8913.83
894.657	8813.72
894.973	8762.65
895.289	8763.33
895.604	8757.45
895.92	8729.21
896.235	8703.67
896.55	8580.73
896.865	8623.45
897.181	8603.56
897.496	8489.66
897.811	8535.31
898.126	8509.32
898.441	8473.84
898.756	8401.53
899.071	8393.4
899.386	8411.47
899.7	8286.05
900.015	8300.29
900.33	8248.99
900.644	8217.35
900.959	8242.89
901.273	8187.98
901.588	8191.59
901.902	8111.14
902.216	8074.53
902.531	8098.26
902.845	8046.96
903.159	7986.85
903.473	7949.79
903.787	7928.55
904.101	7938.72
904.415	7861.88
904.729	7840.87
905.042	7854.2
905.356	7800.64
905.67	7804.26
905.984	7768.78
906.297	7710.7
906.611	7674.77
906.924	7691.72
907.237	7641.32
907.551	7636.13
907.864	7616.24
908.177	7560.65
908.491	7493.76
908.804	7478.16
909.117	7429.58
909.43	7380.09
909.743	7392.97
910.056	7289.47
910.368	7291.05
910.681	7214.44
910.994	7232.3
911.307	7208.79
911.619	7172.86
911.932	7231.62
912.244	7152.3
912.557	7121.79
912.869	7057.61
913.181	6995.24
913.494	7009.48
913.806	6997.27
914.118	6938.97
914.43	6967.9
914.742	6941
915.054	6859.88
915.366	6883.6
915.678	6849.93
915.99	6763.38
916.302	6763.61
916.613	6675.02
916.925	6680.67
917.236	6730.84
917.548	6668.92
917.859	6706.21
918.171	6596.15
918.482	6584.86
918.794	6516.38
919.105	6569.04
919.416	6509.83
919.727	6459.66
920.038	6454.01
920.349	6508.7
920.66	6390.28
920.971	6363.17
921.282	6350.74
921.593	6344.18
921.903	6290.17
922.214	6298.08
922.525	6226.22
922.835	6278.65
923.146	6149.39
923.456	6200.23
923.767	6095.83
924.077	6160.69
924.387	6116.84
924.697	6016.06
925.008	6018.54
925.318	6061.48
925.628	6023.06
925.938	5978.77
926.248	5972.89
926.558	5927.47
926.867	5893.57
927.177	5887.25
927.487	5828.94
927.796	5780.36
928.106	5796.4
928.416	5864.87
928.725	5780.58
929.034	5720.02
929.344	5711.21
929.653	5734.03
929.962	5670.53
930.271	5661.72
930.581	5630.53
930.89	5548.05
931.199	5532.91
931.508	5568.61
931.817	5571.77
932.125	5569.06
932.434	5479.57
932.743	5493.36
933.051	5451.33
933.36	5447.03
933.669	5376.07
933.977	5394.15
934.286	5348.73
934.594	5298.79
934.902	5312.12
935.21	5264.44
935.519	5287.94
935.827	5258.34
936.135	5182.86
936.443	5185.57
936.751	5154.16
937.059	5172.24
937.367	5122.75
937.674	5104.67
937.982	5102.41
938.29	5037.33
938.597	5081.84
938.905	5003.43
939.213	4977.21
939.52	4974.28
939.827	4954.84
940.135	4964.11
940.442	4864.9
940.749	4928.63
941.056	4909.19
941.363	4815.41
941.67	4846.82
941.977	4823.32
942.284	4857.89
942.591	4802.3
942.898	4761.85
943.205	4713.94
943.511	4720.27
943.818	4715.3
944.125	4665.36
944.431	4652.93
944.738	4613.61
945.044	4637.79
945.35	4560.73
945.657	4616.55
945.963	4563.21
946.269	4524.8
946.575	4537.68
946.881	4493.61
947.187	4505.36
947.493	4453.39
947.799	4431.92
948.105	4424.69
948.41	4438.92
948.716	4386.95
949.022	4387.85
949.327	4360.51
949.633	4301.98
949.938	4299.04
950.244	4283.67
950.549	4233.73
950.854	4269.21
951.16	4245.48
951.465	4244.58
951.77	4194.41
952.075	4173.62
952.38	4189.21
952.685	4191.25
952.99	4158.03
953.294	4137.69
953.599	4087.29
953.904	4089.55
954.209	4073.06
954.513	4063.57
954.818	4022.44
955.122	4037.58
955.426	4017.92
955.731	3962.78
956.035	3969.56
956.339	3948.99
956.643	3909.9
956.948	3880.29
957.252	3874.87
957.556	3861.76
957.86	3830.35
958.163	3854.98
958.467	3808.2
958.771	3825.15
959.075	3793.29
959.378	3741.99
959.682	3775.21
959.985	3745.61
960.289	3718.49
960.592	3721.43
960.896	3706.74
961.199	3682.56
961.502	3684.82
961.805	3668.1
962.108	3655.67
962.411	3627.64
962.714	3637.36
963.017	3646.4
963.32	3582
963.623	3544.71
963.926	3554.88
964.228	3541.09
964.531	3503.58
964.833	3542.68
965.136	3444.37
965.438	3472.39
965.741	3475.56
966.043	3424.49
966.345	3404.6
966.648	3414.09
966.95	3396.69
967.252	3371.83
967.554	3353.3
967.856	3392.4
968.158	3313.98
968.46	3349.01
968.761	3317.37
969.063	3279.86
969.365	3259.74
969.666	3292.51
969.968	3251.61
970.269	3212.74
970.571	3250.03
970.872	3241.44
971.174	3177.49
971.475	3185.62
971.776	3178.84
972.077	3173.42
972.378	3108.11
972.679	3124.61
972.98	3097.49
973.281	3109.24
973.582	3079.64
973.883	3081.9
974.183	3091.84
974.484	3074.66
974.785	2998.96
975.085	3029.02
975.386	3022.91
975.686	3009.58
975.986	2975.68
976.287	2983.59
976.587	2937.27
976.887	2944.27
977.187	2923.03
977.487	2944.95
977.787	2891.84
978.087	2883.03
978.387	2886.2
978.687	2880.55
978.987	2842.81
979.286	2826.76
979.586	2846.2
979.885	2812.52
980.185	2809.81
980.484	2791.73
980.784	2756.03
981.083	2766.65
981.382	2770.49
981.682	2761.68
981.981	2741.11
982.28	2718.97
982.579	2696.14
982.878	2708.35
983.177	2673.09
983.475	2686.88
983.774	2631.06
984.073	2620.21
984.372	2613.43
984.67	2607.33
984.969	2622.93
985.267	2641.91
985.566	2603.04
985.864	2596.03
986.162	2584.96
986.461	2529.82
986.759	2553.1
987.057	2528.24
987.355	2540.22
987.653	2502.02
987.951	2470.16
988.249	2453.21
988.547	2487.11
988.844	2419.09
989.142	2473.32
989.44	2433.78
989.737	2460.44
990.035	2413.44
990.332	2414.12
990.63	2387.45
990.927	2435.13
991.224	2367.79
991.521	2364.4
991.819	2359.88
992.116	2342.03
992.413	2309.04
992.71	2328.7
993.006	2296.15
993.303	2315.59
993.6	2290.05
993.897	2286.66
994.193	2268.58
994.49	2237.62
994.787	2243.5
995.083	2204.41
995.379	2202.15
995.676	2217.74
995.972	2222.94
996.268	2179.77
996.565	2179.77
996.861	2148.59
997.157	2133.22
997.453	2139.77
997.749	2112.43
998.044	2114.46
998.34	2107.91
998.636	2098.65
998.932	2087.57
999.227	2067.46
999.523	2068.14
999.818	2062.71
1000.114	2049.61
1000.409	2035.37
1000.704	2021.36
1001	2032.21
1001.295	1998.54
1001.59	2024.07
1001.885	1996.73
1002.18	1979.33
1002.475	1979.78
1002.77	1962.83
1003.065	1942.27
1003.359	1936.62
1003.654	1948.59
1003.949	1917.18
1004.243	1892.55
1004.538	1899.55
1004.832	1866.56
1005.127	1881.93
1005.421	1866.56
1005.715	1852.55
1006.009	1863.85
1006.304	1797.64
1006.598	1782.04
1006.892	1829.5
1007.186	1813.23
1007.48	1784.3
1007.773	1779.78
1008.067	1791.76
1008.361	1759.45
1008.655	1769.84
1008.948	1771.42
1009.242	1761.03
1009.535	1723.06
1009.829	1700.69
1010.122	1689.39
1010.415	1688.03
1010.708	1710.18
1011.001	1648.71
1011.295	1651.65
1011.588	1640.58
1011.881	1652.56
1012.173	1615.04
1012.466	1647.58
1012.759	1623.86
1013.052	1585.66
1013.344	1590.18
1013.637	1556.96
1013.93	1595.16
1014.222	1563.07
1014.514	1547.02
1014.807	1559.9
1015.099	1518.32
1015.391	1544.54
1015.683	1529.85
1015.976	1499.57
1016.268	1501.82
1016.56	1512.22
1016.851	1507.7
1017.143	1483.52
1017.435	1496.18
1017.727	1426.8
1018.018	1441.49
1018.31	1445.78
1018.602	1424.31
1018.893	1424.09
1019.185	1393.35
1019.476	1417.08
1019.767	1420.7
1020.058	1404.43
1020.35	1375.5
1020.641	1365.11
1020.932	1372.79
1021.223	1386.8
1021.514	1330.76
1021.804	1308.84
1022.095	1326.46
1022.386	1315.62
1022.677	1295.73
1022.967	1289.63
1023.258	1275.62
1023.548	1270.42
1023.839	1265.45
1024.129	1269.29
1024.419	1276.52
1024.709	1259.57
1025	1255.5
1025.29	1228.39
1025.58	1223.64
1025.87	1208.27
1026.16	1197.65
1026.449	1206.24
1026.739	1196.07
1027.029	1188.39
1027.319	1158.11
1027.608	1175.28
1027.898	1181.16
1028.187	1158.78
1028.477	1145.68
1028.766	1124.43
1029.055	1165.34
1029.344	1150.65
1029.634	1128.95
1029.923	1099.8
1030.212	1137.54
1030.501	1109.74
1030.79	1085.56
1031.078	1075.4
1031.367	1093.7
1031.656	1063.87
1031.945	1057.54
1032.233	1058.45
1032.522	1061.84
1032.81	1050.76
1033.099	1058.22
1033.387	1044.89
1033.675	1020.48
1033.963	1033.36
1034.251	1045.57
1034.54	1015.51
1034.828	1033.59
1035.116	997.43
1035.403	1007.83
1035.691	1009.86
1035.979	977.32
1036.267	973.7
1036.554	989.52
1036.842	972.57
1037.129	963.99
1037.417	939.13
1037.704	956.3
1037.992	932.12
1038.279	917.43
1038.566	934.83
1038.853	934.83
1039.14	934.83
