Data from hue_190_FLMS001491_00086.txt Node
Date: Tue Feb 07 16:45:54 GMT 2017
User: dcchb
Spectrometer: FLMS00149
Trigger mode: 0
Integration Time (sec): 2.000000E-2
Scans to average: 10
Electric dark correction enabled: true
Nonlinearity correction enabled: false
Boxcar width: 0
XAxis mode: Wavelengths
Number of Pixels in Spectrum: 2048
>>>>>Begin Spectral Data<<<<<
341.393	-37.39
341.776	-37.39
342.16	-37.39
342.543	-68.35
342.927	-69.7
343.31	-67.67
343.693	-97.72
344.077	-65.63
344.46	-40.55
344.843	-51.17
345.226	-34.67
345.61	-20.44
345.993	-34.22
346.376	-18.86
346.759	8.94
347.142	27.02
347.525	37.19
347.908	57.98
348.291	64.08
348.674	96.17
349.057	139.56
349.44	128.71
349.823	143.4
350.206	165.55
350.588	195.38
350.971	199.67
351.354	224.08
351.737	231.08
352.119	266.33
352.502	256.84
352.884	277.63
353.267	289.84
353.65	279.67
354.032	291.87
354.414	293.23
354.797	307.01
355.179	333.68
355.562	337.97
355.944	312.89
356.326	339.33
356.709	336.84
357.091	346.11
357.473	335.26
357.855	342.72
358.238	331.64
358.62	332.1
359.002	318.08
359.384	321.25
359.766	320.34
360.148	336.84
360.53	335.71
360.912	336.16
361.294	326.9
361.676	317.41
362.057	314.47
362.439	315.37
362.821	318.08
363.203	336.16
363.584	338.88
363.966	315.15
364.348	320.57
364.729	318.08
365.111	293.68
365.493	323.51
365.874	324.64
366.256	293.45
366.637	316.95
367.019	295.26
367.4	311.76
367.781	316.95
368.163	326.45
368.544	304.07
368.925	325.54
369.306	304.3
369.688	316.05
370.069	294.58
370.45	308.37
370.831	308.14
371.212	317.63
371.593	311.08
371.974	311.98
372.355	314.47
372.736	323.96
373.117	290.29
373.498	303.17
373.879	324.86
374.26	325.77
374.641	320.8
375.021	301.36
375.402	323.73
375.783	345.2
376.163	295.71
376.544	337.75
376.925	335.03
377.305	331.87
377.686	320.57
378.066	323.06
378.447	311.31
378.827	318.76
379.208	329.84
379.588	312.89
379.968	313.34
380.349	328.03
380.729	330.06
381.109	337.07
381.489	322.38
381.87	335.49
382.25	353.56
382.63	337.52
383.01	345.43
383.39	344.07
383.77	328.93
384.15	352.66
384.53	355.6
384.91	373.9
385.29	356.05
385.67	335.03
386.049	344.52
386.429	345.65
386.809	337.07
387.189	344.07
387.568	345.43
387.948	356.05
388.328	358.99
388.707	361.7
389.087	375.71
389.466	369.16
389.846	380.46
390.225	380.68
390.605	342.04
390.984	363.73
391.363	390.17
391.743	349.04
392.122	363.06
392.501	359.89
392.881	376.39
393.26	370.51
393.639	378.2
394.018	371.42
394.397	373.45
394.776	374.35
395.155	396.27
395.534	378.42
395.913	394.02
396.292	393.79
396.671	385.2
397.05	419.55
397.429	388.59
397.808	395.82
398.186	379.55
398.565	377.52
398.944	414.58
399.323	391.53
399.701	408.25
400.08	415.71
400.458	406.67
400.837	391.98
401.215	413.9
401.594	408.93
401.972	415.26
402.351	436.27
402.729	430.62
403.107	411.64
403.486	432.66
403.864	431.3
404.242	434.24
404.62	442.83
404.999	436.73
405.377	457.74
405.755	415.71
406.133	454.13
406.511	468.59
406.889	488.93
407.267	460.45
407.645	486.22
408.023	471.98
408.401	492.54
408.779	483.05
409.156	507.68
409.534	503.62
409.912	513.11
410.29	521.02
410.667	516.95
411.045	535.71
411.422	539.32
411.8	560.11
412.178	554.46
412.555	548.81
412.933	561.24
413.31	561.02
413.687	602.6
414.065	586.78
414.442	582.94
414.819	620.68
415.197	620.68
415.574	642.82
415.951	607.12
416.328	628.59
416.705	618.87
417.082	649.15
417.46	661.35
417.837	664.29
418.214	676.49
418.591	659.32
418.967	677.4
419.344	685.76
419.721	685.98
420.098	722.59
420.475	728.02
420.852	727.79
421.228	750.62
421.605	740.22
421.982	770.73
422.358	779.99
422.735	793.1
423.111	813.67
423.488	834.91
423.864	833.33
424.241	835.36
424.617	870.84
424.994	858.86
425.37	867.9
425.746	903.38
426.123	913.32
426.499	894.79
426.875	909.71
427.251	956.49
427.627	960.33
428.003	957.39
428.379	965.07
428.756	987.9
429.132	982.47
429.507	1022.93
429.883	1033.32
430.259	1012.98
430.635	1052.3
431.011	1039.65
431.387	1061.34
431.763	1089.59
432.138	1102.92
432.514	1130.49
432.89	1126.2
433.265	1158.74
433.641	1172.53
434.016	1198.29
434.392	1193.09
434.767	1247.33
435.143	1298.17
435.518	1271.28
435.894	1299.08
436.269	1304.73
436.644	1319.87
437.02	1350.6
437.395	1330.04
437.77	1387.21
438.145	1446.19
438.52	1455.23
438.895	1492.52
439.271	1494.33
439.646	1527.32
440.021	1508.56
440.395	1571.61
440.77	1585.62
441.145	1582.91
441.52	1643.7
441.895	1614.55
442.27	1666.75
442.645	1667.43
443.019	1686.64
443.394	1681.89
443.769	1684.6
444.143	1716.01
444.518	1752.62
444.892	1741.78
445.267	1772.28
445.641	1798.05
446.016	1833.3
446.39	1800.53
446.764	1834.66
447.139	1832.85
447.513	1866.07
447.887	1896.8
448.262	1898.16
448.636	1897.48
449.01	1924.14
449.384	1953.75
449.758	1999.4
450.132	2013.18
450.506	1958.72
450.88	1992.62
451.254	1994.88
451.628	2060.41
452.002	2089.11
452.376	2121.2
452.75	2147.19
453.123	2128.66
453.497	2144.03
453.871	2178.37
454.244	2207.75
454.618	2257.47
454.992	2297.47
455.365	2261.31
455.739	2353.06
456.112	2338.82
456.486	2398.03
456.859	2371.82
457.232	2478.03
457.606	2421.31
457.979	2493.85
458.352	2520.29
458.725	2568.65
459.099	2544.24
459.472	2661.53
459.845	2664.01
460.218	2689.55
460.591	2673.28
460.964	2707.4
461.337	2784.01
461.71	2823.33
462.083	2875.53
462.456	2885.02
462.829	2877.34
463.201	2973.83
463.574	3002.31
463.947	2986.94
464.32	3037.56
464.692	3112.14
465.065	3130.67
465.438	3143.1
465.81	3196.65
466.183	3241.62
466.555	3320.04
466.928	3314.39
467.3	3355.75
467.672	3396.87
468.045	3525.91
468.417	3515.29
468.789	3522.75
469.161	3591.9
469.534	3675.06
469.906	3822.85
470.278	3713.02
470.65	3822.17
471.022	3892.68
471.394	3992.56
471.766	3998.89
472.138	4055.39
472.51	4103.97
472.882	4237.76
473.253	4235.95
473.625	4266.91
473.997	4397.3
474.369	4465.32
474.74	4508.26
475.112	4633.9
475.484	4607.69
475.855	4740.34
476.227	4781.47
476.598	4869.6
476.97	4956.15
477.341	5044.97
477.713	5126.09
478.084	5217.17
478.455	5318.41
478.827	5420.32
479.198	5583.48
479.569	5585.74
479.94	5725.63
480.311	5748.22
480.682	5890.37
481.053	6053.98
481.424	6111.83
481.795	6160.19
482.166	6317.7
482.537	6405.61
482.908	6508.43
483.279	6556.56
483.65	6669.33
484.021	6873.39
484.391	6926.72
484.762	6980.96
485.133	7019.83
485.503	7162.42
485.874	7326.71
486.244	7342.08
486.615	7545.24
486.985	7562.87
487.356	7718.57
487.726	7799.02
488.097	8032.68
488.467	7886.25
488.837	8116.52
489.207	8261.83
489.578	8320.13
489.948	8413.92
490.318	8563.29
490.688	8603.74
491.058	8739.11
491.428	8816.39
491.798	8906.33
492.168	9047.8
492.538	9072.43
492.908	9187.91
493.278	9278.53
493.648	9300.45
494.017	9457.05
494.387	9532.08
494.757	9527.56
495.126	9640.33
495.496	9630.61
495.866	9756.03
496.235	9830.15
496.605	9955.57
496.974	9951.28
497.344	10041.45
497.713	10136.36
498.082	10106.98
498.452	10274.21
498.821	10236.92
499.19	10267.65
499.559	10345.62
499.928	10338.61
500.298	10446.41
500.667	10573.63
501.036	10486.63
501.405	10520.75
501.774	10585.39
502.143	10672.16
502.512	10684.14
502.88	10784.25
503.249	10793.29
503.618	10868.99
503.987	10781.54
504.356	10861.31
504.724	10922.78
505.093	10931.82
505.462	11002.55
505.83	11087.29
506.199	11048.2
506.567	11118.93
506.936	11216.33
507.304	11231.24
507.672	11293.39
508.041	11298.36
508.409	11384.46
508.777	11497
509.145	11481.63
509.514	11347.85
509.882	11441.63
510.25	11459.03
510.618	11539.03
510.986	11522.08
511.354	11522.99
511.722	11566.38
512.09	11720.04
512.458	11604.57
512.826	11650.89
513.193	11722.53
513.561	11754.62
513.929	11739.03
514.297	11764.11
514.664	11831
515.032	11819.25
515.4	11855.18
515.767	11935.63
516.135	11825.13
516.502	11694.28
516.869	11920.04
517.237	11925.92
517.604	11801.4
517.972	11955.74
518.339	11885.01
518.706	11967.27
519.073	11891.79
519.44	12008.62
519.808	12038.91
520.175	11990.77
520.542	12143.31
520.909	12134.05
521.276	11994.16
521.643	12048.62
522.009	12116.87
522.376	12071.67
522.743	12117.77
523.11	12155.97
523.477	12229.18
523.843	12198.45
524.21	12286.36
524.577	12244.78
524.943	12377.43
525.31	12240.71
525.676	12355.06
526.043	12291.78
526.409	12366.13
526.776	12462.62
527.142	12344.44
527.508	12314.61
527.874	12376.98
528.241	12325.23
528.607	12294.49
528.973	12347.15
529.339	12251.78
529.705	12298.79
530.071	12326.13
530.437	12336.3
530.803	12249.75
531.169	12309.18
531.535	12236.42
531.901	12254.95
532.267	12242.74
532.632	12184.44
532.998	12133.59
533.364	12147.6
533.73	12103.31
534.095	12132.01
534.461	12012.24
534.826	12079.36
535.192	12066.48
535.557	11984.44
535.923	11914.62
536.288	11937.67
536.653	11925.01
537.019	11696.09
537.384	11767.28
537.749	11722.53
538.114	11778.12
538.479	11660.39
538.845	11648.41
539.21	11588.75
539.575	11540.61
539.94	11434.18
540.305	11485.02
540.67	11466.49
541.034	11343.78
541.399	11369.09
541.764	11303.11
542.129	11310.34
542.494	11195.99
542.858	11210.23
543.223	11104.92
543.587	11096.11
543.952	11031.02
544.316	11032.15
544.681	10935.66
545.045	10876
545.41	10867.19
545.774	10839.62
546.138	10768.88
546.503	10767.53
546.867	10677.81
547.231	10750.13
547.595	10584.26
547.959	10615.89
548.324	10584.93
548.688	10493.41
549.052	10446.41
549.416	10416.8
549.779	10369.8
550.143	10283.25
550.507	10335.67
550.871	10248.67
551.235	10159.18
551.599	10267.88
551.962	10123.02
552.326	10093.87
552.689	10135.45
553.053	10019.75
553.417	9999.86
553.78	10053.87
554.143	10001.22
554.507	9911.5
554.87	9881.9
555.234	9957.15
555.597	9792.64
555.96	9753.09
556.323	9806.2
556.686	9683.49
557.05	9731.85
557.413	9710.61
557.776	9669.7
558.139	9720.1
558.502	9625.86
558.865	9600.33
559.228	9604.62
559.59	9568.24
559.953	9575.92
560.316	9709.02
560.679	9603.94
561.041	9546.77
561.404	9622.02
561.767	9638.97
562.129	9481.46
562.492	9547.67
562.854	9506.54
563.217	9504.28
563.579	9506.32
563.941	9547.9
564.304	9530.72
564.666	9537.28
565.028	9490.5
565.39	9524.62
565.753	9602.36
566.115	9519.88
566.477	9519.65
566.839	9514.68
567.201	9519.65
567.563	9510.61
567.925	9509.93
568.287	9564.62
568.648	9509.48
569.01	9538.18
569.372	9587.9
569.734	9497.05
570.095	9534.57
570.457	9594.23
570.819	9591.29
571.18	9534.57
571.542	9558.52
571.903	9610.04
572.265	9488.47
572.626	9527.33
572.987	9525.3
573.349	9586.99
573.71	9558.29
574.071	9575.92
574.432	9575.92
574.794	9599.42
575.155	9577.5
575.516	9505.87
575.877	9592.87
576.238	9643.94
576.599	9600.1
576.96	9497.96
577.32	9533.21
577.681	9585.19
578.042	9636.94
578.403	9631.06
578.763	9604.62
579.124	9555.13
579.485	9567.33
579.845	9619.54
580.206	9551.97
580.566	9578.63
580.927	9582.47
581.287	9588.12
581.648	9502.02
582.008	9629.7
582.368	9537.28
582.728	9535.7
583.089	9548.12
583.449	9515.36
583.809	9508.35
584.169	9502.25
584.529	9460.9
584.889	9585.41
585.249	9469.71
585.609	9498.18
585.969	9455.92
586.329	9388.13
586.688	9491.85
587.048	9513.1
587.408	9397.39
587.768	9414.12
588.127	9369.37
588.487	9419.54
588.846	9466.54
589.206	9415.92
589.565	9376.83
589.925	9366.43
590.284	9286.89
590.643	9326.66
591.003	9345.19
591.362	9373.67
591.721	9406.21
592.08	9348.36
592.44	9389.94
592.799	9366.43
593.158	9357.17
593.517	9338.41
593.876	9312.2
594.235	9264.74
594.593	9268.13
594.952	9318.07
595.311	9334.8
595.67	9243.73
596.029	9359.43
596.387	9309.26
596.746	9288.02
597.104	9260
597.463	9219.55
597.822	9301.8
598.18	9247.57
598.538	9252.77
598.897	9298.87
599.255	9189.49
599.613	9317.85
599.972	9260.9
600.33	9249.15
600.688	9195.82
601.046	9228.59
601.404	9287.57
601.762	9180.45
602.12	9220.9
602.478	9247.12
602.836	9211.18
603.194	9165.08
603.552	9182.71
603.91	9151.3
604.268	9170.28
604.625	9204.86
604.983	9234.23
605.341	9224.52
605.698	9290.05
606.056	9207.34
606.413	9213.22
606.771	9275.14
607.128	9287.79
607.485	9227.46
607.843	9251.86
608.2	9215.25
608.557	9305.65
608.914	9236.72
609.272	9244.63
609.629	9253.22
609.986	9280.79
610.343	9238.53
610.7	9345.42
611.057	9331.18
611.414	9288.7
611.771	9360.56
612.127	9302.26
612.484	9322.37
612.841	9370.95
613.198	9330.96
613.554	9297.28
613.911	9333.44
614.267	9329.6
614.624	9337.73
614.98	9329.6
615.337	9386.77
615.693	9339.32
616.05	9408.92
616.406	9479.65
616.762	9361.46
617.118	9456.6
617.475	9387
617.831	9451.4
618.187	9408.92
618.543	9379.77
618.899	9467.22
619.255	9454.79
619.611	9464.06
619.967	9452.53
620.323	9397.17
620.678	9434.91
621.034	9481.23
621.39	9450.95
621.746	9374.34
622.101	9449.82
622.457	9477.17
622.812	9444.62
623.168	9434.23
623.523	9433.33
623.879	9453.21
624.234	9405.76
624.589	9482.82
624.945	9460.44
625.3	9489.14
625.655	9476.49
626.01	9424.29
626.365	9439.43
626.72	9372.54
627.075	9476.26
627.43	9440.56
627.785	9371.86
628.14	9431.07
628.495	9391.74
628.85	9450.95
629.205	9355.36
629.559	9410.5
629.914	9356.49
630.269	9346.77
630.623	9331.63
630.978	9309.49
631.332	9318.3
631.687	9358.53
632.041	9306.55
632.396	9361.46
632.75	9248.7
633.104	9274.23
633.459	9220.22
633.813	9212.09
634.167	9273.56
634.521	9260.9
634.875	9227.46
635.229	9222.71
635.583	9234.46
635.937	9193.56
636.291	9184.97
636.645	9119.44
636.999	9127.8
637.352	9150.39
637.706	9097.74
638.06	9143.39
638.413	9154.91
638.767	9064.3
639.121	9123.5
639.474	9049.61
639.828	9071.3
640.181	9017.07
640.534	9023.17
640.888	9056.84
641.241	9011.19
641.594	9087.35
641.947	9041.47
642.301	9010.96
642.654	9090.06
643.007	8998.99
643.36	8981.36
643.713	8981.59
644.066	9063.62
644.419	8910.85
644.771	8900.01
645.124	8854.36
645.477	8779.11
645.83	8809.61
646.182	8754.25
646.535	8704.53
646.888	8724.87
647.24	8626.34
647.593	8697.07
647.945	8669.05
648.298	8628.83
648.65	8613.69
649.002	8597.42
649.355	8688.71
649.707	8661.14
650.059	8714.7
650.411	8877.63
650.763	8869.95
651.115	8895.03
651.467	8827.92
651.819	8843.28
652.171	8928.25
652.523	8855.26
652.875	8794.02
653.227	8838.09
653.578	8901.14
653.93	8851.19
654.282	8778.65
654.633	8758.09
654.985	8815.26
655.337	8801.48
655.688	8822.27
656.039	8869.72
656.391	8808.26
656.742	8810.52
657.094	8810.97
657.445	8781.82
657.796	8840.8
658.147	8855.49
658.498	8807.58
658.849	8810.29
659.2	8852.78
659.551	8837.41
659.902	8940.23
660.253	8814.58
660.604	8856.84
660.955	8870.63
661.306	8904.07
661.656	8834.02
662.007	8920.34
662.358	8823.62
662.708	8886
663.059	8848.93
663.409	8818.88
663.76	8913.57
664.11	8878.99
664.461	8869.95
664.811	8864.53
665.161	8866.11
665.511	8894.36
665.862	8860.23
666.212	8864.07
666.562	8895.94
666.912	8907.46
667.262	8960.8
667.612	8909.05
667.962	8881.02
668.312	8900.68
668.662	8925.99
669.011	8921.93
669.361	8906.33
669.711	8808.94
670.06	8828.82
670.41	8860.01
670.76	8822.95
671.109	8843.51
671.459	8880.8
671.808	8801.93
672.157	8819.33
672.507	8782.5
672.856	8820.91
673.205	8850.06
673.554	8848.48
673.904	8810.97
674.253	8792.44
674.602	8814.13
674.951	8690.52
675.3	8650.3
675.649	8734.59
675.998	8735.26
676.346	8791.08
676.695	8776.62
677.044	8772.55
677.393	8762.38
677.741	8704.53
678.09	8723.74
678.438	8635.38
678.787	8700.24
679.135	8722.61
679.484	8619.79
679.832	8640.58
680.181	8641.03
680.529	8595.61
680.877	8597.87
681.225	8594.25
681.573	8639
681.922	8573.69
682.27	8591.99
682.618	8514.93
682.966	8490.07
683.314	8512.9
683.661	8454.59
684.009	8479.68
684.357	8421.15
684.705	8382.96
685.053	8415.05
685.4	8374.82
685.748	8359.23
686.095	8364.65
686.443	8289.4
686.79	8253.7
687.138	8248.27
687.485	8242.17
687.832	8257.76
688.18	8311.1
688.527	8242.85
688.874	8188.61
689.221	8134.15
689.568	8176.86
689.915	8153.13
690.262	8209.4
690.609	8103.42
690.956	8079.01
691.303	8071.55
691.65	8011.67
691.997	7914.04
692.344	7909.75
692.69	7892.8
693.037	7962.18
693.383	7830.2
693.73	7905.68
694.077	7841.28
694.423	7820.26
694.769	7818
695.116	7815.74
695.462	7718.34
695.808	7677.21
696.155	7717.66
696.501	7647.38
696.847	7713.6
697.193	7567.84
697.539	7643.99
697.885	7548.63
698.231	7556.76
698.577	7530.32
698.923	7553.37
699.269	7506.37
699.614	7391.12
699.96	7318.8
700.306	7366.26
700.651	7311.35
700.997	7308.86
701.342	7277.9
701.688	7264.79
702.033	7207.62
702.379	7241.07
702.724	7201.52
703.069	7192.03
703.415	7098.47
703.76	7114.06
704.105	7119.49
704.45	7080.39
704.795	7062.77
705.14	7009.43
705.485	7005.14
705.83	6967.85
706.175	6951.58
706.52	6954.75
706.865	6908.65
707.209	6892.6
707.554	6889.44
707.899	6893.96
708.243	6838.14
708.588	6775.54
708.932	6797.46
709.277	6797.24
709.621	6824.81
709.966	6738.26
710.31	6751.59
710.654	6671.82
710.998	6709.33
711.342	6648.77
711.687	6671.82
712.031	6597.47
712.375	6622.1
712.719	6627.07
713.063	6641.99
713.407	6639.5
713.75	6583.91
714.094	6576.9
714.438	6531.48
714.782	6505.04
715.125	6568.32
715.469	6500.52
715.812	6519.05
716.156	6489
716.499	6436.34
716.843	6509.11
717.186	6413.97
717.53	6472.27
717.873	6444.25
718.216	6412.39
718.559	6440.18
718.902	6341.88
719.246	6417.13
719.589	6340.98
719.932	6324.03
720.275	6380.98
720.617	6318.83
720.96	6338.27
721.303	6388.43
721.646	6329
721.989	6347.53
722.331	6309.79
722.674	6326.74
723.016	6334.2
723.359	6296.01
723.701	6277.7
724.044	6309.11
724.386	6311.83
724.729	6268.89
725.071	6315.22
725.413	6298.04
725.755	6280.41
726.097	6257.14
726.439	6217.59
726.782	6246.06
727.124	6279.06
727.465	6200.42
727.807	6201.55
728.149	6181.21
728.491	6200.42
728.833	6214.88
729.175	6249.23
729.516	6212.17
729.858	6153.19
730.199	6192.96
730.541	6224.82
730.882	6257.82
731.224	6256.91
731.565	6168.78
731.906	6194.31
732.248	6228.44
732.589	6160.19
732.93	6200.42
733.271	6192.73
733.612	6233.41
733.953	6215.56
734.294	6227.76
734.635	6174.65
734.976	6194.77
735.317	6182.79
735.658	6224.82
735.999	6203.35
736.339	6233.41
736.68	6229.34
737.021	6244.03
737.361	6205.84
737.702	6263.69
738.042	6226.4
738.383	6166.07
738.723	6244.71
739.063	6222.34
739.404	6247.42
739.744	6267.98
740.084	6240.42
740.424	6306.63
740.764	6271.15
741.104	6322.67
741.444	6274.99
741.784	6314.31
742.124	6342.56
742.464	6340.3
742.804	6355.44
743.143	6366.51
743.483	6368.77
743.823	6364.71
744.162	6385.95
744.502	6498.94
744.841	6445.16
745.181	6559.95
745.52	6544.59
745.86	6553.63
746.199	6552.72
746.538	6614.19
746.877	6622.78
747.216	6672.27
747.556	6728.99
747.895	6771.93
748.234	6783.23
748.573	6903.45
748.911	6918.36
749.25	6913.62
749.589	6989.32
749.928	7066.83
750.267	7189.09
750.605	7197.23
750.944	7240.16
751.283	7318.13
751.621	7359.93
751.96	7457.56
752.298	7545.69
752.636	7620.27
752.975	7745.46
753.313	7838.57
753.651	7975.06
753.989	8022.52
754.327	8095.73
754.666	8194.94
755.004	8362.85
755.342	8499.79
755.679	8652.78
756.017	8633.12
756.355	8855.94
756.693	8920.8
757.031	9150.17
757.368	9240.79
757.706	9374.57
758.044	9506.77
758.381	9690.95
758.719	9790.38
759.056	10005.29
759.394	10152.63
759.731	10190.37
760.068	10397.14
760.405	10544.93
760.743	10784.02
761.08	10906.96
761.417	11013.17
761.754	11246.84
762.091	11407.51
762.428	11541.07
762.765	11676.2
763.102	11897.22
763.438	12090.66
763.775	12221.27
764.112	12465.79
764.449	12602.28
764.785	12732.67
765.122	12889.73
765.458	13017.64
765.795	13251.76
766.131	13377.85
766.467	13505.31
766.804	13629.83
767.14	13818.97
767.476	13953.66
767.812	14194.56
768.148	14333.54
768.485	14471.16
768.821	14602.23
769.157	14722.9
769.492	14762.45
769.828	15002.22
770.164	15039.73
770.5	15214.42
770.836	15278.37
771.171	15340.74
771.507	15622.77
771.842	15541.41
772.178	15700.28
772.513	15779.6
772.849	15940.5
773.184	16004.9
773.519	16105.47
773.855	16164.67
774.19	16201.96
774.525	16321.05
774.86	16420.03
775.195	16495.74
775.53	16589.75
775.865	16583.65
776.2	16529.41
776.535	16582.97
776.87	16724.89
777.205	16787.93
777.539	16809.63
777.874	16888.27
778.209	16944.31
778.543	16904.99
778.878	16970.75
779.212	16985.44
779.547	16952.22
779.881	17151.77
780.215	17017.08
780.55	17343.85
780.884	17177.53
781.218	17250.3
781.552	17262.5
781.886	17273.8
782.22	17219.56
782.554	17336.62
782.888	17245.1
783.222	17255.72
783.556	17213.01
783.889	17282.84
784.223	17188.15
784.557	17191.09
784.89	17308.82
785.224	17223.4
785.557	17234.48
785.891	17223.63
786.224	17208.94
786.558	17305.89
786.891	17090.98
787.224	17131.2
787.557	17122.39
787.891	17131.65
788.224	17167.13
788.557	17167.59
788.89	17102.05
789.223	17219.11
789.556	17142.28
789.888	17075.38
790.221	17089.62
790.554	16919.91
790.887	16874.49
791.219	17012.34
791.552	17019.57
791.884	16951.77
792.217	17044.88
792.549	16831.32
792.882	16874.26
793.214	16836.07
793.546	16848.5
793.879	16796.07
794.211	16726.24
794.543	16782.96
794.875	16750.42
795.207	16721.95
795.539	16687.82
795.871	16687.6
796.203	16586.13
796.535	16609.86
796.867	16516.3
797.198	16505
797.53	16551.78
797.862	16336.87
798.193	16347.95
798.525	16336.87
798.856	16378.68
799.188	16183.2
799.519	16147.5
799.85	16140.95
800.182	16077.22
800.513	16108.63
800.844	16045.81
801.175	16092.36
801.506	16113.6
801.837	16030.89
802.168	15982.08
802.499	15959.71
802.83	15807.4
803.161	15804.46
803.491	15825.93
803.822	15867.96
804.153	15828.41
804.483	15706.15
804.814	15617.57
805.145	15602.88
805.475	15556.55
805.805	15622.09
806.136	15585.48
806.466	15575.99
806.796	15552.26
807.126	15408.99
807.457	15447.18
807.787	15360.18
808.117	15389.78
808.447	15297.13
808.777	15328.09
809.107	15282.44
809.436	15237.69
809.766	15253.74
810.096	15240.18
810.426	15130.58
810.755	15168.54
811.085	15118.83
811.414	15082.67
811.744	15009.45
812.073	15068.21
812.403	14943.46
812.732	14924.03
813.061	14927.19
813.39	14847.42
813.719	14864.37
814.049	14872.73
814.378	14845.16
814.707	14768.1
815.036	14743.69
815.365	14655.79
815.693	14640.65
816.022	14590.03
816.351	14599.29
816.68	14504.38
817.008	14601.55
817.337	14426.19
817.665	14368.56
817.994	14447.43
818.322	14476.36
818.651	14395.68
818.979	14397.04
819.307	14346.87
819.636	14420.54
819.964	14289.47
820.292	14332.86
820.62	14418.05
820.948	14262.8
821.276	14367.88
821.604	14262.8
821.932	14341.9
822.259	14343.48
822.587	14198.62
822.915	14297.6
823.243	14319.3
823.57	14209.02
823.898	14271.16
824.225	14223.71
824.553	14287.21
824.88	14305.51
825.207	14353.2
825.535	14303.03
825.862	14315.68
826.189	14233.65
826.516	14268.9
826.843	14422.8
827.17	14368.56
827.497	14372.18
827.824	14363.37
828.151	14342.35
828.478	14384.16
828.805	14375.12
829.131	14278.17
829.458	14308.9
829.785	14259.64
830.111	14315.68
830.438	14355.23
830.764	14266.42
831.09	14334.89
831.417	14286.08
831.743	14336.47
832.069	14385.74
832.395	14264.38
832.722	14269.58
833.048	14241.33
833.374	14215.12
833.7	14163.6
834.026	14246.08
834.351	14267.1
834.677	14265.74
835.003	14244.5
835.329	14208.57
835.654	14171.73
835.98	14100.55
836.306	14225.74
836.631	14037.05
836.956	14100.77
837.282	14155.69
837.607	14077.72
837.932	14145.29
838.258	14127.89
838.583	14081.11
838.908	13992.98
839.233	13997.73
839.558	13959.53
839.883	13905.75
840.208	13894.23
840.533	13854.23
840.858	13881.12
841.182	13926.77
841.507	13816.71
841.832	13767.45
842.156	13697.17
842.481	13754.12
842.805	13752.08
843.13	13637.06
843.454	13572.2
843.778	13644.06
844.103	13529.49
844.427	13605.65
844.751	13467.8
845.075	13491.98
845.399	13524.97
845.723	13350.06
846.047	13385.09
846.371	13295.14
846.695	13333.56
847.019	13086.34
847.343	13148.26
847.666	13097.18
847.99	13038.2
848.313	13053.8
848.637	12988.71
848.96	12936.06
849.284	12868.49
849.607	12756.18
849.931	12747.36
850.254	12713.01
850.577	12581.27
850.9	12609.51
851.223	12529.06
851.546	12415.62
851.869	12403.42
852.192	12521.38
852.515	12399.12
852.838	12315.96
853.161	12311.44
853.483	12293.82
853.806	12165.46
854.129	12158.9
854.451	12110.09
854.774	12090.66
855.096	12021.28
855.419	11972.69
855.741	11995.29
856.063	11857.89
856.385	11889.08
856.708	11858.57
857.03	11863.09
857.352	11826.26
857.674	11745.81
857.996	11733.15
858.318	11657.67
858.64	11654.74
858.961	11601.63
859.283	11602.99
859.605	11548.98
859.926	11549.88
860.248	11520.5
860.57	11488.64
860.891	11474.18
861.212	11400.73
861.534	11357.34
861.855	11333.84
862.176	11350.56
862.498	11347.17
862.819	11332.71
863.14	11225.37
863.461	11252.26
863.782	11190.57
864.103	11228.53
864.424	11196.22
864.745	11192.38
865.065	11091.13
865.386	11128.42
865.707	11144.47
866.027	11143.34
866.348	11004.58
866.668	11083.23
866.989	10973.17
867.309	10917.58
867.63	11002.55
867.95	11048.65
868.27	10914.19
868.59	10913.51
868.91	10810.92
869.23	10886.17
869.55	10861.54
869.87	10904.93
870.19	10825.61
870.51	10785.83
870.83	10857.92
871.15	10731.14
871.469	10817.02
871.789	10831.93
872.109	10765.49
872.428	10677.36
872.748	10699.05
873.067	10730.01
873.386	10769.11
873.706	10741.77
874.025	10616.12
874.344	10514.43
874.663	10658.15
874.982	10577.48
875.301	10635.55
875.62	10543.58
875.939	10484.82
876.258	10537.25
876.577	10490.25
876.896	10473.52
877.214	10415.22
877.533	10463.81
877.852	10392.17
878.17	10445.95
878.489	10389.46
878.807	10429.91
879.125	10320.31
879.444	10364.6
879.762	10319.4
880.08	10353.08
880.398	10263.81
880.716	10288.9
881.034	10250.25
881.352	10238.28
881.67	10220.42
881.988	10210.71
882.306	10130.03
882.624	10062.91
882.941	10092.07
883.259	10107.66
883.577	10027.43
883.894	10036.02
884.212	10035.12
884.529	10052.07
884.846	10014.33
885.164	9970.49
885.481	9928.23
885.798	10008.23
886.115	9863.37
886.432	9897.72
886.75	9870.38
887.067	9832.86
887.383	9754.9
887.7	9822.47
888.017	9738.4
888.334	9738.85
888.651	9728.91
888.967	9648.01
889.284	9684.62
889.6	9611.85
889.917	9583.83
890.233	9571.63
890.55	9442.82
890.866	9518.07
891.182	9499.76
891.498	9492.53
891.815	9385.19
892.131	9392.42
892.447	9355.36
892.763	9323.05
893.079	9328.7
893.395	9282.82
893.71	9300.67
894.026	9243.5
894.342	9165.08
894.657	9142.94
894.973	9141.58
895.289	9119.66
895.604	9116.27
895.92	9076.95
896.235	8968.93
896.55	9056.16
896.865	9005.99
897.181	8941.81
897.496	8889.38
897.811	8900.91
898.126	8867.24
898.441	8848.71
898.756	8695.49
899.071	8746.79
899.386	8698.88
899.7	8637.41
900.015	8574.82
900.33	8555.61
900.644	8560.58
900.959	8519.45
901.273	8488.72
901.588	8524.2
901.902	8463.86
902.216	8383.86
902.531	8433.8
902.845	8300.47
903.159	8288.95
903.473	8282.85
903.787	8287.37
904.101	8227.71
904.415	8134.6
904.729	8172.79
905.042	8112.46
905.356	8061.38
905.67	8139.35
905.984	8078.33
906.297	8085.56
906.611	7982.06
906.924	8016.41
907.237	7918.11
907.551	7903.2
907.864	7849.19
908.177	7874.72
908.491	7794.05
908.804	7677.67
909.117	7704.78
909.43	7685.8
909.743	7664.33
910.056	7698
910.368	7539.82
910.681	7612.58
910.994	7515.18
911.307	7521.29
911.619	7521.06
911.932	7502.75
912.244	7424.56
912.557	7377.56
912.869	7362.42
913.181	7328.07
913.494	7319.26
913.806	7274.51
914.118	7253.5
914.43	7220.5
914.742	7203.55
915.054	7195.42
915.366	7111.13
915.678	7037
915.99	7044.01
916.302	7002.2
916.613	6972.83
916.925	6921.08
917.236	6915.65
917.548	6948.87
917.859	6947.52
918.171	6851.02
918.482	6891.92
918.794	6813.73
919.105	6795.43
919.416	6713.4
919.727	6713.85
920.038	6732.38
920.349	6658.48
920.66	6647.41
920.971	6621.87
921.282	6639.27
921.593	6536.9
921.903	6592.27
922.214	6535.1
922.525	6501.43
922.835	6512.5
923.146	6437.92
923.456	6418.04
923.767	6407.19
924.077	6354.54
924.387	6359.73
924.697	6273.18
925.008	6244.48
925.318	6262.56
925.628	6253.52
925.938	6241.77
926.248	6189.34
926.558	6151.38
926.867	6166.07
927.177	6093.3
927.487	6101.66
927.796	5995.22
928.106	6059.4
928.416	5982.12
928.725	6042.68
929.034	5984.38
929.344	5967.2
929.653	5962.23
929.962	5936.69
930.271	5892.63
930.581	5807.43
930.89	5793.2
931.199	5797.04
931.508	5849.24
931.817	5758.39
932.125	5707.1
932.434	5754.33
932.743	5710.26
933.051	5678.62
933.36	5628.91
933.669	5602.47
933.977	5564.05
934.286	5544.39
934.594	5548
934.902	5506.87
935.21	5518.85
935.519	5539.42
935.827	5459.87
936.135	5471.17
936.443	5422.81
936.751	5386.43
937.059	5359.99
937.367	5342.59
937.674	5358.86
937.982	5338.52
938.29	5265.3
938.597	5270.95
938.905	5206.32
939.213	5172.87
939.52	5160.9
939.827	5138.52
940.135	5120.67
940.442	5155.02
940.749	5092.65
941.056	5104.63
941.363	5012.2
941.67	5023.95
941.977	5024.85
942.284	4982.59
942.591	4994.8
942.898	4963.39
943.205	4950.51
943.511	4894.69
943.818	4888.13
944.125	4804.29
944.431	4844.75
944.738	4849.04
945.044	4818.98
945.35	4819.21
945.657	4773.56
945.963	4703.05
946.269	4692.21
946.575	4680.68
946.881	4687.24
947.187	4663.06
947.493	4651.98
947.799	4622.6
948.105	4600.68
948.41	4562.27
948.716	4624.86
949.022	4517.75
949.327	4522.72
949.633	4508.48
949.938	4484.08
950.244	4461.7
950.549	4450.86
950.854	4395.72
951.16	4383.06
951.465	4396.62
951.77	4382.16
952.075	4384.87
952.38	4355.27
952.685	4308.49
952.99	4284.76
953.294	4290.86
953.599	4283.86
953.904	4267.81
954.209	4212.67
954.513	4218.77
954.818	4176.74
955.122	4123.18
955.426	4169.96
955.731	4109.62
956.035	4118.21
956.339	4068.04
956.643	4066.69
956.948	4069.62
957.252	4094.26
957.556	4020.13
957.86	4002.73
958.163	4011.32
958.467	3990.53
958.771	4007.25
959.075	3964.99
959.378	3933.13
959.682	3908.05
959.985	3885.9
960.289	3873.25
960.592	3835.73
960.896	3851.33
961.199	3816.98
961.502	3863.3
961.805	3782.17
962.108	3741.95
962.411	3749.86
962.714	3722.52
963.017	3751.67
963.32	3755.96
963.623	3706.02
963.926	3676.41
964.228	3663.31
964.531	3669.18
964.833	3624.21
965.136	3625.57
965.438	3631.67
965.741	3621.95
966.043	3539.92
966.345	3584.89
966.648	3556.19
966.95	3532.92
967.252	3543.08
967.554	3531.56
967.856	3489.98
968.158	3443.2
968.46	3467.61
968.761	3467.15
969.063	3415.63
969.365	3440.49
969.666	3376.99
969.968	3364.78
970.269	3378.34
970.571	3372.47
970.872	3336.54
971.174	3301.51
971.475	3325.92
971.776	3288.85
972.077	3264.67
972.378	3281.85
972.679	3249.53
972.98	3203.88
973.281	3222.42
973.582	3226.03
973.883	3219.25
974.183	3182.19
974.484	3167.05
974.785	3162.08
975.085	3153.26
975.386	3146.03
975.686	3115.98
975.986	3070.33
976.287	3094.96
976.587	3033.49
976.887	3051.12
977.187	3040.05
977.487	3019.48
977.787	3004.34
978.087	2966.83
978.387	3002.76
978.687	3014.51
978.987	2956.21
979.286	2920.28
979.586	2936.77
979.885	2920.95
980.185	2900.39
980.484	2884.12
980.784	2872.82
981.083	2878.02
981.382	2827.85
981.682	2831.69
981.981	2856.78
982.28	2806.38
982.579	2812.03
982.878	2823.1
983.177	2752.37
983.475	2762.77
983.774	2715.76
984.073	2751.69
984.372	2753.28
984.67	2724.58
984.969	2733.16
985.267	2677.8
985.566	2685.03
985.864	2647.97
986.162	2679.38
986.461	2682.99
986.759	2626.95
987.057	2615.88
987.355	2630.79
987.653	2585.6
987.951	2604.58
988.249	2602.09
988.547	2560.96
988.844	2552.6
989.142	2545.37
989.44	2545.82
989.737	2535.88
990.035	2504.47
990.332	2517.8
990.63	2448.2
990.927	2429.44
991.224	2472.6
991.521	2481.42
991.819	2459.27
992.116	2439.16
992.413	2431.02
992.71	2422.89
993.006	2393.51
993.303	2368.2
993.6	2364.13
993.897	2361.42
994.193	2369.56
994.49	2334.08
994.787	2337.47
995.083	2284.59
995.379	2342.21
995.676	2304.93
995.972	2291.37
996.268	2242.33
996.565	2261.54
996.861	2229.22
997.157	2228.77
997.453	2231.93
997.749	2222.89
998.044	2171.14
998.34	2171.37
998.636	2179.5
998.932	2177.02
999.227	2199.17
999.523	2137.02
999.818	2124.82
1000.114	2132.95
1000.409	2127.08
1000.704	2107.19
1001	2081.2
1001.295	2085.95
1001.59	2042.11
1001.885	2073.29
1002.18	2047.08
1002.475	2023.58
1002.77	2024.03
1003.065	2011.37
1003.359	2011.6
1003.654	2015.44
1003.949	1997.14
1004.243	1977.48
1004.538	1979.96
1004.832	1964.37
1005.127	1959.4
1005.421	1943.13
1005.715	1937.48
1006.009	1912.85
1006.304	1915.33
1006.598	1863.35
1006.892	1883.92
1007.186	1864.48
1007.48	1880.98
1007.773	1843.24
1008.067	1842.79
1008.361	1821.77
1008.655	1825.16
1008.948	1832.4
1009.242	1792.62
1009.535	1772.74
1009.829	1759.85
1010.122	1741.1
1010.415	1745.39
1010.708	1730.93
1011.001	1704.26
1011.295	1686.64
1011.588	1703.59
1011.881	1688.44
1012.173	1690.25
1012.466	1681.44
1012.759	1676.24
1013.052	1665.62
1013.344	1652.97
1013.637	1628.78
1013.93	1625.4
1014.222	1586.53
1014.514	1623.59
1014.807	1595.57
1015.099	1614.55
1015.391	1587.43
1015.683	1587.66
1015.976	1579.29
1016.268	1576.81
1016.56	1555.79
1016.851	1559.18
1017.143	1500.65
1017.435	1497.26
1017.727	1515.57
1018.018	1482.35
1018.31	1508.79
1018.602	1469.92
1018.893	1451.84
1019.185	1477.15
1019.476	1477.83
1019.767	1444.16
1020.058	1436.47
1020.35	1428.34
1020.641	1416.14
1020.932	1399.19
1021.223	1439.19
1021.514	1400.77
1021.804	1393.54
1022.095	1385.18
1022.386	1363.71
1022.677	1350.37
1022.967	1345.4
1023.258	1336.36
1023.548	1326.42
1023.839	1327.78
1024.129	1302.92
1024.419	1317.38
1024.709	1292.07
1025	1314.44
1025.29	1275.35
1025.58	1263.82
1025.87	1232.86
1026.16	1272.86
1026.449	1274.22
1026.739	1259.08
1027.029	1223.15
1027.319	1219.3
1027.608	1242.58
1027.898	1203.26
1028.187	1179.08
1028.477	1166.42
1028.766	1193.77
1029.055	1137.95
1029.344	1148.57
1029.634	1151.06
1029.923	1149.93
1030.212	1135.46
1030.501	1123.26
1030.79	1111.06
1031.078	1113.32
1031.367	1110.83
1031.656	1116.48
1031.945	1093.21
1032.233	1075.13
1032.522	1121.23
1032.81	1093.88
1033.099	1074.45
1033.387	1074.9
1033.675	1043.04
1033.963	1039.42
1034.251	1049.59
1034.54	1031.96
1034.828	1036.26
1035.116	1031.06
1035.403	1014.79
1035.691	1020.89
1035.979	1006.43
1036.267	1006.43
1036.554	991.29
1036.842	997.84
1037.129	986.77
1037.417	984.96
1037.704	949.93
1037.992	964.62
1038.279	963.04
1038.566	969.14
1038.853	969.14
1039.14	969.14
