Data from hue_80_FLMS001491_71.txt Node
Date: Mon Feb 06 15:23:31 GMT 2017
User: dcchb
Spectrometer: FLMS00149
Trigger mode: 0
Integration Time (sec): 2.000000E-2
Scans to average: 10
Electric dark correction enabled: true
Nonlinearity correction enabled: false
Boxcar width: 0
XAxis mode: Wavelengths
Number of Pixels in Spectrum: 2048
>>>>>Begin Spectral Data<<<<<
341.393	-0.07
341.776	-0.07
342.16	-0.07
342.543	-55.21
342.927	-80.07
343.31	-65.15
343.693	-71.71
344.077	-65.38
344.46	-76.9
344.843	-63.35
345.226	-16.34
345.61	-29.45
345.993	-32.61
346.376	-12.27
346.759	10.55
347.142	34.73
347.525	61.62
347.908	72.24
348.291	52.81
348.674	99.59
349.057	101.62
349.44	128.97
349.823	143.65
350.206	158.57
350.588	194.5
350.971	212.35
351.354	238.57
351.737	228.85
352.119	246.48
352.502	274.5
352.884	260.26
353.267	277.66
353.65	295.29
354.032	305.91
354.414	319.92
354.797	299.13
355.179	313.37
355.562	327.15
355.944	319.69
356.326	339.58
356.709	335.29
357.091	351.56
357.473	346.59
357.855	364.89
358.238	354.95
358.62	342.52
359.002	337.55
359.384	334.38
359.766	333.93
360.148	331.67
360.53	343.2
360.912	324.67
361.294	333.25
361.676	323.08
362.057	335.74
362.439	347.49
362.821	340.94
363.203	313.37
363.584	346.81
363.966	339.81
364.348	298
364.729	324.89
365.111	303.2
365.493	305.23
365.874	300.26
366.256	302.97
366.637	315.18
367.019	306.36
367.4	302.97
367.781	313.37
368.163	308.62
368.544	303.65
368.925	304.78
369.306	308.85
369.688	297.55
370.069	295.29
370.45	320.15
370.831	315.63
371.212	337.77
371.593	331.9
371.974	317.44
372.355	321.05
372.736	315.85
373.117	318.79
373.498	305.01
373.879	291.9
374.26	322.86
374.641	315.18
375.021	306.81
375.402	299.36
375.783	331.67
376.163	329.86
376.544	332.12
376.925	316.08
377.305	327.15
377.686	322.86
378.066	329.64
378.447	332.58
378.827	335.74
379.208	312.69
379.588	320.37
379.968	333.48
380.349	322.18
380.729	333.93
381.109	340.49
381.489	322.18
381.87	337.77
382.25	322.63
382.63	359.69
383.01	337.77
383.39	348.39
383.77	333.03
384.15	348.62
384.53	360.15
384.91	357.66
385.29	356.76
385.67	333.48
386.049	358.56
386.429	364.21
386.809	354.72
387.189	330.54
387.568	334.16
387.948	343.42
388.328	338
388.707	347.94
389.087	363.76
389.466	386.59
389.846	342.52
390.225	342.75
390.605	358.11
390.984	372.35
391.363	365.57
391.743	362.86
392.122	385
392.501	370.09
392.881	373.7
393.26	350.43
393.639	380.48
394.018	380.94
394.397	358.34
394.776	369.86
395.155	390.43
395.534	394.04
395.913	364.44
396.292	379.13
396.671	382.07
397.05	379.35
397.429	382.29
397.808	367.15
398.186	359.24
398.565	396.53
398.944	382.29
399.323	380.48
399.701	391.56
400.08	400.6
400.458	416.64
400.837	389.52
401.215	397.21
401.594	415.51
401.972	393.14
402.351	404.89
402.729	380.71
403.107	404.21
403.486	408.51
403.864	411.67
404.242	411.67
404.62	409.41
404.999	396.08
405.377	412.57
405.755	409.41
406.133	412.12
406.511	429.07
406.889	425.45
407.267	417.77
407.645	424.78
408.023	418
408.401	457.09
408.779	428.84
409.156	451.67
409.534	420.48
409.912	430.88
410.29	457.77
410.667	449.18
411.045	465.91
411.422	453.93
411.8	450.54
412.178	438.56
412.555	455.28
412.933	450.99
413.31	479.69
413.687	475.85
414.065	469.52
414.442	472.91
414.819	464.32
415.197	473.36
415.574	476.53
415.951	492.35
416.328	500.03
416.705	501.16
417.082	492.12
417.46	496.41
417.837	504.77
418.214	502.74
418.591	496.41
418.967	484.66
419.344	521.72
419.721	511.33
420.098	526.47
420.475	531.67
420.852	527.83
421.228	535.51
421.605	528.73
421.982	521.27
422.358	541.38
422.735	523.31
423.111	533.93
423.488	540.71
423.864	537.77
424.241	559.01
424.617	547.71
424.994	546.58
425.37	564.21
425.746	558.56
426.123	570.31
426.499	579.12
426.875	558.11
427.251	582.29
427.627	563.53
428.003	577.99
428.379	556.07
428.756	608.27
429.132	598.11
429.507	584.77
429.883	598.56
430.259	617.09
430.635	634.04
431.011	598.78
431.387	630.42
431.763	623.87
432.138	628.61
432.514	622.51
432.89	641.49
433.265	650.08
433.641	665.9
434.016	645.79
434.392	656.86
434.767	673.81
435.143	666.13
435.518	660.93
435.894	671.78
436.269	681.04
436.644	705.9
437.02	697.31
437.395	696.18
437.77	701.15
438.145	702.51
438.52	723.53
438.895	729.4
439.271	735.5
439.646	715.16
440.021	743.64
440.395	759.23
440.77	744.09
441.145	724.88
441.52	742.73
441.895	754.71
442.27	759.01
442.645	773.69
443.019	761.72
443.394	773.69
443.769	789.51
444.143	770.76
444.518	808.04
444.892	792
445.267	792.9
445.641	829.51
446.016	808.27
446.39	774.82
446.764	823.64
447.139	788.38
447.513	829.29
447.887	845.78
448.262	803.3
448.636	822.73
449.01	839.68
449.384	833.58
449.758	829.06
450.132	856.18
450.506	860.7
450.88	859.79
451.254	847.59
451.628	872.45
452.002	875.39
452.376	888.04
452.75	940.47
453.123	926.68
453.497	917.42
453.871	923.97
454.244	931.88
454.618	954.03
454.992	944.54
455.365	954.48
455.739	965.1
456.112	973.46
456.486	967.14
456.859	978.21
457.232	1012.11
457.606	993.8
457.979	1030.41
458.352	1053.69
458.725	1041.26
459.099	1049.39
459.472	1079.22
459.845	1103.18
460.218	1110.18
460.591	1128.71
460.964	1103.86
461.337	1102.05
461.71	1166.45
462.083	1161.25
462.456	1168.49
462.829	1184.53
463.201	1225.89
463.574	1204.42
463.947	1261.59
464.32	1274.92
464.692	1241.93
465.065	1291.19
465.438	1302.72
465.81	1302.49
466.183	1336.62
466.555	1338.65
466.928	1355.83
467.3	1382.04
467.672	1379.55
468.045	1418.2
468.417	1443.28
468.789	1488.93
469.161	1497.07
469.534	1520.34
469.906	1544.07
470.278	1565.09
470.65	1598.98
471.022	1611.64
471.394	1645.99
471.766	1668.81
472.138	1718.08
472.51	1767.34
472.882	1790.62
473.253	1815.25
473.625	1843.72
473.997	1903.61
474.369	1935.92
474.74	1963.04
475.112	2011.18
475.484	2066.09
475.855	2135.24
476.227	2148.12
476.598	2193.09
476.97	2255.69
477.341	2297.95
477.713	2368.91
478.084	2425.63
478.455	2544.27
478.827	2551.27
479.198	2648.22
479.569	2717.6
479.94	2783.81
480.311	2837.14
480.682	2941.09
481.053	3042.79
481.424	3096.35
481.795	3173.18
482.166	3303.35
482.537	3348.54
482.908	3475.09
483.279	3565.49
483.65	3631.92
484.021	3773.84
484.391	3840.73
484.762	3945.14
485.133	4050.67
485.503	4153.72
485.874	4309.87
486.244	4373.15
486.615	4517.78
486.985	4665.34
487.356	4767.49
487.726	4837.54
488.097	5021.49
488.467	5111.21
488.837	5306.68
489.207	5429.84
489.578	5552.55
489.948	5653.79
490.318	5807.91
490.688	5887.68
491.058	6088.36
491.428	6208.58
491.798	6320.67
492.168	6512.3
492.538	6677.72
492.908	6788.9
493.278	6964.94
493.648	7097.82
494.017	7191.15
494.387	7374.88
494.757	7467.08
495.126	7674.08
495.496	7760.4
495.866	7820.97
496.235	8052.15
496.605	8213.72
496.974	8292.59
497.344	8482.64
497.713	8526.48
498.082	8655.97
498.452	8860.49
498.821	8960.82
499.19	9050.76
499.559	9269.52
499.928	9337.54
500.298	9509.74
500.667	9652.56
501.036	9678.32
501.405	9815.94
501.774	9937.52
502.143	10091.87
502.512	10145.65
502.88	10292.09
503.249	10375.93
503.618	10481.01
503.987	10522.59
504.356	10683.26
504.724	10750.38
505.093	10907.89
505.462	10994.67
505.83	11043.25
506.199	11209.13
506.567	11367.77
506.936	11440.53
507.304	11570.92
507.672	11603.69
508.041	11728.66
508.409	11790.13
508.777	11885.04
509.145	12104.47
509.514	12057.24
509.882	12237.12
510.25	12296.1
510.618	12418.81
510.986	12453.16
511.354	12520.96
511.722	12694.74
512.09	12820.84
512.458	12814.51
512.826	12926.14
513.193	12963.43
513.561	13065.8
513.929	13126.82
514.297	13278.9
514.664	13410.42
515.032	13463.98
515.4	13572.68
515.767	13562.51
516.135	13629.18
516.502	13574.26
516.869	13794.14
517.237	13923.86
517.604	13821.03
517.972	14025.78
518.339	14023.52
518.706	14074.59
519.073	14136.05
519.44	14214.02
519.808	14367.69
520.175	14337.41
520.542	14469.83
520.909	14545.54
521.276	14509.6
521.643	14760.67
522.009	14748.02
522.376	14864.17
522.743	14837.73
523.11	14974.45
523.477	15050.38
523.843	15145.52
524.21	15311.39
524.577	15283.82
524.943	15300.54
525.31	15434.1
525.676	15546.19
526.043	15610.14
526.409	15644.49
526.776	15822.34
527.142	15686.3
527.508	15776.92
527.874	15908.44
528.241	15907.53
528.607	15873.41
528.973	16034.99
529.339	16065.5
529.705	16150.69
530.071	16154.98
530.437	16211.25
530.803	16269.11
531.169	16383.23
531.535	16216.9
531.901	16194.31
532.267	16288.09
532.632	16384.81
532.998	16435.66
533.364	16466.16
533.73	16512.72
534.095	16586.16
534.461	16453.96
534.826	16669.32
535.192	16582.32
535.557	16597.01
535.923	16635.65
536.288	16706.16
536.653	16709.32
537.019	16572.15
537.384	16728.76
537.749	16596.78
538.114	16630.23
538.479	16594.52
538.845	16700.06
539.21	16689.21
539.575	16606.27
539.94	16602.66
540.305	16688.53
540.67	16667.74
541.034	16686.5
541.399	16697.8
541.764	16641.3
542.129	16561.3
542.494	16545.94
542.858	16670.9
543.223	16652.37
543.587	16679.49
543.952	16581.87
544.316	16669.32
544.681	16548.87
545.045	16645.14
545.41	16684.24
545.774	16649.44
546.138	16672.71
546.503	16643.11
546.867	16618.48
547.231	16717.91
547.595	16634.07
547.959	16515.43
548.324	16668.64
548.688	16595.65
549.052	16610.79
549.416	16563.34
549.779	16573.28
550.143	16583.45
550.507	16625.03
550.871	16668.19
551.235	16602.2
551.599	16730.56
551.962	16618.7
552.326	16654.63
552.689	16778.25
553.053	16616.89
553.417	16553.17
553.78	16674.97
554.143	16612.83
554.507	16681.52
554.87	16608.08
555.234	16752.48
555.597	16660.73
555.96	16633.16
556.323	16655.76
556.686	16688.76
557.05	16674.75
557.413	16631.36
557.776	16677.68
558.139	16728.3
558.502	16769.43
558.865	16672.03
559.228	16834.97
559.59	16806.49
559.953	16856.21
560.316	16909.32
560.679	16850.33
561.041	16849.2
561.404	17089.42
561.767	16970.1
562.129	17000.61
562.492	17076.99
562.854	16961.74
563.217	16928.75
563.579	17036.32
563.941	17182.53
564.304	17148.86
564.666	17232.47
565.028	17226.6
565.39	17265.01
565.753	17291.9
566.115	17267.5
566.477	17312.24
566.839	17370.09
567.201	17501.39
567.563	17400.6
567.925	17550.88
568.287	17476.76
568.648	17470.66
569.01	17605.12
569.372	17653.02
569.734	17662.74
570.095	17673.14
570.457	17789.07
570.819	17800.37
571.18	17717.43
571.542	17821.38
571.903	17868.61
572.265	17876.07
572.626	17950.19
572.987	17860.48
573.349	17941.6
573.71	17943.64
574.071	18029.51
574.432	17971.21
574.794	18167.14
575.155	18074.26
575.516	17969.85
575.877	17999.91
576.238	18165.55
576.599	18158.55
576.96	18101.15
577.32	18153.58
577.681	18164.42
578.042	18172.33
578.403	18157.64
578.763	18171.88
579.124	18114.71
579.485	18303.4
579.845	18377.3
580.206	18237.64
580.566	18279.22
580.927	18251.2
581.287	18282.39
581.648	18180.92
582.008	18213.69
582.368	18266.34
582.728	18289.84
583.089	18303.18
583.449	18204.2
583.809	18196.97
584.169	18206.46
584.529	18164.65
584.889	18336.17
585.249	18179.11
585.609	18172.11
585.969	18294.82
586.329	18154.93
586.688	18206.23
587.048	18177.76
587.408	18157.87
587.768	18229.73
588.127	18095.27
588.487	18129.85
588.846	18196.97
589.206	18191.99
589.565	18147.02
589.925	18206
590.284	18104.99
590.643	18205.55
591.003	18214.14
591.362	18143.41
591.721	18110.87
592.08	18145.89
592.44	18195.38
592.799	18165.78
593.158	18104.54
593.517	18160.58
593.876	18112.22
594.235	18072
594.593	18051.66
594.952	18073.58
595.311	17995.61
595.67	18112.45
596.029	18191.77
596.387	18140.47
596.746	18244.2
597.104	18081.26
597.463	18160.36
597.822	18125.1
598.18	18024.09
598.538	18009.63
598.897	18219.56
599.255	17995.84
599.613	18278.54
599.972	18113.8
600.33	18129.17
600.688	18058.89
601.046	18078.78
601.404	18216.4
601.762	18058.44
602.12	18189.28
602.478	18196.06
602.836	18102.28
603.194	18134.59
603.552	18168.27
603.91	18085.1
604.268	18207.13
604.625	18094.14
604.983	18125.78
605.341	18042.39
605.698	18255.49
606.056	18138.89
606.413	18130.3
606.771	18132.33
607.128	18207.13
607.485	18131.43
607.843	18160.81
608.2	18263.4
608.557	18374.14
608.914	18189.06
609.272	18313.12
609.629	18346.57
609.986	18336.85
610.343	18298.66
610.7	18434.7
611.057	18456.85
611.414	18366.23
611.771	18442.38
612.127	18477.41
612.484	18480.35
612.841	18566.22
613.198	18521.7
613.554	18477.64
613.911	18548.59
614.267	18534.81
614.624	18492.32
614.98	18562.15
615.337	18589.95
615.693	18638.54
616.05	18561.48
616.406	18665.65
616.762	18641.93
617.118	18671.98
617.475	18595.6
617.831	18721.25
618.187	18702.71
618.543	18745.2
618.899	18799.66
619.255	18836.27
619.611	18777.74
619.967	18855.7
620.323	18884.18
620.678	18839.66
621.034	18765.09
621.39	18734.8
621.746	18713.56
622.101	19018.64
622.457	18806.89
622.812	18800.79
623.168	18839.66
623.523	18867.91
623.879	18883.73
624.234	18711.53
624.589	18840.34
624.945	18831.3
625.3	18909.26
625.655	18885.53
626.01	18869.94
626.365	18959.88
626.72	18848.47
627.075	18900.45
627.43	18820.23
627.785	18781.81
628.14	18871.3
628.495	18835.59
628.85	18871.52
629.205	18695.71
629.559	18955.36
629.914	18836.95
630.269	18794.24
630.623	18764.18
630.978	18844.63
631.332	18805.31
631.687	18926.21
632.041	18725.54
632.396	18781.81
632.75	18681.02
633.104	18668.59
633.459	18620
633.813	18625.2
634.167	18681.02
634.521	18638.08
634.875	18652.32
635.229	18586.11
635.583	18580.46
635.937	18549.72
636.291	18439.22
636.645	18552.44
636.999	18461.14
637.352	18515.15
637.706	18397.86
638.06	18491.65
638.413	18349.73
638.767	18440.57
639.121	18446.22
639.474	18333.68
639.828	18275.38
640.181	18231.31
640.534	18326.91
640.888	18241.26
641.241	18292.78
641.594	18227.92
641.947	18382.5
642.301	18303.63
642.654	18208.26
643.007	18306.79
643.36	18222.95
643.713	18136.4
644.066	18241.26
644.419	18144.54
644.771	18049.62
645.124	17851.66
645.477	17865.22
645.83	17683.76
646.182	17661.39
646.535	17567.15
646.888	17641.73
647.24	17498.9
647.593	17700.93
647.945	17534.61
648.298	17537.55
648.65	17469.07
649.002	17525.8
649.355	17520.37
649.707	17553.59
650.059	17524.44
650.411	17780.03
650.763	17809.4
651.115	18055.73
651.467	17992.68
651.819	17951.1
652.171	17955.39
652.523	17914.03
652.875	17896.41
653.227	17899.57
653.578	17893.47
653.93	17953.36
654.282	17813.92
654.633	17804.21
654.985	17839.69
655.337	17923.98
655.688	17857.09
656.039	17980.25
656.391	17930.31
656.742	17917.42
657.094	17784.32
657.445	17940.7
657.796	17822.29
658.147	17888.5
658.498	17938.44
658.849	17928.72
659.2	17890.76
659.551	17903.87
659.902	17980.93
660.253	17870.19
660.604	17984.99
660.955	17910.64
661.306	17916.07
661.656	17947.03
662.007	17910.19
662.358	17902.51
662.708	17942.28
663.059	18015.5
663.409	17877.43
663.76	18045.1
664.11	17986.35
664.461	17991.09
664.811	17951.32
665.161	17950.64
665.511	17949.97
665.862	17970.76
666.212	18081.26
666.562	18035.39
666.912	17928.05
667.262	17917.88
667.612	17954.94
667.962	17939.57
668.312	17936.41
668.662	18015.5
669.011	17907.03
669.361	17905.9
669.711	17917.2
670.06	17910.87
670.41	17849.63
670.76	17812.34
671.109	17919.68
671.459	17914.26
671.808	17881.72
672.157	17878.56
672.507	17761.95
672.856	17833.13
673.205	17814.6
673.554	17947.03
673.904	17807.82
674.253	17927.14
674.602	17739.8
674.951	17564.89
675.3	17456.65
675.649	17781.38
675.998	17750.88
676.346	17774.83
676.695	17867.48
677.044	17590.2
677.393	17749.75
677.741	17676.98
678.09	17733.47
678.438	17656.41
678.787	17662.06
679.135	17712.01
679.484	17581.61
679.832	17552.91
680.181	17501.84
680.529	17517.89
680.877	17561.73
681.225	17531.9
681.573	17539.81
681.922	17323.32
682.27	17418.91
682.618	17380.49
682.966	17250.1
683.314	17273.6
683.661	17290.1
684.009	17133.04
684.357	17108.86
684.705	17041.97
685.053	17126.94
685.4	17044.68
685.748	16991.57
686.095	16938.47
686.443	16875.42
686.79	16931.24
687.138	16908.19
687.485	16919.48
687.832	16766.49
688.18	16804.46
688.527	16809.2
688.874	16664.58
689.221	16698.93
689.568	16677.68
689.915	16607.4
690.262	16576.89
690.609	16420.74
690.956	16401.98
691.303	16418.03
691.65	16320.86
691.997	16316.56
692.344	16205.15
692.69	16184.14
693.037	16242.21
693.383	16029.11
693.73	16058.72
694.077	16005.16
694.423	15970.81
694.769	15853.98
695.116	15836.58
695.462	15832.06
695.808	15847.42
696.155	15721.55
696.501	15626.86
696.847	15666.18
697.193	15500.54
697.539	15528.33
697.885	15447.66
698.231	15329.92
698.577	15391.39
698.923	15253.99
699.269	15230.72
699.614	15167.44
699.96	15089.7
700.306	15083.6
700.651	15074.56
700.997	15031.17
701.342	14941.23
701.688	14935.81
702.033	14816.71
702.379	14801.8
702.724	14706.44
703.069	14774.68
703.415	14614.46
703.76	14583.73
704.105	14547.34
704.45	14440.23
704.795	14426.22
705.14	14376.05
705.485	14421.47
705.83	14420.12
706.175	14321.36
706.52	14267.8
706.865	14186
707.209	14222.61
707.554	14095.15
707.899	14183.29
708.243	14060.35
708.588	14073.91
708.932	13920.92
709.277	13954.82
709.621	13889.96
709.966	13853.8
710.31	13896.29
710.654	13748.72
710.998	13808.15
711.342	13799.57
711.687	13807.93
712.031	13659.46
712.375	13571.32
712.719	13598.22
713.063	13585.79
713.407	13610.19
713.75	13601.38
714.094	13524.09
714.438	13436.86
714.782	13381.5
715.125	13364.55
715.469	13397.09
715.812	13294.04
716.156	13266.93
716.499	13294.27
716.843	13313.25
717.186	13219.02
717.53	13259.02
717.873	13267.15
718.216	13134.27
718.559	13111.45
718.902	13052.69
719.246	13111.45
719.589	13095.63
719.932	13012.47
720.275	12985.35
720.617	12941.51
720.96	12907.61
721.303	12933.37
721.646	12947.16
721.989	12803.89
722.331	12884.79
722.674	12805.47
723.016	12888.63
723.359	12834.17
723.701	12883.66
724.044	12760.05
724.386	12726.6
724.729	12763.44
725.071	12812.25
725.413	12814.06
725.755	12782.19
726.097	12687.28
726.439	12654.74
726.782	12710.78
727.124	12717.79
727.465	12648.18
727.807	12657.22
728.149	12643.66
728.491	12645.92
728.833	12697
729.175	12685.02
729.516	12620.84
729.858	12623.55
730.199	12576.55
730.541	12572.03
730.882	12590.33
731.224	12601.63
731.565	12482.99
731.906	12539.26
732.248	12596.66
732.589	12558.92
732.93	12502.43
733.271	12526.38
733.612	12579.26
733.953	12614.96
734.294	12579.03
734.635	12545.81
734.976	12549.43
735.317	12494.29
735.658	12572.25
735.999	12569.99
736.339	12534.29
736.68	12650.22
737.021	12569.32
737.361	12542.2
737.702	12625.13
738.042	12521.18
738.383	12543.55
738.723	12638.02
739.063	12556.89
739.404	12604.34
739.744	12565.47
740.084	12526.61
740.424	12596.43
740.764	12530
741.104	12618.35
741.444	12579.49
741.784	12560.28
742.124	12638.69
742.464	12655.87
742.804	12643.44
743.143	12642.99
743.483	12644.79
743.823	12663.33
744.162	12693.15
744.502	12732.93
744.841	12760.05
745.181	12893.38
745.52	12771.8
745.86	12900.38
746.199	12915.52
746.538	12941.06
746.877	13016.76
747.216	13035.29
747.556	13109.19
747.895	13096.31
748.234	13093.14
748.573	13180.15
748.911	13196.19
749.25	13414.27
749.589	13273.25
749.928	13421.5
750.267	13527.71
750.605	13533.36
750.944	13517.99
751.283	13643.41
751.621	13741.04
751.96	13746.91
752.298	13804.76
752.636	13953.01
752.975	13946.68
753.313	14049.96
753.651	14235.49
753.989	14253.79
754.327	14341.02
754.666	14457.4
755.004	14600.22
755.342	14651.75
755.679	14776.94
756.017	14849.26
756.355	15006.09
756.693	15043.38
757.031	15228.91
757.368	15281.11
757.706	15423.25
758.044	15437.49
758.381	15640.87
758.719	15768.1
759.056	15841.55
759.394	15943.24
759.731	15952.96
760.068	16097.59
760.405	16243.12
760.743	16242.89
761.08	16572.6
761.417	16561.08
761.754	16639.04
762.091	16791.35
762.428	16944.34
762.765	16951.12
763.102	17136.65
763.438	17218.01
763.775	17196.77
764.112	17325.8
764.449	17459.36
764.785	17535.97
765.122	17600.14
765.458	17676.53
765.795	17822.74
766.131	17927.59
766.467	17913.58
766.804	17982.28
767.14	17985.9
767.476	18155.61
767.812	18179.56
768.148	18292.56
768.485	18316.74
768.821	18247.36
769.157	18282.61
769.492	18361.48
769.828	18513.34
770.164	18349.5
770.5	18497.52
770.836	18474.25
771.171	18539.33
771.507	18425.89
771.842	18525.09
772.178	18560.12
772.513	18591.98
772.849	18591.76
773.184	18602.15
773.519	18669.95
773.855	18625.2
774.19	18728.02
774.525	18634.02
774.86	18700.23
775.195	18643.73
775.53	18771.64
775.865	18553.34
776.2	18641.7
776.535	18457.75
776.87	18661.13
777.205	18524.87
777.539	18478.54
777.874	18681.02
778.209	18460.23
778.543	18542.27
778.878	18387.47
779.212	18520.8
779.547	18377.75
779.881	18479.22
780.215	18415.49
780.55	18319
780.884	18292.56
781.218	18292.33
781.552	18423.63
781.886	18259.11
782.22	18199.22
782.554	18222.05
782.888	18082.84
783.222	18061.38
783.556	17965.33
783.889	17976.63
784.223	17830.2
784.557	17895.73
784.89	17936.63
785.224	17864.77
785.557	17768.5
785.891	17712.91
786.224	17639.47
786.558	17692.57
786.891	17626.58
787.224	17499.13
787.557	17502.29
787.891	17397.44
788.224	17434.05
788.557	17454.16
788.89	17394.5
789.223	17359.92
789.556	17368.06
789.888	17212.58
790.221	17193.6
790.554	17139.37
790.887	17072.93
791.219	17063.89
791.552	17002.65
791.884	16934.17
792.217	16877
792.549	16886.94
792.882	16684.46
793.214	16752.48
793.546	16715.2
793.879	16615.99
794.211	16568.53
794.543	16649.21
794.875	16532.83
795.207	16621.41
795.539	16452.83
795.871	16471.13
796.203	16345.04
796.535	16197.02
796.867	16211.71
797.198	16218.49
797.53	16159.96
797.862	16113.4
798.193	16051.48
798.525	16043.8
798.856	16090.58
799.188	15952.96
799.519	15894.43
799.85	15798.84
800.182	15779.63
800.513	15862.34
800.844	15655.56
801.175	15788.21
801.506	15731.49
801.837	15633.87
802.168	15618.5
802.499	15500.54
802.83	15444.27
803.161	15461.44
803.491	15452.86
803.822	15421.44
804.153	15383.93
804.483	15219.87
804.814	15183.71
805.145	15178.06
805.475	15144.16
805.805	15073.88
806.136	15072.75
806.466	15083.37
806.796	14964.28
807.126	14828.24
807.457	14868.46
807.787	14812.2
808.117	14784.63
808.447	14721.35
808.777	14849.03
809.107	14716.83
809.436	14591.86
809.766	14756.15
810.096	14705.76
810.426	14567.46
810.755	14589.15
811.085	14601.35
811.414	14517.29
811.744	14441.36
812.073	14389.16
812.403	14452.2
812.732	14321.13
813.061	14323.17
813.39	14239.55
813.719	14190.06
814.049	14356.84
814.378	14156.39
814.707	14192.78
815.036	14048.15
815.365	14077.98
815.693	13933.8
816.022	13959.56
816.351	13932.22
816.68	13817.19
817.008	13910.3
817.337	13809.96
817.665	13737.42
817.994	13778.78
818.322	13756.4
818.651	13735.61
818.979	13692.22
819.307	13710.53
819.636	13743.3
819.964	13555.73
820.292	13639.34
820.62	13628.27
820.948	13621.27
821.276	13608.39
821.604	13584.66
821.932	13566.13
822.259	13542.62
822.587	13659.91
822.915	13583.75
823.243	13590.98
823.57	13548.73
823.898	13494.26
824.225	13531.33
824.553	13522.51
824.88	13477.77
825.207	13542.17
825.535	13524.32
825.862	13563.41
826.189	13542.85
826.516	13579.91
826.843	13613.13
827.17	13572
827.497	13579.01
827.824	13588.95
828.151	13590.98
828.478	13501.72
828.805	13556.41
829.131	13519.12
829.458	13529.74
829.785	13411.33
830.111	13560.25
830.438	13529.97
830.764	13512.34
831.09	13510.53
831.417	13431.44
831.743	13473.47
832.069	13445.68
832.395	13435.06
832.722	13419.24
833.048	13438.45
833.374	13460.59
833.7	13366.81
834.026	13447.71
834.351	13394.61
834.677	13316.64
835.003	13450.2
835.329	13417.88
835.654	13367.71
835.98	13219.47
836.306	13318
836.631	13279.58
836.956	13343.76
837.282	13376.75
837.607	13241.84
837.932	13097.66
838.258	13181.05
838.583	13187.38
838.908	13026.93
839.233	13150.54
839.558	13054.05
839.883	13026.03
840.208	12933.83
840.533	12916.43
840.858	12979.02
841.182	12986.03
841.507	12931.57
841.832	12861.96
842.156	12899.25
842.481	12885.69
842.805	12871.91
843.13	12798.46
843.454	12786.94
843.778	12735.87
844.103	12713.72
844.427	12649.54
844.751	12665.59
845.075	12567.96
845.399	12650.44
845.723	12525.02
846.047	12629.43
846.371	12498.81
846.695	12417.23
847.019	12386.04
847.343	12395.76
847.666	12315.31
847.99	12213.39
848.313	12161.64
848.637	12074.87
848.96	12107.18
849.284	12076.9
849.607	11992.61
849.931	11865.83
850.254	11874.87
850.577	11807.3
850.9	11726.17
851.223	11713.29
851.546	11678.72
851.869	11617.48
852.192	11645.05
852.515	11577.03
852.838	11454.54
853.161	11448.67
853.483	11377.94
853.806	11348.11
854.129	11376.58
854.451	11255.68
854.774	11272.18
855.096	11248
855.419	11214.55
855.741	11203.7
856.063	11093.87
856.385	11087.32
856.708	11036.48
857.03	11041
857.352	11006.65
857.674	10945.63
857.996	10883.71
858.318	10864.5
858.64	10926.42
858.961	10820.66
859.283	10819.98
859.605	10753.09
859.926	10825.63
860.248	10728.91
860.57	10715.81
860.891	10727.1
861.212	10620.89
861.534	10560.78
861.855	10574.57
862.176	10662.93
862.498	10618.41
862.819	10593.78
863.14	10516.72
863.461	10498.86
863.782	10442.14
864.103	10436.27
864.424	10455.47
864.745	10463.84
865.065	10383.84
865.386	10420.22
865.707	10318.98
866.027	10309.94
866.348	10379.54
866.668	10304.52
866.989	10234.69
867.309	10193.33
867.63	10304.07
867.95	10219.77
868.27	10088.25
868.59	10149.72
868.91	10168.93
869.23	10112.21
869.55	10138.19
869.87	10127.35
870.19	10066.33
870.51	10067.69
870.83	10114.69
871.15	10045.31
871.469	10036.73
871.789	10084.18
872.109	9989.27
872.428	9980.68
872.748	9972.32
873.067	9971.87
873.386	9919.22
873.706	9990.18
874.025	9945.66
874.344	9917.86
874.663	9866.79
874.982	9857.3
875.301	9837.64
875.62	9814.13
875.939	9781.14
876.258	9822.95
876.577	9699.79
876.896	9769.62
877.214	9751.31
877.533	9717.64
877.852	9781.37
878.17	9785.66
878.489	9718.32
878.807	9708.37
879.125	9655.72
879.444	9688.26
879.762	9657.75
880.08	9622.5
880.398	9569.4
880.716	9527.14
881.034	9562.16
881.352	9483.07
881.67	9504.76
881.988	9523.52
882.306	9551.54
882.624	9435.84
882.941	9428.16
883.259	9328.72
883.577	9350.19
883.894	9328.27
884.212	9329.63
884.529	9312.9
884.846	9245.79
885.164	9242.17
885.481	9228.39
885.798	9218.9
886.115	9159.24
886.432	9156.52
886.75	9133.7
887.067	9102.74
887.383	9159.46
887.7	9097.09
888.017	9072.46
888.334	9049.63
888.651	9102.74
888.967	8972.12
889.284	8983.87
889.6	8968.51
889.917	8901.39
890.233	8845.8
890.55	8869.07
890.866	8863.88
891.182	8820.49
891.498	8796.76
891.815	8824.78
892.131	8827.49
892.447	8775.29
892.763	8672.92
893.079	8664.79
893.395	8718.34
893.71	8626.82
894.026	8610.78
894.342	8570.33
894.657	8489.2
894.973	8539.37
895.289	8484.23
895.604	8457.79
895.92	8417.34
896.235	8357
896.55	8416.88
896.865	8361.07
897.181	8296.89
897.496	8233.84
897.811	8304.34
898.126	8222.54
898.441	8211.24
898.756	8249.43
899.071	8104.8
899.386	8144.57
899.7	8061.19
900.015	8052.15
900.33	7975.76
900.644	7966.73
900.959	7930.79
901.273	7983.67
901.588	7931.7
901.902	7870
902.216	7818.71
902.531	7746.84
902.845	7843.79
903.159	7748.2
903.473	7712.95
903.787	7669.11
904.101	7697.35
904.415	7620.07
904.729	7608.54
905.042	7562.44
905.356	7517.02
905.67	7491.48
905.984	7524.93
906.297	7490.58
906.611	7414.65
906.924	7449
907.237	7377.59
907.551	7343.47
907.864	7310.7
908.177	7305.27
908.491	7292.62
908.804	7304.82
909.117	7203.81
909.43	7205.62
909.743	7150.48
910.056	7169.46
910.368	7104.38
910.681	7079.29
910.994	7013.3
911.307	6964.94
911.619	6951.61
911.932	6970.82
912.244	6986.86
912.557	6879.3
912.869	6880.65
913.181	6822.57
913.494	6835.91
913.806	6821.44
914.118	6762.69
914.43	6742.12
914.742	6741.9
915.054	6687.66
915.366	6713.2
915.678	6628
915.99	6628.68
916.302	6557.72
916.613	6569.02
916.925	6519.98
917.236	6563.37
917.548	6485.41
917.859	6458.74
918.171	6418.52
918.482	6409.93
918.794	6361.34
919.105	6333.55
919.416	6335.58
919.727	6265.3
920.038	6271.18
920.349	6238.41
920.66	6175.59
920.971	6196.15
921.282	6145.08
921.593	6098.75
921.903	6105.98
922.214	6065.76
922.525	6069.37
922.835	6000.45
923.146	6009.26
923.456	5976.5
923.767	5961.58
924.077	5988.7
924.387	5945.54
924.697	5865.31
925.008	5833.67
925.318	5868.25
925.628	5816.05
925.938	5822.15
926.248	5684.98
926.558	5712.55
926.867	5703.73
927.177	5718.2
927.487	5640.23
927.796	5650.85
928.106	5670.51
928.416	5628.26
928.725	5604.53
929.034	5561.59
929.344	5536.96
929.653	5579.67
929.962	5485.43
930.271	5474.36
930.581	5477.75
930.89	5402.05
931.199	5394.82
931.508	5409.5
931.817	5371.09
932.125	5388.26
932.434	5357.08
932.743	5259.23
933.051	5275.95
933.36	5219.23
933.669	5188.95
933.977	5227.59
934.286	5155.5
934.594	5137.42
934.902	5128.61
935.21	5074.82
935.519	5073.47
935.827	5089.97
936.135	5037.99
936.443	4986.92
936.751	4991.66
937.059	4950.53
937.367	4934.26
937.674	4954.6
937.982	4942.17
938.29	4878.9
938.597	4882.29
938.905	4865.11
939.213	4846.81
939.52	4797.77
939.827	4823.53
940.135	4775.4
940.442	4704.21
940.749	4735.62
941.056	4741.5
941.363	4681.84
941.67	4662.41
941.977	4653.59
942.284	4606.59
942.591	4649.52
942.898	4556.42
943.205	4577.66
943.511	4555.97
943.818	4556.42
944.125	4568.17
944.431	4464.9
944.738	4527.95
945.044	4473.71
945.35	4421.06
945.657	4431.23
945.963	4377.22
946.269	4389.87
946.575	4376.76
946.881	4339.25
947.187	4342.41
947.493	4277.11
947.799	4323.43
948.105	4285.24
948.41	4208.63
948.716	4224.68
949.022	4211.57
949.327	4235.52
949.633	4163.44
949.938	4165.7
950.244	4200.5
950.549	4125.47
950.854	4100.61
951.16	4072.82
951.465	4067.17
951.77	4114.62
952.075	4009.77
952.38	4034.63
952.685	4003.67
952.99	3983.55
953.294	3955.31
953.599	3961.41
953.904	3924.8
954.209	3914.18
954.513	3903.1
954.818	3864.46
955.122	3870.34
955.426	3870.34
955.731	3863.33
956.035	3841.41
956.339	3831.02
956.643	3815.2
956.948	3795.76
957.252	3748.98
957.556	3772.49
957.86	3702.2
958.163	3721.87
958.467	3733.62
958.771	3651.58
959.075	3664.47
959.378	3647.07
959.682	3661.75
959.985	3610
960.289	3645.26
960.592	3560.06
960.896	3552.38
961.199	3535.66
961.502	3540.4
961.805	3498.59
962.108	3510.12
962.411	3472.15
962.714	3456.56
963.017	3473.28
963.32	3458.6
963.623	3458.37
963.926	3419.27
964.228	3411.14
964.531	3384.25
964.833	3438.48
965.136	3368.43
965.438	3336.34
965.741	3344.02
966.043	3317.58
966.345	3311.25
966.648	3254.76
966.95	3283.91
967.252	3271.71
967.554	3250.24
967.856	3215.89
968.158	3201.43
968.46	3208.88
968.761	3193.29
969.063	3145.16
969.365	3184.03
969.666	3124.59
969.968	3114.42
970.269	3090.47
970.571	3170.24
970.872	3087.31
971.174	3053.41
971.475	3084.37
971.776	3054.99
972.077	3032.17
972.378	3022.22
972.679	3031.49
972.98	3015.67
973.281	2950.13
973.582	3000.75
973.883	2995.33
974.183	2950.36
974.484	2935.22
974.785	2917.59
975.085	2907.65
975.386	2926.41
975.686	2884.15
975.986	2863.13
976.287	2835.56
976.587	2879.4
976.887	2817.93
977.187	2830.14
977.487	2782.23
977.787	2800.76
978.087	2755.11
978.387	2785.62
978.687	2787.65
978.987	2740.87
979.286	2741.1
979.586	2730.93
979.885	2739.52
980.185	2680.54
980.484	2695.45
980.784	2711.95
981.083	2653.42
981.382	2642.57
981.682	2647.32
981.981	2657.26
982.28	2622.69
982.579	2600.31
982.878	2608.22
983.177	2591.27
983.475	2607.32
983.774	2563.93
984.073	2558.05
984.372	2511.05
984.67	2519.64
984.969	2544.27
985.267	2539.07
985.566	2513.99
985.864	2512.18
986.162	2462.01
986.461	2454.55
986.759	2457.72
987.057	2452.97
987.355	2436.93
987.653	2432.86
987.951	2424.72
988.249	2419.3
988.547	2385.63
988.844	2420.2
989.142	2374.1
989.44	2368
989.737	2357.61
990.035	2346.76
990.332	2323.03
990.63	2316.48
990.927	2304.95
991.224	2307.67
991.521	2321.45
991.819	2286.87
992.116	2277.16
992.413	2267.44
992.71	2252.3
993.006	2230.61
993.303	2226.99
993.6	2237.61
993.897	2226.31
994.193	2194.67
994.49	2182.24
994.787	2144.51
995.083	2145.18
995.379	2124.17
995.676	2149.93
995.972	2133.66
996.268	2091.85
996.565	2074.23
996.861	2083.26
997.157	2073.1
997.453	2055.69
997.749	2076.26
998.044	2074.9
998.34	2024.28
998.636	2029.48
998.932	2059.76
999.227	2002.36
999.523	2012.98
999.818	2012.76
1000.114	1993.32
1000.409	1978.86
1000.704	1977.5
1001	1940.9
1001.295	1937.96
1001.59	1926.88
1001.885	1954
1002.18	1898.18
1002.475	1907.9
1002.77	1888.02
1003.065	1904.29
1003.359	1876.72
1003.654	1892.99
1003.949	1830.39
1004.243	1855.47
1004.538	1852.99
1004.832	1826.1
1005.127	1827.9
1005.421	1797.62
1005.715	1805.76
1006.009	1817.96
1006.304	1782.93
1006.598	1755.36
1006.892	1768.7
1007.186	1730.51
1007.48	1738.19
1007.773	1737.06
1008.067	1703.84
1008.361	1697.51
1008.655	1694.35
1008.948	1696.61
1009.242	1681.69
1009.535	1675.59
1009.829	1673.11
1010.122	1668.13
1010.415	1633.11
1010.708	1622.49
1011.001	1634.91
1011.295	1610.51
1011.588	1617.97
1011.881	1629.49
1012.173	1575.03
1012.466	1603.96
1012.759	1560.79
1013.052	1548.14
1013.344	1570.96
1013.637	1563.73
1013.93	1532.09
1014.222	1501.36
1014.514	1531.19
1014.807	1513.56
1015.099	1501.13
1015.391	1472.89
1015.683	1479.66
1015.976	1468.59
1016.268	1472.43
1016.56	1453.9
1016.851	1463.39
1017.143	1433.11
1017.435	1415.26
1017.727	1409.61
1018.018	1416.84
1018.31	1380.68
1018.602	1422.49
1018.893	1403.73
1019.185	1366.67
1019.476	1375.49
1019.767	1362.61
1020.058	1358.76
1020.35	1344.75
1020.641	1292.55
1020.932	1344.98
1021.223	1326.45
1021.514	1315.38
1021.804	1296.62
1022.095	1279.9
1022.386	1297.07
1022.677	1278.99
1022.967	1300.23
1023.258	1232.67
1023.548	1242.38
1023.839	1272.44
1024.129	1273.57
1024.419	1225.66
1024.709	1227.24
1025	1216.85
1025.29	1187.69
1025.58	1187.69
1025.87	1200.8
1026.16	1192.67
1026.449	1189.28
1026.739	1167.81
1027.029	1165.1
1027.319	1142.27
1027.608	1126
1027.898	1149.96
1028.187	1138.88
1028.477	1146.57
1028.766	1091.2
1029.055	1127.13
1029.344	1106.79
1029.634	1090.3
1029.923	1093.69
1030.212	1102.95
1030.501	1064.08
1030.79	1062.05
1031.078	1068.83
1031.367	1036.96
1031.656	1005.55
1031.945	1030.18
1032.233	1023.86
1032.522	994.25
1032.81	1025.67
1033.099	1018.21
1033.387	1019.56
1033.675	1028.6
1033.963	969.17
1034.251	981.37
1034.54	1000.81
1034.828	976.4
1035.116	945.89
1035.403	957.64
1035.691	963.07
1035.979	974.82
1036.267	949.06
1036.554	949.73
1036.842	960.81
1037.129	921.49
1037.417	937.08
1037.704	930.53
1037.992	895.27
1038.279	920.36
1038.566	906.57
1038.853	906.57
1039.14	906.57
