Data from hue_36_FLMS001491_00087.txt Node
Date: Tue Feb 07 17:30:25 GMT 2017
User: dcchb
Spectrometer: FLMS00149
Trigger mode: 0
Integration Time (sec): 2.000000E-2
Scans to average: 10
Electric dark correction enabled: true
Nonlinearity correction enabled: false
Boxcar width: 0
XAxis mode: Wavelengths
Number of Pixels in Spectrum: 2048
>>>>>Begin Spectral Data<<<<<
341.393	-19.25
341.776	-19.25
342.16	-19.25
342.543	-62.87
342.927	-76.2
343.31	-66.93
343.693	-77.55
344.077	-62.64
344.46	-62.87
344.843	-51.79
345.226	-47.72
345.61	-45.92
345.993	-13.83
346.376	19.84
346.759	15.55
347.142	29.56
347.525	32.95
347.908	53.74
348.291	93.74
348.674	89.45
349.057	94.42
349.44	124.47
349.823	156.34
350.206	166.05
350.588	189.11
350.971	216.45
351.354	220.97
351.737	243.34
352.119	239.95
352.502	266.39
352.884	286.73
353.267	263.68
353.65	297.12
354.032	285.6
354.414	312.94
354.797	325.37
355.179	304.81
355.562	319.72
355.944	331.47
356.326	353.39
356.709	337.8
357.091	330.57
357.473	334.19
357.855	334.19
358.238	327.41
358.62	369.67
359.002	363.56
359.384	350.91
359.766	343.9
360.148	349.1
360.53	348.2
360.912	333.06
361.294	314.75
361.676	339.84
362.057	317.46
362.439	338.03
362.821	326.05
363.203	324.02
363.584	339.38
363.966	338.25
364.348	330.34
364.729	325.82
365.111	317.46
365.493	334.19
365.874	316.79
366.256	303.9
366.637	304.81
367.019	328.08
367.4	314.75
367.781	298.03
368.163	318.37
368.544	304.81
368.925	306.16
369.306	338.25
369.688	317.92
370.069	298.25
370.45	315.43
370.831	310.46
371.212	314.07
371.593	303.23
371.974	320.18
372.355	312.94
372.736	329.21
373.117	317.46
373.498	325.15
373.879	316.79
374.26	323.34
374.641	331.02
375.021	322.44
375.402	327.41
375.783	311.14
376.163	315.2
376.544	320.85
376.925	326.5
377.305	332.83
377.686	316.56
378.066	340.97
378.447	336.67
378.827	333.06
379.208	328.08
379.588	325.15
379.968	332.38
380.349	346.16
380.729	342.55
381.109	348.88
381.489	331.47
381.87	349.55
382.25	328.99
382.63	354.52
383.01	346.84
383.39	353.39
383.77	340.51
384.15	334.19
384.53	332.83
384.91	333.96
385.29	358.14
385.67	346.84
386.049	348.42
386.429	333.73
386.809	348.42
387.189	367.86
387.568	352.94
387.948	337.58
388.328	335.32
388.707	369.44
389.087	342.1
389.466	362.89
389.846	363.34
390.225	362.89
390.605	374.41
390.984	362.66
391.363	356.78
391.743	372.6
392.122	364.47
392.501	380.74
392.881	377.35
393.26	380.51
393.639	392.04
394.018	355.88
394.397	383
394.776	350.46
395.155	360.63
395.534	387.52
395.913	368.31
396.292	386.61
396.671	372.6
397.05	377.35
397.429	362.66
397.808	376.67
398.186	396.33
398.565	373.96
398.944	384.58
399.323	364.69
399.701	380.96
400.08	391.59
400.458	399.72
400.837	392.94
401.215	390.46
401.594	359.27
401.972	388.87
402.351	396.78
402.729	408.08
403.107	413.73
403.486	389.55
403.864	410.12
404.242	413.96
404.62	432.04
404.999	411.92
405.377	424.13
405.755	399.27
406.133	403.79
406.511	396.11
406.889	414.18
407.267	405.37
407.645	423.22
408.023	427.97
408.401	426.61
408.779	402.21
409.156	446.05
409.534	420.29
409.912	444.24
410.29	443.11
410.667	451.7
411.045	451.7
411.422	444.47
411.8	426.84
412.178	449.66
412.555	443.34
412.933	443.11
413.31	465.26
413.687	457.35
414.065	455.99
414.442	472.04
414.819	488.76
415.197	481.07
415.574	460.06
415.951	475.2
416.328	470
416.705	473.39
417.082	485.37
417.46	466.16
417.837	484.24
418.214	484.69
418.591	484.92
418.967	467.29
419.344	488.53
419.721	493.28
420.098	500.51
420.475	501.19
420.852	495.76
421.228	484.69
421.605	506.16
421.982	519.49
422.358	514.75
422.735	505.93
423.111	510.23
423.488	516.55
423.864	504.8
424.241	528.53
424.617	534.18
424.994	524.69
425.37	537.8
425.746	528.76
426.123	536.21
426.499	555.42
426.875	554.07
427.251	537.8
427.627	565.82
428.003	540.96
428.379	563.56
428.756	575.99
429.132	591.58
429.507	572.82
429.883	565.14
430.259	580.28
430.635	566.27
431.011	582.09
431.387	606.04
431.763	603.56
432.138	598.36
432.514	617.79
432.89	611.69
433.265	604.01
433.641	624.57
434.016	569.21
434.392	637.68
434.767	616.66
435.143	622.99
435.518	652.14
435.894	645.14
436.269	661.86
436.644	657.79
437.02	655.76
437.395	660.05
437.77	671.13
438.145	665.93
438.52	688.98
438.895	715.87
439.271	692.37
439.646	694.85
440.021	684.69
440.395	681.3
440.77	700.28
441.145	714.29
441.52	692.37
441.895	701.18
442.27	703.44
442.645	722.2
443.019	715.87
443.394	749.54
443.769	734.18
444.143	729.66
444.518	735.53
444.892	718.13
445.267	743.89
445.641	753.61
446.016	740.28
446.39	738.47
446.764	768.07
447.139	752.25
447.513	759.26
447.887	772.59
448.262	781.63
448.636	758.81
449.01	773.04
449.384	769.65
449.758	799.94
450.132	793.84
450.506	804.68
450.88	803.78
451.254	777.79
451.628	827.73
452.002	808.52
452.376	824.34
452.75	814.63
453.123	838.35
453.497	851.91
453.871	856.66
454.244	820.5
454.618	845.81
454.992	900.05
455.365	876.32
455.739	871.12
456.112	895.53
456.486	891.91
456.859	914.96
457.232	937.56
457.606	932.81
457.979	915.41
458.352	947.96
458.725	951.35
459.099	959.48
459.472	984.34
459.845	982.76
460.218	980.27
460.591	983.66
460.964	1000.84
461.337	1024.34
461.71	1025.24
462.083	1042.87
462.456	1049.42
462.829	1050.33
463.201	1074.05
463.574	1072.92
463.947	1077.22
464.32	1096.65
464.692	1122.64
465.065	1124.67
465.438	1106.14
465.81	1151.57
466.183	1166.25
466.555	1162.19
466.928	1192.02
467.3	1207.16
467.672	1207.16
468.045	1251.45
468.417	1251.68
468.789	1266.37
469.161	1259.81
469.534	1308.85
469.906	1314.5
470.278	1352.92
470.65	1385.68
471.022	1390.2
471.394	1413.03
471.766	1430.2
472.138	1445.34
472.51	1484.44
472.882	1530.09
473.253	1544.1
473.625	1571.67
473.997	1588.39
474.369	1601.95
474.74	1638.11
475.112	1665.9
475.484	1693.47
475.855	1748.61
476.227	1807.82
476.598	1832.68
476.97	1857.76
477.341	1914.48
477.713	1959.68
478.084	1992.22
478.455	2048.49
478.827	2073.35
479.198	2113.35
479.569	2163.29
479.94	2249.84
480.311	2275.38
480.682	2356.73
481.053	2429.5
481.424	2473.11
481.795	2530.29
482.166	2598.53
482.537	2632.43
482.908	2692.99
483.279	2755.14
483.65	2871.75
484.021	2929.6
484.391	3005.75
484.762	3049.59
485.133	3125.75
485.503	3225.41
485.874	3291.4
486.244	3370.26
486.615	3447.1
486.985	3532.52
487.356	3635.34
487.726	3712.18
488.097	3822.68
488.467	3900.42
488.837	3958.05
489.207	4068.1
489.578	4144.03
489.948	4217.02
490.318	4358.94
490.688	4410.69
491.058	4508.54
491.428	4660.17
491.798	4744.69
492.168	4856.78
492.538	4868.98
492.908	4971.13
493.278	5120.95
493.648	5143.55
494.017	5291.34
494.387	5328.41
494.757	5432.13
495.126	5509.87
495.496	5632.35
495.866	5712.8
496.235	5762.74
496.605	5882.29
496.974	5892.46
497.344	6033.02
497.713	6092.23
498.082	6194.37
498.452	6295.84
498.821	6336.74
499.19	6373.8
499.559	6477.98
499.928	6578.99
500.298	6672.78
500.667	6716.39
501.036	6758.42
501.405	6862.15
501.774	6944.41
502.143	7037.96
502.512	7085.2
502.88	7144.18
503.249	7232.76
503.618	7266.66
503.987	7353.21
504.356	7388.69
504.724	7489.25
505.093	7523.83
505.462	7588.23
505.83	7706.87
506.199	7752.3
506.567	7889.47
506.936	7888.34
507.304	8001.33
507.672	8039.29
508.041	8142.79
508.409	8134.43
508.777	8243.36
509.145	8379.62
509.514	8362.45
509.882	8396.57
510.25	8454.88
510.618	8479.73
510.986	8562.22
511.354	8656.23
511.722	8747.3
512.09	8816
512.458	8808.99
512.826	8861.65
513.193	9000.85
513.561	9043.79
513.929	9044.69
514.297	9116.1
514.664	9190.22
515.032	9241.75
515.4	9299.37
515.767	9377.79
516.135	9405.59
516.502	9381.41
516.869	9553.15
517.237	9526.71
517.604	9632.25
517.972	9695.3
518.339	9729.42
518.706	9780.94
519.073	9803.54
519.44	9892.13
519.808	9951.11
520.175	9996.08
520.542	10086.7
520.909	10134.15
521.276	10233.13
521.643	10305.68
522.009	10356.52
522.376	10384.09
522.743	10440.14
523.11	10476.74
523.477	10643.29
523.843	10722.61
524.21	10829.5
524.577	10891.42
524.943	10930.97
525.31	11006
525.676	11035.83
526.043	11096.16
526.409	11180.68
526.776	11284.86
527.142	11304.52
527.508	11380.22
527.874	11382.26
528.241	11461.13
528.607	11539.99
528.973	11655.02
529.339	11671.97
529.705	11752.42
530.071	11815.47
530.437	11984.05
530.803	11963.94
531.169	12051.39
531.535	12066.53
531.901	12102.46
532.267	12182.24
532.632	12240.31
532.998	12198.73
533.364	12314.21
533.73	12340.88
534.095	12466.52
534.461	12557.37
534.826	12534.54
535.192	12634.43
535.557	12721.88
535.923	12664.48
536.288	12824.93
536.653	12917.13
537.019	12862.44
537.384	12878.72
537.749	13029.9
538.114	12945.38
538.479	13040.52
538.845	13143.34
539.21	13063.79
539.575	13200.97
539.94	13307.18
540.305	13313.96
540.67	13342.88
541.034	13409.55
541.399	13443.9
541.764	13476.21
542.129	13537.23
542.494	13611.58
542.858	13571.58
543.223	13639.82
543.587	13775.19
543.952	13784.45
544.316	13875.75
544.681	13845.7
545.045	13986.26
545.41	14000.72
545.774	14089.08
546.138	14024.45
546.503	14123.65
546.867	14167.04
547.231	14291.33
547.595	14319.81
547.959	14344.89
548.324	14423.53
548.688	14405.23
549.052	14538.78
549.416	14513.02
549.779	14507.37
550.143	14585.79
550.507	14713.47
550.871	14820.58
551.235	14817.42
551.599	14939.45
551.962	14863.97
552.326	14947.14
552.689	15075.49
553.053	14993.01
553.417	15065.78
553.78	15218.99
554.143	15161.14
554.507	15261.7
554.87	15318.88
555.234	15442.26
555.597	15321.36
555.96	15417.41
556.323	15477.52
556.686	15446.56
557.05	15615.59
557.413	15658.08
557.776	15635.93
558.139	15804.06
558.502	15876.15
558.865	15804.97
559.228	16035.69
559.59	16108.23
559.953	16039.99
560.316	16220.77
560.679	16187.33
561.041	16296.03
561.404	16385.52
561.767	16578.96
562.129	16432.29
562.492	16537.83
562.854	16553.42
563.217	16590.93
563.579	16670.48
563.941	16830.93
564.304	16832.28
564.666	16887.42
565.028	16878.16
565.39	17076.12
565.753	17141.43
566.115	17103.46
566.477	17259.62
566.839	17266.62
567.201	17406.96
567.563	17417.35
567.925	17564.02
568.287	17618.93
568.648	17575.31
569.01	17681.75
569.372	17817.34
569.734	17725.59
570.095	17880.62
570.457	17937.34
570.819	18051.91
571.18	18041.29
571.542	18260.72
571.903	18242.42
572.265	18251.91
572.626	18350.44
572.987	18411.22
573.349	18558.11
573.71	18632.01
574.071	18666.13
574.432	18865.68
574.794	18912.68
575.155	18954.04
575.516	18920.36
575.877	19055.5
576.238	19209.17
576.599	19375.27
576.96	19437.19
577.32	19431.09
577.681	19671.76
578.042	19735.71
578.403	19898.19
578.763	19922.82
579.124	20087.11
579.485	20339.76
579.845	20537.27
580.206	20495.92
580.566	20623.14
580.927	20864.95
581.287	21055.68
581.648	21061.78
582.008	21293.18
582.368	21367.98
582.728	21545.38
583.089	21750.12
583.449	21889.78
583.809	22054.74
584.169	22213.61
584.529	22387.17
584.889	22778.12
585.249	22711
585.609	22792.35
585.969	23258.56
586.329	23298.78
586.688	23576.74
587.048	23802.72
587.408	23855.83
587.768	24153.9
588.127	24247.91
588.487	24463.27
588.846	24858.74
589.206	24913.65
589.565	25107.55
589.925	25441.1
590.284	25548.44
590.643	25952.95
591.003	26101.64
591.362	26424.12
591.721	26425.25
592.08	26646.49
592.44	26979.14
592.799	27172.58
593.158	27465.45
593.517	27598.33
593.876	27869.73
594.235	27978.88
594.593	28299.78
594.952	28485.31
595.311	28662.25
595.67	28836.49
596.029	29373.87
596.387	29474.66
596.746	29715.33
597.104	29731.38
597.463	29934.09
597.822	30276.22
598.18	30355.32
598.538	30543.79
598.897	30950.56
599.255	30866.49
599.613	31361.62
599.972	31489.3
600.33	31653.59
600.688	31740.14
601.046	31988.95
601.404	32285.89
601.762	32544.19
602.12	32677.74
602.478	32808.36
602.836	32923.61
603.194	33055.13
603.552	33169.25
603.91	33260.33
604.268	33670.94
604.625	33692.18
604.983	33979.4
605.341	34028.89
605.698	34295.78
606.056	34526.06
606.413	34487.86
606.771	34815.09
607.128	34916.78
607.485	34842.43
607.843	35127.4
608.2	35310.22
608.557	35652.35
608.914	35481.51
609.272	35806.25
609.629	35913.36
609.986	36235.16
610.343	36175.96
610.7	36464.99
611.057	36395.16
611.414	36702.27
611.771	36684.87
612.127	36993.79
612.484	37051.86
612.841	37125.99
613.198	37268.36
613.554	37488.24
613.911	37636.93
614.267	37706.08
614.624	37794.44
614.98	37922.12
615.337	38092.97
615.693	38174.1
616.05	38097.49
616.406	38477.36
616.762	38225.39
617.118	38451.38
617.475	38624.48
617.831	38736.11
618.187	38785.15
618.543	38911.93
618.899	39167.52
619.255	39199.83
619.611	39183.11
619.967	39257.68
620.323	39460.61
620.678	39272.37
621.034	39385.59
621.39	39411.8
621.746	39408.19
622.101	39952.81
622.457	39621.97
622.812	39823.32
623.168	39858.57
623.523	40038
623.879	40072.35
624.234	39823.54
624.589	40196.87
624.945	40145.12
625.3	40195.96
625.655	40200.26
626.01	40278.22
626.365	40422.62
626.72	40374.04
627.075	40382.17
627.43	40360.7
627.785	40289.07
628.14	40548.27
628.495	40554.82
628.85	40477.76
629.205	40394.6
629.559	40607.7
629.914	40418.1
630.269	40644.99
630.623	40488.38
630.978	40403.87
631.332	40593.24
631.687	40637.31
632.041	40528.61
632.396	40759.56
632.75	40476.41
633.104	40706.91
633.459	40575.61
633.813	40448.61
634.167	40546.24
634.521	40507.82
634.875	40710.07
635.229	40630.08
635.583	40389.63
635.937	40502.4
636.291	40498.33
636.645	40460.81
636.999	40433.92
637.352	40492.68
637.706	40334.94
638.06	40623.75
638.413	40369.29
638.767	40303.98
639.121	40399.35
639.474	40110.99
639.828	40311.89
640.181	40221.95
640.534	40302.85
640.888	40270.09
641.241	39951.22
641.594	40076.19
641.947	40239.8
642.301	40199.35
642.654	40136.76
643.007	40214.04
643.36	40180.6
643.713	40064.44
644.066	40219.47
644.419	40034.61
644.771	39654.06
645.124	39446.15
645.477	39254.97
645.83	39010.68
646.182	39052.72
646.535	38939.05
646.888	39116.22
647.24	38775.44
647.593	39212.94
647.945	38971.59
648.298	38847.75
648.65	38879.84
649.002	38643.24
649.355	38810.24
649.707	38832.16
650.059	38816.34
650.411	39300.85
650.763	39374.52
651.115	39773.83
651.467	39584.23
651.819	39673.72
652.171	39473.95
652.523	39431.92
652.875	39600.05
653.227	39337.45
653.578	39555.98
653.93	39483.67
654.282	39421.07
654.633	39338.58
654.985	39266.72
655.337	39316.66
655.688	39387.17
656.039	39468.07
656.391	39107.4
656.742	39319.6
657.094	39320.73
657.445	39489.09
657.796	39207.29
658.147	39122.09
658.498	39346.04
658.849	39331.35
659.2	39270.56
659.551	39191.02
659.902	39213.39
660.253	39197.8
660.604	39278.25
660.955	39131.36
661.306	39340.84
661.656	39128.42
662.007	39251.13
662.358	39217.23
662.708	39092.94
663.059	39147.18
663.409	38916.9
663.76	39142.43
664.11	39271.47
664.461	39208.87
664.811	39227.17
665.161	39014.98
665.511	39009.55
665.862	39105.37
666.212	39116.22
666.562	39090
666.912	39052.04
667.262	39084.35
667.612	39023.79
667.962	39149.89
668.312	39043.68
668.662	39137.01
669.011	39033.96
669.361	39087.29
669.711	39056.78
670.06	38949.44
670.41	38866.73
670.76	38882.33
671.109	38987.41
671.459	38888.43
671.808	38851.14
672.157	38932.49
672.507	38629.45
672.856	38710.35
673.205	38869.22
673.554	38858.6
673.904	38755.77
674.253	38991.25
674.602	38824.02
674.951	38289.12
675.3	38047.77
675.649	38745.61
675.998	38572.73
676.346	38790.35
676.695	38874.87
677.044	38464.48
677.393	38641.2
677.741	38679.84
678.09	38511.71
678.438	38394.2
678.787	38499.06
679.135	38549.68
679.484	38180.42
679.832	38575.21
680.181	38270.36
680.529	38368.67
680.877	38160.08
681.225	38136.58
681.573	38370.47
681.922	38194.89
682.27	37995.79
682.618	38052.29
682.966	37995.79
683.314	38014.78
683.661	37866.98
684.009	37660.21
684.357	37639.87
684.705	37588.12
685.053	37729.36
685.4	37514.45
685.748	37611.62
686.095	37435.36
686.443	37327.11
686.79	37320.33
687.138	37317.62
687.485	37338.18
687.832	37181.58
688.18	37190.39
688.527	36865.88
688.874	36981.81
689.221	36985.88
689.568	36819.55
689.915	36732.55
690.262	36684.87
690.609	36652.55
690.956	36622.05
691.303	36400.58
691.65	36291.88
691.997	36409.85
692.344	36161.04
692.69	36143.41
693.037	36250.3
693.383	35918.79
693.73	35865.23
694.077	35707.49
694.423	35805.57
694.769	35643.31
695.116	35572.36
695.462	35551.34
695.808	35420.04
696.155	35532.36
696.501	35236.77
696.847	35208.52
697.193	35038.13
697.539	35082.43
697.885	34979.15
698.231	34826.61
698.577	34837.46
698.923	34767.63
699.269	34648.76
699.614	34313.18
699.96	34394.31
700.306	34530.58
700.651	34278.15
700.997	34136.69
701.342	34142.79
701.688	34086.07
702.033	33928.56
702.379	33721.78
702.724	33835.23
703.069	33858.5
703.415	33363.37
703.76	33574.22
704.105	33519.3
704.45	33418.51
704.795	33271.4
705.14	33200.89
705.485	33191.85
705.83	33037.51
706.175	33081.35
706.52	33019.43
706.865	32879.55
707.209	32838.64
707.554	32800.23
707.899	32883.16
708.243	32572.66
708.588	32634.81
708.932	32411.08
709.277	32428.26
709.621	32423.51
709.966	32238.21
710.31	32176.96
710.654	31870.98
710.998	32029.62
711.342	32133.8
711.687	31927.71
712.031	31820.36
712.375	31603.87
712.719	31670.09
713.063	31564.78
713.407	31707.6
713.75	31549.86
714.094	31455.4
714.438	31343.77
714.782	31318.23
715.125	31243.2
715.469	31279.81
715.812	31146.71
716.156	30962.99
716.499	30975.41
716.843	30942.87
717.186	30743.56
717.53	31070.78
717.873	30987.39
718.216	30883.21
718.559	30505.82
718.902	30516.67
719.246	30463.79
719.589	30435.09
719.932	30379.72
720.275	30324.81
720.617	30275.77
720.96	30334.08
721.303	30198.26
721.646	30245.26
721.989	29992.16
722.331	30039.85
722.674	30074.2
723.016	30081.43
723.359	29940.87
723.701	29983.58
724.044	29783.13
724.386	29678.05
724.729	29875.78
725.071	29740.42
725.413	29711.27
725.755	29646.86
726.097	29508.56
726.439	29410.71
726.782	29430.82
727.124	29563.93
727.465	29254.1
727.807	29361.9
728.149	29323.48
728.491	29239.64
728.833	29213.43
729.175	29099.31
729.516	29103.37
729.858	29188.34
730.199	29044.62
730.541	28964.17
730.882	28950.38
731.224	29052.75
731.565	28903.38
731.906	28877.39
732.248	28833.1
732.589	28700.67
732.93	28653.67
733.271	28668.58
733.612	28645.76
733.953	28835.13
734.294	28433.33
734.635	28554.24
734.976	28505.87
735.317	28440.79
735.658	28295.03
735.999	28473.11
736.339	28281.7
736.68	28365.09
737.021	28219.33
737.361	28062.5
737.702	28187.92
738.042	28271.98
738.383	28118.09
738.723	28226.33
739.063	27965.32
739.404	28131.2
739.744	27871.54
740.084	27900.24
740.424	27966.91
740.764	27793.8
741.104	28024.53
741.444	27790.87
741.784	27626.35
742.124	27784.54
742.464	27724.43
742.804	27666.57
743.143	27625.9
743.483	27532.34
743.823	27451.21
744.162	27337.32
744.502	27434.72
744.841	27414.6
745.181	27464.32
745.52	27312.23
745.86	27317.88
746.199	27267.72
746.538	27243.08
746.877	27327.37
747.216	27174.61
747.556	27249.18
747.895	27077.21
748.234	26967.61
748.573	26969.42
748.911	26933.94
749.25	26995.86
749.589	26778.69
749.928	26852.36
750.267	26768.75
750.605	26737.11
750.944	26606.04
751.283	26471.58
751.621	26674.51
751.96	26495.31
752.298	26431.13
752.636	26375.54
752.975	26425.25
753.313	26269.32
753.651	26391.81
753.989	26319.49
754.327	26190.68
754.666	26126.95
755.004	26082.89
755.342	26143
755.679	26088.99
756.017	25966.51
756.355	26009.44
756.693	25897.13
757.031	25826.4
757.368	25648.1
757.706	25740.75
758.044	25581.43
758.381	25740.98
758.719	25524.26
759.056	25536.01
759.394	25352.29
759.731	25212.85
760.068	25277.94
760.405	25070.26
760.743	25177.83
761.08	25038.17
761.417	24895.8
761.754	24861.45
762.091	24788.68
762.428	24902.81
762.765	24618.97
763.102	24686.99
763.438	24611.74
763.775	24470.27
764.112	24422.82
764.449	24553.66
764.785	24392.08
765.122	24195.25
765.458	24143.73
765.795	24100.57
766.131	24000.91
766.467	23944.19
766.804	23826
767.14	23815.6
767.476	23795.26
767.812	23665.55
768.148	23809.5
768.485	23581.71
768.821	23349.17
769.157	23496.51
769.492	23285
769.828	23385.11
770.164	23030.31
770.5	23020.14
770.836	23026.02
771.171	22977.21
771.507	22727.95
771.842	22647.05
772.178	22612.02
772.513	22506.94
772.849	22503.55
773.184	22368.86
773.519	22475.98
773.855	22349.2
774.19	22171.58
774.525	22160.05
774.86	22097.91
775.195	21953.05
775.53	21962.77
775.865	21811.81
776.2	21693.62
776.535	21647.3
776.87	21572.72
777.205	21491.37
777.539	21341.32
777.874	21452.73
778.209	21150.59
778.543	21128.44
778.878	21095
779.212	21081.89
779.547	20901.33
779.881	20903.14
780.215	20759.64
780.55	20805.96
780.884	20681.45
781.218	20689.13
781.552	20583.37
781.886	20481.9
782.22	20354
782.554	20316.26
782.888	20200.56
783.222	20170.05
783.556	20098.64
783.889	20052.54
784.223	19743.85
784.557	19829.04
784.89	19839.21
785.224	19632.89
785.557	19625.88
785.891	19582.04
786.224	19603.51
786.558	19447.36
786.891	19382.05
787.224	19310.18
787.557	19187.93
787.891	19157.65
788.224	19098.66
788.557	19137.31
788.89	19046.24
789.223	19024.09
789.556	18932.34
789.888	18750.88
790.221	18827.94
790.554	18643.31
790.887	18597.89
791.219	18518.34
791.552	18519.02
791.884	18343.88
792.217	18349.98
792.549	18257.56
792.882	18211
793.214	18129.42
793.546	18138.01
793.879	17928.75
794.211	17807.4
794.543	17922.42
794.875	17873.61
795.207	17837.23
795.539	17793.16
795.871	17781.41
796.203	17669.1
796.535	17515.2
796.867	17542.55
797.198	17436.79
797.53	17379.16
797.862	17368.09
798.193	17273.63
798.525	17252.16
798.856	17265.27
799.188	17066.4
799.519	17007.87
799.85	16928.33
800.182	16930.81
800.513	17061.88
800.844	16735.79
801.175	16928.33
801.506	16821.21
801.837	16656.47
802.168	16725.17
802.499	16555.23
802.83	16566.53
803.161	16527.66
803.491	16432.29
803.822	16438.17
804.153	16389.13
804.483	16173.77
804.814	16157.05
805.145	16168.35
805.475	16162.02
805.805	16064.39
806.136	16035.69
806.466	16100.33
806.796	16047.9
807.126	15900.56
807.457	15824.85
807.787	15867.11
808.117	15825.76
808.447	15740.11
808.777	15755.48
809.107	15662.37
809.436	15585.54
809.766	15618.08
810.096	15535.59
810.426	15415.37
810.755	15480.45
811.085	15361.14
811.414	15375.37
811.744	15340.8
812.073	15258.99
812.403	15246.11
812.732	15267.58
813.061	15213.34
813.39	15054.93
813.719	15024.2
814.049	15119.11
814.378	15025.78
814.707	14946.01
815.036	14981.03
815.365	14847.48
815.693	14755.73
816.022	14715.73
816.351	14696.52
816.68	14698.1
817.008	14669.18
817.337	14577.2
817.665	14533.36
817.994	14612
818.322	14528.16
818.651	14534.72
818.979	14412.91
819.307	14487.49
819.636	14438.67
819.964	14191.45
820.292	14426.02
820.62	14369.52
820.948	14270.77
821.276	14410.43
821.604	14305.57
821.932	14320.26
822.259	14273.93
822.587	14296.53
822.915	14245.23
823.243	14244.78
823.57	14255.63
823.898	14192.58
824.225	14155.29
824.553	14148.06
824.88	14257.66
825.207	14261.28
825.535	14240.04
825.862	14262.41
826.189	14175.86
826.516	14318
826.843	14228.28
827.17	14253.82
827.497	14280.03
827.824	14226.25
828.151	14235.97
828.478	14248.17
828.805	14245.46
829.131	14164.1
829.458	14147.61
829.785	14189.64
830.111	14153.03
830.438	14201.62
830.764	14179.02
831.09	14153.26
831.417	14092.02
831.743	14143.99
832.069	14127.72
832.395	14086.82
832.722	14132.47
833.048	14071.9
833.374	14107.38
833.7	14092.69
834.026	14052.02
834.351	14047.5
834.677	14047.27
835.003	14020.38
835.329	14002.3
835.654	14056.54
835.98	13935.86
836.306	13975.86
836.631	13922.76
836.956	13931.34
837.282	13924.56
837.607	13820.16
837.932	13812.93
838.258	13835.07
838.583	13853.15
838.908	13704.91
839.233	13757.34
839.558	13711.24
839.883	13686.38
840.208	13659.71
840.533	13626.27
840.858	13666.72
841.182	13680.28
841.507	13581.97
841.832	13569.32
842.156	13499.94
842.481	13461.52
842.805	13500.62
843.13	13452.03
843.454	13424.69
843.778	13381.53
844.103	13327.29
844.427	13264.69
844.751	13262.21
845.075	13212.94
845.399	13272.6
845.723	13183.57
846.047	13230.57
846.371	12981.99
846.695	13070.12
847.019	12903.8
847.343	12827.87
847.666	12812.5
847.99	12777.47
848.313	12756.68
848.637	12636.69
848.96	12630.13
849.284	12709.45
849.607	12535.22
849.931	12481.66
850.254	12369.12
850.577	12364.83
850.9	12296.58
851.223	12324.38
851.546	12229.47
851.869	12122.8
852.192	12192.86
852.515	12046.19
852.838	12018.4
853.161	11921.68
853.483	11936.14
853.806	11918.51
854.129	11876.03
854.451	11885.07
854.774	11761.68
855.096	11740.67
855.419	11727.56
855.741	11726.43
856.063	11567.34
856.385	11540.9
856.708	11526.89
857.03	11543.16
857.352	11556.94
857.674	11464.29
857.996	11466.77
858.318	11425.42
858.64	11338.87
858.961	11291.86
859.283	11227.01
859.605	11221.81
859.926	11252.32
860.248	11209.83
860.57	11210.06
860.891	11157.86
861.212	11082.83
861.534	11060.68
861.855	11081.93
862.176	11014.36
862.498	11059.1
862.819	11091.87
863.14	10987.24
863.461	10898.88
863.782	10860.24
864.103	10927.13
864.424	10838.99
864.745	10948.37
865.065	10834.7
865.386	10748.38
865.707	10722.84
866.027	10862.27
866.348	10767.36
866.668	10704.53
866.989	10696.63
867.309	10677.42
867.63	10707.7
867.95	10706.34
868.27	10592.9
868.59	10629.28
868.91	10580.24
869.23	10626.12
869.55	10578.66
869.87	10634.03
870.19	10518.78
870.51	10634.25
870.83	10583.63
871.15	10508.83
871.469	10498.21
871.789	10550.41
872.109	10507.25
872.428	10439.01
872.748	10483.52
873.067	10451.43
873.386	10450.08
873.706	10442.62
874.025	10309.74
874.344	10309.52
874.663	10361.04
874.982	10308.84
875.301	10255.28
875.62	10210.31
875.939	10213.25
876.258	10246.02
876.577	10252.57
876.896	10218.67
877.214	10175.06
877.533	10140.93
877.852	10136.64
878.17	10175.74
878.489	10145.45
878.807	10125.79
879.125	10063.87
879.444	10060.03
879.762	10119.24
880.08	10044.89
880.398	10002.86
880.716	9976.19
881.034	9959.47
881.352	9956.08
881.67	9897.55
881.988	9871.56
882.306	9881.96
882.624	9864.11
882.941	9805.8
883.259	9801.28
883.577	9790.89
883.894	9738.68
884.212	9678.12
884.529	9732.36
884.846	9710.89
885.164	9715.41
885.481	9635.64
885.798	9611.68
886.115	9568.52
886.432	9571.91
886.75	9597.9
887.067	9581.4
887.383	9477.67
887.7	9526.03
888.017	9508.63
888.334	9477.67
888.651	9404.68
888.967	9429.77
889.284	9364.46
889.6	9368.52
889.917	9304.57
890.233	9307.28
890.55	9294.4
890.866	9261.18
891.182	9234.07
891.498	9191.13
891.815	9170.34
892.131	9125.59
892.447	9130.34
892.763	9087.18
893.079	9116.33
893.395	9000.62
893.71	9033.39
894.026	9037.91
894.342	9013.05
894.657	8922.43
894.973	8900.29
895.289	8901.19
895.604	8854.41
895.92	8802.89
896.235	8780.74
896.55	8765.15
896.865	8774.64
897.181	8706.62
897.496	8630.01
897.811	8624.14
898.126	8674.31
898.441	8547.08
898.756	8536
899.071	8522.9
899.386	8560.18
899.7	8471.83
900.015	8412.39
900.33	8376.46
900.644	8298.72
900.959	8345.05
901.273	8350.47
901.588	8231.15
901.902	8281.77
902.216	8180.08
902.531	8244.71
902.845	8189.12
903.159	8094.21
903.473	8142.57
903.787	8063.47
904.101	8026.19
904.415	8043.36
904.729	8004.94
905.042	7924.27
905.356	7922.46
905.67	7887.43
905.984	7921.78
906.297	7849.92
906.611	7833.65
906.924	7821.67
907.237	7780.09
907.551	7738.74
907.864	7665.52
908.177	7643.15
908.491	7644.95
908.804	7599.98
909.117	7584.62
909.43	7532.64
909.743	7506.43
910.056	7433.21
910.368	7455.81
910.681	7394.79
910.994	7353.44
911.307	7370.61
911.619	7293.78
911.932	7350.72
912.244	7243.61
912.557	7242.93
912.869	7179.43
913.181	7183.5
913.494	7188.24
913.806	7143.72
914.118	7118.87
914.43	7059.43
914.742	7003.62
915.054	7032.77
915.366	6979.66
915.678	6947.8
915.99	6974.69
916.302	6850.4
916.613	6839.33
916.925	6806.33
917.236	6821.7
917.548	6806.78
917.859	6754.58
918.171	6746.45
918.482	6666.45
918.794	6643.62
919.105	6671.65
919.416	6597.3
919.727	6620.57
920.038	6597.98
920.349	6553.23
920.66	6505.32
920.971	6493.12
921.282	6527.47
921.593	6400.02
921.903	6415.16
922.214	6384.42
922.525	6336.51
922.835	6336.97
923.146	6249.96
923.456	6270.3
923.767	6250.19
924.077	6182.85
924.387	6145.11
924.697	6133.58
925.008	6162.96
925.318	6115.5
925.628	6150.3
925.938	6088.84
926.248	5993.7
926.558	5976.98
926.867	6005
927.177	5964.09
927.487	5964.32
927.796	5879.8
928.106	5881.61
928.416	5805.68
928.725	5884.1
929.034	5804.55
929.344	5760.26
929.653	5770.43
929.962	5710.54
930.271	5725.91
930.581	5663.31
930.89	5639.58
931.199	5634.84
931.508	5647.94
931.817	5609.98
932.125	5555.97
932.434	5519.59
932.743	5492.47
933.051	5469.64
933.36	5442.98
933.669	5472.36
933.977	5409.53
934.286	5408.85
934.594	5384.45
934.902	5366.14
935.21	5322.53
935.519	5307.84
935.827	5257.22
936.135	5252.7
936.443	5218.35
936.751	5151.23
937.059	5166.6
937.367	5160.73
937.674	5156.21
937.982	5181.29
938.29	5140.39
938.597	5090.9
938.905	5010.45
939.213	5052.25
939.52	4981.75
939.827	5063.1
940.135	4985.59
940.442	4920.51
940.749	4952.82
941.056	4929.09
941.363	4851.81
941.67	4809.55
941.977	4825.82
942.284	4863.11
942.591	4874.18
942.898	4760.06
943.205	4768.42
943.511	4766.39
943.818	4734.75
944.125	4711.7
944.431	4687.52
944.738	4689.1
945.044	4628.76
945.35	4615.43
945.657	4612.04
945.963	4572.72
946.269	4548.99
946.575	4558.48
946.881	4534.08
947.187	4505.15
947.493	4452.04
947.799	4442.1
948.105	4415.89
948.41	4441.65
948.716	4423.34
949.022	4381.54
949.327	4387.86
949.633	4354.19
949.938	4351.48
950.244	4293.63
950.549	4310.13
950.854	4218.6
951.16	4267.42
951.465	4236.91
951.77	4199.17
952.075	4230.81
952.38	4138.61
952.685	4156.01
952.99	4149.23
953.294	4141.32
953.599	4109.23
953.904	4069.68
954.209	4078.49
954.513	4086.63
954.818	4082.56
955.122	4010.02
955.426	4005.73
955.731	3978.38
956.035	3991.04
956.339	3920.53
956.643	3964.6
956.948	3899.52
957.252	3899.52
957.556	3932.74
957.86	3902.45
958.163	3839.63
958.467	3872.17
958.771	3849.12
959.075	3798.73
959.378	3782.46
959.682	3811.83
959.985	3769.58
960.289	3736.36
960.592	3725.74
960.896	3712.63
961.199	3734.32
961.502	3657.71
961.805	3664.04
962.108	3650.26
962.411	3621.56
962.714	3614.1
963.017	3617.04
963.32	3594.89
963.623	3599.41
963.926	3525.74
964.228	3526.64
964.531	3570.03
964.833	3537.49
965.136	3504.72
965.438	3461.79
965.741	3425.86
966.043	3439.42
966.345	3423.6
966.648	3397.38
966.95	3425.63
967.252	3413.2
967.554	3332.98
967.856	3384.73
968.158	3323.26
968.46	3332.75
968.761	3309.93
969.063	3313.54
969.365	3271.74
969.666	3309.25
969.968	3225.86
970.269	3266.31
970.571	3217.73
970.872	3225.86
971.174	3203.26
971.475	3177.05
971.776	3161.46
972.077	3146.99
972.378	3141.34
972.679	3114.9
972.98	3065.19
973.281	3117.39
973.582	3076.94
973.883	3079.88
974.183	3107.67
974.484	3040.78
974.785	3043.72
975.085	3014.57
975.386	3031.74
975.686	2991.07
975.986	2978.18
976.287	2957.62
976.587	2929.82
976.887	2943.38
977.187	2929.6
977.487	2904.97
977.787	2948.58
978.087	2893.21
978.387	2860.9
978.687	2848.7
978.987	2810.51
979.286	2852.99
979.586	2850.28
979.885	2843.05
980.185	2795.14
980.484	2812.99
980.784	2780.9
981.083	2780.22
981.382	2718.3
981.682	2761.24
981.981	2749.94
982.28	2713.56
982.579	2686.44
982.878	2718.76
983.177	2685.99
983.475	2702.94
983.774	2652.32
984.073	2618.42
984.372	2632.66
984.67	2610.51
984.969	2627.23
985.267	2641.92
985.566	2582.71
985.864	2565.77
986.162	2578.87
986.461	2550.17
986.759	2543.39
987.057	2530.06
987.355	2487.12
987.653	2495.94
987.951	2528.7
988.249	2466.79
988.547	2476.05
988.844	2465.88
989.142	2476.73
989.44	2443.06
989.737	2461.59
990.035	2424.3
990.332	2408.71
990.63	2388.6
990.927	2381.82
991.224	2355.6
991.521	2351.99
991.819	2365.09
992.116	2346.11
992.413	2321.48
992.71	2322.16
993.006	2338.2
993.303	2277.86
993.6	2276.28
993.897	2295.04
994.193	2283.06
994.49	2282.61
994.787	2236.51
995.083	2230.63
995.379	2218.43
995.676	2231.99
995.972	2210.75
996.268	2195.61
996.565	2173.69
996.861	2194.93
997.157	2165.78
997.453	2167.81
997.749	2157.19
998.044	2162.84
998.34	2123.07
998.636	2100.02
998.932	2131.88
999.227	2071.09
999.523	2091.2
999.818	2090.75
1000.114	2068.15
1000.409	2059.11
1000.704	2029.28
1001	2015.5
1001.295	2029.73
1001.59	2022.28
1001.885	1984.31
1002.18	1998.32
1002.475	1982.05
1002.77	1955.61
1003.065	1949.51
1003.359	1941.38
1003.654	1927.82
1003.949	1890.3
1004.243	1920.81
1004.538	1887.82
1004.832	1874.48
1005.127	1879.23
1005.421	1897.76
1005.715	1861.38
1006.009	1836.29
1006.304	1857.31
1006.598	1835.39
1006.892	1827.93
1007.186	1814.37
1007.48	1785.22
1007.773	1811.66
1008.067	1806.92
1008.361	1779.57
1008.655	1788.39
1008.948	1764.66
1009.242	1777.09
1009.535	1737.09
1009.829	1739.8
1010.122	1724.21
1010.415	1742.51
1010.708	1707.48
1011.001	1643.76
1011.295	1667.03
1011.588	1662.96
1011.881	1657.54
1012.173	1666.13
1012.466	1676.07
1012.759	1629.29
1013.052	1598.11
1013.344	1601.72
1013.637	1587.03
1013.93	1581.61
1014.222	1582.51
1014.514	1580.93
1014.807	1573.25
1015.099	1522.63
1015.391	1563.76
1015.683	1563.31
1015.976	1539.35
1016.268	1520.14
1016.56	1497.09
1016.851	1501.16
1017.143	1492.8
1017.435	1502.52
1017.727	1483.08
1018.018	1454.83
1018.31	1440.37
1018.602	1470.88
1018.893	1426.13
1019.185	1411.45
1019.476	1413.25
1019.767	1425
1020.058	1397.89
1020.35	1410.54
1020.641	1402.86
1020.932	1372.58
1021.223	1363.54
1021.514	1353.14
1021.804	1326.25
1022.095	1345.68
1022.386	1323.99
1022.677	1320.6
1022.967	1298.45
1023.258	1290.77
1023.548	1312.92
1023.839	1273.82
1024.129	1271.56
1024.419	1254.39
1024.709	1289.42
1025	1242.64
1025.29	1220.26
1025.58	1234.95
1025.87	1259.59
1026.16	1214.39
1026.449	1224.11
1026.739	1201.51
1027.029	1196.08
1027.319	1181.17
1027.608	1204.67
1027.898	1165.35
1028.187	1185.01
1028.477	1153.37
1028.766	1159.7
1029.055	1159.25
1029.344	1131.23
1029.634	1156.99
1029.923	1136.88
1030.212	1102.75
1030.501	1108.63
1030.79	1097.78
1031.078	1087.39
1031.367	1080.83
1031.656	1060.27
1031.945	1086.48
1032.233	1080.16
1032.522	1051.91
1032.81	1064.56
1033.099	1063.88
1033.387	1062.53
1033.675	1050.1
1033.963	1028.41
1034.251	1023.43
1034.54	988.41
1034.828	1008.29
1035.116	1001.97
1035.403	989.99
1035.691	1004
1035.979	991.8
1036.267	976.2
1036.554	961.51
1036.842	994.96
1037.129	952.25
1037.417	969.2
1037.704	970.33
1037.992	946.15
1038.279	927.62
1038.566	933.27
1038.853	933.27
1039.14	933.27
