Data from hue_22_FLMS001491_00058.txt Node
Date: Tue Feb 07 17:10:20 GMT 2017
User: dcchb
Spectrometer: FLMS00149
Trigger mode: 0
Integration Time (sec): 2.000000E-2
Scans to average: 10
Electric dark correction enabled: true
Nonlinearity correction enabled: false
Boxcar width: 0
XAxis mode: Wavelengths
Number of Pixels in Spectrum: 2048
>>>>>Begin Spectral Data<<<<<
341.393	-27.57
341.776	-27.57
342.16	-27.57
342.543	-72.54
342.927	-72.77
343.31	-65.54
343.693	-56.04
344.077	-69.6
344.46	-58.98
344.843	-57.4
345.226	-44.74
345.61	-29.38
345.993	-6.33
346.376	-16.5
346.759	0.68
347.142	21.69
347.525	32.54
347.908	67.57
348.291	89.72
348.674	94.91
349.057	97.4
349.44	122.71
349.823	162.26
350.206	164.52
350.588	199.54
350.971	206.1
351.354	212.65
351.737	227.11
352.119	247.23
352.502	265.53
352.884	270.73
353.267	297.17
353.65	300.78
354.032	311.86
354.414	306.21
354.797	307.34
355.179	304.62
355.562	311.63
355.944	346.21
356.326	327.45
356.709	344.85
357.091	322.03
357.473	333.78
357.855	349.6
358.238	345.53
358.62	347.11
359.002	326.09
359.384	350.95
359.766	348.01
360.148	338.3
360.53	334.23
360.912	339.65
361.294	324.06
361.676	332.65
362.057	333.78
362.439	341.01
362.821	317.05
363.203	319.54
363.584	312.53
363.966	332.87
364.348	334.68
364.729	323.61
365.111	323.16
365.493	305.98
365.874	329.26
366.256	326.32
366.637	327.9
367.019	313.21
367.4	294.46
367.781	331.97
368.163	294.91
368.544	308.47
368.925	317.96
369.306	315.47
369.688	308.24
370.069	301.01
370.45	306.21
370.831	326.77
371.212	315.92
371.593	305.08
371.974	327
372.355	315.25
372.736	310.05
373.117	319.09
373.498	320.9
373.879	299.65
374.26	327.67
374.641	304.4
375.021	302.82
375.402	306.43
375.783	330.39
376.163	334.23
376.544	314.57
376.925	321.57
377.305	305.75
377.686	337.62
378.066	345.3
378.447	320.44
378.827	337.17
379.208	352.76
379.588	323.83
379.968	340.33
380.349	331.29
380.729	322.7
381.109	334.68
381.489	343.95
381.87	338.07
382.25	329.71
382.63	340.56
383.01	361.12
383.39	338.3
383.77	325.64
384.15	338.52
384.53	357.05
384.91	339.65
385.29	329.48
385.67	349.14
386.049	341.46
386.429	357.05
386.809	340.78
387.189	352.76
387.568	356.6
387.948	336.71
388.328	357.73
388.707	352.08
389.087	362.48
389.466	347.56
389.846	377.17
390.225	349.6
390.605	353.21
390.984	372.87
391.363	360.89
391.743	363.61
392.122	371.29
392.501	361.35
392.881	373.32
393.26	392.53
393.639	372.19
394.018	377.84
394.397	369.03
394.776	380.78
395.155	386.43
395.534	388.92
395.913	389.82
396.292	372.65
396.671	381.23
397.05	379.43
397.429	406.99
397.808	375.13
398.186	392.31
398.565	404.06
398.944	371.97
399.323	383.27
399.701	401.57
400.08	390.27
400.458	397.28
400.837	401.12
401.215	397.28
401.594	417.84
401.972	404.28
402.351	421.46
402.729	414.68
403.107	430.05
403.486	396.6
403.864	399.76
404.242	411.06
404.62	415.81
404.999	406.99
405.377	418.75
405.755	428.24
406.133	414.45
406.511	437.05
406.889	457.84
407.267	429.59
407.645	446.32
408.023	456.49
408.401	436.15
408.779	441.8
409.156	439.08
409.534	442.02
409.912	470.04
410.29	444.96
410.667	475.02
411.045	468.46
411.422	475.24
411.8	466.65
412.178	460.78
412.555	463.04
412.933	469.59
413.31	468.46
413.687	463.94
414.065	498.97
414.442	475.47
414.819	483.6
415.197	486.77
415.574	482.7
415.951	499.87
416.328	500.55
416.705	493.55
417.082	501.46
417.46	494.45
417.837	507.78
418.214	502.13
418.591	510.5
418.967	511.4
419.344	524.28
419.721	487.44
420.098	527.44
420.475	517.27
420.852	527.22
421.228	537.39
421.605	523.6
421.982	523.6
422.358	531.29
422.735	565.41
423.111	523.83
423.488	538.97
423.864	555.69
424.241	542.58
424.617	543.71
424.994	546.65
425.37	557.27
425.746	582.58
426.123	586.2
426.499	571.28
426.875	580.32
427.251	591.85
427.627	581.45
428.003	605.86
428.379	606.54
428.756	598.85
429.132	621.23
429.507	615.8
429.883	614
430.259	615.35
430.635	609.7
431.011	610.15
431.387	625.07
431.763	647.89
432.138	644.95
432.514	627.33
432.89	645.86
433.265	653.77
433.641	690.6
434.016	698.06
434.392	684.28
434.767	687.21
435.143	664.62
435.518	694.22
435.894	674.78
436.269	698.29
436.644	678.85
437.02	677.5
437.395	717.5
437.77	705.07
438.145	739.87
438.52	714.78
438.895	761.11
439.271	749.81
439.646	757.04
440.021	774.22
440.395	728.34
440.77	745.97
441.145	767.44
441.52	758.85
441.895	758.17
442.27	771.51
442.645	762.01
443.019	783.71
443.394	787.55
443.769	798.4
444.143	770.15
444.518	813.09
444.892	808.79
445.267	773.99
445.641	828
446.016	811.05
446.39	812.41
446.764	827.32
447.139	818.28
447.513	808.79
447.887	844.27
448.262	864.84
448.636	846.53
449.01	857.38
449.384	843.14
449.758	854.67
450.132	868.45
450.506	877.94
450.88	898.28
451.254	876.81
451.628	889.02
452.002	892.63
452.376	887.89
452.75	912.97
453.123	933.99
453.497	954.1
453.871	952.52
454.244	940.31
454.618	947.09
454.992	944.16
455.365	970.14
455.739	976.92
456.112	969.01
456.486	995.45
456.859	992.06
457.232	1022.12
457.606	1043.36
457.979	1038.84
458.352	1044.04
458.725	1067.77
459.099	1079.29
459.472	1049.92
459.845	1110.48
460.218	1104.6
460.591	1112.74
460.964	1097.6
461.337	1110.03
461.71	1139.86
462.083	1153.42
462.456	1170.82
462.829	1153.42
463.201	1182.79
463.574	1204.71
463.947	1191.61
464.32	1199.74
464.692	1226.41
465.065	1235.67
465.438	1237.03
465.81	1249.46
466.183	1305.28
466.555	1309.34
466.928	1332.17
467.3	1334.65
467.672	1336.24
468.045	1381.21
468.417	1386.86
468.789	1350.25
469.161	1419.17
469.534	1420.3
469.906	1426.63
470.278	1455.78
470.65	1467.08
471.022	1472.28
471.394	1536.91
471.766	1542.33
472.138	1543.46
472.51	1560.18
472.882	1607.42
473.253	1641.54
473.625	1660.07
473.997	1673.85
474.369	1679.73
474.74	1704.14
475.112	1767.41
475.484	1790.46
475.855	1830.46
476.227	1862.55
476.598	1881.08
476.97	1895.77
477.341	1956.33
477.713	1960.85
478.084	1959.95
478.455	2024.13
478.827	2089.89
479.198	2127.18
479.569	2120.17
479.94	2184.8
480.311	2236.33
480.682	2252.6
481.053	2317.45
481.424	2395.19
481.795	2382.54
482.166	2428.18
482.537	2469.99
482.908	2530.55
483.279	2576.43
483.65	2598.12
484.021	2640.38
484.391	2716.31
484.762	2732.13
485.133	2754.73
485.503	2817.55
485.874	2908.85
486.244	2939.81
486.615	3001.28
486.985	3018.68
487.356	3093.48
487.726	3114.04
488.097	3169.86
488.467	3188.62
488.837	3263.87
489.207	3317.43
489.578	3346.8
489.948	3410.98
490.318	3455.05
490.688	3482.85
491.058	3552.9
491.428	3558.55
491.798	3678.1
492.168	3756.06
492.538	3739.56
492.908	3777.98
493.278	3808.94
493.648	3867.69
494.017	3888.94
494.387	3952.89
494.757	3999.89
495.126	4010.97
495.496	4085.09
495.866	4148.14
496.235	4167.57
496.605	4159.44
496.974	4211.41
497.344	4223.62
497.713	4272.66
498.082	4345.65
498.452	4359.21
498.821	4354.91
499.19	4369.38
499.559	4479.2
499.928	4436.72
500.298	4515.59
500.667	4533.67
501.036	4570.95
501.405	4594.46
501.774	4626.77
502.143	4646.66
502.512	4697.73
502.88	4714.9
503.249	4711.06
503.618	4749.71
503.987	4838.06
504.356	4818.86
504.724	4876.71
505.093	4859.31
505.462	4971.85
505.83	4916.03
506.199	4964.16
506.567	5041
506.936	5059.53
507.304	5052.97
507.672	5103.59
508.041	5106.08
508.409	5140.2
508.777	5137.49
509.145	5216.36
509.514	5172.29
509.882	5244.38
510.25	5232.4
510.618	5281.22
510.986	5295
511.354	5330.48
511.722	5412.97
512.09	5450.25
512.458	5420.42
512.826	5479.4
513.193	5493.87
513.561	5483.25
513.929	5502.91
514.297	5611.83
514.664	5579.74
515.032	5626.97
515.4	5676.23
515.767	5575.45
516.135	5682.79
516.502	5610.02
516.869	5747.42
517.237	5740.19
517.604	5766.85
517.972	5800.07
518.339	5835.78
518.706	5826.06
519.073	5895.21
519.44	5865.38
519.808	5904.03
520.175	5952.39
520.542	6001.42
520.909	6018.15
521.276	6025.6
521.643	6113.06
522.009	6087.75
522.376	6123
522.743	6146.28
523.11	6164.36
523.477	6288.65
523.843	6273.73
524.21	6322.55
524.577	6339.27
524.943	6383.11
525.31	6442.54
525.676	6463.33
526.043	6522.77
526.409	6510.11
526.776	6585.36
527.142	6583.33
527.508	6634.85
527.874	6687.28
528.241	6654.29
528.607	6721.86
528.973	6749.2
529.339	6723.21
529.705	6838.46
530.071	6858.8
530.437	6920.04
530.803	6955.75
531.169	6955.3
531.535	6989.65
531.901	7001.17
532.267	7017.44
532.632	7104.67
532.998	7221.73
533.364	7200.26
533.73	7193.48
534.095	7205.46
534.461	7273.93
534.826	7305.34
535.192	7325.68
535.557	7358.68
535.923	7346.7
536.288	7393.93
536.653	7425.79
537.019	7454.95
537.384	7491.78
537.749	7489.29
538.114	7441.16
538.479	7590.31
538.845	7544.66
539.21	7598.44
539.575	7623.08
539.94	7661.27
540.305	7681.61
540.67	7687.93
541.034	7790.3
541.399	7755.73
541.764	7836.18
542.129	7863.97
542.494	7870.3
542.858	7919.79
543.223	7932.22
543.587	7993.46
543.952	7984.87
544.316	8063.29
544.681	8032.33
545.045	8130.86
545.41	8173.34
545.774	8179.22
546.138	8190.52
546.503	8222.38
546.867	8236.62
547.231	8326.33
547.595	8342.83
547.959	8365.2
548.324	8387.8
548.688	8399.78
549.052	8447.69
549.416	8486.78
549.779	8422.15
550.143	8528.36
550.507	8563.84
550.871	8569.49
551.235	8641.81
551.599	8609.04
551.962	8657.17
552.326	8718.19
552.689	8719.09
553.053	8736.27
553.417	8704.86
553.78	8817.62
554.143	8848.35
554.507	8851.29
554.87	8798.19
555.234	8992.76
555.597	8926.77
555.96	9007.22
556.323	8958.18
556.686	9039.99
557.05	9057.39
557.413	9120.44
557.776	9129.7
558.139	9187.1
558.502	9169.93
558.865	9250.15
559.228	9261
559.59	9363.14
559.953	9290.83
560.316	9416.93
560.679	9322.24
561.041	9405.63
561.404	9462.35
561.767	9543.48
562.129	9486.98
562.492	9587.32
562.854	9591.84
563.217	9612.4
563.579	9674.55
563.941	9597.94
564.304	9700.08
564.666	9817.14
565.028	9830.48
565.39	9787.99
565.753	9950.47
566.115	9884.26
566.477	9925.16
566.839	10065.72
567.201	10119.96
567.563	10000.19
567.925	10076.35
568.287	10180.75
568.648	10090.13
569.01	10239.5
569.372	10334.19
569.734	10311.14
570.095	10305.49
570.457	10399.73
570.819	10349.33
571.18	10387.52
571.542	10451.02
571.903	10502.77
572.265	10599.27
572.626	10603.56
572.987	10636.56
573.349	10713.84
573.71	10766.5
574.071	10847.4
574.432	10890.11
574.794	10972.14
575.155	10989.99
575.516	11044
575.877	11163.55
576.238	11191.57
576.599	11335.52
576.96	11300.72
577.32	11435.63
577.681	11489.64
578.042	11601.73
578.403	11717.43
578.763	11742.52
579.124	11903.87
579.485	11908.39
579.845	12074.26
580.206	12135.73
580.566	12340.01
580.927	12417.07
581.287	12557.41
581.648	12646
582.008	12789.27
582.368	12902.49
582.728	13138.86
583.089	13256.15
583.449	13378.18
583.809	13619.98
584.169	13723.71
584.529	13818.17
584.889	14147.42
585.249	14314.43
585.609	14437.81
585.969	14713.96
586.329	14861.08
586.688	15034.18
587.048	15394.4
587.408	15541.74
587.768	15798.23
588.127	16032.8
588.487	16182.85
588.846	16612.9
589.206	16820.57
589.565	16871.19
589.925	17231.19
590.284	17519.54
590.643	17862.58
591.003	18085.17
591.362	18431.61
591.721	18700.53
592.08	18946.85
592.44	19276.78
592.799	19558.13
593.158	19877.67
593.517	20227.04
593.876	20446.02
594.235	20766.46
594.593	21100.46
594.952	21412.32
595.311	21684.63
595.67	22004.85
596.029	22489.35
596.387	22770.93
596.746	23063.35
597.104	23237.58
597.463	23647.97
597.822	24011.8
598.18	24278.68
598.538	24468.96
598.897	24885.22
599.255	25028.72
599.613	25731.98
599.972	25807.23
600.33	26156.83
600.688	26387.1
601.046	26686.3
601.404	27040.64
601.762	27426.62
602.12	27766.5
602.478	28168.75
602.836	28424.34
603.194	28563.32
603.552	29021.84
603.91	29162.4
604.268	29485.78
604.625	29645.1
604.983	30055.25
605.341	30082.37
605.698	30565.07
606.056	30852.97
606.413	31133.64
606.771	31669.22
607.128	31806.62
607.485	31955.77
607.843	32227.63
608.2	32640.72
608.557	32991.67
608.914	33096.3
609.272	33378.11
609.629	33556.41
609.986	34042.72
610.343	33913.46
610.7	34512.54
611.057	34571.52
611.414	34679.77
611.771	34894.68
612.127	35207.89
612.484	35443.36
612.841	35812.84
613.198	35856.91
613.554	36053.29
613.911	36362.21
614.267	36507.29
614.624	36555.2
614.98	36863.44
615.337	37121.96
615.693	37236.99
616.05	37425.46
616.406	37810.31
616.762	37775.96
617.118	37897.31
617.475	38017.08
617.831	38375.26
618.187	38491.64
618.543	38683.28
618.899	38924.4
619.255	39027.67
619.611	39076.03
619.967	39383.15
620.323	39370.26
620.678	39461.11
621.034	39599.18
621.39	39665.4
621.746	39725.51
622.101	40158.27
622.457	40057.7
622.812	40221.54
623.168	40429.9
623.523	40542.66
623.879	40793.96
624.234	40499.95
624.589	40749.21
624.945	40963.67
625.3	40910.56
625.655	40953.27
626.01	41191.91
626.365	41266.03
626.72	41219.48
627.075	41376.31
627.43	41416.09
627.785	41466.25
628.14	41526.37
628.495	41605.91
628.85	41598.68
629.205	41602.3
629.559	41794.38
629.914	41755.96
630.269	41950.31
630.623	41795.06
630.978	41797.55
631.332	41977.43
631.687	42129.51
632.041	41952.57
632.396	42085.45
632.75	42007.48
633.104	42126.35
633.459	42003.42
633.813	42173.13
634.167	42045
634.521	42183.07
634.875	42292.9
635.229	42267.59
635.583	42052.45
635.937	41976.07
636.291	42130.19
636.645	42141.94
636.999	42096.75
637.352	42195.73
637.706	41927.26
638.06	42108.95
638.413	42148.95
638.767	42042.51
639.121	42191.21
639.474	41883.42
639.828	42062.4
640.181	41952.12
640.534	42135.62
640.888	41878.67
641.241	41873.7
641.594	41997.09
641.947	42001.83
642.301	42008.84
642.654	42048.84
643.007	42065.79
643.36	41945.34
643.713	41864.44
644.066	42185.78
644.419	41852.23
644.771	41728.85
645.124	41266.49
645.477	41242.08
645.83	41018.36
646.182	40855.87
646.535	40882.77
646.888	40908.98
647.24	40781.3
647.593	41007.51
647.945	40908.08
648.298	40682.55
648.65	40727.06
649.002	40534.98
649.355	40587.41
649.707	40616.79
650.059	40813.16
650.411	41235.98
650.763	41394.17
651.115	41733.14
651.467	41574.73
651.819	41657.66
652.171	41586.48
652.523	41591.45
652.875	41424.22
653.227	41329.76
653.578	41740.6
653.93	41518.91
654.282	41429.65
654.633	41384.45
654.985	41413.83
655.337	41549.87
655.688	41494.73
656.039	41669.86
656.391	41345.35
656.742	41432.58
657.094	41509.87
657.445	41512.35
657.796	41385.13
658.147	41329.31
658.498	41328.86
658.849	41416.76
659.2	41368.4
659.551	41231.68
659.902	41449.31
660.253	41118.69
660.604	41365.69
660.955	41275.52
661.306	41311.68
661.656	41235.07
662.007	41228.07
662.358	41381.28
662.708	41264.9
663.059	41303.09
663.409	41035.98
663.76	41296.99
664.11	41240.95
664.461	41412.24
664.811	41336.99
665.161	41246.37
665.511	41145.81
665.862	41157.34
666.212	41326.6
666.562	41322.98
666.912	41198.92
667.262	41115.53
667.612	41066.72
667.962	41225.58
668.312	41080.95
668.662	41305.13
669.011	41059.03
669.361	41084.34
669.711	41184.23
670.06	41182.87
670.41	40994.4
670.76	40909.43
671.109	41150.78
671.459	40972.71
671.808	41045.7
672.157	41046.6
672.507	40736.56
672.856	40899.04
673.205	41037.11
673.554	41018.13
673.904	40802.54
674.253	41109.65
674.602	41174.28
674.951	40336.79
675.3	40304.7
675.649	40794.18
675.998	40714.41
676.346	40837.8
676.695	40890.68
677.044	40498.37
677.393	40754.63
677.741	40673.96
678.09	40537.92
678.438	40558.71
678.787	40567.75
679.135	40672.15
679.484	40443.23
679.832	40382.22
680.181	40266.96
680.529	40338.37
680.877	40454.76
681.225	40348.54
681.573	40581.98
681.922	40299.51
682.27	40147.19
682.618	40143.58
682.966	40085.05
683.314	40217.93
683.661	39913.07
684.009	39815
684.357	39887.76
684.705	39854.09
685.053	39817.03
685.4	39676.24
685.748	39576.36
686.095	39637.83
686.443	39353.77
686.79	39408.91
687.138	39472.41
687.485	39230.15
687.832	39259.53
688.18	39221.79
688.527	39144.73
688.874	39204.39
689.221	39065.41
689.568	38847.34
689.915	38720.79
690.262	38818.19
690.609	38671.07
690.956	38603.28
691.303	38626.1
691.65	38345.21
691.997	38440.57
692.344	38286.9
692.69	38149.96
693.037	38164.19
693.383	37883.75
693.73	38084.42
694.077	37800.59
694.423	37795.62
694.769	37601.5
695.116	37602.18
695.462	37547.04
695.808	37386.14
696.155	37476.75
696.501	37246.7
696.847	37189.76
697.193	37015.75
697.539	37057.78
697.885	36759.49
698.231	36763.55
698.577	36723.33
698.923	36679.49
699.269	36463.45
699.614	36425.93
699.96	36365.15
700.306	36434.97
700.651	36047.87
700.997	36112.27
701.342	36100.07
701.688	36025.72
702.033	35860.98
702.379	35887.87
702.724	35612.4
703.069	35842.45
703.415	35476.58
703.76	35362.23
704.105	35483.81
704.45	35360.88
704.795	35065.97
705.14	35053.77
705.485	35089.92
705.83	34801.12
706.175	34890.61
706.52	34795.24
706.865	34709.37
707.209	34689.48
707.554	34715.47
707.899	34636.15
708.243	34428.02
708.588	34353.45
708.932	34126.33
709.277	34115.94
709.621	34217.18
709.966	33929.5
710.31	34008.15
710.654	33780.58
710.998	33797.76
711.342	33844.99
711.687	33691.32
712.031	33546.01
712.375	33386.69
712.719	33568.38
713.063	33471.66
713.407	33505.33
713.75	33346.24
714.094	33364.77
714.438	33189.86
714.782	33124.33
715.125	33135.85
715.469	33212.91
715.812	32981.73
716.156	32790.32
716.499	33033.03
716.843	32812.7
717.186	32620.16
717.53	32774.28
717.873	32675.3
718.216	32715.75
718.559	32452.93
718.902	32260.17
719.246	32396.89
719.589	32314.4
719.932	32111.47
720.275	32175.65
720.617	32238.25
720.96	31952.15
721.303	32069.67
721.646	31964.81
721.989	31790.58
722.331	31834.42
722.674	31902.44
723.016	31873.74
723.359	31753.74
723.701	31801.2
724.044	31503.58
724.386	31320.53
724.729	31652.95
725.071	31520.53
725.413	31507.19
725.755	31513.75
726.097	31204.38
726.439	31060.43
726.782	31055
727.124	31313.53
727.465	31070.6
727.807	31150.37
728.149	31007.09
728.491	30927.1
728.833	31013.87
729.175	30902.01
729.516	30832.64
729.858	30810.49
730.199	30851.39
730.541	30707.67
730.882	30661.34
731.224	30904.72
731.565	30488.92
731.906	30650.95
732.248	30636.26
732.589	30523.94
732.93	30291.41
733.271	30326.21
733.612	30348.58
733.953	30289.37
734.294	30232.2
734.635	30098.19
734.976	30359.43
735.317	30079.44
735.658	30082.15
735.999	30062.49
736.339	30123.73
736.68	30087.8
737.021	30041.92
737.361	29864.3
737.702	29940.68
738.042	29790.4
738.383	29689.39
738.723	29823.62
739.063	29641.03
739.404	29773.91
739.744	29525.33
740.084	29610.07
740.424	29591.99
740.764	29511.77
741.104	29660.46
741.444	29450.53
741.784	29415.5
742.124	29336.86
742.464	29357.65
742.804	29278.55
743.143	29289.17
743.483	29256.86
743.823	29043.98
744.162	29042.4
744.502	29212.79
744.841	28988.39
745.181	29168.05
745.52	29032.91
745.86	29023.19
746.199	28853.7
746.538	28975.96
746.877	28995.17
747.216	28911.56
747.556	28839.47
747.895	28831.33
748.234	28735.74
748.573	28611.68
748.911	28681.96
749.25	28710.88
749.589	28535.52
749.928	28519.02
750.267	28676.08
750.605	28534.39
750.944	28382.76
751.283	28298.24
751.621	28354.73
751.96	28322.42
752.298	28302.31
752.636	28278.35
752.975	28075.87
753.313	28008.08
753.651	28145.25
753.989	27850.79
754.327	27918.59
754.666	27828.19
755.004	27770.34
755.342	27813.96
755.679	27793.85
756.017	27652.38
756.355	27775.09
756.693	27573.74
757.031	27612.83
757.368	27382.33
757.706	27455.32
758.044	27329
758.381	27256.68
758.719	27202.22
759.056	27124.26
759.394	27210.58
759.731	27003.36
760.068	26971.72
760.405	26903.7
760.743	26776.47
761.08	26689.92
761.417	26701.44
761.754	26653.08
762.091	26557.95
762.428	26501.68
762.765	26433.2
763.102	26434.33
763.438	26172.65
763.775	26186.66
764.112	26113.89
764.449	26206.32
764.785	26001.8
765.122	25862.14
765.458	25811.98
765.795	25735.14
766.131	25724.75
766.467	25705.31
766.804	25467.58
767.14	25390.74
767.476	25391.42
767.812	25302.16
768.148	25295.83
768.485	25204.31
768.821	25039.34
769.157	25020.59
769.492	24883.64
769.828	24913.92
770.164	24648.39
770.5	24654.27
770.836	24661.72
771.171	24475.74
771.507	24374.73
771.842	24254.73
772.178	24174.05
772.513	24182.19
772.849	24073.49
773.184	23983.78
773.519	24001.85
773.855	23759.6
774.19	23784.91
774.525	23676.44
774.86	23713.73
775.195	23572.49
775.53	23515.09
775.865	23428.31
776.2	23297.01
776.535	23117.36
776.87	23065.16
777.205	22965.27
777.539	22898.38
777.874	22914.65
778.209	22688.44
778.543	22705.17
778.878	22539.07
779.212	22540.88
779.547	22414.78
779.881	22426.75
780.215	22226.08
780.55	22383.82
780.884	22169.59
781.218	22165.29
781.552	22023.15
781.886	22016.82
782.22	21885.07
782.554	21832.42
782.888	21644.4
783.222	21625.19
783.556	21485.54
783.889	21338.42
784.223	21181.82
784.557	21258.42
784.89	21266.79
785.224	21179.33
785.557	21039.45
785.891	20893.46
786.224	20876.97
786.558	20838.32
786.891	20615.96
787.224	20563.53
787.557	20535.51
787.891	20466.81
788.224	20400.59
788.557	20447.37
788.89	20434.04
789.223	20453.93
789.556	20213.03
789.888	20167.38
790.221	19995.63
790.554	19942.3
790.887	19903.66
791.219	19845.13
791.552	19761.51
791.884	19690.33
792.217	19646.49
792.549	19579.15
792.882	19448.53
793.214	19417.12
793.546	19541.86
793.879	19259.38
794.211	19238.14
794.543	19253.73
794.875	19084.02
795.207	19194.3
795.539	19067.52
795.871	19073.17
796.203	18844.25
796.535	18752.73
796.867	18794.08
797.198	18628.44
797.53	18703.46
797.862	18517.25
798.193	18565.84
798.525	18442.68
798.856	18466.18
799.188	18302.12
799.519	18202.01
799.85	18147.77
800.182	18148.9
800.513	18173.53
800.844	18020.77
801.175	18012.63
801.506	18091.5
801.837	17883.37
802.168	17827.55
802.499	17799.08
802.83	17681.12
803.161	17763.37
803.491	17622.14
803.822	17568.8
804.153	17589.14
804.483	17484.74
804.814	17353.44
805.145	17299.43
805.475	17378.53
805.805	17271.18
806.136	17238.19
806.466	17227.57
806.796	17197.74
807.126	17099.21
807.457	16938.09
807.787	17038.42
808.117	16897.41
808.447	16861.03
808.777	16882.72
809.107	16728.83
809.436	16659.9
809.766	16743.29
810.096	16736.74
810.426	16516.85
810.755	16527.93
811.085	16550.07
811.414	16462.39
811.744	16297.2
812.073	16367.48
812.403	16358.67
812.732	16186.92
813.061	16191.44
813.39	16158.22
813.719	16082.97
814.049	16168.16
814.378	16126.58
814.707	16049.3
815.036	15979.69
815.365	16036.19
815.693	15783.09
816.022	15824.22
816.351	15854.72
816.68	15648.18
817.008	15736.08
817.337	15614.05
817.665	15528.18
817.994	15685.92
818.322	15609.76
818.651	15502.87
818.979	15443.66
819.307	15525.24
819.636	15546.26
819.964	15352.14
820.292	15512.36
820.62	15421.52
820.948	15320.5
821.276	15355.98
821.604	15304.23
821.932	15361.4
822.259	15349.43
822.587	15250.9
822.915	15272.14
823.243	15298.81
823.57	15289.54
823.898	15266.49
824.225	15202.09
824.553	15210
824.88	15198.7
825.207	15268.98
825.535	15285.02
825.862	15297.9
826.189	15183.56
826.516	15253.16
826.843	15226.94
827.17	15291.35
827.497	15255.19
827.824	15212.03
828.151	15134.74
828.478	15261.29
828.805	15244.8
829.131	15116.44
829.458	15140.84
829.785	15124.8
830.111	15205.02
830.438	15104.46
830.764	15136.33
831.09	15252.03
831.417	15028.53
831.743	15265.81
832.069	15216.1
832.395	15062.88
832.722	15065.59
833.048	15105.59
833.374	15140.17
833.7	15014.75
834.026	15042.99
834.351	15073.95
834.677	15024.69
835.003	15006.84
835.329	15065.37
835.654	14964.13
835.98	14938.82
836.306	14906.73
836.631	14936.56
836.956	14917.57
837.282	14909.66
837.607	14871.47
837.932	14795.09
838.258	14871.25
838.583	14835.54
838.908	14705.6
839.233	14729.1
839.558	14694.98
839.883	14590.58
840.208	14621.99
840.533	14610.01
840.858	14631.03
841.182	14657.69
841.507	14561.88
841.832	14541.31
842.156	14498.83
842.481	14509.22
842.805	14409.79
843.13	14411.82
843.454	14371.83
843.778	14261.09
844.103	14308.1
844.427	14160.53
844.751	14186.52
845.075	14203.24
845.399	14189.23
845.723	14044.83
846.047	14109.23
846.371	14017.26
846.695	13951.95
847.019	13825.63
847.343	13808.22
847.666	13633.31
847.99	13677.83
848.313	13652.75
848.637	13515.12
848.96	13581.56
849.284	13540.89
849.607	13337.5
849.931	13446.2
850.254	13337.05
850.577	13189.48
850.9	13180.44
851.223	13245.75
851.546	13105.64
851.869	12979.32
852.192	13081.92
852.515	12845.76
852.838	12881.47
853.161	12835.14
853.483	12749.5
853.806	12785.2
854.129	12747.24
854.451	12650.51
854.774	12607.8
855.096	12575.71
855.419	12532.33
855.741	12489.62
856.063	12443.29
856.385	12450.29
856.708	12387.7
857.03	12318.32
857.352	12328.04
857.674	12283.97
857.996	12229.51
858.318	12085.33
858.64	12166.01
858.961	12135.5
859.283	12090.08
859.605	12037.88
859.926	12092.79
860.248	12045.56
860.57	11955.62
860.891	11986.35
861.212	11883.53
861.534	11873.81
861.855	11866.35
862.176	11770.54
862.498	11836.07
862.819	11794.04
863.14	11693.03
863.461	11740.71
863.782	11692.35
864.103	11668.85
864.424	11655.74
864.745	11687.83
865.065	11667.49
865.386	11565.12
865.707	11634.72
866.027	11600.82
866.348	11531.9
866.668	11568.96
866.989	11508.4
867.309	11419.36
867.63	11481.96
867.95	11439.7
868.27	11422.07
868.59	11336.88
868.91	11359.25
869.23	11300.27
869.55	11335.3
869.87	11369.42
870.19	11364.67
870.51	11334.17
870.83	11278.12
871.15	11264.34
871.469	11231.12
871.789	11186.82
872.109	11213.94
872.428	11071.8
872.748	11177.56
873.067	11149.54
873.386	11134.17
873.706	11077.22
874.025	11015.3
874.344	10968.98
874.663	11090.33
874.982	10997
875.301	11013.72
875.62	10954.97
875.939	10959.03
876.258	10918.58
876.577	10856.21
876.896	10826.83
877.214	10908.64
877.533	10888.3
877.852	10864.57
878.17	10842.88
878.489	10867.28
878.807	10836.55
879.125	10739.15
879.444	10786.61
879.762	10691.7
880.08	10751.81
880.398	10644.92
880.716	10725.37
881.034	10664.35
881.352	10684.92
881.67	10661.19
881.988	10583.22
882.306	10587.52
882.624	10571.93
882.941	10521.53
883.259	10458.48
883.577	10467.07
883.894	10492.83
884.212	10419.39
884.529	10413.06
884.846	10393.4
885.164	10305.27
885.481	10407.41
885.798	10281.99
886.115	10252.39
886.432	10253.74
886.75	10232.05
887.067	10260.3
887.383	10136.68
887.7	10199.05
888.017	10171.48
888.334	10149.79
888.651	10112.5
888.967	10049.91
889.284	10041.77
889.6	9971.72
889.917	9948.21
890.233	9999.74
890.55	9865.73
890.866	9918.38
891.182	9789.57
891.498	9836.58
891.815	9820.98
892.131	9787.31
892.447	9744.83
892.763	9733.98
893.079	9714.32
893.395	9640.2
893.71	9654.89
894.026	9593.87
894.342	9613.08
894.657	9487.89
894.973	9542.35
895.289	9499.19
895.604	9459.19
895.92	9397.49
896.235	9341
896.55	9331.73
896.865	9348.68
897.181	9274.11
897.496	9291.06
897.811	9189.59
898.126	9218.97
898.441	9165.41
898.756	9203.83
899.071	9076.6
899.386	9119.53
899.7	8981.46
900.015	9004.06
900.33	8934.91
900.644	8938.75
900.959	8964.74
901.273	8951.4
901.588	8897.85
901.902	8870.95
902.216	8778.75
902.531	8755.48
902.845	8746.89
903.159	8715.48
903.473	8659.43
903.787	8638.19
904.101	8657.63
904.415	8578.53
904.729	8578.08
905.042	8477.74
905.356	8489.49
905.67	8491.98
905.984	8485.43
906.297	8436.39
906.611	8326.79
906.924	8394.36
907.237	8352.77
907.551	8303.96
907.864	8236.85
908.177	8212.67
908.491	8141.71
908.804	8148.03
909.117	8067.36
909.43	8023.97
909.743	7997.98
910.056	7916.85
910.368	7969.06
910.681	7913.92
910.994	7901.04
911.307	7918.21
911.619	7815.61
911.932	7841.83
912.244	7783.52
912.557	7787.37
912.869	7731.55
913.181	7742.62
913.494	7671.66
913.806	7606.58
914.118	7622.17
914.43	7565
914.742	7533.81
915.054	7508.28
915.366	7453.14
915.678	7423.08
915.99	7422.18
916.302	7319.58
916.613	7382.63
916.925	7376.76
917.236	7312.8
917.548	7208.17
917.859	7298.57
918.171	7183.99
918.482	7085.46
918.794	7149.87
919.105	7171.11
919.416	7132.47
919.727	7024.22
920.038	7039.36
920.349	6995.3
920.66	6948.52
920.971	6950.78
921.282	6925.24
921.593	6852.93
921.903	6848.86
922.214	6826.49
922.525	6791.91
922.835	6773.16
923.146	6733.83
923.456	6739.71
923.767	6725.7
924.077	6607.06
924.387	6621.52
924.697	6546.49
925.008	6502.2
925.318	6489.32
925.628	6468.3
925.938	6458.59
926.248	6461.07
926.558	6434.86
926.867	6352.83
927.177	6357.35
927.487	6324.35
927.796	6262.21
928.106	6271.7
928.416	6237.12
928.725	6219.05
929.034	6196.9
929.344	6250.91
929.653	6149.44
929.962	6073.29
930.271	6075.32
930.581	6049.78
930.89	6040.07
931.199	6026.06
931.508	5952.39
931.817	5975.66
932.125	5953.29
932.434	5931.82
932.743	5900.41
933.051	5862.9
933.36	5811.6
933.669	5774.54
933.977	5765.27
934.286	5770.7
934.594	5712.39
934.902	5691.15
935.21	5670.59
935.519	5645.05
935.827	5637.82
936.135	5606.18
936.443	5583.81
936.751	5555.11
937.059	5565.05
937.367	5521.21
937.674	5527.09
937.982	5438.28
938.29	5481.44
938.597	5437.15
938.905	5361.44
939.213	5340.88
939.52	5326.41
939.827	5336.13
940.135	5298.17
940.442	5252.29
940.749	5287.32
941.056	5237.83
941.363	5204.38
941.67	5176.59
941.977	5171.39
942.284	5108.79
942.591	5150.37
942.898	5129.36
943.205	5081.9
943.511	5059.08
943.818	5101.56
944.125	5055.69
944.431	5005.74
944.738	4970.26
945.044	4972.75
945.35	4928.01
945.657	4917.61
945.963	4904.96
946.269	4867.89
946.575	4842.13
946.881	4856.37
947.187	4830.83
947.493	4798.74
947.799	4780.89
948.105	4759.87
948.41	4728.24
948.716	4730.5
949.022	4712.19
949.327	4674.45
949.633	4587.68
949.938	4613.21
950.244	4582.25
950.549	4547.68
950.854	4556.04
951.16	4518.07
951.465	4516.04
951.77	4540.9
952.075	4469.71
952.38	4455.02
952.685	4443.05
952.99	4387
953.294	4370.73
953.599	4398.08
953.904	4325.08
954.209	4316.04
954.513	4307.46
954.818	4312.88
955.122	4306.1
955.426	4266.55
955.731	4229.95
956.035	4194.01
956.339	4218.87
956.643	4204.86
956.948	4134.35
957.252	4156.27
957.556	4149.04
957.86	4118.99
958.163	4097.29
958.467	4056.39
958.771	4085.99
959.075	4112.21
959.378	4035.15
959.682	4013.68
959.985	3980.91
960.289	3997.18
960.592	3970.29
960.896	3915.15
961.199	3944.3
961.502	3924.64
961.805	3904.3
962.108	3852.1
962.411	3863.4
962.714	3864.08
963.017	3835.38
963.32	3829.05
963.623	3799
963.926	3787.92
964.228	3742.73
964.531	3756.06
964.833	3722.39
965.136	3708.15
965.438	3680.13
965.741	3671.09
966.043	3679.68
966.345	3665.21
966.648	3613.01
966.95	3599.23
967.252	3609.62
967.554	3589.96
967.856	3559.91
968.158	3516.52
968.46	3513.81
968.761	3490.3
969.063	3518.1
969.365	3515.61
969.666	3501.15
969.968	3442.85
970.269	3455.05
970.571	3435.62
970.872	3407.14
971.174	3405.33
971.475	3349.29
971.776	3357.65
972.077	3348.39
972.378	3322.4
972.679	3353.36
972.98	3360.59
973.281	3290.76
973.582	3282.4
973.883	3293.25
974.183	3287.82
974.484	3236.3
974.785	3229.52
975.085	3230.2
975.386	3205.57
975.686	3166.02
975.986	3173.93
976.287	3135.51
976.587	3175.51
976.887	3111.1
977.187	3134.61
977.487	3114.27
977.787	3104.78
978.087	3077.21
978.387	3068.39
978.687	3036.98
978.987	3051.67
979.286	3042.63
979.586	2993.14
979.885	2968.74
980.185	2976.87
980.484	2951.11
980.784	2944.56
981.083	2937.55
981.382	2946.59
981.682	2901.17
981.981	2900.94
982.28	2915.18
982.579	2876.31
982.878	2845.8
983.177	2820.49
983.475	2813.71
983.774	2818.68
984.073	2802.64
984.372	2792.47
984.67	2742.3
984.969	2787.72
985.267	2746.37
985.566	2746.59
985.864	2718.8
986.162	2756.31
986.461	2706.37
986.759	2700.95
987.057	2684.9
987.355	2688.29
987.653	2648.74
987.951	2657.78
988.249	2627.95
988.547	2659.59
988.844	2597.9
989.142	2587.73
989.44	2572.81
989.737	2560.84
990.035	2554.06
990.332	2567.39
990.63	2535.98
990.927	2536.2
991.224	2530.33
991.521	2504.57
991.819	2489.2
992.116	2503.89
992.413	2469.99
992.71	2460.27
993.006	2474.74
993.303	2427.96
993.6	2436.77
993.897	2421.41
994.193	2385.47
994.49	2397.9
994.787	2423.89
995.083	2365.36
995.379	2352.03
995.676	2369.43
995.972	2316.55
996.268	2338.7
996.565	2322.65
996.861	2314.29
997.157	2288.08
997.453	2286.95
997.749	2265.93
998.044	2274.29
998.34	2256.44
998.636	2225.93
998.932	2257.12
999.227	2230.68
999.523	2177.12
999.818	2179.15
1000.114	2157.01
1000.409	2147.06
1000.704	2178.7
1001	2135.76
1001.295	2111.58
1001.59	2113.84
1001.885	2107.97
1002.18	2074.97
1002.475	2091.47
1002.77	2106.16
1003.065	2024.35
1003.359	2046.73
1003.654	2067.97
1003.949	2073.84
1004.243	2019.16
1004.538	2000.85
1004.832	2004.02
1005.127	2029.78
1005.421	1964.92
1005.715	2003.34
1006.009	1964.92
1006.304	1938.93
1006.598	1921.53
1006.892	1891.93
1007.186	1954.52
1007.48	1886.28
1007.773	1894.64
1008.067	1889.22
1008.361	1863
1008.655	1867.75
1008.948	1811.03
1009.242	1819.84
1009.535	1840.18
1009.829	1826.17
1010.122	1816
1010.415	1786.62
1010.708	1766.06
1011.001	1788.43
1011.295	1778.48
1011.588	1753.17
1011.881	1732.38
1012.173	1758.15
1012.466	1748.2
1012.759	1730.12
1013.052	1702.33
1013.344	1721.54
1013.637	1691.25
1013.93	1693.29
1014.222	1686.06
1014.514	1651.93
1014.807	1666.4
1015.099	1641.09
1015.391	1659.84
1015.683	1618.04
1015.976	1620.97
1016.268	1600.86
1016.56	1588.21
1016.851	1604.93
1017.143	1573.07
1017.435	1558.15
1017.727	1567.64
1018.018	1528.1
1018.31	1523.35
1018.602	1525.16
1018.893	1497.14
1019.185	1503.92
1019.476	1467.08
1019.767	1489.45
1020.058	1485.84
1020.35	1478.61
1020.641	1454.43
1020.932	1456.46
1021.223	1436.8
1021.514	1427.76
1021.804	1428.66
1022.095	1407.19
1022.386	1386.63
1022.677	1368.1
1022.967	1361.55
1023.258	1357.7
1023.548	1367.2
1023.839	1330.13
1024.129	1335.56
1024.419	1338.72
1024.709	1324.48
1025	1314.09
1025.29	1309.8
1025.58	1315.9
1025.87	1292.62
1026.16	1302.79
1026.449	1275.67
1026.739	1270.02
1027.029	1256.92
1027.319	1245.84
1027.608	1233.41
1027.898	1248.1
1028.187	1221.21
1028.477	1195.45
1028.766	1197.93
1029.055	1235.9
1029.344	1186.64
1029.634	1197.93
1029.923	1178.95
1030.212	1155.22
1030.501	1163.59
1030.79	1150.93
1031.078	1136.24
1031.367	1164.26
1031.656	1116.58
1031.945	1137.37
1032.233	1101.89
1032.522	1115.45
1032.81	1096.69
1033.099	1099.41
1033.387	1074.77
1033.675	1047.88
1033.963	1051.95
1034.251	1078.84
1034.54	1057.15
1034.828	1052.4
1035.116	1058.28
1035.403	1037.26
1035.691	1039.52
1035.979	1042.46
1036.267	1006.3
1036.554	1047.2
1036.842	1011.27
1037.129	981.44
1037.417	989.13
1037.704	996.13
1037.992	961.56
1038.279	973.53
1038.566	985.06
1038.853	985.06
1039.14	985.06
