Data from hue_24_FLMS001491_00029.txt Node
Date: Tue Feb 07 17:12:03 GMT 2017
User: dcchb
Spectrometer: FLMS00149
Trigger mode: 0
Integration Time (sec): 2.000000E-2
Scans to average: 10
Electric dark correction enabled: true
Nonlinearity correction enabled: false
Boxcar width: 0
XAxis mode: Wavelengths
Number of Pixels in Spectrum: 2048
>>>>>Begin Spectral Data<<<<<
341.393	-3.3
341.776	-3.3
342.16	-3.3
342.543	-72.68
342.927	-49.18
343.31	-72.68
343.693	-55.28
344.077	-67.48
344.46	-76.07
344.843	-55.51
345.226	-57.99
345.61	-31.1
345.993	-6.24
346.376	3.25
346.759	5.06
347.142	28.33
347.525	51.38
347.908	63.13
348.291	61.1
348.674	102.45
349.057	107.65
349.44	123.92
349.823	141.32
350.206	156.69
350.588	194.43
350.971	217.03
351.354	221.32
351.737	250.7
352.119	251.83
352.502	247.76
352.884	280.76
353.267	267.2
353.65	285.05
354.032	306.07
354.414	280.08
354.797	301.09
355.179	323.47
355.562	317.82
355.944	310.59
356.326	324.6
356.709	330.92
357.091	324.37
357.473	337.25
357.855	350.58
358.238	323.92
358.62	334.54
359.002	344.26
359.384	329.12
359.766	338.83
360.148	328.21
360.53	314.88
360.912	343.58
361.294	324.6
361.676	350.58
362.057	334.09
362.439	342.9
362.821	351.71
363.203	317.82
363.584	304.26
363.966	316.01
364.348	326.63
364.729	310.59
365.111	324.37
365.493	316.46
365.874	316.69
366.256	322.79
366.637	325.73
367.019	322.11
367.4	311.71
367.781	330.02
368.163	323.24
368.544	325.5
368.925	302
369.306	336.35
369.688	310.81
370.069	329.34
370.45	334.77
370.831	333.18
371.212	315.1
371.593	326.18
371.974	324.6
372.355	312.62
372.736	292.51
373.117	315.78
373.498	334.09
373.879	330.02
374.26	297.48
374.641	298.38
375.021	315.1
375.402	334.77
375.783	344.03
376.163	324.6
376.544	323.69
376.925	315.1
377.305	330.7
377.686	326.18
378.066	341.77
378.447	326.4
378.827	321.43
379.208	337.25
379.588	322.34
379.968	316.69
380.349	323.47
380.729	337.7
381.109	339.96
381.489	356.69
381.87	350.81
382.25	332.51
382.63	335.9
383.01	369.57
383.39	339.28
383.77	341.77
384.15	355.56
384.53	336.57
384.91	362.11
385.29	364.14
385.67	362.11
386.049	356.69
386.429	344.71
386.809	349.91
387.189	367.08
387.568	368.66
387.948	343.8
388.328	363.01
388.707	356.23
389.087	379.06
389.466	378.38
389.846	364.37
390.225	356.91
390.605	361.66
390.984	360.98
391.363	373.86
391.743	358.27
392.122	367.76
392.501	368.21
392.881	389.91
393.26	384.93
393.639	389
394.018	373.86
394.397	375.89
394.776	389.45
395.155	370.02
395.534	390.81
395.913	390.81
396.292	376.57
396.671	393.52
397.05	405.95
397.429	368.66
397.808	390.36
398.186	392.16
398.565	393.52
398.944	405.27
399.323	415.44
399.701	403.69
400.08	411.83
400.458	418.38
400.837	415.44
401.215	413.41
401.594	395.78
401.972	425.61
402.351	414.99
402.729	412.5
403.107	412.05
403.486	410.92
403.864	408.89
404.242	421.54
404.62	427.64
404.999	416.57
405.377	404.59
405.755	433.97
406.133	427.42
406.511	432.62
406.889	425.61
407.267	453.18
407.645	447.53
408.023	429.9
408.401	437.14
408.779	451.6
409.156	446.85
409.534	458.83
409.912	450.47
410.29	456.57
410.667	480.07
411.045	437.81
411.422	471.71
411.8	459.06
412.178	473.97
412.555	462.22
412.933	477.13
413.31	492.5
413.687	495.44
414.065	493.86
414.442	483.46
414.819	469.45
415.197	504.48
415.574	483.46
415.951	494.31
416.328	492.28
416.705	522.1
417.082	517.81
417.46	508.09
417.837	503.35
418.214	521.65
418.591	510.81
418.967	507.87
419.344	513.29
419.721	531.6
420.098	525.27
420.475	534.99
420.852	538.15
421.228	553.52
421.605	551.71
421.982	558.71
422.358	538.15
422.735	534.99
423.111	531.14
423.488	578.6
423.864	542.67
424.241	562.56
424.617	588.77
424.994	590.8
425.37	585.15
425.746	585.15
426.123	579.05
426.499	568.66
426.875	603.23
427.251	593.74
427.627	585.38
428.003	596.45
428.379	606.17
428.756	611.82
429.132	608.88
429.507	632.38
429.883	653.85
430.259	623.8
430.635	628.09
431.011	624.93
431.387	651.59
431.763	665.83
432.138	663.8
432.514	663.57
432.89	662.21
433.265	677.13
433.641	686.39
434.016	657.02
434.392	678.71
434.767	698.82
435.143	695.43
435.518	719.61
435.894	686.85
436.269	707.64
436.644	716
437.02	761.19
437.395	734.08
437.77	746.96
438.145	744.7
438.52	746.51
438.895	726.85
439.271	769.1
439.646	767.97
440.021	777.47
440.395	781.31
440.77	774.3
441.145	786.73
441.52	794.64
441.895	799.61
442.27	794.19
442.645	814.53
443.019	797.8
443.394	804.81
443.769	813.17
444.143	814.53
444.518	796.22
444.892	835.09
445.267	812.27
445.641	839.38
446.016	838.48
446.39	861.53
446.764	838.93
447.139	867.86
447.513	857.24
447.887	872.83
448.262	860.85
448.636	885.71
449.01	883.45
449.384	851.59
449.758	888.2
450.132	900.17
450.506	895.43
450.88	897.46
451.254	911.02
451.628	908.54
452.002	930.91
452.376	918.25
452.75	930.46
453.123	944.24
453.497	966.61
453.871	965.03
454.244	946.5
454.618	989.66
454.992	996.89
455.365	997.8
455.739	1001.19
456.112	1034.41
456.486	1022.88
456.859	1030.34
457.232	1080.73
457.606	1045.03
457.979	1064.92
458.352	1072.82
458.725	1075.99
459.099	1106.04
459.472	1127.06
459.845	1123.45
460.218	1116.21
460.591	1151.92
460.964	1165.7
461.337	1178.81
461.71	1181.75
462.083	1215.42
462.456	1231.01
462.829	1215.19
463.201	1210.9
463.574	1209.09
463.947	1254.29
464.32	1268.98
464.692	1261.07
465.065	1290.9
465.438	1288.19
465.81	1310.56
466.183	1326.15
466.555	1356.43
466.928	1359.6
467.3	1353.04
467.672	1385.59
468.045	1422.65
468.417	1412.93
468.789	1428.52
469.161	1440.05
469.534	1521.4
469.906	1528.41
470.278	1535.64
470.65	1520.95
471.022	1557.78
471.394	1602.08
471.766	1599.59
472.138	1608.18
472.51	1636.2
472.882	1661.28
473.253	1696.99
473.625	1704.9
473.997	1755.52
474.369	1754.39
474.74	1789.64
475.112	1824.67
475.484	1852.24
475.855	1887.04
476.227	1900.15
476.598	1936.76
476.97	1991.67
477.341	2001.39
477.713	2074.83
478.084	2098.33
478.455	2157.32
478.827	2184.21
479.198	2231.66
479.569	2226.69
479.94	2284.54
480.311	2330.42
480.682	2370.64
481.053	2441.15
481.424	2460.13
481.795	2506.01
482.166	2526.57
482.537	2633.91
482.908	2636.85
483.279	2700.35
483.65	2764.31
484.021	2751.2
484.391	2812.44
484.762	2860.8
485.133	2897.64
485.503	2923.62
485.874	3003.4
486.244	3028.93
486.615	3119.32
486.985	3155.93
487.356	3217.4
487.726	3275.03
488.097	3323.61
488.467	3355.02
488.837	3401.13
489.207	3511.86
489.578	3526.09
489.948	3562.48
490.318	3638.18
490.688	3675.47
491.058	3741
491.428	3816.48
491.798	3802.02
492.168	3864.62
492.538	3908
492.908	3968.34
493.278	4072.52
493.648	4096.93
494.017	4116.13
494.387	4192.97
494.757	4156.13
495.126	4233.19
495.496	4256.02
495.866	4310.48
496.235	4344.15
496.605	4391.38
496.974	4437.26
497.344	4441.1
497.713	4526.52
498.082	4448.1
498.452	4539.17
498.821	4587.08
499.19	4625.73
499.559	4679.74
499.928	4724.25
500.298	4752.05
500.667	4813.07
501.036	4778.04
501.405	4830.47
501.774	4904.14
502.143	4943.46
502.512	4942.78
502.88	4947.98
503.249	4937.13
503.618	5000.18
503.987	5033.17
504.356	5107.75
504.724	5126.28
505.093	5140.29
505.462	5119.05
505.83	5155.43
506.199	5245.82
506.567	5270.68
506.936	5320.4
507.304	5366.05
507.672	5409.43
508.041	5401.07
508.409	5416.44
508.777	5476.32
509.145	5519.71
509.514	5488.3
509.882	5536.66
510.25	5548.19
510.618	5575.98
510.986	5572.59
511.354	5678.35
511.722	5611.91
512.09	5747.73
512.458	5717
512.826	5785.02
513.193	5762.87
513.561	5811.68
513.929	5830.89
514.297	5865.24
514.664	5905.92
515.032	5923.32
515.4	5972.13
515.767	6033.6
516.135	6046.03
516.502	5963.32
516.869	6069.3
517.237	6067.27
517.604	6108.17
517.972	6120.15
518.339	6114.95
518.706	6145.23
519.073	6191.56
519.44	6211.22
519.808	6236.76
520.175	6284.67
520.542	6292.35
520.909	6373.93
521.276	6381.39
521.643	6445.56
522.009	6487.15
522.376	6536.41
522.743	6543.64
523.11	6559.46
523.477	6624.54
523.843	6638.1
524.21	6652.57
524.577	6753.81
524.943	6774.82
525.31	6799.68
525.676	6856.85
526.043	6852.79
526.409	6926
526.776	6949.73
527.142	7001.71
527.508	7051.88
527.874	7109.05
528.241	7089.39
528.607	7114.47
528.973	7188.14
529.339	7166.68
529.705	7250.29
530.071	7306.11
530.437	7323.51
530.803	7351.08
531.169	7439.66
531.535	7381.81
531.901	7498.42
532.267	7534.58
532.632	7502.49
532.998	7525.31
533.364	7552.88
533.73	7577.06
534.095	7667.68
534.461	7694.35
534.826	7806.43
535.192	7747.23
535.557	7809.6
535.923	7865.19
536.288	7886.66
536.653	7907.22
537.019	7923.72
537.384	7886.66
537.749	7930.27
538.114	7936.37
538.479	8006.88
538.845	8059.31
539.21	8110.15
539.575	8192.64
539.94	8149.7
540.305	8216.59
540.67	8193.99
541.034	8231.73
541.399	8303.6
541.764	8277.61
542.129	8331.39
542.494	8337.27
542.858	8415.23
543.223	8408.23
543.587	8502.69
543.952	8504.04
544.316	8527.32
544.681	8514.44
545.045	8565.74
545.41	8714.66
545.774	8685.28
546.138	8692.06
546.503	8744.49
546.867	8707.65
547.231	8783.58
547.595	8829.01
547.959	8835.78
548.324	8869.91
548.688	8906.74
549.052	8910.58
549.416	8906.07
549.779	9007.08
550.143	9005.5
550.507	9050.24
550.871	9056.12
551.235	9151.71
551.599	9159.84
551.962	9172.72
552.326	9179.05
552.689	9291.82
553.053	9226.51
553.417	9291.14
553.78	9389.89
554.143	9345.83
554.507	9376.34
554.87	9417.69
555.234	9543.79
555.597	9478.03
555.96	9471.93
556.323	9494.3
556.686	9507.41
557.05	9555.54
557.413	9574.75
557.776	9643
558.139	9687.29
558.502	9765.48
558.865	9767.96
559.228	9780.62
559.59	9866.94
559.953	9882.54
560.316	9955.53
560.679	10003.21
561.041	10018.58
561.404	10059.71
561.767	10078.24
562.129	10065.13
562.492	10111.01
562.854	10106.03
563.217	10169.08
563.579	10226.48
563.941	10262.19
564.304	10261.51
564.666	10400.94
565.028	10372.92
565.39	10377.89
565.753	10480.49
566.115	10480.26
566.477	10563.65
566.839	10578.34
567.201	10616.3
567.563	10635.74
567.925	10724.77
568.287	10770.2
568.648	10790.31
569.01	10857.88
569.372	10856.3
569.734	10849.29
570.095	10963.64
570.457	10949.4
570.819	11048.38
571.18	10990.3
571.542	11086.8
571.903	11156.85
572.265	11207.93
572.626	11212.67
572.987	11296.28
573.349	11296.96
573.71	11403.4
574.071	11482.27
574.432	11454.92
574.794	11667.12
575.155	11667.8
575.516	11657.18
575.877	11699.44
576.238	11864.18
576.599	12008.13
576.96	12040.9
577.32	12008.81
577.681	12156.6
578.042	12271.63
578.403	12305.98
578.763	12386.2
579.124	12505.29
579.485	12575.35
579.845	12786.42
580.206	12851.72
580.566	12946.19
580.927	13079.97
581.287	13173.3
581.648	13322.45
582.008	13523.8
582.368	13592.5
582.728	13809.44
583.089	13877.23
583.449	13981.64
583.809	14206.26
584.169	14382.53
584.529	14547.95
584.889	14808.73
585.249	14834.27
585.609	15055.96
585.969	15347.48
586.329	15500.69
586.688	15729.61
587.048	15950.17
587.408	16171.18
587.768	16292.99
588.127	16581.34
588.487	16779.76
588.846	17183.36
589.206	17256.13
589.565	17449.57
589.925	17844.36
590.284	18079.61
590.643	18350.34
591.003	18682.31
591.362	18946.25
591.721	19236.42
592.08	19408.61
592.44	19780.58
592.799	20098.77
593.158	20308.25
593.517	20699.88
593.876	21017.16
594.235	21075.69
594.593	21527.65
594.952	21903.69
595.311	22060.52
595.67	22433.39
596.029	22943.66
596.387	23153.83
596.746	23414.38
597.104	23687.82
597.463	24013.24
597.822	24378.65
598.18	24536.16
598.538	24850.73
598.897	25399.42
599.255	25438.06
599.613	26137.25
599.972	26081.43
600.33	26528.88
600.688	26729.1
601.046	27179.03
601.404	27507.38
601.762	27774.95
602.12	28131.55
602.478	28391.2
602.836	28733.79
603.194	28880.46
603.552	29171.97
603.91	29368.58
604.268	29850.83
604.625	29968.11
604.983	30309.34
605.341	30550.69
605.698	30890.57
606.056	31143.9
606.413	31353.16
606.771	31745.24
607.128	32019.13
607.485	32027.72
607.843	32351.55
608.2	32758.09
608.557	32956.05
608.914	33193.79
609.272	33542.03
609.629	33884.62
609.986	34188.56
610.343	34178.17
610.7	34639.63
611.057	34706.74
611.414	35014.76
611.771	35245.71
612.127	35468.3
612.484	35682.76
612.841	35946.26
613.198	36002.75
613.554	36243.43
613.911	36697.88
614.267	36697.42
614.624	36959.34
614.98	37052.22
615.337	37341.93
615.693	37439.55
616.05	37527.01
616.406	37929.26
616.762	37944.4
617.118	37948.01
617.475	38090.83
617.831	38453.99
618.187	38591.61
618.543	38819.4
618.899	39009.68
619.255	39152.73
619.611	39282.89
619.967	39413.06
620.323	39577.58
620.678	39563.56
621.034	39641.53
621.39	39642.88
621.746	39708.19
622.101	40460.26
622.457	39994.74
622.812	40278.57
623.168	40514.5
623.523	40543.65
623.879	40706.81
624.234	40685.57
624.589	40858.45
624.945	40916.97
625.3	41066.12
625.655	41059.34
626.01	41206.91
626.365	41393.57
626.72	41388.38
627.075	41417.3
627.43	41509.5
627.785	41435.38
628.14	41535.49
628.495	41599.67
628.85	41704.75
629.205	41641.93
629.559	41868.14
629.914	41867.46
630.269	41857.52
630.623	41815.71
630.978	41796.27
631.332	42049.15
631.687	42150.84
632.041	42046.89
632.396	42102.93
632.75	42109.94
633.104	42155.59
633.459	42006.66
633.813	42036.49
634.167	41990.85
634.521	42106.32
634.875	42109.71
635.229	42263.38
635.583	41941.35
635.937	42147.68
636.291	42222.25
636.645	42135.7
636.999	42088.02
637.352	42274
637.706	42061.13
638.06	42203.49
638.413	42139.77
638.767	41939.77
639.121	42263.61
639.474	41927.57
639.828	41870.62
640.181	41975.7
640.534	42149.03
640.888	41989.94
641.241	41845.54
641.594	42030.17
641.947	42068.58
642.301	41941.58
642.654	41962.15
643.007	42137.51
643.36	41869.04
643.713	41943.61
644.066	42054.35
644.419	41925.99
644.771	41673.79
645.124	41283.97
645.477	41171.66
645.83	41098.21
646.182	40886.02
646.535	40772.35
646.888	41125.11
647.24	40699.58
647.593	40909.52
647.945	40759.47
648.298	40673.14
648.65	40617.55
649.002	40461.17
649.355	40914.04
649.707	40708.39
650.059	40874.04
650.411	41275.84
650.763	41396.51
651.115	41754.47
651.467	41637.18
651.819	41444.19
652.171	41467.69
652.523	41371.88
652.875	41510.41
653.227	41431.09
653.578	41700.68
653.93	41616.62
654.282	41248.72
654.633	41264.54
654.985	41308.83
655.337	41382.5
655.688	41367.81
656.039	41557.41
656.391	41136.86
656.742	41323.52
657.094	41262.05
657.445	41370.97
657.796	41358.09
658.147	41294.37
658.498	41147.03
658.849	41374.59
659.2	41363.06
659.551	41092.34
659.902	41317.42
660.253	41187.48
660.604	41344.99
660.955	41183.86
661.306	41418.66
661.656	41186.12
662.007	41165.1
662.358	41215.5
662.708	41191.09
663.059	41154.03
663.409	40989.74
663.76	41200.58
664.11	41299.34
664.461	41265.67
664.811	41195.39
665.161	41168.49
665.511	41123.07
665.862	41160.13
666.212	41176.86
666.562	41280.81
666.912	41129.17
667.262	41150.42
667.612	41205.33
667.962	41088.72
668.312	40993.13
668.662	41189.06
669.011	41142.96
669.361	41025.45
669.711	41104.09
670.06	40930.08
670.41	40871.55
670.76	41012.79
671.109	41077.42
671.459	41019.35
671.808	40878.11
672.157	40987.93
672.507	40738.9
672.856	40734.38
673.205	40917.43
673.554	40999.91
673.904	40776.87
674.253	40922.62
674.602	40895.73
674.951	40366.48
675.3	40151.12
675.649	40842.4
675.998	40715.17
676.346	40765.79
676.695	40850.76
677.044	40592.01
677.393	40718.79
677.741	40846.24
678.09	40593.82
678.438	40462.07
678.787	40606.7
679.135	40649.64
679.484	40373.49
679.832	40565.12
680.181	40271.57
680.529	40534.39
680.877	40275.86
681.225	40328.97
681.573	40458.91
681.922	40286.48
682.27	40126.94
682.618	40111.8
682.966	39971.24
683.314	40166.94
683.661	40101.18
684.009	39684.69
684.357	39651.47
684.705	39703
685.053	39665.26
685.4	39732.15
685.748	39460.06
686.095	39375.09
686.443	39370.12
686.79	39326.51
687.138	39405.83
687.485	39325.38
687.832	39295.77
688.18	39195.21
688.527	39112.95
688.874	38924.03
689.221	38878.38
689.568	38783.25
689.915	38796.58
690.262	38844.94
690.609	38633.65
690.956	38577.6
691.303	38480.88
691.65	38399.75
691.997	38413.09
692.344	38016.49
692.69	38074.79
693.037	38095.35
693.383	37716.61
693.73	37951.86
694.077	37606.55
694.423	37665.08
694.769	37608.81
695.116	37440.68
695.462	37423.96
695.808	37326.33
696.155	37430.74
696.501	37160.24
696.847	37086.34
697.193	36858.32
697.539	37032.56
697.885	36736.97
698.231	36707.59
698.577	36705.11
698.923	36650.87
699.269	36517.09
699.614	36268.28
699.96	36293.82
700.306	36265.12
700.651	36157.55
700.997	35868.52
701.342	35916.2
701.688	35867.62
702.033	35888.18
702.379	35677.11
702.724	35528.87
703.069	35741.52
703.415	35266.73
703.76	35326.39
704.105	35356.9
704.45	35342.21
704.795	35112.38
705.14	34819.06
705.485	34938.6
705.83	34857.93
706.175	34898.15
706.52	34732.73
706.865	34551.94
707.209	34710.58
707.554	34586.97
707.899	34523.02
708.243	34360.09
708.588	34315.34
708.932	34030.15
709.277	34104.05
709.621	34062.47
709.966	33826.77
710.31	33936.37
710.654	33724.4
710.998	33675.81
711.342	33736.82
711.687	33570.5
712.031	33439.88
712.375	33388.13
712.719	33451.18
713.063	33368.02
713.407	33472.88
713.75	33283.96
714.094	33200.57
714.438	33162.38
714.782	33077.86
715.125	32961.03
715.469	32949.95
715.812	32884.19
716.156	32705.89
716.499	32692.56
716.843	32591.32
717.186	32374.37
717.53	32761.48
717.873	32633.58
718.216	32642.62
718.559	32362.85
718.902	32352.68
719.246	32248.28
719.589	32105.23
719.932	32079.24
720.275	32132.35
720.617	32036.53
720.96	31899.81
721.303	32007.6
721.646	32032.24
721.989	31725.58
722.331	31891
722.674	31820.49
723.016	31840.38
723.359	31723.09
723.701	31679.25
724.044	31363.33
724.386	31262.77
724.729	31541.85
725.071	31422.08
725.413	31420.73
725.755	31278.36
726.097	31100.06
726.439	31098.02
726.782	31069.1
727.124	31270
727.465	31010.12
727.807	31032.94
728.149	30941.87
728.491	30776.9
728.833	30847.41
729.175	30747.75
729.516	30805.6
729.858	30751.14
730.199	30739.62
730.541	30597.02
730.882	30587.3
731.224	30731.48
731.565	30446.74
731.906	30392.05
732.248	30383.69
732.589	30323.58
732.93	30152.96
733.271	30283.36
733.612	30180.53
733.953	30198.84
734.294	30097.15
734.635	30022.57
734.976	30188.22
735.317	29924.95
735.658	29973.76
735.999	29891.95
736.339	29950.03
736.68	29941.44
737.021	29846.08
737.361	29760.43
737.702	29840.88
738.042	29760.66
738.383	29695.12
738.723	29765.4
739.063	29728.57
739.404	29595.01
739.744	29554.11
740.084	29301.91
740.424	29444.06
740.764	29522.25
741.104	29529.25
741.444	29272.99
741.784	29386.2
742.124	29316.83
742.464	29337.62
742.804	29140.79
743.143	29054.91
743.483	29137.4
743.823	29029.83
744.162	29030.73
744.502	29051.98
744.841	28948.48
745.181	29015.82
745.52	28872.77
745.86	28896.95
746.199	28884.07
746.538	28795.03
746.877	28774.47
747.216	28863.51
747.556	28682.49
747.895	28731.76
748.234	28477.53
748.573	28472.78
748.911	28479.79
749.25	28525.66
749.589	28337.19
749.928	28370.64
750.267	28413.12
750.605	28322.96
750.944	28162.73
751.283	28119.57
751.621	28336.06
751.96	28126.58
752.298	28171.77
752.636	28157.31
752.975	28090.19
753.313	27955.28
753.651	28119.57
753.989	27929.52
754.327	28019.46
754.666	27742.18
755.004	27731.11
755.342	27751.67
755.679	27705.8
756.017	27534.5
756.355	27655.4
756.693	27342.64
757.031	27407.05
757.368	27272.14
757.706	27295.41
758.044	27274.85
758.381	27269.65
758.719	27182.19
759.056	27128.19
759.394	27141.74
759.731	26862.2
760.068	26877.57
760.405	26647.97
760.743	26613.85
761.08	26703.11
761.417	26624.92
761.754	26499.5
762.091	26586.73
762.428	26376.57
762.765	26303.57
763.102	26438.71
763.438	26316.45
763.775	26158.72
764.112	26073.98
764.449	26100.87
764.785	26025.39
765.122	25776.58
765.458	25810.03
765.795	25625.17
766.131	25656.36
766.467	25485.97
766.804	25389.93
767.14	25376.82
767.476	25411.85
767.812	25203.49
768.148	25252.3
768.485	24986.32
768.821	24995.81
769.157	24830.84
769.492	24869.04
769.828	24890.28
770.164	24599.66
770.5	24523.73
770.836	24617.52
771.171	24390.4
771.507	24306.11
771.842	24090.98
772.178	24214.36
772.513	24087.81
772.849	24024.76
773.184	23927.59
773.519	23817.54
773.855	23762.4
774.19	23607.6
774.525	23793.36
774.86	23652.57
775.195	23579.58
775.53	23295.74
775.865	23327.38
776.2	23129.87
776.535	23019.59
776.87	23030.44
777.205	22979.82
777.539	22906.6
777.874	22931.23
778.209	22724.46
778.543	22556.1
778.878	22521.53
779.212	22551.13
779.547	22314.98
779.881	22431.36
780.215	22182.55
780.55	22243.57
780.884	22096
781.218	22041.99
781.552	22096.45
781.886	21893.75
782.22	21765.16
782.554	21797.7
782.888	21482.68
783.222	21480.2
783.556	21329.47
783.889	21318.17
784.223	21176.7
784.557	21264.84
784.89	21236.36
785.224	20974.45
785.557	20859.88
785.891	20919.76
786.224	20811.29
786.558	20913.89
786.891	20628.69
787.224	20564.97
787.557	20547.34
787.891	20454.01
788.224	20430.96
788.557	20436.38
788.89	20377.4
789.223	20303.28
789.556	20140.12
789.888	20139.44
790.221	20081.36
790.554	19881.6
790.887	19924.76
791.219	19818.09
791.552	19664.2
791.884	19685.67
792.217	19628.27
792.549	19563.41
792.882	19414.49
793.214	19397.09
793.546	19342.18
793.879	19317.99
794.211	19122.07
794.543	19182.18
794.875	19034.84
795.207	19181.95
795.539	18950.55
795.871	18955.52
796.203	18892.7
796.535	18743.09
796.867	18657.22
797.198	18620.61
797.53	18544.91
797.862	18488.86
798.193	18557.11
798.525	18447.96
798.856	18393.5
799.188	18177.46
799.519	18115.99
799.85	17956
800.182	18167.06
800.513	18086.84
800.844	17925.49
801.175	17944.47
801.506	17988.31
801.837	17880.52
802.168	17807.98
802.499	17850.01
802.83	17733.86
803.161	17629.9
803.491	17584.03
803.822	17590.36
804.153	17489.12
804.483	17385.62
804.814	17340.65
805.145	17327.54
805.475	17280.99
805.805	17154.44
806.136	17267.2
806.466	17223.81
806.796	17160.31
807.126	16941.33
807.457	16986.08
807.787	17019.3
808.117	16903.6
808.447	16791.06
808.777	16860.88
809.107	16687.56
809.436	16648.01
809.766	16614.56
810.096	16535.24
810.426	16565.75
810.755	16627.44
811.085	16520.78
811.414	16483.72
811.744	16321.69
812.073	16344.97
812.403	16250.05
812.732	16225.19
813.061	16214.12
813.39	16133.45
813.719	16157.4
814.049	16140.45
814.378	16002.6
814.707	15950.63
815.036	15977.29
815.365	15883.06
815.693	15783.17
816.022	15808.03
816.351	15697.07
816.68	15671.54
817.008	15686.68
817.337	15528.04
817.665	15516.74
817.994	15563.52
818.322	15531.2
818.651	15356.52
818.979	15427.48
819.307	15530.3
819.636	15437.64
819.964	15285.11
820.292	15399.91
820.62	15299.8
820.948	15209.4
821.276	15394.71
821.604	15288.72
821.932	15324.88
822.259	15246.46
822.587	15272.9
822.915	15189.29
823.243	15291.43
823.57	15229.51
823.898	15236.97
824.225	15176.63
824.553	15295.73
824.88	15247.14
825.207	15310.87
825.535	15208.5
825.862	15251.21
826.189	15245.11
826.516	15288.5
826.843	15247.14
827.17	15271.77
827.497	15157.2
827.824	15246.46
828.151	15216.86
828.478	15230.87
828.805	15275.16
829.131	15172.12
829.458	15136.18
829.785	15047.15
830.111	15094.15
830.438	15236.29
830.764	15166.92
831.09	15130.99
831.417	15032.68
831.743	15174.83
832.069	15187.93
832.395	15033.59
832.722	15086.92
833.048	15003.31
833.374	15050.99
833.7	14919.69
834.026	15030.42
834.351	15020.48
834.677	15058.67
835.003	15040.14
835.329	15015.74
835.654	14973.93
835.98	14868.39
836.306	14970.76
836.631	14843.99
836.956	14950.65
837.282	14934.83
837.607	14837.66
837.932	14717.66
838.258	14810.54
838.583	14749.98
838.908	14680.38
839.233	14676.99
839.558	14590.21
839.883	14560.15
840.208	14598.57
840.533	14510.44
840.858	14570.32
841.182	14498.91
841.507	14495.52
841.832	14449.87
842.156	14430.44
842.481	14406.49
842.805	14344.11
843.13	14297.79
843.454	14405.58
843.778	14241.97
844.103	14217.79
844.427	14281.29
844.751	14182.08
845.075	14113.61
845.399	14163.1
845.723	13943.45
846.047	14056.21
846.371	13962.66
846.695	13959.94
847.019	13792.04
847.343	13687.86
847.666	13684.24
847.99	13597.92
848.313	13637.24
848.637	13513.18
848.96	13493.97
849.284	13484.93
849.607	13376.23
849.931	13362.67
850.254	13234.99
850.577	13177.37
850.9	13188.21
851.223	13128.1
851.546	12983.92
851.869	12915
852.192	13002.23
852.515	12819.18
852.838	12846.53
853.161	12812.63
853.483	12804.72
853.806	12706.64
854.129	12691.28
854.451	12649.92
854.774	12566.31
855.096	12570.15
855.419	12480.89
855.741	12452.64
856.063	12441.11
856.385	12422.58
856.708	12341.68
857.03	12265.52
857.352	12311.85
857.674	12222.81
857.996	12154.57
858.318	12115.02
858.64	12152.76
858.961	12114.12
859.283	12055.36
859.605	12014.23
859.926	12050.39
860.248	12014.23
860.57	11896.04
860.891	11934.23
861.212	11843.84
861.534	11914.35
861.855	11822.6
862.176	11815.14
862.498	11820.11
862.819	11786.44
863.14	11672.55
863.461	11722.94
863.782	11741.7
864.103	11691.98
864.424	11651.98
864.745	11649.72
865.065	11606.11
865.386	11533.79
865.707	11567.01
866.027	11564.07
866.348	11520.46
866.668	11513.91
866.989	11461.25
867.309	11378.99
867.63	11371.99
867.95	11405.21
868.27	11324.31
868.59	11356.62
868.91	11360.01
869.23	11310.07
869.55	11277.08
869.87	11273.69
870.19	11334.93
870.51	11210.86
870.83	11305.32
871.15	11143.97
871.469	11221.26
871.789	11208.83
872.109	11141.26
872.428	11110.75
872.748	11146.68
873.067	11137.65
873.386	11050.19
873.706	11078.21
874.025	11032.11
874.344	10916.18
874.663	10923.41
874.982	10951.44
875.301	10925.22
875.62	10961.38
875.939	10963.64
876.258	10904.2
876.577	10879.12
876.896	10813.13
877.214	10820.82
877.533	10878.89
877.852	10807.26
878.17	10808.84
878.489	10799.12
878.807	10833.25
879.125	10770.65
879.444	10694.04
879.762	10741.05
880.08	10721.84
880.398	10672.57
880.716	10649.75
881.034	10626.7
881.352	10643.42
881.67	10620.37
881.988	10621.73
882.306	10554.61
882.624	10467.83
882.941	10493.59
883.259	10422.41
883.577	10403.2
883.894	10471
884.212	10398.46
884.529	10420.6
884.846	10341.73
885.164	10368.17
885.481	10322.53
885.798	10323.88
886.115	10224
886.432	10241.62
886.75	10284.33
887.067	10216.09
887.383	10201.4
887.7	10172.7
888.017	10104.68
888.334	10106.94
888.651	10060.16
888.967	10078.24
889.284	9990.78
889.6	10012.02
889.917	10006.15
890.233	9885.47
890.55	9847.74
890.866	9876.21
891.182	9889.77
891.498	9774.74
891.815	9807.51
892.131	9760.05
892.447	9730.68
892.763	9695.65
893.079	9665.59
893.395	9640.28
893.71	9642.32
894.026	9614.3
894.342	9584.69
894.657	9500.63
894.973	9520.74
895.289	9491.13
895.604	9449.55
895.92	9381.08
896.235	9330.23
896.55	9358.93
896.865	9345.38
897.181	9261.08
897.496	9327.3
897.811	9261.76
898.126	9222.44
898.441	9161.88
898.756	9166.17
899.071	9047.76
899.386	9119.84
899.7	9030.36
900.015	8989.9
900.33	8971.83
900.644	8919.85
900.959	8969.79
901.273	8871.94
901.588	8839.63
901.902	8738.61
902.216	8815.45
902.531	8730.93
902.845	8739.52
903.159	8657.26
903.473	8685.51
903.787	8507.66
904.101	8556.92
904.415	8560.54
904.729	8481.9
905.042	8488.9
905.356	8433.99
905.67	8412.52
905.984	8343.37
906.297	8378.85
906.611	8312.18
906.924	8329.58
907.237	8248.46
907.551	8201.9
907.864	8284.61
908.177	8214.78
908.491	8130.04
908.804	8146.76
909.117	8069.25
909.43	8040.1
909.743	7946.77
910.056	8006.43
910.368	7944.73
910.681	7965.3
910.994	7912.42
911.307	7893.21
911.619	7798.07
911.932	7842.59
912.244	7679.2
912.557	7730.5
912.869	7694.12
913.181	7660.22
913.494	7617.29
913.806	7535.25
914.118	7567.34
914.43	7521.92
914.742	7469.27
915.054	7458.42
915.366	7465.43
915.678	7400.79
915.99	7343.85
916.302	7285.99
916.613	7236.05
916.925	7276.96
917.236	7292.32
917.548	7237.18
917.859	7200.12
918.171	7204.64
918.482	7170.29
918.794	7085.55
919.105	7074.7
919.416	7032.67
919.727	7021.82
920.038	6966.46
920.349	6934.59
920.66	6870.41
920.971	6942.28
921.282	6939.34
921.593	6834.93
921.903	6834.48
922.214	6815.5
922.525	6786.8
922.835	6700.47
923.146	6660.47
923.456	6686.91
923.767	6659.57
924.077	6608.95
924.387	6592
924.697	6547.94
925.008	6507.26
925.318	6503.64
925.628	6441.5
925.938	6463.64
926.248	6383.65
926.558	6383.42
926.867	6420.25
927.177	6329.18
927.487	6324.21
927.796	6239.47
928.106	6267.04
928.416	6227.72
928.725	6215.51
929.034	6158.79
929.344	6135.06
929.653	6157.21
929.962	6061.17
930.271	6053.94
930.581	6021.62
930.89	6029.53
931.199	5986.14
931.508	5972.58
931.817	5938.69
932.125	5927.61
932.434	5846.71
932.743	5823.66
933.051	5826.82
933.36	5790.67
933.669	5760.16
933.977	5763.1
934.286	5688.3
934.594	5764.23
934.902	5722.42
935.21	5692.59
935.519	5630.45
935.827	5606.27
936.135	5575.76
936.443	5564.01
936.751	5480.39
937.059	5542.09
937.367	5510.67
937.674	5504.35
937.982	5433.84
938.29	5472.48
938.597	5457.34
938.905	5348.19
939.213	5345.48
939.52	5310.68
939.827	5358.36
940.135	5257.57
940.442	5295.76
940.749	5216.44
941.056	5216.67
941.363	5182.1
941.67	5163.11
941.977	5159.27
942.284	5112.49
942.591	5102.1
942.898	5086.96
943.205	5089.89
943.511	5096
943.818	5010.12
944.125	5020.29
944.431	4983.23
944.738	4937.81
945.044	4902.1
945.35	4880.63
945.657	4856.91
945.963	4861.65
946.269	4832.05
946.575	4823.91
946.881	4811.71
947.187	4772.16
947.493	4781.65
947.799	4780.07
948.105	4709.57
948.41	4723.35
948.716	4689.45
949.022	4699.85
949.327	4703.46
949.633	4587.76
949.938	4646.97
950.244	4622.79
950.549	4580.98
950.854	4557.48
951.16	4479.51
951.465	4506.86
951.77	4496.69
952.075	4461.66
952.38	4462.11
952.685	4477.26
952.99	4389.12
953.294	4354.55
953.599	4376.01
953.904	4384.6
954.209	4325.39
954.513	4282.68
954.818	4272.97
955.122	4252.4
955.426	4263.48
955.731	4236.81
956.035	4211.73
956.339	4191.84
956.643	4188.22
956.948	4179.41
957.252	4108.68
957.556	4132.63
957.86	4098.28
958.163	4103.71
958.467	4068.23
958.771	4021.22
959.075	4051.28
959.378	3983.93
959.682	3990.49
959.985	4009.7
960.289	3975.8
960.592	3935.12
960.896	3968.34
961.199	3929.02
961.502	3897.61
961.805	3876.59
962.108	3865.29
962.411	3893.54
962.714	3851.06
963.017	3841.34
963.32	3792.53
963.623	3814.67
963.926	3778.29
964.228	3719.08
964.531	3723.83
964.833	3729.48
965.136	3670.04
965.438	3682.25
965.741	3646.77
966.043	3653.32
966.345	3651.29
966.648	3644.51
966.95	3621.01
967.252	3601.35
967.554	3572.42
967.856	3559.31
968.158	3531.52
968.46	3528.81
968.761	3527
969.063	3525.19
969.365	3471.18
969.666	3486.77
969.968	3458.52
970.269	3458.07
970.571	3444.51
970.872	3427.79
971.174	3364.74
971.475	3390.5
971.776	3345.53
972.077	3300.11
972.378	3381.92
972.679	3306.44
972.98	3330.17
973.281	3259.43
973.582	3285.42
973.883	3259.66
974.183	3265.54
974.484	3230.73
974.785	3246.55
975.085	3227.12
975.386	3181.02
975.686	3189.83
975.986	3224.86
976.287	3175.82
976.587	3160.68
976.887	3113.45
977.187	3128.59
977.487	3094.47
977.787	3096.5
978.087	3055.37
978.387	3048.37
978.687	3020.34
978.987	3056.05
979.286	3046.78
979.586	3006.11
979.885	2997.29
980.185	2980.35
980.484	2969.27
980.784	2970.85
981.083	2940.8
981.382	2946.67
981.682	2948.93
981.981	2909.61
982.28	2875.04
982.579	2853.12
982.878	2866
983.177	2857.41
983.475	2851.99
983.774	2783.29
984.073	2810.41
984.372	2790.97
984.67	2781.25
984.969	2773.12
985.267	2754.81
985.566	2738.09
985.864	2746.68
986.162	2705.1
986.461	2708.49
986.759	2704.42
987.057	2650.86
987.355	2672.56
987.653	2630.07
987.951	2647.47
988.249	2627.81
988.547	2606.34
988.844	2632.33
989.142	2644.31
989.44	2567.25
989.737	2564.76
990.035	2556.85
990.332	2524.99
990.63	2529.51
990.927	2506.91
991.224	2504.43
991.521	2483.18
991.819	2541.71
992.116	2492.67
992.413	2462.39
992.71	2472.11
993.006	2439.79
993.303	2437.99
993.6	2440.02
993.897	2443.41
994.193	2407.71
994.49	2395.5
994.787	2364.99
995.083	2381.49
995.379	2342.62
995.676	2336.75
995.972	2317.76
996.268	2295.62
996.565	2326.8
996.861	2292.91
997.157	2311.21
997.453	2299.69
997.749	2312.79
998.044	2227.37
998.34	2267.37
998.636	2218.11
998.932	2233.92
999.227	2220.82
999.523	2200.03
999.818	2188.28
1000.114	2204.09
1000.409	2143.08
1000.704	2168.39
1001	2175.85
1001.295	2180.82
1001.59	2141.27
1001.885	2117.32
1002.18	2075.51
1002.475	2087.94
1002.77	2081.61
1003.065	2083.87
1003.359	2029.64
1003.654	2026.25
1003.949	2046.36
1004.243	2008.85
1004.538	2007.26
1004.832	1973.37
1005.127	2001.84
1005.421	1995.06
1005.715	1961.39
1006.009	1989.86
1006.304	1942.41
1006.598	1930.2
1006.892	1938.79
1007.186	1946.93
1007.48	1928.17
1007.773	1907.83
1008.067	1906.7
1008.361	1890.2
1008.655	1847.49
1008.948	1856.08
1009.242	1857.89
1009.535	1827.83
1009.829	1800.94
1010.122	1819.7
1010.415	1820.83
1010.708	1781.51
1011.001	1789.19
1011.295	1776.31
1011.588	1763.2
1011.881	1721.4
1012.173	1751.9
1012.466	1719.36
1012.759	1726.14
1013.052	1696.99
1013.344	1695.63
1013.637	1686.14
1013.93	1699.48
1014.222	1646.6
1014.514	1676.2
1014.807	1633.71
1015.099	1639.82
1015.391	1631
1015.683	1621.29
1015.976	1636.65
1016.268	1600.72
1016.56	1620.38
1016.851	1564.79
1017.143	1590.33
1017.435	1551.68
1017.727	1550.33
1018.018	1524.56
1018.31	1523.43
1018.602	1540.16
1018.893	1532.47
1019.185	1503.32
1019.476	1502.42
1019.767	1470.78
1020.058	1483.89
1020.35	1469.42
1020.641	1468.97
1020.932	1445.7
1021.223	1448.18
1021.514	1422.65
1021.804	1416.77
1022.095	1380.84
1022.386	1399.6
1022.677	1365.7
1022.967	1370.67
1023.258	1352.59
1023.548	1377.45
1023.839	1357.11
1024.129	1323.21
1024.419	1341.07
1024.709	1345.13
1025	1330.67
1025.29	1308.98
1025.58	1294.06
1025.87	1309.43
1026.16	1291.8
1026.449	1264.46
1026.739	1265.36
1027.029	1240.05
1027.319	1274.63
1027.608	1210.22
1027.898	1231.69
1028.187	1221.07
1028.477	1250.45
1028.766	1207.06
1029.055	1213.39
1029.344	1217.68
1029.634	1171.35
1029.923	1186.72
1030.212	1161.86
1030.501	1168.19
1030.79	1169.32
1031.078	1177
1031.367	1128.64
1031.656	1145.59
1031.945	1120.28
1032.233	1126.16
1032.522	1116.21
1032.81	1108.3
1033.099	1101.98
1033.387	1059.49
1033.675	1091.13
1033.963	1080.06
1034.251	1068.08
1034.54	1083.9
1034.828	1072.37
1035.116	1065.82
1035.403	1045.26
1035.691	1035.54
1035.979	1028.53
1036.267	1044.8
1036.554	1012.94
1036.842	1010.91
1037.129	987.18
1037.417	963.68
1037.704	971.36
1037.992	1000.28
1038.279	1001.19
1038.566	951.47
1038.853	951.47
1039.14	951.47
