Data from hue_290_FLMS001491_00038.txt Node
Date: Tue Feb 07 15:52:40 GMT 2017
User: dcchb
Spectrometer: FLMS00149
Trigger mode: 0
Integration Time (sec): 2.000000E-2
Scans to average: 10
Electric dark correction enabled: true
Nonlinearity correction enabled: false
Boxcar width: 0
XAxis mode: Wavelengths
Number of Pixels in Spectrum: 2048
>>>>>Begin Spectral Data<<<<<
341.393	-0.2
341.776	-0.2
342.16	-0.2
342.543	-64.6
342.927	-54.89
343.31	-81.33
343.693	-62.12
344.077	-77.03
344.46	-36.13
344.843	-44.04
345.226	-39.29
345.61	-24.6
345.993	-30.71
346.376	9.75
346.759	17.2
347.142	32.12
347.525	28.5
347.908	61.72
348.291	64.89
348.674	71.89
349.057	109.18
349.44	94.26
349.823	141.27
350.206	171.32
350.588	200.02
350.971	217.88
351.354	226.46
351.737	244.32
352.119	259
352.502	267.82
352.884	271.43
353.267	287.7
353.65	288.38
354.032	273.47
354.414	310.53
354.797	314.14
355.179	298.33
355.562	307.14
355.944	325.44
356.326	314.6
356.709	332.22
357.091	328.38
357.473	331.09
357.855	344.65
358.238	337.19
358.62	326.35
359.002	339.23
359.384	328.61
359.766	339.23
360.148	350.98
360.53	340.58
360.912	329.96
361.294	335.61
361.676	326.8
362.057	338.1
362.439	324.54
362.821	304.65
363.203	312.56
363.584	310.75
363.966	315.05
364.348	313.01
364.729	315.27
365.111	300.13
365.493	311.43
365.874	312.34
366.256	323.18
366.637	343.52
367.019	317.31
367.4	304.43
367.781	310.75
368.163	307.82
368.544	308.04
368.925	303.75
369.306	294.71
369.688	325.22
370.069	313.69
370.45	301.72
370.831	300.59
371.212	304.43
371.593	318.66
371.974	304.2
372.355	317.99
372.736	314.82
373.117	326.57
373.498	324.77
373.879	313.24
374.26	326.8
374.641	298.55
375.021	321.15
375.402	304.88
375.783	309.17
376.163	320.47
376.544	327.93
376.925	332.9
377.305	313.24
377.686	318.89
378.066	323.86
378.447	335.16
378.827	312.79
379.208	350.3
379.588	329.51
379.968	347.59
380.349	342.39
380.729	333.8
381.109	328.61
381.489	340.36
381.87	341.04
382.25	331.32
382.63	329.51
383.01	333.8
383.39	331.77
383.77	340.36
384.15	340.36
384.53	346.69
384.91	343.3
385.29	327.25
385.67	335.61
386.049	351.43
386.429	351.88
386.809	349.85
387.189	348.95
387.568	367.48
387.948	356.18
388.328	366.8
388.707	366.12
389.087	372.9
389.466	368.61
389.846	358.89
390.225	358.66
390.605	360.47
390.984	401.15
391.363	384.42
391.743	366.8
392.122	355.05
392.501	362.96
392.881	380.81
393.26	370.64
393.639	395.72
394.018	384.65
394.397	381.26
394.776	376.97
395.155	371.54
395.534	380.58
395.913	395.5
396.292	390.3
396.671	394.14
397.05	391.2
397.429	392.11
397.808	406.57
398.186	401.15
398.565	391.88
398.944	402.96
399.323	409.51
399.701	396.18
400.08	431.43
400.458	413.8
400.837	390.98
401.215	416.97
401.594	418.1
401.972	407.25
402.351	412.67
402.729	435.72
403.107	414.93
403.486	405.67
403.864	449.73
404.242	461.71
404.62	432.11
404.999	439.11
405.377	452.45
405.755	426.46
406.133	452.45
406.511	428.27
406.889	461.49
407.267	455.38
407.645	478.21
408.023	469.62
408.401	476.63
408.779	494.03
409.156	482.73
409.534	501.48
409.912	491.77
410.29	508.72
410.667	528.38
411.045	532.22
411.422	512.78
411.8	527.02
412.178	535.83
412.555	551.43
412.933	555.49
413.31	564.99
413.687	562.27
414.065	575.83
414.442	564.08
414.819	570.41
415.197	588.04
415.574	593.46
415.951	614.25
416.328	619
416.705	624.87
417.082	651.54
417.46	630.29
417.837	634.36
418.214	657.41
418.591	669.84
418.967	642.27
419.344	695.15
419.721	686.79
420.098	687.69
420.475	709.39
420.852	700.12
421.228	726.11
421.605	721.82
421.982	719.33
422.358	746.9
422.735	752.32
423.111	744.64
423.488	757.3
423.864	773.12
424.241	792.1
424.617	779.67
424.994	800.01
425.37	806.79
425.746	796.17
426.123	847.69
426.499	835.94
426.875	852.44
427.251	857.41
427.627	868.71
428.003	895.82
428.379	897.18
428.756	899.89
429.132	900.34
429.507	920.46
429.883	931.98
430.259	936.95
430.635	926.78
431.011	961.81
431.387	953.45
431.763	985.09
432.138	990.96
432.514	985.09
432.89	1012.43
433.265	1018.76
433.641	1070.28
434.016	1060.34
434.392	1072.99
434.767	1098.76
435.143	1107.8
435.518	1111.86
435.894	1112.77
436.269	1124.74
436.644	1171.75
437.02	1175.36
437.395	1157.74
437.77	1162.03
438.145	1194.8
438.52	1221.92
438.895	1211.52
439.271	1209.26
439.646	1237.96
440.021	1242.26
440.395	1258.3
440.77	1252.65
441.145	1252.88
441.52	1295.36
441.895	1284.06
442.27	1302.37
442.645	1299.66
443.019	1333.1
443.394	1303.72
443.769	1313.21
444.143	1324.51
444.518	1359.54
444.892	1356.83
445.267	1353.66
445.641	1360.22
446.016	1420.1
446.39	1399.54
446.764	1377.39
447.139	1391.63
447.513	1412.19
447.887	1402.93
448.262	1372.87
448.636	1404.29
449.01	1401.57
449.384	1469.82
449.758	1441.12
450.132	1455.81
450.506	1435.02
450.88	1457.17
451.254	1474.34
451.628	1486.32
452.002	1467.33
452.376	1488.58
452.75	1494.68
453.123	1518.63
453.497	1519.99
453.871	1530.38
454.244	1557.28
454.618	1548.91
454.992	1604.73
455.365	1580.33
455.739	1595.24
456.112	1616.71
456.486	1609.48
456.859	1628.01
457.232	1653.09
457.606	1662.36
457.979	1669.14
458.352	1704.62
458.725	1728.12
459.099	1709.81
459.472	1763.82
459.845	1748.68
460.218	1712.98
460.591	1743.26
460.964	1778.51
461.337	1784.39
461.71	1825.97
462.083	1818.51
462.456	1820.55
462.829	1835.23
463.201	1868
463.574	1856.48
463.947	1866.19
464.32	1915.46
464.692	1918.17
465.065	1943.03
465.438	1959.75
465.81	1989.81
466.183	1988.9
466.555	2050.37
466.928	2037.49
467.3	2031.39
467.672	2082.91
468.045	2083.59
468.417	2088.79
468.789	2095.79
469.161	2111.39
469.534	2153.42
469.906	2155.23
470.278	2207.43
470.65	2209.01
471.022	2234.09
471.394	2303.24
471.766	2278.84
472.138	2263.47
472.51	2330.14
472.882	2357.48
473.253	2382.56
473.625	2383.02
473.997	2436.57
474.369	2442.9
474.74	2450.59
475.112	2482.22
475.484	2508.66
475.855	2511.37
476.227	2575.1
476.598	2634.31
476.97	2634.99
477.341	2654.42
477.713	2694.42
478.084	2730.8
478.455	2786.4
478.827	2795.66
479.198	2827.98
479.569	2797.92
479.94	2883.57
480.311	2888.77
480.682	2958.14
481.053	3012.15
481.424	3068.87
481.795	3092.15
482.166	3093.51
482.537	3113.62
482.908	3166.95
483.279	3201.53
483.65	3238.81
484.021	3291.24
484.391	3295.31
484.762	3357
485.133	3332.37
485.503	3397.45
485.874	3427.06
486.244	3447.4
486.615	3474.06
486.985	3531.91
487.356	3578.92
487.726	3543.44
488.097	3646.03
488.467	3654.62
488.837	3716.09
489.207	3692.13
489.578	3717.44
489.948	3758.57
490.318	3823.88
490.688	3827.05
491.058	3848.06
491.428	3916.54
491.798	3954.05
492.168	3983.88
492.538	4001.28
492.908	4044.67
493.278	4070.66
493.648	4112.69
494.017	4109.98
494.387	4153.14
494.757	4145.46
495.126	4208.05
495.496	4230.65
495.866	4258.9
496.235	4279.69
496.605	4286.02
496.974	4292.57
497.344	4322.4
497.713	4338.22
498.082	4396.07
498.452	4450.08
498.821	4427.03
499.19	4419.12
499.559	4492.79
499.928	4483.3
500.298	4497.09
500.667	4542.73
501.036	4550.87
501.405	4584.09
501.774	4544.09
502.143	4599.23
502.512	4617.76
502.88	4647.59
503.249	4645.1
503.618	4663.41
503.987	4672.22
504.356	4690.07
504.724	4750.19
505.093	4780.47
505.462	4728.49
505.83	4793.12
506.199	4771.2
506.567	4831.54
506.936	4823.4
507.304	4833.57
507.672	4820.69
508.041	4873.57
508.409	4927.36
508.777	4921.03
509.145	4954.47
509.514	4896.62
509.882	4946.56
510.25	4989.05
510.618	4998.31
510.986	4998.54
511.354	5053.91
511.722	5031.99
512.09	5077.41
512.458	5082.83
512.826	5101.14
513.193	5101.82
513.561	5159.44
513.929	5150.4
514.297	5152.44
514.664	5194.24
515.032	5162.6
515.4	5220.46
515.767	5238.99
516.135	5201.93
516.502	5210.74
516.869	5253.9
517.237	5318.98
517.604	5287.8
517.972	5329.15
518.339	5307.91
518.706	5319.44
519.073	5310.85
519.44	5320.11
519.808	5397.4
520.175	5387.91
520.542	5430.62
520.909	5457.74
521.276	5430.17
521.643	5466.55
522.009	5466.78
522.376	5518.75
522.743	5525.08
523.11	5565.31
523.477	5598.98
523.843	5637.62
524.21	5637.17
524.577	5679.88
524.943	5676.94
525.31	5701.8
525.676	5715.58
526.043	5741.8
526.409	5800.55
526.776	5803.04
527.142	5778.41
527.508	5821.57
527.874	5857.5
528.241	5922.58
528.607	5948.35
528.973	5942.47
529.339	5934.79
529.705	5993.99
530.071	5948.12
530.437	6075.12
530.803	6042.81
531.169	6103.6
531.535	5979.53
531.901	6063.37
532.267	6095.91
532.632	6137.04
532.998	6142.47
533.364	6192.18
533.73	6193.99
534.095	6308.11
534.461	6219.53
534.826	6303.14
535.192	6291.16
535.557	6278.73
535.923	6303.59
536.288	6316.47
536.653	6322.57
537.019	6358.51
537.384	6398.28
537.749	6424.49
538.114	6438.28
538.479	6426.07
538.845	6448.45
539.21	6475.11
539.575	6472.63
539.94	6512.85
540.305	6515.34
540.67	6483.47
541.034	6560.53
541.399	6549.69
541.764	6570.02
542.129	6629.46
542.494	6639.4
542.858	6635.79
543.223	6618.61
543.587	6736.35
543.952	6664.49
544.316	6728.66
544.681	6742.22
545.045	6712.62
545.41	6772.51
545.774	6820.19
546.138	6809.34
546.503	6801.21
546.867	6782.9
547.231	6866.29
547.595	6832.16
547.959	6873.97
548.324	6909.9
548.688	6917.59
549.052	6921.43
549.416	6896.8
549.779	6962.11
550.143	6917.36
550.507	7009.11
550.871	6994.19
551.235	6931.6
551.599	7032.61
551.962	7032.61
552.326	7050.69
552.689	7076.23
553.053	6993.29
553.417	7061.31
553.78	7138.37
554.143	7128.65
554.507	7160.52
554.87	7205.26
555.234	7195.55
555.597	7163.23
555.96	7174.08
556.323	7270.35
556.686	7200.97
557.05	7229.89
557.413	7282.32
557.776	7336.33
558.139	7313.51
558.502	7324.13
558.865	7308.08
559.228	7456.56
559.59	7362.32
559.953	7404.35
560.316	7450.68
560.679	7438.93
561.041	7496.1
561.404	7496.78
561.767	7487.29
562.129	7546.95
562.492	7563.67
562.854	7594.18
563.217	7554.86
563.579	7605.48
563.941	7651.13
564.304	7692.93
564.666	7736.77
565.028	7693.39
565.39	7706.94
565.753	7802.76
566.115	7797.11
566.477	7829.43
566.839	7827.62
567.201	7834.4
567.563	7861.52
567.925	7900.61
568.287	7898.35
568.648	7983.55
569.01	7951.68
569.372	7994.62
569.734	7988.29
570.095	8050.89
570.457	8111.68
570.819	8185.58
571.18	8174.28
571.542	8231.68
571.903	8227.38
572.265	8316.65
572.626	8267.83
572.987	8289.98
573.349	8377.44
573.71	8339.92
574.071	8399.81
574.432	8484.55
574.794	8533.82
575.155	8509.18
575.516	8544.21
575.877	8589.18
576.238	8635.73
576.599	8766.13
576.96	8786.01
577.32	8740.82
577.681	8849.97
578.042	8887.03
578.403	8910.3
578.763	9009.06
579.124	9020.58
579.485	9134.25
579.845	9136.06
580.206	9258.32
580.566	9320.24
580.927	9389.61
581.287	9427.58
581.648	9484.52
582.008	9644.29
582.368	9630.28
582.728	9731.52
583.089	9830.5
583.449	9896.94
583.809	10007.9
584.169	10158.18
584.529	10247.67
584.889	10405.63
585.249	10406.99
585.609	10513.65
585.969	10692.18
586.329	10723.14
586.688	10899.4
587.048	10913.64
587.408	11080.41
587.768	11216.23
588.127	11269.11
588.487	11338.49
588.846	11638.37
589.206	11674.75
589.565	11794.07
589.925	12006.49
590.284	11988.87
590.643	12182.76
591.003	12317.67
591.362	12569.87
591.721	12648.28
592.08	12781.39
592.44	12895.73
592.799	13110.87
593.158	13217.76
593.517	13356.06
593.876	13435.83
594.235	13611.42
594.593	13656.62
594.952	13914.01
595.311	13996.95
595.67	14145.42
596.029	14346.32
596.387	14444.17
596.746	14637.16
597.104	14649.59
597.463	14822.92
597.822	14981.78
598.18	15070.59
598.538	15141.55
598.897	15408.89
599.255	15420.64
599.613	15729.56
599.972	15717.36
600.33	15844.81
600.688	15982.43
601.046	16030.79
601.404	16136.55
601.762	16191.92
602.12	16493.38
602.478	16519.59
602.836	16712.58
603.194	16699.93
603.552	16835.74
603.91	16867.38
604.268	17028.73
604.625	17012.24
604.983	17160.03
605.341	17168.62
605.698	17310.31
606.056	17403.86
606.413	17526.12
606.771	17696.96
607.128	17797.98
607.485	17719.56
607.843	17813.35
608.2	17924.53
608.557	18054.24
608.914	18155.94
609.272	18368.36
609.629	18327.68
609.986	18537.39
610.343	18468.24
610.7	18726.99
611.057	18602.7
611.414	18836.14
611.771	18853.32
612.127	18992.07
612.484	18944.16
612.841	19113.2
613.198	18962.69
613.554	19043.6
613.911	19236.58
614.267	19290.59
614.624	19373.98
614.98	19437.03
615.337	19572.62
615.693	19624.37
616.05	19512.06
616.406	19821.88
616.762	19696.91
617.118	19802.22
617.475	19768.77
617.831	19938.26
618.187	19915.21
618.543	19975.55
618.899	20022.1
619.255	20081.99
619.611	20174.87
619.967	20221.87
620.323	20213.51
620.678	20240.63
621.034	20249.67
621.39	20345.48
621.746	20316.1
622.101	20495.31
622.457	20366.72
622.812	20467.74
623.168	20557
623.523	20606.72
623.879	20690.33
624.234	20532.82
624.589	20592.48
624.945	20637
625.3	20656.66
625.655	20740.95
626.01	20661.41
626.365	20739.82
626.72	20709.99
627.075	20778.46
627.43	20843.55
627.785	20770.33
628.14	20864.79
628.495	20910.21
628.85	20890.33
629.205	20710.22
629.559	20919.93
629.914	20824.34
630.269	20909.99
630.623	20847.84
630.978	20773.72
631.332	20873.38
631.687	20955.86
632.041	20807.16
632.396	20861.4
632.75	20835.86
633.104	20826.83
633.459	20755.64
633.813	20805.58
634.167	20742.31
634.521	20741.63
634.875	20771.23
635.229	20733.49
635.583	20625.93
635.937	20694.85
636.291	20714.96
636.645	20671.12
636.999	20566.04
637.352	20704.12
637.706	20552.03
638.06	20642.88
638.413	20665.7
638.767	20606.72
639.121	20666.38
639.474	20483.33
639.828	20612.59
640.181	20559.49
640.534	20568.53
640.888	20535.53
641.241	20457.57
641.594	20421.41
641.947	20594.97
642.301	20525.36
642.654	20561.97
643.007	20605.14
643.36	20455.76
643.713	20420.06
644.066	20534.4
644.419	20365.82
644.771	20325.6
645.124	20095.55
645.477	20127.41
645.83	19948.66
646.182	19926.96
646.535	19910.24
646.888	19921.99
647.24	19807.42
647.593	19903.91
647.945	19896.45
648.298	19721.09
648.65	19867.53
649.002	19739.62
649.355	19818.26
649.707	19880.18
650.059	19926.51
650.411	20239.72
650.763	20222.77
651.115	20328.31
651.467	20357.23
651.819	20357.01
652.171	20277.69
652.523	20219.38
652.875	20376.67
653.227	20227.74
653.578	20413.28
653.93	20268.2
654.282	20244.92
654.633	20260.51
654.985	20280.17
655.337	20322.88
655.688	20321.3
656.039	20348.19
656.391	20289.21
656.742	20320.17
657.094	20345.48
657.445	20319.72
657.796	20292.38
658.147	20267.52
658.498	20222.55
658.849	20346.84
659.2	20250.57
659.551	20269.55
659.902	20312.49
660.253	20322.88
660.604	20385.93
660.955	20241.3
661.306	20419.6
661.656	20294.41
662.007	20420.96
662.358	20427.29
662.708	20389.55
663.059	20406.72
663.409	20303.22
663.76	20393.16
664.11	20397.68
664.461	20426.61
664.811	20436.78
665.161	20513.84
665.511	20438.81
665.862	20379.15
666.212	20422.32
666.562	20416.21
666.912	20426.16
667.262	20380.74
667.612	20434.07
667.962	20499.15
668.312	20421.19
668.662	20461.86
669.011	20289.44
669.361	20410.34
669.711	20392.26
670.06	20359.49
670.41	20268.42
670.76	20333.05
671.109	20362.43
671.459	20406.95
671.808	20285.82
672.157	20386.61
672.507	20158.59
672.856	20175.09
673.205	20332.83
673.554	20244.92
673.904	20208.31
674.253	20356.78
674.602	20243.34
674.951	19943.23
675.3	19941.2
675.649	20225.49
675.998	20215.99
676.346	20143.23
676.695	20307.06
677.044	20068.43
677.393	20077.01
677.741	20129.44
678.09	20098.71
678.438	20040.41
678.787	20123.79
679.135	20059.61
679.484	19895.1
679.832	20047.86
680.181	19962.44
680.529	19952.72
680.877	19905.72
681.225	19869.11
681.573	20071.36
681.922	19768.77
682.27	19768.55
682.618	19773.52
682.966	19670.92
683.314	19811.03
683.661	19703.92
684.009	19612.85
684.357	19514.54
684.705	19453.98
685.053	19595.45
685.4	19507.09
685.748	19419.4
686.095	19418.95
686.443	19367.2
686.79	19314.32
687.138	19227.55
687.485	19262.12
687.832	19250.82
688.18	19153.42
688.527	19111.39
688.874	19034.1
689.221	19027.32
689.568	18989.59
689.915	18935.58
690.262	18942.13
690.609	18874.56
690.956	18689.48
691.303	18782.13
691.65	18683.38
691.997	18619.43
692.344	18608.58
692.69	18547.79
693.037	18446.1
693.383	18353.44
693.73	18458.3
694.077	18320
694.423	18208.82
694.769	18227.8
695.116	18127.46
695.462	18107.57
695.808	17966.79
696.155	18084.07
696.501	17896.96
696.847	17931.53
697.193	17728.83
697.539	17851.54
697.885	17714.82
698.231	17680.02
698.577	17619
698.923	17549.62
699.269	17468.27
699.614	17437.54
699.96	17358.44
700.306	17273.92
700.651	17256.52
700.997	17159.35
701.342	17108.96
701.688	17104.89
702.033	17076.87
702.379	16990.54
702.724	16937.21
703.069	17022.63
703.415	16689.31
703.76	16737.44
704.105	16760.94
704.45	16691.79
704.795	16642.08
705.14	16551.91
705.485	16505.36
705.83	16435.53
706.175	16468.3
706.52	16381.07
706.865	16332.71
707.209	16363.89
707.554	16313.05
707.899	16285.93
708.243	16182.2
708.588	16075.09
708.932	16019.72
709.277	16023.11
709.621	16060.62
709.966	15902.66
710.31	15953.73
710.654	15798.71
710.998	15844.58
711.342	15772.95
711.687	15662.67
712.031	15688.66
712.375	15733.17
712.719	15639.84
713.063	15554.42
713.407	15562.78
713.75	15529.79
714.094	15527.08
714.438	15409.34
714.782	15511.26
715.125	15404.37
715.469	15396.23
715.812	15229.68
716.156	15206.86
716.499	15212.96
716.843	15259.06
717.186	15156.47
717.53	15283.47
717.873	15298.61
718.216	15263.36
718.559	15146.75
718.902	15082.8
719.246	15124.38
719.589	14977.04
719.932	15001.44
720.275	14954.66
720.617	15028.11
720.96	15005.51
721.303	14927.55
721.646	14942.91
721.989	14903.14
722.331	14934.55
722.674	14891.39
723.016	14853.65
723.359	14903.37
723.701	14929.13
724.044	14771.17
724.386	14743.82
724.729	14811.39
725.071	14808.45
725.413	14768
725.755	14760.77
726.097	14687.1
726.439	14641
726.782	14655.91
727.124	14729.58
727.465	14686.42
727.807	14676.7
728.149	14594.22
728.491	14516.03
728.833	14566.65
729.175	14522.58
729.516	14539.31
729.858	14582.7
730.199	14542.7
730.541	14581.79
730.882	14557.61
731.224	14501.34
731.565	14439.87
731.906	14449.59
732.248	14494.11
732.589	14452.53
732.93	14491.85
733.271	14410.72
733.612	14466.54
733.953	14501.12
734.294	14405.75
734.635	14389.03
734.976	14417.73
735.317	14358.29
735.658	14422.7
735.999	14397.16
736.339	14368.46
736.68	14501.79
737.021	14387.45
737.361	14374.79
737.702	14392.42
738.042	14428.35
738.383	14347.22
738.723	14542.92
739.063	14419.31
739.404	14484.39
739.744	14443.72
740.084	14371.4
740.424	14433.1
740.764	14430.38
741.104	14562.58
741.444	14444.39
741.784	14455.02
742.124	14441.68
742.464	14517.16
742.804	14538.63
743.143	14588.12
743.483	14599.87
743.823	14463.38
744.162	14472.64
744.502	14679.87
744.841	14462.25
745.181	14634.9
745.52	14623.37
745.86	14752.41
746.199	14713.99
746.538	14744.73
746.877	14888.22
747.216	14914.44
747.556	14830.15
747.895	14822.69
748.234	14900.43
748.573	14990.59
748.911	15009.58
749.25	15081.67
749.589	15123.7
749.928	15256.35
750.267	15380.19
750.605	15316.91
750.944	15390.58
751.283	15426.52
751.621	15469.45
751.96	15557.81
752.298	15708.99
752.636	15799.16
752.975	15736.34
753.313	15786.96
753.651	15939.27
753.989	16000.96
754.327	16070.11
754.666	16146.95
755.004	16231.24
755.342	16455.87
755.679	16565.24
756.017	16523.66
756.355	16805.46
756.693	16779.47
757.031	16967.72
757.368	16923.65
757.706	17079.35
758.044	17257.88
758.381	17232.8
758.719	17431.43
759.056	17504.2
759.394	17623.29
759.731	17604.76
760.068	17753.69
760.405	17818.99
760.743	17869.39
761.08	18191.41
761.417	18121.13
761.754	18362.03
762.091	18272.54
762.428	18415.82
762.765	18480.9
763.102	18721.8
763.438	18632.53
763.775	18571.74
764.112	18812.41
764.449	18990.72
764.785	18973.99
765.122	18949.13
765.458	18963.37
765.795	19052.86
766.131	19129.69
766.467	19144.16
766.804	19178.51
767.14	19193.2
767.476	19421.66
767.812	19368.78
768.148	19464.83
768.485	19431.38
768.821	19407.88
769.157	19496.24
769.492	19448.56
769.828	19442.91
770.164	19375.11
770.5	19541.44
770.836	19579.17
771.171	19492.62
771.507	19509.12
771.842	19531.72
772.178	19622.79
772.513	19698.95
772.849	19708.89
773.184	19563.36
773.519	19561.55
773.855	19493.98
774.19	19568.1
774.525	19482
774.86	19487.65
775.195	19598.38
775.53	19569.46
775.865	19437.26
776.2	19345.51
776.535	19367.2
776.87	19305.06
777.205	19314.32
777.539	19296.02
777.874	19318.84
778.209	19244.72
778.543	19242.23
778.878	19167.43
779.212	19180.31
779.547	19095.8
779.881	19174.89
780.215	19022.13
780.55	19148.45
780.884	18961.11
781.218	18999.3
781.552	18984.39
781.886	18855.35
782.22	18759.99
782.554	18766.31
782.888	18626.43
783.222	18696.03
783.556	18536.94
783.889	18498.07
784.223	18489.03
784.557	18430.5
784.89	18533.33
785.224	18285.2
785.557	18347.79
785.891	18331.98
786.224	18273.67
786.558	18337.17
786.891	18147.57
787.224	18023.96
787.557	18100.12
787.891	17989.16
788.224	18056.28
788.557	17976.96
788.89	17983.96
789.223	17929.27
789.556	17797.98
789.888	17734.25
790.221	17705.33
790.554	17593.69
790.887	17593.24
791.219	17515.27
791.552	17519.79
791.884	17364.54
792.217	17327.26
792.549	17276.18
792.882	17108.05
793.214	17088.39
793.546	17209.07
793.879	17012.91
794.211	16999.13
794.543	16961.39
794.875	16952.8
795.207	17015.17
795.539	16940.15
795.871	16864.67
796.203	16643.21
796.535	16685.01
796.867	16585.58
797.198	16616.54
797.53	16593.04
797.862	16576.54
798.193	16524.11
798.525	16366.6
798.856	16391.91
799.188	16292.71
799.519	16291.35
799.85	16222.65
800.182	16139.72
800.513	16112.6
800.844	15995.99
801.175	16115.76
801.506	16034.41
801.837	15963.22
802.168	15982.66
802.499	15894.3
802.83	15819.5
803.161	15832.15
803.491	15766.17
803.822	15761.42
804.153	15708.09
804.483	15570.01
804.814	15508.77
805.145	15505.38
805.475	15534.54
805.805	15504.03
806.136	15473.97
806.466	15437.14
806.796	15363.24
807.126	15233.53
807.457	15184.71
807.787	15274.2
808.117	15112.85
808.447	15151.49
808.777	15181.32
809.107	15117.37
809.436	15019.29
809.766	14990.14
810.096	14994.66
810.426	14911.5
810.755	14910.37
811.085	14824.5
811.414	14904.04
811.744	14747.44
812.073	14696.36
812.403	14725.52
812.732	14673.09
813.061	14633.32
813.39	14566.88
813.719	14534.79
814.049	14528.01
814.378	14591.96
814.707	14468.8
815.036	14469.48
815.365	14383.6
815.693	14237.39
816.022	14292.53
816.351	14267
816.68	14211.18
817.008	14187.9
817.337	14055.7
817.665	14076.49
817.994	14142.93
818.322	14059.77
818.651	14040.34
818.979	13925.99
819.307	13963.95
819.636	13937.97
819.964	13858.19
820.292	13981.13
820.62	13932.54
820.948	13753.56
821.276	13886.44
821.604	13855.48
821.932	13841.7
822.259	13879.44
822.587	13820
822.915	13770.29
823.243	13879.89
823.57	13834.92
823.898	13932.09
824.225	13819.33
824.553	13859.1
824.88	13808.7
825.207	13863.62
825.535	13734.58
825.862	13848.48
826.189	13799.67
826.516	13873.34
826.843	13905.65
827.17	13876.95
827.497	13878.76
827.824	13795.6
828.151	13813.9
828.478	13806.67
828.805	13836.05
829.131	13799.67
829.458	13690.06
829.785	13770.06
830.111	13778.87
830.438	13788.37
830.764	13789.72
831.09	13735.94
831.417	13691.65
831.743	13659.78
832.069	13664.53
832.395	13683.06
832.722	13711.31
833.048	13604.42
833.374	13683.74
833.7	13594.93
834.026	13605.55
834.351	13653.23
834.677	13677.18
835.003	13709.05
835.329	13603.74
835.654	13598.77
835.98	13557.19
836.306	13583.4
836.631	13526.68
836.956	13499.11
837.282	13537.98
837.607	13541.82
837.932	13494.81
838.258	13518.09
838.583	13410.52
838.908	13345.67
839.233	13359.45
839.558	13347.25
839.883	13248.27
840.208	13205.33
840.533	13229.96
840.858	13209.17
841.182	13222.73
841.507	13251.21
841.832	13185.9
842.156	13138.44
842.481	13105.67
842.805	13055.96
843.13	13021.38
843.454	12979.8
843.778	12966.02
844.103	12957.88
844.427	12930.31
844.751	12968.27
845.075	12831.33
845.399	12922.4
845.723	12771.67
846.047	12816.19
846.371	12687.38
846.695	12662.52
847.019	12670.88
847.343	12480.83
847.666	12475.63
847.99	12368.52
848.313	12404.22
848.637	12297.78
848.96	12265.02
849.284	12332.36
849.607	12179.37
849.931	12164.68
850.254	12024.34
850.577	12024.57
850.9	11847.63
851.223	11927.85
851.546	11894.4
851.869	11777.57
852.192	11854.41
852.515	11748.87
852.838	11768.98
853.161	11707.29
853.483	11627.52
853.806	11625.03
854.129	11560.85
854.451	11559.72
854.774	11498.03
855.096	11441.31
855.419	11370.58
855.741	11404.02
856.063	11275.44
856.385	11268.21
856.708	11328.77
857.03	11237.92
857.352	11272.5
857.674	11157.25
857.996	11062.79
858.318	10993.64
858.64	11116.8
858.961	11053.52
859.283	11071.38
859.605	10979.4
859.926	10996.12
860.248	10973.75
860.57	10916.35
860.891	10875.67
861.212	10786.41
861.534	10783.25
861.855	10776.47
862.176	10799.29
862.498	10802.46
862.819	10793.64
863.14	10738.95
863.461	10723.36
863.782	10681.78
864.103	10691.05
864.424	10595.46
864.745	10737.83
865.065	10581.9
865.386	10533.31
865.707	10525.85
866.027	10633.42
866.348	10526.53
866.668	10525.18
866.989	10524.27
867.309	10458.28
867.63	10398.85
867.95	10422.35
868.27	10373.09
868.59	10327.44
868.91	10373.54
869.23	10346.87
869.55	10321.11
869.87	10321.34
870.19	10300.77
870.51	10333.09
870.83	10274.56
871.15	10222.81
871.469	10291.06
871.789	10248.12
872.109	10223.94
872.428	10141.23
872.748	10182.59
873.067	10114.34
873.386	10167.67
873.706	10110.95
874.025	10114.11
874.344	10012.19
874.663	10052.19
874.982	10087.9
875.301	9993.44
875.62	10051.97
875.939	9938.98
876.258	9953.89
876.577	9926.32
876.896	9957.28
877.214	9884.29
877.533	9945.98
877.852	9913.44
878.17	9949.6
878.489	9855.36
878.807	9890.39
879.125	9827.11
879.444	9742.14
879.762	9760.9
880.08	9815.36
880.398	9742.14
880.716	9707.8
881.034	9725.87
881.352	9675.48
881.67	9661.02
881.988	9674.12
882.306	9630.06
882.624	9609.72
882.941	9568.14
883.259	9582.6
883.577	9548.48
883.894	9564.97
884.212	9538.99
884.529	9454.69
884.846	9518.2
885.164	9472.77
885.481	9411.31
885.798	9433.23
886.115	9317.07
886.432	9369.27
886.75	9279.33
887.067	9309.84
887.383	9276.85
887.7	9281.14
888.017	9202.72
888.334	9198.43
888.651	9179.9
888.967	9181.71
889.284	9229.62
889.6	9095.83
889.917	9037.08
890.233	9173.8
890.55	8983.29
890.866	9005.22
891.182	9023.07
891.498	8937.65
891.815	8959.79
892.131	8853.13
892.447	8851.55
892.763	8804.09
893.079	8866.69
893.395	8793.24
893.71	8741.04
894.026	8739.46
894.342	8779.46
894.657	8740.82
894.973	8671.21
895.289	8695.39
895.604	8610.65
895.92	8597.32
896.235	8522.52
896.55	8524.78
896.865	8520.71
897.181	8519.58
897.496	8466.02
897.811	8455.85
898.126	8328.85
898.441	8315.52
898.756	8386.25
899.071	8283.43
899.386	8207.72
899.7	8186.03
900.015	8166.37
900.33	8120.27
900.644	8138.57
900.959	8128.18
901.273	8077.56
901.588	8051.34
901.902	8031.68
902.216	8017.67
902.531	8005.02
902.845	7901.29
903.159	7879.14
903.473	7858.13
903.787	7816.77
904.101	7803.21
904.415	7793.95
904.729	7780.61
905.042	7737.45
905.356	7705.81
905.67	7714.4
905.984	7715.98
906.297	7636.44
906.611	7559.83
906.924	7546.72
907.237	7534.29
907.551	7507.4
907.864	7433.96
908.177	7459.72
908.491	7441.87
908.804	7368.87
909.117	7348.99
909.43	7245.04
909.743	7228.76
910.056	7201.19
910.368	7251.14
910.681	7240.29
910.994	7168.88
911.307	7156.22
911.619	7116
911.932	7098.15
912.244	7015.21
912.557	7009.56
912.869	6952.16
913.181	6972.5
913.494	6963.69
913.806	6887.08
914.118	6883.69
914.43	6886.4
914.742	6870.36
915.054	6852.05
915.366	6800.53
915.678	6741.32
915.99	6676.69
916.302	6703.13
916.613	6635.11
916.925	6603.02
917.236	6614.54
917.548	6572.96
917.859	6618.16
918.171	6579.06
918.482	6469.69
918.794	6484.83
919.105	6469.69
919.416	6429.69
919.727	6345.4
920.038	6356.47
920.349	6344.72
920.66	6292.07
920.971	6328.9
921.282	6239.64
921.593	6240.09
921.903	6219.3
922.214	6182.69
922.525	6184.27
922.835	6135.69
923.146	6145.4
923.456	6135.23
923.767	6047.1
924.077	6067.44
924.387	5987.67
924.697	5971.4
925.008	5978.18
925.318	5930.72
925.628	5949.93
925.938	5894.34
926.248	5852.08
926.558	5820.44
926.867	5800.1
927.177	5807.56
927.487	5785.86
927.796	5752.42
928.106	5715.13
928.416	5678.75
928.725	5653.21
929.034	5627.22
929.344	5649.15
929.653	5633.55
929.962	5549.71
930.271	5536.15
930.581	5530.05
930.89	5509.04
931.199	5487.34
931.508	5456.16
931.817	5461.58
932.125	5422.48
932.434	5411.86
932.743	5348.14
933.051	5275.14
933.36	5301.13
933.669	5236.05
933.977	5257.29
934.286	5253.22
934.594	5203.51
934.902	5164.19
935.21	5135.49
935.519	5203.96
935.827	5136.16
936.135	5134.36
936.443	5057.07
936.751	5056.17
937.059	5053.23
937.367	4998.09
937.674	5028.82
937.982	5011.2
938.29	4966.23
938.597	4987.24
938.905	4926.45
939.213	4921.25
939.52	4908.6
939.827	4874.25
940.135	4869.73
940.442	4838.55
940.749	4816.62
941.056	4818.66
941.363	4782.95
941.67	4735.04
941.977	4712.22
942.284	4688.04
942.591	4693.01
942.898	4699.57
943.205	4634.26
943.511	4599.46
943.818	4607.36
944.125	4581.15
944.431	4571.21
944.738	4553.81
945.044	4483.98
945.35	4530.3
945.657	4473.13
945.963	4515.16
946.269	4483.75
946.575	4418.9
946.881	4432.68
947.187	4404.21
947.493	4319.91
947.799	4343.64
948.105	4288.05
948.41	4297.32
948.716	4298.22
949.022	4300.71
949.327	4239.24
949.633	4231.1
949.938	4250.99
950.244	4195.4
950.549	4175.96
950.854	4134.61
951.16	4170.31
951.465	4128.28
951.77	4071.11
952.075	4060.49
952.38	4084.44
952.685	4090.99
952.99	4007.38
953.294	3996.08
953.599	3985.46
953.904	3969.42
954.209	3914.73
954.513	3919.7
954.818	3919.25
955.122	3931
955.426	3868.85
955.731	3895.29
956.035	3851.68
956.339	3837.22
956.643	3820.27
956.948	3832.47
957.252	3793.15
957.556	3771.68
957.86	3781.17
958.163	3760.38
958.467	3754.05
958.771	3720.83
959.075	3708.63
959.378	3669.76
959.682	3662.3
959.985	3674.96
960.289	3643.77
960.592	3639.93
960.896	3571.23
961.199	3622.53
961.502	3603.78
961.805	3562.19
962.108	3533.49
962.411	3511.12
962.714	3518.58
963.017	3497.56
963.32	3502.54
963.623	3484.23
963.926	3430.45
964.228	3436.77
964.531	3413.72
964.833	3436.77
965.136	3433.84
965.438	3361.75
965.741	3370.34
966.043	3388.87
966.345	3282.2
966.648	3309.77
966.95	3304.35
967.252	3289.43
967.554	3304.35
967.856	3264.35
968.158	3273.39
968.46	3244.46
968.761	3247.63
969.063	3207.85
969.365	3212.6
969.666	3174.63
969.968	3141.41
970.269	3136.44
970.571	3151.58
970.872	3141.64
971.174	3124.24
971.475	3083.56
971.776	3099.16
972.077	3084.01
972.378	3068.65
972.679	3099.61
972.98	3050.12
973.281	3006.73
973.582	3017.58
973.883	2991.36
974.183	2946.62
974.484	2987.52
974.785	2926.5
975.085	2964.92
975.386	2916.34
975.686	2929.89
975.986	2908.88
976.287	2907.07
976.587	2900.52
976.887	2870.01
977.187	2891.93
977.487	2834.3
977.787	2844.02
978.087	2790.01
978.387	2788.88
978.687	2806.06
978.987	2774.42
979.286	2718.37
979.586	2797.02
979.885	2733.74
980.185	2736.23
980.484	2735.1
980.784	2720.63
981.083	2692.84
981.382	2701.43
981.682	2677.92
981.981	2695.55
982.28	2628.21
982.579	2634.31
982.878	2600.64
983.177	2628.43
983.475	2632.95
983.774	2562.22
984.073	2578.49
984.372	2565.84
984.67	2559.51
984.969	2546.85
985.267	2572.39
985.566	2511.15
985.864	2521.77
986.162	2506.85
986.461	2500.53
986.759	2454.65
987.057	2459.85
987.355	2449.91
987.653	2447.2
987.951	2436.57
988.249	2427.08
988.547	2409.68
988.844	2387.54
989.142	2369.68
989.44	2370.36
989.737	2350.25
990.035	2322
990.332	2339.63
990.63	2352.06
990.927	2292.85
991.224	2295.34
991.521	2275.45
991.819	2281.55
992.116	2274.09
992.413	2265.28
992.71	2245.62
993.006	2279.29
993.303	2217.82
993.6	2206.3
993.897	2227.09
994.193	2187.99
994.49	2226.86
994.787	2171.27
995.083	2187.77
995.379	2188.45
995.676	2148.9
995.972	2115.45
996.268	2114.32
996.565	2084.95
996.861	2090.59
997.157	2105.96
997.453	2068.22
997.749	2121.33
998.044	2062.35
998.34	2068
998.636	2028.68
998.932	2026.19
999.227	2038.39
999.523	2018.05
999.818	2019.64
1000.114	2007.89
1000.409	1969.24
1000.704	1981.67
1001	1951.62
1001.295	1940.32
1001.59	1980.09
1001.885	1936.02
1002.18	1939.86
1002.475	1900.32
1002.77	1864.61
1003.065	1906.87
1003.359	1870.94
1003.654	1869.36
1003.949	1871.84
1004.243	1847.44
1004.538	1841.79
1004.832	1818.29
1005.127	1848.79
1005.421	1808.57
1005.715	1823.26
1006.009	1797.5
1006.304	1778.06
1006.598	1773.09
1006.892	1774.22
1007.186	1721.79
1007.48	1745.97
1007.773	1728.12
1008.067	1722.47
1008.361	1718.85
1008.655	1705.07
1008.948	1690.83
1009.242	1705.97
1009.535	1678.4
1009.829	1659.42
1010.122	1640.21
1010.415	1638.4
1010.708	1603.83
1011.001	1642.24
1011.295	1622.13
1011.588	1621.45
1011.881	1589.59
1012.173	1618.74
1012.466	1597.73
1012.759	1582.36
1013.052	1592.98
1013.344	1564.28
1013.637	1531.74
1013.93	1549.59
1014.222	1529.25
1014.514	1516.37
1014.807	1508.01
1015.099	1503.94
1015.391	1512.98
1015.683	1488.35
1015.976	1483.15
1016.268	1481.12
1016.56	1446.77
1016.851	1468.46
1017.143	1453.78
1017.435	1441.8
1017.727	1417.62
1018.018	1403.16
1018.31	1392.99
1018.602	1410.61
1018.893	1378.98
1019.185	1391.86
1019.476	1340.78
1019.767	1360.67
1020.058	1365.19
1020.35	1381.46
1020.641	1338.3
1020.932	1334.91
1021.223	1324.06
1021.514	1327.68
1021.804	1320.22
1022.095	1296.72
1022.386	1302.82
1022.677	1283.16
1022.967	1281.12
1023.258	1258.3
1023.548	1252.42
1023.839	1240
1024.129	1266.89
1024.419	1252.65
1024.709	1225.98
1025	1216.27
1025.29	1187.34
1025.58	1191.86
1025.87	1160.68
1026.16	1160.68
1026.449	1196.61
1026.739	1164.97
1027.029	1165.2
1027.319	1157.29
1027.608	1145.08
1027.898	1125.87
1028.187	1134.01
1028.477	1157.06
1028.766	1112.99
1029.055	1102.6
1029.344	1115.48
1029.634	1091.07
1029.923	1074.12
1030.212	1075.48
1030.501	1091.3
1030.79	1087.01
1031.078	1053.79
1031.367	1080.9
1031.656	1048.59
1031.945	1042.26
1032.233	1056.95
1032.522	1030.74
1032.81	1011.98
1033.099	1025.99
1033.387	1011.75
1033.675	1006.78
1033.963	1008.14
1034.251	996.84
1034.54	985.77
1034.828	990.28
1035.116	1003.39
1035.403	950.06
1035.691	966.1
1035.979	962.71
1036.267	960.23
1036.554	943.28
1036.842	961.36
1037.129	936.5
1037.417	943.05
1037.704	913.22
1037.992	905.99
1038.279	916.16
1038.566	905.99
1038.853	905.99
1039.14	905.99
