Data from hue_00_FLMS001491_24.txt Node
Date: Mon Feb 06 15:29:28 GMT 2017
User: dcchb
Spectrometer: FLMS00149
Trigger mode: 0
Integration Time (sec): 2.000000E-2
Scans to average: 10
Electric dark correction enabled: true
Nonlinearity correction enabled: false
Boxcar width: 0
XAxis mode: Wavelengths
Number of Pixels in Spectrum: 2048
>>>>>Begin Spectral Data<<<<<
341.393	-28.11
341.776	-28.11
342.16	-28.11
342.543	-62.23
342.927	-47.77
343.31	-53.87
343.693	-84.15
344.077	-67.43
344.46	-63.59
344.843	-31.27
345.226	-44.15
345.61	-34.43
345.993	-12.51
346.376	-10.25
346.759	0.82
347.142	12.12
347.525	50.08
347.908	34.94
348.291	90.99
348.674	95.51
349.057	117.2
349.44	149.29
349.823	148.61
350.206	175.73
350.588	182.96
350.971	212.79
351.354	238.78
351.737	234.03
352.119	253.02
352.502	255.73
352.884	274.26
353.267	289.4
353.65	302.73
354.032	318.1
354.414	312.68
354.797	307.48
355.179	307.03
355.562	358.78
355.944	314.94
356.326	345.22
356.709	327.14
357.091	327.59
357.473	326.91
357.855	331.88
358.238	372.79
358.62	344.76
359.002	342.96
359.384	356.29
359.766	329.85
360.148	350.87
360.53	346.35
360.912	329.85
361.294	353.13
361.676	327.14
362.057	349.96
362.439	332.34
362.821	331.21
363.203	328.95
363.584	339.34
363.966	348.61
364.348	330.3
364.729	362.39
365.111	307.93
365.493	307.48
365.874	326.69
366.256	320.81
366.637	317.42
367.019	326.69
367.4	329.4
367.781	334.82
368.163	325.1
368.544	309.06
368.925	318.32
369.306	323.75
369.688	319.68
370.069	325.33
370.45	313.58
370.831	316.07
371.212	328.72
371.593	321.26
371.974	308.16
372.355	305.9
372.736	328.27
373.117	282.17
373.498	313.81
373.879	311.77
374.26	324.65
374.641	318.55
375.021	303.41
375.402	320.58
375.783	302.51
376.163	315.84
376.544	314.94
376.925	349.51
377.305	323.97
377.686	331.43
378.066	338.44
378.447	313.58
378.827	323.97
379.208	339.12
379.588	323.52
379.968	340.47
380.349	340.7
380.729	320.81
381.109	318.55
381.489	329.4
381.87	355.61
382.25	330.3
382.63	350.41
383.01	352.9
383.39	360.13
383.77	352.22
384.15	335.27
384.53	337.53
384.91	353.8
385.29	359.91
385.67	353.58
386.049	350.19
386.429	329.4
386.809	359.45
387.189	357.42
387.568	362.39
387.948	358.55
388.328	353.35
388.707	347.48
389.087	328.72
389.466	374.14
389.846	341.38
390.225	351.77
390.605	357.19
390.984	354.71
391.363	382.96
391.743	366.23
392.122	378.89
392.501	377.53
392.881	343.18
393.26	376.4
393.639	367.82
394.018	374.59
394.397	380.7
394.776	361.94
395.155	369.85
395.534	360.36
395.913	375.27
396.292	389.28
396.671	386.57
397.05	381.15
397.429	401.03
397.808	374.37
398.186	399
398.565	399.68
398.944	400.81
399.323	375.05
399.701	376.63
400.08	389.28
400.458	405.33
400.837	397.42
401.215	413.24
401.594	378.66
401.972	401.71
402.351	394.93
402.729	400.36
403.107	413.24
403.486	403.97
403.864	409.62
404.242	431.99
404.62	424.08
404.999	418.21
405.377	416.4
405.755	411.88
406.133	439
406.511	416.18
406.889	458.43
407.267	430.19
407.645	427.25
408.023	413.69
408.401	436.97
408.779	438.55
409.156	428.15
409.534	461.15
409.912	445.78
410.29	460.47
410.667	453.24
411.045	477.87
411.422	459.56
411.8	473.8
412.178	480.35
412.555	472.22
412.933	465.89
413.31	463.86
413.687	464.99
414.065	461.6
414.442	487.36
414.819	467.7
415.197	489.17
415.574	490.75
415.951	507.02
416.328	495.04
416.705	518.09
417.082	493.69
417.46	506.34
417.837	510.64
418.214	520.81
418.591	521.03
418.967	527.81
419.344	501.82
419.721	515.83
420.098	518.77
420.475	540.01
420.852	523.52
421.228	502.5
421.605	532.78
421.982	518.55
422.358	557.64
422.735	539.34
423.111	550.18
423.488	517.64
423.864	554.48
424.241	597.64
424.617	565.55
424.994	545.89
425.37	570.75
425.746	555.15
426.123	559.45
426.499	580.01
426.875	582.05
427.251	583.63
427.627	566.91
428.003	575.27
428.379	594.93
428.756	616.85
429.132	635.15
429.507	625.21
429.883	622.05
430.259	612.55
430.635	651.42
431.011	628.6
431.387	632.44
431.763	640.8
432.138	633.57
432.514	652.33
432.89	662.27
433.265	649.62
433.641	664.3
434.016	658.2
434.392	684.87
434.767	677.86
435.143	671.54
435.518	700.01
435.894	713.34
436.269	726.45
436.644	720.12
437.02	715.38
437.395	731.2
437.77	721.03
438.145	728.03
438.52	734.59
438.895	746.79
439.271	751.99
439.646	757.18
440.021	766.45
440.395	745.88
440.77	763.06
441.145	775.49
441.52	775.04
441.895	767.8
442.27	775.71
442.645	773
443.019	785.66
443.394	789.5
443.769	790.85
444.143	775.04
444.518	810.29
444.892	797.18
445.267	793.11
445.641	824.75
446.016	823.17
446.39	826.33
446.764	812.55
447.139	822.72
447.513	825.88
447.887	833.11
448.262	817.07
448.636	844.64
449.01	861.14
449.384	855.71
449.758	851.42
450.132	851.42
450.506	875.37
450.88	869.5
451.254	868.59
451.628	858.65
452.002	909.27
452.376	894.81
452.75	908.14
453.123	911.3
453.497	900.91
453.871	909.5
454.244	925.99
454.618	950.85
454.992	922.15
455.365	946.56
455.739	939.33
456.112	968.03
456.486	951.3
456.859	958.53
457.232	1004.41
457.606	972.55
457.979	1028.36
458.352	1029.49
458.725	1030.4
459.099	1031.53
459.472	1006.22
459.845	1044.63
460.218	1076.27
460.591	1071.75
460.964	1082.82
461.337	1093.67
461.71	1109.04
462.083	1140.9
462.456	1123.05
462.829	1149.72
463.201	1170.28
463.574	1171.41
463.947	1139.32
464.32	1186.78
464.692	1182.71
465.065	1211.18
465.438	1237.85
465.81	1224.52
466.183	1228.81
466.555	1285.31
466.928	1251.63
467.3	1255.25
467.672	1301.12
468.045	1326.89
468.417	1307.68
468.789	1357.85
469.161	1324.63
469.534	1349.03
469.906	1400.56
470.278	1414.12
470.65	1451.4
471.022	1437.84
471.394	1456.83
471.766	1469.93
472.138	1478.97
472.51	1524.39
472.882	1542.25
473.253	1552.64
473.625	1568.91
473.997	1594
474.369	1626.31
474.74	1637.61
475.112	1663.37
475.484	1679.42
475.855	1683.71
476.227	1749.02
476.598	1770.94
476.97	1789.7
477.341	1815.69
477.713	1880.54
478.084	1841.67
478.455	1923.25
478.827	1949.24
479.198	1992.63
479.569	2039.18
479.94	2041.67
480.311	2105.4
480.682	2147.66
481.053	2146.07
481.424	2190.82
481.795	2224.94
482.166	2285.05
482.537	2272.17
482.908	2317.82
483.279	2356.92
483.65	2407.08
484.021	2462.45
484.391	2475.33
484.762	2510.13
485.133	2549
485.503	2553.07
485.874	2646.63
486.244	2702.44
486.615	2725.95
486.985	2735.44
487.356	2807.75
487.726	2823.34
488.097	2855.89
488.467	2900.63
488.837	2946.5
489.207	2984.47
489.578	3072.6
489.948	3069.44
490.318	3117.57
490.688	3112.38
491.058	3161.87
491.428	3231.24
491.798	3267.17
492.168	3335.19
492.538	3312.14
492.908	3376.78
493.278	3421.29
493.648	3449.09
494.017	3496.09
494.387	3518.01
494.757	3549.65
495.126	3570.89
495.496	3613.15
495.866	3661.74
496.235	3713.72
496.605	3761.17
496.974	3734.96
497.344	3800.95
497.713	3792.36
498.082	3804.79
498.452	3861.51
498.821	3899.7
499.19	3894.95
499.559	3938.79
499.928	3921.17
500.298	3989.87
500.667	4049.75
501.036	4044.1
501.405	4069.41
501.774	4054.72
502.143	4087.72
502.512	4119.35
502.88	4171.11
503.249	4134.04
503.618	4184.66
503.987	4209.3
504.356	4234.61
504.724	4243.42
505.093	4304.21
505.462	4275.28
505.83	4306.92
506.199	4339.24
506.567	4358.44
506.936	4405.22
507.304	4433.7
507.672	4456.52
508.041	4466.69
508.409	4466.01
508.777	4532.68
509.145	4549.17
509.514	4532.45
509.882	4564.09
510.25	4546.24
510.618	4560.25
510.986	4596.4
511.354	4638.44
511.722	4687.25
512.09	4705.78
512.458	4713.01
512.826	4717.76
513.193	4700.13
513.561	4733.58
513.929	4796.63
514.297	4820.13
514.664	4812.22
515.032	4844.99
515.4	4884.08
515.767	4876.4
516.135	4933.8
516.502	4846.79
516.869	4979.67
517.237	4985.55
517.604	4946
517.972	5014.47
518.339	5012.66
518.706	5005.89
519.073	5013.12
519.44	5049.95
519.808	5136.28
520.175	5127.24
520.542	5126.33
520.909	5152.77
521.276	5135.15
521.643	5215.15
522.009	5239.55
522.376	5303.28
522.743	5266.44
523.11	5303.5
523.477	5306.44
523.843	5386.67
524.21	5430.73
524.577	5423.05
524.943	5428.02
525.31	5474.57
525.676	5535.59
526.043	5548.92
526.409	5566.1
526.776	5594.8
527.142	5632.54
527.508	5681.57
527.874	5682.48
528.241	5749.37
528.607	5698.52
528.973	5736.26
529.339	5755.24
529.705	5797.28
530.071	5858.97
530.437	5819.2
530.803	5932.87
531.169	5970.38
531.535	5953.88
531.901	5978.29
532.267	6020.1
532.632	6022.13
532.998	6063.48
533.364	6037.95
533.73	6142.8
534.095	6134.9
534.461	6178.74
534.826	6198.85
535.192	6202.01
535.557	6269.13
535.923	6246.76
536.288	6289.92
536.653	6359.97
537.019	6299.64
537.384	6384.61
537.749	6396.58
538.114	6353.19
538.479	6394.32
538.845	6462.8
539.21	6471.61
539.575	6479.07
539.94	6518.61
540.305	6563.58
540.67	6533.75
541.034	6557.93
541.399	6630.7
541.764	6653.98
542.129	6709.57
542.494	6660.98
542.858	6682.45
543.223	6761.77
543.587	6726.74
543.952	6768.78
544.316	6828.66
544.681	6854.65
545.045	6922.45
545.41	6891.03
545.774	6948.66
546.138	6938.04
546.503	6954.76
546.867	7027.53
547.231	7072.5
547.595	7050.58
547.959	7105.72
548.324	7107.07
548.688	7087.41
549.052	7126.28
549.416	7128.77
549.779	7142.1
550.143	7248.99
550.507	7245.15
550.871	7253.74
551.235	7314.07
551.599	7379.61
551.962	7344.13
552.326	7330.12
552.689	7425.03
553.053	7391.13
553.417	7374.86
553.78	7504.58
554.143	7484.01
554.507	7522.66
554.87	7532.37
555.234	7626.38
555.597	7523.11
555.96	7540.28
556.323	7609.66
556.686	7649.43
557.05	7696.89
557.413	7709.32
557.776	7703.89
558.139	7756.55
558.502	7799.03
558.865	7833.61
559.228	7940.27
559.59	7919.71
559.953	7855.75
560.316	7970.78
560.679	7996.54
561.041	7999.93
561.404	8064.56
561.767	8044.68
562.129	8049.42
562.492	8132.81
562.854	8179.59
563.217	8141.85
563.579	8160.83
563.941	8270.88
564.304	8257.55
564.666	8274.95
565.028	8293.93
565.39	8323.31
565.753	8477.88
566.115	8432.01
566.477	8432.24
566.839	8444.66
567.201	8496.42
567.563	8502.52
567.925	8574.83
568.287	8542.52
568.648	8575.28
569.01	8741.61
569.372	8732.34
569.734	8722.85
570.095	8764.43
570.457	8812.11
570.819	8832.23
571.18	8877.87
571.542	8908.83
571.903	8898.44
572.265	8977.08
572.626	9067.7
572.987	9061.6
573.349	9107.02
573.71	9150.18
574.071	9182.05
574.432	9255.94
574.794	9384.08
575.155	9318.09
575.516	9399.44
575.877	9425.88
576.238	9474.69
576.599	9609.83
576.96	9672.66
577.32	9751.3
577.681	9780
578.042	9897.96
578.403	9944.06
578.763	10052.31
579.124	10115.58
579.485	10220.89
579.845	10368.46
580.206	10489.58
580.566	10569.13
580.927	10653.42
581.287	10756.69
581.648	10867.88
582.008	11051.38
582.368	11089.34
582.728	11323.46
583.089	11423.12
583.449	11500.18
583.809	11716.67
584.169	11866.27
584.529	12035.76
584.889	12226.71
585.249	12371.79
585.609	12477.78
585.969	12716.42
586.329	12923.42
586.688	13209.51
587.048	13327.93
587.408	13562.5
587.768	13760.01
588.127	13977.4
588.487	14185.3
588.846	14516.6
589.206	14638.85
589.565	14948
589.925	15204.94
590.284	15441.54
590.643	15632.27
591.003	15975.09
591.362	16159.72
591.721	16496.43
592.08	16711.79
592.44	17062.74
592.799	17286.69
593.158	17579.57
593.517	17766.45
593.876	18143.17
594.235	18344.74
594.593	18670.38
594.952	18937.04
595.311	19173.87
595.67	19554.88
596.029	19951.26
596.387	20146.5
596.746	20546.04
597.104	20667.39
597.463	20931.79
597.822	21379.92
598.18	21603.64
598.538	21813.8
598.897	22204.3
599.255	22281.14
599.613	22939.2
599.972	23065.75
600.33	23576.92
600.688	23609.24
601.046	24018.04
601.404	24263.46
601.762	24476.33
602.12	24968.98
602.478	25112.7
602.836	25447.38
603.194	25531
603.552	25903.64
603.91	25997.65
604.268	26454.13
604.625	26560.8
604.983	27057.73
605.341	27120.56
605.698	27483.71
606.056	27781.33
606.413	27820.2
606.771	28281.88
607.128	28530.92
607.485	28647.98
607.843	28893.39
608.2	29295.19
608.557	29438.24
608.914	29555.97
609.272	29920.26
609.629	30255.39
609.986	30463.97
610.343	30440.47
610.7	30875.49
611.057	31088.82
611.414	31247.68
611.771	31428.69
612.127	31724.73
612.484	31804.95
612.841	32028
613.198	32159.97
613.554	32298.95
613.911	32756.79
614.267	32818.71
614.624	32836.34
614.98	33081.53
615.337	33466.61
615.693	33619.14
616.05	33624.57
616.406	33938.46
616.762	34000.15
617.118	33984.33
617.475	34241.05
617.831	34424.09
618.187	34591.32
618.543	34670.42
618.899	35062.04
619.255	35149.05
619.611	35213.68
619.967	35345.65
620.323	35572.54
620.678	35512.43
621.034	35507.46
621.39	35705.42
621.746	35810.05
622.101	36171.17
622.457	35935.47
622.812	36260.2
623.168	36382.69
623.523	36454.78
623.879	36707.65
624.234	36356.25
624.589	36650.93
624.945	36729.12
625.3	36809.34
625.655	37025.61
626.01	37045.95
626.365	37229.9
626.72	37170.46
627.075	37174.76
627.43	37238.03
627.785	37258.6
628.14	37582.43
628.495	37440.51
628.85	37515.54
629.205	37340.63
629.559	37548.76
629.914	37560.06
630.269	37731.13
630.623	37512.38
630.978	37488.42
631.332	37766.38
631.687	37863.55
632.041	37734.06
632.396	37932.25
632.75	37705.59
633.104	37794.63
633.459	37760.5
633.813	37660.62
634.167	37893.61
634.521	37716.89
634.875	37902.87
635.229	37826.94
635.583	37730.22
635.937	37659.72
636.291	37821.07
636.645	37843.44
636.999	37736.1
637.352	37961.85
637.706	37848.41
638.06	37856.77
638.413	37783.78
638.767	37848.41
639.121	37761.86
639.474	37737
639.828	37797.34
640.181	37805.25
640.534	37854.74
640.888	37683.22
641.241	37571.58
641.594	37750.79
641.947	37871.24
642.301	37650.45
642.654	37701.3
643.007	37657.23
643.36	37720.96
643.713	37646.16
644.066	37780.39
644.419	37539.27
644.771	37297.69
645.124	36925.5
645.477	37108.77
645.83	36780.64
646.182	36723.24
646.535	36465.17
646.888	36752.62
647.24	36458.62
647.593	36688.89
647.945	36609.35
648.298	36429.69
648.65	36406.64
649.002	36381.56
649.355	36493.19
649.707	36347.21
650.059	36590.14
650.411	36920.53
650.763	37016.8
651.115	37437.8
651.467	37327.07
651.819	37355.77
652.171	37288.65
652.523	37200.52
652.875	37165.94
653.227	36994.2
653.578	37297.69
653.93	37245.94
654.282	37094.76
654.633	37051.37
654.985	37067.42
655.337	37010.69
655.688	37187.86
656.039	37146.28
656.391	36804.82
656.742	36843.01
657.094	36887.08
657.445	37209.78
657.796	37035.33
658.147	36913.75
658.498	36789.46
658.849	36996.46
659.2	37094.53
659.551	36810.92
659.902	37085.72
660.253	37063.57
660.604	37044.14
660.955	36865.84
661.306	36952.84
661.656	36944.71
662.007	36883.01
662.358	36772.96
662.708	36790.13
663.059	36899.51
663.409	36663.13
663.76	36927.31
664.11	36790.36
664.461	36889.57
664.811	36852.28
665.161	36804.6
665.511	36784.48
665.862	36904.93
666.212	36810.92
666.562	36861.54
666.912	36823.13
667.262	36706.29
667.612	36781.32
667.962	36887.53
668.312	36736.8
668.662	36964.82
669.011	36756.69
669.361	36801.89
669.711	36678.5
670.06	36702.9
670.41	36603.02
670.76	36715.33
671.109	36772.51
671.459	36815.67
671.808	36599.18
672.157	36737.71
672.507	36487.77
672.856	36534.55
673.205	36586.52
673.554	36569.8
673.904	36492.29
674.253	36722.57
674.602	36527.54
674.951	36044.17
675.3	35936.6
675.649	36473.98
675.998	36408.45
676.346	36439.41
676.695	36481.67
677.044	36253.65
677.393	36280.09
677.741	36428.56
678.09	36264.05
678.438	36160.32
678.787	36257.27
679.135	36232.63
679.484	36038.97
679.832	36126.2
680.181	35916.71
680.529	36216.14
680.877	35981.79
681.225	35990.83
681.573	36152.64
681.922	36007.33
682.27	35778.86
682.618	35817.73
682.966	35603.72
683.314	35694.34
683.661	35666.1
684.009	35468.36
684.357	35403.05
684.705	35364.41
685.053	35395.14
685.4	35349.04
685.748	35281.93
686.095	35268.37
686.443	35116.51
686.79	35103.17
687.138	35160.12
687.485	35179.33
687.832	34940.69
688.18	34956.96
688.527	34753.8
688.874	34836.29
689.221	34665.67
689.568	34663.86
689.915	34595.84
690.262	34561.04
690.609	34529.85
690.956	34486.92
691.303	34329.86
691.65	34153.14
691.997	34200.6
692.344	33962.86
692.69	33883.09
693.037	33942.53
693.383	33649.65
693.73	33787.05
694.077	33562.42
694.423	33621.18
694.769	33476.55
695.116	33377.34
695.462	33362.65
695.808	33220.74
696.155	33346.38
696.501	33082.21
696.847	33125.82
697.193	32823.23
697.539	33018.03
697.885	32758.38
698.231	32602
698.577	32783.01
698.923	32698.72
699.269	32409.01
699.614	32258.5
699.96	32299.86
700.306	32323.59
700.651	32186.87
700.997	32033.2
701.342	32119.3
701.688	31909.81
702.033	31860.09
702.379	31891.28
702.724	31731.96
703.069	31894.44
703.415	31408.58
703.76	31431.86
704.105	31402.48
704.45	31415.36
704.795	31195.03
705.14	31037.52
705.485	31109.38
705.83	31053.11
706.175	30996.39
706.52	30940.8
706.865	30774.02
707.209	30754.81
707.554	30790.52
707.899	30808.82
708.243	30478.21
708.588	30467.14
708.932	30367.7
709.277	30218.1
709.621	30247.93
709.966	30123.42
710.31	30168.61
710.654	30033.25
710.998	29823.54
711.342	29971.33
711.687	29858.57
712.031	29734.5
712.375	29654.5
712.719	29777.66
713.063	29597.56
713.407	29754.84
713.75	29570.89
714.094	29402.76
714.438	29427.84
714.782	29412.48
715.125	29334.29
715.469	29282.08
715.812	29147.4
716.156	28987.63
716.499	29082.31
716.843	29124.57
717.186	28811.14
717.53	29000.28
717.873	28985.37
718.216	28892.94
718.559	28742.21
718.902	28544.7
719.246	28633.29
719.589	28541.76
719.932	28441.43
720.275	28492.05
720.617	28414.31
720.96	28426.51
721.303	28363.46
721.646	28383.12
721.989	28217.93
722.331	28318.72
722.674	28192.17
723.016	28133.41
723.359	28117.59
723.701	28161.66
724.044	27949.69
724.386	27838.28
724.729	28014.09
725.071	27990.59
725.413	27898.16
725.755	27904.04
726.097	27676.7
726.439	27515.35
726.782	27577.5
727.124	27656.59
727.465	27499.76
727.807	27576.59
728.149	27590.83
728.491	27410.04
728.833	27480.77
729.175	27258.63
729.516	27296.82
729.858	27323.26
730.199	27150.84
730.541	27191.29
730.882	27158.75
731.224	27289.59
731.565	27004.85
731.906	27019.09
732.248	27058.64
732.589	26857.51
732.93	26914.91
733.271	26894.58
733.612	26886.89
733.953	26912.88
734.294	26823.62
734.635	26684.41
734.976	26813.22
735.317	26513.34
735.658	26550.18
735.999	26608.93
736.339	26490.74
736.68	26636.28
737.021	26518.54
737.361	26329.17
737.702	26607.58
738.042	26485.09
738.383	26245.33
738.723	26286.91
739.063	26250.07
739.404	26318.55
739.744	26203.29
740.084	26074.03
740.424	26103.18
740.764	25995.39
741.104	26160.36
741.444	25940.48
741.784	25889.18
742.124	25963.75
742.464	25879.01
742.804	25797.66
743.143	25718.34
743.483	25813.7
743.823	25713.82
744.162	25601.05
744.502	25677.66
744.841	25542.29
745.181	25622.29
745.52	25544.78
745.86	25529.64
746.199	25459.13
746.538	25435.86
746.877	25526.25
747.216	25495.52
747.556	25345.24
747.895	25360.15
748.234	25360.83
748.573	25274.05
748.911	25245.58
749.25	25282.19
749.589	25123.55
749.928	25213.49
750.267	25213.72
750.605	25131.68
750.944	25041.52
751.283	24934.4
751.621	25027.51
751.96	24937.79
752.298	24839.49
752.636	24743.9
752.975	24700.51
753.313	24621.87
753.651	24569.44
753.989	24546.39
754.327	24508.65
754.666	24452.15
755.004	24361.76
755.342	24409.22
755.679	24442.44
756.017	24311.59
756.355	24395.21
756.693	24206.51
757.031	24239.05
757.368	24093.97
757.706	24046.74
758.044	23967.87
758.381	23898.95
758.719	23934.88
759.056	23928.33
759.394	23680.65
759.731	23584.15
760.068	23616.02
760.405	23605.85
760.743	23456.93
761.08	23635.23
761.417	23391.62
761.754	23309.13
762.091	23255.8
762.428	23232.75
762.765	23137.16
763.102	23089.93
763.438	22911.63
763.775	22891.74
764.112	22875.02
764.449	22930.39
764.785	22885.64
765.122	22654.69
765.458	22602.03
765.795	22520
766.131	22605.42
766.467	22595.03
766.804	22320.46
767.14	22300.12
767.476	22258.99
767.812	22094.7
768.148	22160.69
768.485	22128.15
768.821	21910.98
769.157	21909.62
769.492	21871.43
769.828	21857.42
770.164	21502.17
770.5	21568.39
770.836	21653.13
771.171	21392.12
771.507	21363.87
771.842	21297.89
772.178	21207.49
772.513	21115.74
772.849	21174.5
773.184	21109.64
773.519	21010.21
773.855	20891.12
774.19	20833.72
774.525	20799.37
774.86	20790.33
775.195	20708.98
775.53	20490.22
775.865	20427.85
776.2	20202.32
776.535	20157.13
776.87	20241.42
777.205	20155.32
777.539	19962.78
777.874	20087.07
778.209	19837.81
778.543	19824.48
778.878	19731.37
779.212	19815.67
779.547	19615.67
779.881	19699.06
780.215	19372.74
780.55	19555.56
780.884	19379.74
781.218	19285.51
781.552	19349.46
781.886	19270.37
782.22	19130.03
782.554	19048.68
782.888	18831.74
783.222	18929.36
783.556	18825.86
783.889	18746.77
784.223	18669.25
784.557	18576.83
784.89	18642.36
785.224	18418.87
785.557	18347.91
785.891	18367.12
786.224	18297.06
786.558	18263.16
786.891	18187.69
787.224	18011.19
787.557	18026.79
787.891	17954.92
788.224	17999.89
788.557	17910.63
788.89	17917.86
789.223	17834.7
789.556	17614.14
789.888	17630.64
790.221	17484.2
790.554	17445.56
790.887	17387.25
791.219	17390.42
791.552	17374.83
791.884	17161.27
792.217	17186.58
792.549	17122.85
792.882	16961.73
793.214	16891.9
793.546	16914.27
793.879	16724
794.211	16763.09
794.543	16765.58
794.875	16700.27
795.207	16793.82
795.539	16566.03
795.871	16639.7
796.203	16413.27
796.535	16416.21
796.867	16368.52
797.198	16305.02
797.53	16385.47
797.862	16180.51
798.193	16269.77
798.525	16021.19
798.856	16135.99
799.188	15875.88
799.519	15944.13
799.85	15879.72
800.182	15917.24
800.513	15829.33
800.844	15659.62
801.175	15734.87
801.506	15697.36
801.837	15642.22
802.168	15562.9
802.499	15597.47
802.83	15406.06
803.161	15409
803.491	15409
803.822	15479.73
804.153	15261.21
804.483	15206.75
804.814	15202.91
805.145	15166.75
805.475	15186.63
805.805	15077.26
806.136	15089.69
806.466	15021.89
806.796	15018.73
807.126	14872.97
807.457	14930.14
807.787	14847.66
808.117	14765.4
808.447	14726.31
808.777	14714.33
809.107	14677.95
809.436	14629.59
809.766	14661.45
810.096	14597.05
810.426	14477.73
810.755	14562.92
811.085	14462.59
811.414	14423.26
811.744	14301.91
812.073	14301.91
812.403	14198.64
812.732	14178.98
813.061	14217.17
813.39	14137.4
813.719	14063.73
814.049	14193.89
814.378	14063.27
814.707	14017.4
815.036	14026.21
815.365	13939.21
815.693	13754.81
816.022	13851.08
816.351	13777.18
816.68	13730.4
817.008	13744.41
817.337	13675.26
817.665	13576.73
817.994	13667.58
818.322	13613.57
818.651	13582.83
818.979	13518.2
819.307	13568.37
819.636	13495.38
819.964	13394.14
820.292	13482.5
820.62	13400.69
820.948	13422.16
821.276	13432.33
821.604	13322.28
821.932	13367.7
822.259	13308.72
822.587	13382.61
822.915	13355.27
823.243	13335.16
823.57	13273.24
823.898	13329.51
824.225	13320.02
824.553	13315.27
824.88	13222.39
825.207	13368.83
825.535	13330.19
825.862	13302.62
826.189	13304.42
826.516	13311.88
826.843	13377.64
827.17	13252
827.497	13328.15
827.824	13363.63
828.151	13362.5
828.478	13288.38
828.805	13440.01
829.131	13256.52
829.458	13270.98
829.785	13149.85
830.111	13251.54
830.438	13302.62
830.764	13204.31
831.09	13375.61
831.417	13115.95
831.743	13302.39
832.069	13280.24
832.395	13249.96
832.722	13209.74
833.048	13133.13
833.374	13257.87
833.7	13146.69
834.026	13133.81
834.351	13208.83
834.677	13141.94
835.003	13175.39
835.329	13116.41
835.654	13094.49
835.98	13018.56
836.306	13032.79
836.631	13024.21
836.956	12999.12
837.282	12967.03
837.607	12982.85
837.932	12906.69
838.258	12954.15
838.583	12899.24
838.908	12837.32
839.233	12798
839.558	12804.55
839.883	12667.38
840.208	12759.81
840.533	12739.92
840.858	12810.43
841.182	12727.26
841.507	12724.55
841.832	12626.93
842.156	12600.94
842.481	12640.03
842.805	12606.36
843.13	12619.92
843.454	12542.18
843.778	12526.14
844.103	12459.93
844.427	12461.51
844.751	12386.48
845.075	12364.79
845.399	12311.46
845.723	12337.9
846.047	12344.9
846.371	12184.45
846.695	12276.2
847.019	12072.14
847.343	12063.78
847.666	12032.82
847.99	11909.21
848.313	11930.67
848.637	11824.01
848.96	11850.23
849.284	11902.88
849.607	11768.42
849.931	11696.33
850.254	11686.16
850.577	11543.57
850.9	11469.9
851.223	11471.48
851.546	11349.67
851.869	11381.54
852.192	11396.68
852.515	11284.36
852.838	11258.83
853.161	11285.27
853.483	11186.29
853.806	11166.18
854.129	11153.07
854.451	11118.49
854.774	11044.14
855.096	10982.68
855.419	10921.66
855.741	10910.59
856.063	10821.78
856.385	10779.74
856.708	10742.91
857.03	10701.1
857.352	10729.12
857.674	10750.37
857.996	10724.38
858.318	10633.08
858.64	10495.68
858.961	10616.13
859.283	10562.35
859.605	10519.41
859.926	10619.75
860.248	10537.94
860.57	10516.93
860.891	10522.8
861.212	10397.83
861.534	10488
861.855	10378.63
862.176	10384.05
862.498	10340.43
862.819	10292.98
863.14	10262.47
863.461	10260.21
863.782	10278.74
864.103	10180.21
864.424	10229.02
864.745	10272.19
865.065	10206.2
865.386	10172.3
865.707	10176.37
866.027	10141.12
866.348	10120.78
866.668	10108.12
866.989	10025.19
867.309	10015.25
867.63	9962.59
867.95	9958.07
868.27	10027.45
868.59	9982.7
868.91	9918.07
869.23	9910.62
869.55	9892.54
869.87	9947.22
870.19	9922.14
870.51	9902.48
870.83	9903.38
871.15	9797.4
871.469	9808.24
871.789	9877.62
872.109	9780
872.428	9745.65
872.748	9796.95
873.067	9737.29
873.386	9769.83
873.706	9734.57
874.025	9596.95
874.344	9654.8
874.663	9718.3
874.982	9616.39
875.301	9660.9
875.62	9621.36
875.939	9594.24
876.258	9536.84
876.577	9507.46
876.896	9535.48
877.214	9548.14
877.533	9450.29
877.852	9471.98
878.17	9495.03
878.489	9429.72
878.807	9473.34
879.125	9427.01
879.444	9449.16
879.762	9398.54
880.08	9369.61
880.398	9308.15
880.716	9405.54
881.034	9304.08
881.352	9362.38
881.67	9291.65
881.988	9352.21
882.306	9274.25
882.624	9294.13
882.941	9187.7
883.259	9171.2
883.577	9156.51
883.894	9108.6
884.212	9126.68
884.529	9149.51
884.846	9114.25
885.164	9099.79
885.481	9088.94
885.798	9018.21
886.115	8997.64
886.432	8993.35
886.75	8954.71
887.067	8984.76
887.383	8893.92
887.7	8926.69
888.017	8862.28
888.334	8892.56
888.651	8809.4
888.967	8809.18
889.284	8815.28
889.6	8786.12
889.917	8708.16
890.233	8727.14
890.55	8694.38
890.866	8670.65
891.182	8669.52
891.498	8678.56
891.815	8625.23
892.131	8581.38
892.447	8507.49
892.763	8497.32
893.079	8433.82
893.395	8490.09
893.71	8445.79
894.026	8406.93
894.342	8392.69
894.657	8362.86
894.973	8344.33
895.289	8327.61
895.604	8235.63
895.92	8221.62
896.235	8199.25
896.55	8274.05
896.865	8239.25
897.181	8106.14
897.496	8154.96
897.811	8077.67
898.126	8085.13
898.441	8081.28
898.756	8031.34
899.071	7963.77
899.386	8034.05
899.7	7947.5
900.015	7873.61
900.33	7813.04
900.644	7834.96
900.959	7838.35
901.273	7837.45
901.588	7768.3
901.902	7690.11
902.216	7689.88
902.531	7648.53
902.845	7658.92
903.159	7618.47
903.473	7576.44
903.787	7528.08
904.101	7514.52
904.415	7512.49
904.729	7455.54
905.042	7424.8
905.356	7387.52
905.67	7397.23
905.984	7319.5
906.297	7303.23
906.611	7277.92
906.924	7266.62
907.237	7228.88
907.551	7204.47
907.864	7250.12
908.177	7136.68
908.491	7176.68
908.804	7158.37
909.117	7014.87
909.43	7024.59
909.743	7072.5
910.056	7035.44
910.368	6984.14
910.681	6978.71
910.994	6889.45
911.307	6892.84
911.619	6894.65
911.932	6831.37
912.244	6844.48
912.557	6806.29
912.869	6721.77
913.181	6793.86
913.494	6715.9
913.806	6631.83
914.118	6623.47
914.43	6654.66
914.742	6631.61
915.054	6549.57
915.366	6540.76
915.678	6492.17
915.99	6483.81
916.302	6433.64
916.613	6417.6
916.925	6396.13
917.236	6366.3
917.548	6386.64
917.859	6375.57
918.171	6296.02
918.482	6246.3
918.794	6257.38
919.105	6227.32
919.416	6200.88
919.727	6190.94
920.038	6117.95
920.349	6103.03
920.66	6137.38
920.971	6085.4
921.282	6040.89
921.593	6062.58
921.903	6005.63
922.214	5985.07
922.525	5985.75
922.835	5906.65
923.146	5899.2
923.456	5857.61
923.767	5880.21
924.077	5860.33
924.387	5759.76
924.697	5767.9
925.008	5832.98
925.318	5753.44
925.628	5701.46
925.938	5710.27
926.248	5597.51
926.558	5651.07
926.867	5606.32
927.177	5587.11
927.487	5571.29
927.796	5467.57
928.106	5499.43
928.416	5480.9
928.725	5500.79
929.034	5430.28
929.344	5459.43
929.653	5438.64
929.962	5367.23
930.271	5345.76
930.581	5303.73
930.89	5256.95
931.199	5310.51
931.508	5282.94
931.817	5266.22
932.125	5244.3
932.434	5186.45
932.743	5141.93
933.051	5117.29
933.36	5165.88
933.669	5088.37
933.977	5056.73
934.286	5095.37
934.594	5055.38
934.902	5004.76
935.21	4992.1
935.519	4951.65
935.827	4983.51
936.135	4964.3
936.443	4873.91
936.751	4908.26
937.059	4854.02
937.367	4869.39
937.674	4891.31
937.982	4840.24
938.29	4776.06
938.597	4841.37
938.905	4781.26
939.213	4716.63
939.52	4692.9
939.827	4703.75
940.135	4669.17
940.442	4666.46
940.749	4636.4
941.056	4636.86
941.363	4592.56
941.67	4565.9
941.977	4548.04
942.284	4569.29
942.591	4521.6
942.898	4464.43
943.205	4449.74
943.511	4470.31
943.818	4462.85
944.125	4376.52
944.431	4402.06
944.738	4396.18
945.044	4392.12
945.35	4396.18
945.657	4310.31
945.963	4277.77
946.269	4216.75
946.575	4263.31
946.881	4277.99
947.187	4241.61
947.493	4186.7
947.799	4211.78
948.105	4176.53
948.41	4182.18
948.716	4131.78
949.022	4119.13
949.327	4123.42
949.633	4037.1
949.938	4078.9
950.244	4046.36
950.549	4033.26
950.854	4040.71
951.16	4017.21
951.465	3992.58
951.77	3940.6
952.075	3903.77
952.38	3935.86
952.685	3958.46
952.99	3915.97
953.294	3869.87
953.599	3898.12
953.904	3837.78
954.209	3836.2
954.513	3845.24
954.818	3812.47
955.122	3802.98
955.426	3767.27
955.731	3756.88
956.035	3733.83
956.339	3739.03
956.643	3720.72
956.948	3696.54
957.252	3678.46
957.556	3673.49
957.86	3644.57
958.163	3631.68
958.467	3602.98
958.771	3607.73
959.075	3602.98
959.378	3567.73
959.682	3565.7
959.985	3548.97
960.289	3532.03
960.592	3493.38
960.896	3532.03
961.199	3458.58
961.502	3475.76
961.805	3452.03
962.108	3426.27
962.411	3380.39
962.714	3381.3
963.017	3411.35
963.32	3379.94
963.623	3372.93
963.926	3331.13
964.228	3311.47
964.531	3304.01
964.833	3283.9
965.136	3305.37
965.438	3282.99
965.741	3291.58
966.043	3224.46
966.345	3237.12
966.648	3220.17
966.95	3199.15
967.252	3193.28
967.554	3215.65
967.856	3185.37
968.158	3117.35
968.46	3142.21
968.761	3171.81
969.063	3082.55
969.365	3095.88
969.666	3035.54
969.968	3075.77
970.269	3031.25
970.571	3050.68
970.872	3043.9
971.174	3002.77
971.475	2993.73
971.776	2992.83
972.077	2972.49
972.378	2964.58
972.679	2925.26
972.98	2936.79
973.281	2905.38
973.582	2908.09
973.883	2915.32
974.183	2874.19
974.484	2857.69
974.785	2878.71
975.085	2844.13
975.386	2857.02
975.686	2803.68
975.986	2845.04
976.287	2775.44
976.587	2785.6
976.887	2759.39
977.187	2739.28
977.487	2764.14
977.787	2720.97
978.087	2731.37
978.387	2753.52
978.687	2730.92
978.987	2733.4
979.286	2676.91
979.586	2664.93
979.885	2629.68
980.185	2648.66
980.484	2601.88
980.784	2641.88
981.083	2641.65
981.382	2591.71
981.682	2608.21
981.981	2598.27
982.28	2566.4
982.579	2563.24
982.878	2542.67
983.177	2492.28
983.475	2522.79
983.774	2486.4
984.073	2493.86
984.372	2461.55
984.67	2470.81
984.969	2498.83
985.267	2431.72
985.566	2461.32
985.864	2415.22
986.162	2480.53
986.461	2391.26
986.759	2420.19
987.057	2398.5
987.355	2399.63
987.653	2369.57
987.951	2346.52
988.249	2344.71
988.547	2339.97
988.844	2325.96
989.142	2327.09
989.44	2265.39
989.737	2347.2
990.035	2279.63
990.332	2298.16
990.63	2251.61
990.927	2273.3
991.224	2268.78
991.521	2279.86
991.819	2224.72
992.116	2210.25
992.413	2206.64
992.71	2189.01
993.006	2188.56
993.303	2207.99
993.6	2235.34
993.897	2181.1
994.193	2164.15
994.49	2125.74
994.787	2126.41
995.083	2153.53
995.379	2116.02
995.676	2132.06
995.972	2064.72
996.268	2090.03
996.565	2096.81
996.861	2058.62
997.157	2031.05
997.453	2034.89
997.749	2050.71
998.044	2005.29
998.34	2003.48
998.636	1993.99
998.932	1971.61
999.227	1950.37
999.523	1973.42
999.818	1964.84
1000.114	1950.6
1000.409	1935.68
1000.704	1947.21
1001	1910.83
1001.295	1909.7
1001.59	1905.85
1001.885	1917.6
1002.18	1882.35
1002.475	1866.53
1002.77	1865.63
1003.065	1871.73
1003.359	1855.23
1003.654	1813.2
1003.949	1822.47
1004.243	1815.91
1004.538	1811.17
1004.832	1789.25
1005.127	1793.31
1005.421	1762.13
1005.715	1777.5
1006.009	1764.84
1006.304	1743.37
1006.598	1754.45
1006.892	1723.26
1007.186	1680.1
1007.48	1713.09
1007.773	1695.69
1008.067	1692.53
1008.361	1680.1
1008.655	1677.61
1008.948	1675.58
1009.242	1653.43
1009.535	1656.82
1009.829	1641.23
1010.122	1623.15
1010.415	1637.16
1010.708	1623.6
1011.001	1598.52
1011.295	1623.83
1011.588	1591.51
1011.881	1558.74
1012.173	1566.2
1012.466	1571.63
1012.759	1545.19
1013.052	1547.22
1013.344	1520.55
1013.637	1533.66
1013.93	1538.86
1014.222	1529.59
1014.514	1502.25
1014.807	1499.76
1015.099	1512.42
1015.391	1487.79
1015.683	1475.81
1015.976	1481.68
1016.268	1456.37
1016.56	1414.34
1016.851	1427.67
1017.143	1431.52
1017.435	1412.31
1017.727	1406.88
1018.018	1394.45
1018.31	1388.13
1018.602	1381.12
1018.893	1396.26
1019.185	1370.95
1019.476	1351.52
1019.767	1337.06
1020.058	1318.3
1020.35	1322.37
1020.641	1312.2
1020.932	1330.05
1021.223	1312.42
1021.514	1299.54
1021.804	1281.46
1022.095	1271.97
1022.386	1288.69
1022.677	1264.06
1022.967	1280.11
1023.258	1236.94
1023.548	1251.63
1023.839	1226.1
1024.129	1206.89
1024.419	1203.27
1024.709	1186.78
1025	1189.71
1025.29	1177.51
1025.58	1205.99
1025.87	1204.4
1026.16	1163.5
1026.449	1177.74
1026.739	1178.64
1027.029	1161.24
1027.319	1125.54
1027.608	1132.77
1027.898	1136.83
1028.187	1132.99
1028.477	1102.71
1028.766	1117.4
1029.055	1127.57
1029.344	1111.07
1029.634	1087.8
1029.923	1079.21
1030.212	1071.98
1030.501	1062.03
1030.79	1052.77
1031.078	1051.41
1031.367	1048.25
1031.656	1044.63
1031.945	1069.27
1032.233	1017.74
1032.522	1019.78
1032.81	1034.46
1033.099	984.52
1033.387	1009.38
1033.675	992.88
1033.963	967.57
1034.251	981.36
1034.54	997.4
1034.828	987.91
1035.116	954.69
1035.403	966.9
1035.691	942.26
1035.979	965.31
1036.267	936.61
1036.554	930.06
1036.842	933
1037.129	935.03
1037.417	917.41
1037.704	912.43
1037.992	921.7
1038.279	917.41
1038.566	883.51
1038.853	883.51
1039.14	883.51
