Data from hue_170_FLMS001491_00009.txt Node
Date: Tue Feb 07 16:48:10 GMT 2017
User: dcchb
Spectrometer: FLMS00149
Trigger mode: 0
Integration Time (sec): 2.000000E-2
Scans to average: 10
Electric dark correction enabled: true
Nonlinearity correction enabled: false
Boxcar width: 0
XAxis mode: Wavelengths
Number of Pixels in Spectrum: 2048
>>>>>Begin Spectral Data<<<<<
341.393	-17.7
341.776	-17.7
342.16	-17.7
342.543	-35.55
342.927	-67.87
343.31	-70.58
343.693	-61.54
344.077	-64.25
344.46	-46.17
344.843	-49.11
345.226	-43.01
345.61	-32.84
345.993	-38.26
346.376	-12.27
346.759	23.88
347.142	25.01
347.525	52.13
347.908	57.33
348.291	61.4
348.674	88.97
349.057	109.31
349.44	127.61
349.823	128.74
350.206	153.37
350.588	172.81
350.971	205.35
351.354	229.3
351.737	239.7
352.119	253.71
352.502	250.77
352.884	281.96
353.267	261.39
353.65	311.33
354.032	289.87
354.414	294.61
354.797	306.81
355.179	293.48
355.562	324.44
355.944	327.83
356.326	333.03
356.709	324.67
357.091	339.58
357.473	352.46
357.855	341.39
358.238	340.26
358.62	334.16
359.002	356.08
359.384	323.76
359.766	327.6
360.148	357.89
360.53	324.89
360.912	305.68
361.294	320.15
361.676	326.25
362.057	322.18
362.439	349.07
362.821	337.77
363.203	314.5
363.584	325.8
363.966	327.15
364.348	333.71
364.729	299.81
365.111	303.42
365.493	328.96
365.874	314.95
366.256	320.37
366.637	323.76
367.019	304.78
367.4	310.66
367.781	307.49
368.163	324.21
368.544	298.23
368.925	318.34
369.306	301.16
369.688	314.27
370.069	319.92
370.45	327.38
370.831	307.27
371.212	317.89
371.593	321.28
371.974	306.14
372.355	313.37
372.736	310.2
373.117	310.66
373.498	312.92
373.879	314.72
374.26	298.45
374.641	314.27
375.021	337.77
375.402	333.25
375.783	330.99
376.163	332.12
376.544	335.74
376.925	329.64
377.305	335.29
377.686	308.62
378.066	316.53
378.447	346.81
378.827	342.97
379.208	298.45
379.588	312.46
379.968	315.18
380.349	330.54
380.729	315.4
381.109	345.91
381.489	340.26
381.87	338
382.25	350.65
382.63	333.03
383.01	337.55
383.39	362.86
383.77	371.45
384.15	334.84
384.53	309.75
384.91	335.51
385.29	332.12
385.67	335.29
386.049	350.2
386.429	361.5
386.809	353.59
387.189	359.69
387.568	352.01
387.948	336.64
388.328	374.38
388.707	353.37
389.087	370.32
389.466	355.63
389.846	358.56
390.225	366.93
390.605	377.09
390.984	362.41
391.363	349.3
391.743	366.02
392.122	390.43
392.501	387.72
392.881	386.59
393.26	373.03
393.639	361.95
394.018	387.49
394.397	378.9
394.776	372.8
395.155	392.91
395.534	371.45
395.913	369.19
396.292	383.87
396.671	386.59
397.05	391.33
397.429	382.07
397.808	395.17
398.186	388.39
398.565	398.34
398.944	382.97
399.323	412.35
399.701	401.27
400.08	405.12
400.458	395.85
400.837	408.96
401.215	411.9
401.594	406.02
401.972	409.41
402.351	409.86
402.729	408.51
403.107	426.58
403.486	409.86
403.864	434.49
404.242	432.46
404.62	422.52
404.999	428.62
405.377	462.29
405.755	433.82
406.133	415.74
406.511	432.69
406.889	464.1
407.267	452.35
407.645	447.83
408.023	457.09
408.401	450.99
408.779	465.23
409.156	461.39
409.534	484.89
409.912	496.41
410.29	474.95
410.667	490.09
411.045	491.89
411.422	498
411.8	498
412.178	512.68
412.555	498
412.933	497.09
413.31	532.34
413.687	514.27
414.065	525.57
414.442	535.73
414.819	549.75
415.197	541.38
415.574	528.73
415.951	547.94
416.328	560.14
416.705	573.02
417.082	583.19
417.46	570.08
417.837	575.73
418.214	607.82
418.591	597.88
418.967	585.9
419.344	616.41
419.721	638.1
420.098	622.51
420.475	621.38
420.852	588.39
421.228	615.51
421.605	630.2
421.982	634.04
422.358	639.91
422.735	645.11
423.111	632.91
423.488	650.31
423.864	670.87
424.241	671.1
424.617	696.63
424.994	709.97
425.37	719.91
425.746	718.1
426.123	714.94
426.499	697.54
426.875	720.14
427.251	759.01
427.627	723.53
428.003	756.07
428.379	761.94
428.756	788.61
429.132	755.62
429.507	784.77
429.883	790.64
430.259	808.04
430.635	777.31
431.011	829.29
431.387	829.96
431.763	826.12
432.138	831.09
432.514	837.2
432.89	884.65
433.265	893.24
433.641	884.43
434.016	890.53
434.392	913.8
434.767	924.42
435.143	926.68
435.518	956.97
435.894	930.75
436.269	974.14
436.644	951.99
437.02	985.67
437.395	995.16
437.77	994.93
438.145	1000.81
438.52	1052.11
438.895	1050.98
439.271	1043.74
439.646	1073.12
440.021	1070.18
440.395	1071.09
440.77	1072.9
441.145	1083.52
441.52	1135.49
441.895	1113.35
442.27	1136.17
442.645	1149.05
443.019	1160.35
443.394	1150.18
443.769	1177.07
444.143	1189.95
444.518	1175.49
444.892	1207.58
445.267	1203.74
445.641	1208.26
446.016	1237.86
446.39	1221.82
446.764	1229.73
447.139	1261.82
447.513	1264.98
447.887	1272.89
448.262	1271.08
448.636	1267.01
449.01	1294.58
449.384	1316.28
449.758	1300.46
450.132	1312.66
450.506	1337.97
450.88	1377.52
451.254	1352.21
451.628	1364.41
452.002	1397.86
452.376	1384.98
452.75	1397.41
453.123	1446.9
453.497	1444.19
453.871	1443.73
454.244	1485.09
454.618	1516.27
454.992	1495.26
455.365	1523.96
455.739	1546.33
456.112	1565.76
456.486	1556.27
456.859	1593.79
457.232	1601.7
457.606	1617.97
457.979	1655.93
458.352	1677.17
458.725	1737.74
459.099	1764.63
459.472	1750.62
459.845	1760.56
460.218	1777.06
460.591	1814.8
460.964	1801.01
461.337	1834.68
461.71	1912.65
462.083	1898.86
462.456	1906.55
462.829	1962.14
463.201	1982.25
463.574	1994
463.947	2028.12
464.32	2067.67
464.692	2079.2
465.065	2087.56
465.438	2125.75
465.81	2159.65
466.183	2167.33
466.555	2242.58
466.928	2278.74
467.3	2255.01
467.672	2344.5
468.045	2371.62
468.417	2415.46
468.789	2404.84
469.161	2471.5
469.534	2535.23
469.906	2567.77
470.278	2605.74
470.65	2644.38
471.022	2679.41
471.394	2773.87
471.766	2798.73
472.138	2818.84
472.51	2914.66
472.882	2962.79
473.253	3040.53
473.625	3059.96
473.997	3166.4
474.369	3172.5
474.74	3191.94
475.112	3302.22
475.484	3392.38
475.855	3463.12
476.227	3461.76
476.598	3630.12
476.97	3698.14
477.341	3724.58
477.713	3847.51
478.084	3934.52
478.455	4066.72
478.827	4071.46
479.198	4202.76
479.569	4269.65
479.94	4387.38
480.311	4452.92
480.682	4556.42
481.053	4717.09
481.424	4823.08
481.795	4885.45
482.166	5042.73
482.537	5101.26
482.908	5223.29
483.279	5342.39
483.65	5482.05
484.021	5606.56
484.391	5746.22
484.762	5772.43
485.133	5905.76
485.503	6036.61
485.874	6216.72
486.244	6328.35
486.615	6435.47
486.985	6561.34
487.356	6749.36
487.726	6825.51
488.097	7048.78
488.467	7077.94
488.837	7314.31
489.207	7397.02
489.578	7498.04
489.948	7660.29
490.318	7778.48
490.688	7884.69
491.058	8004.01
491.428	8209.43
491.798	8312.25
492.168	8556.09
492.538	8613.26
492.908	8696.42
493.278	8908.62
493.648	8906.14
494.017	9132.34
494.387	9238.56
494.757	9266.8
495.126	9516.74
495.496	9540.24
495.866	9698.21
496.235	9745.89
496.605	9878.09
496.974	9918.54
497.344	10091.19
497.713	10143.17
498.082	10271.52
498.452	10413.21
498.821	10499.77
499.19	10504.74
499.559	10692.76
499.928	10740.89
500.298	10822.02
500.667	10908.8
501.036	10961
501.405	11135
501.774	11061.79
502.143	11182.23
502.512	11312.17
502.88	11392.17
503.249	11372.51
503.618	11493.19
503.987	11542
504.356	11657.48
504.724	11685.72
505.093	11780.64
505.462	11784.48
505.83	11905.83
506.199	12001.42
506.567	12125.03
506.936	12027.18
507.304	12212.04
507.672	12304.92
508.041	12344.24
508.409	12424.91
508.777	12479.6
509.145	12573.61
509.514	12557.11
509.882	12702.19
510.25	12697.22
510.618	12730.89
510.986	12743.1
511.354	12804.11
511.722	12927.73
512.09	12972.47
512.458	12974.73
512.826	13044.11
513.193	13069.42
513.561	13084.78
513.929	13124.56
514.297	13200.71
514.664	13298.79
515.032	13251.33
515.4	13351.89
515.767	13400.71
516.135	13389.18
516.502	13351.89
516.869	13535.62
517.237	13539.23
517.604	13460.14
517.972	13608.84
518.339	13631.44
518.706	13587.59
519.073	13628.27
519.44	13768.83
519.808	13769.74
520.175	13633.7
520.542	13889.06
520.909	13840.7
521.276	13785.56
521.643	13845.67
522.009	13899.68
522.376	13915.72
522.743	13944.2
523.11	14008.37
523.477	14103.29
523.843	14178.77
524.21	14215.6
524.577	14239.1
524.943	14184.19
525.31	14236.39
525.676	14378.53
526.043	14284.3
526.409	14294.24
526.776	14482.71
527.142	14384.64
527.508	14456.95
527.874	14545.54
528.241	14456.5
528.607	14478.19
528.973	14532.43
529.339	14443.39
529.705	14554.57
530.071	14503.28
530.437	14536.5
530.803	14492.2
531.169	14564.29
531.535	14389.61
531.901	14407.23
532.267	14503.73
532.632	14433.67
532.998	14505.76
533.364	14494.92
533.73	14434.58
534.095	14485.2
534.461	14443.39
534.826	14518.19
535.192	14398.19
535.557	14401.81
535.923	14362.94
536.288	14338.54
536.653	14409.95
537.019	14222.83
537.384	14320.46
537.749	14191.19
538.114	14142.61
538.479	14216.05
538.845	14217.41
539.21	14084.53
539.575	14156.85
539.94	14009.5
540.305	13944.42
540.67	13974.03
541.034	13920.92
541.399	13951.88
541.764	13925.89
542.129	13891.32
542.494	13863.97
542.858	13785.33
543.223	13718.66
543.587	13750.98
543.952	13658.55
544.316	13669.63
544.681	13630.76
545.045	13636.18
545.41	13659.68
545.774	13581.95
546.138	13475.06
546.503	13414.27
546.867	13369.52
547.231	13438.45
547.595	13360.03
547.959	13335.17
548.324	13204.1
548.688	13204.33
549.052	13154.39
549.416	13152.8
549.779	13096.76
550.143	13071
550.507	13081.85
550.871	13051.79
551.235	12972.7
551.599	13022.41
551.962	12909.65
552.326	12978.8
552.689	12974.96
553.053	12830.55
553.417	12797.33
553.78	12961.4
554.143	12697.22
554.507	12748.97
554.87	12764.79
555.234	12832.59
555.597	12701.97
555.96	12621.97
556.323	12659.71
556.686	12668.75
557.05	12666.26
557.413	12716.66
557.776	12599.82
558.139	12626.26
558.502	12602.08
558.865	12579.71
559.228	12609.09
559.59	12512.82
559.953	12638.02
560.316	12634.85
560.679	12609.32
561.041	12606.15
561.404	12613.16
561.767	12648.64
562.129	12521.18
562.492	12592.14
562.854	12585.36
563.217	12523.67
563.579	12572.71
563.941	12627.39
564.304	12600.5
564.666	12654.29
565.028	12562.76
565.39	12517.11
565.753	12599.15
566.115	12635.3
566.477	12487.96
566.839	12638.02
567.201	12652.7
567.563	12602.76
567.925	12709.65
568.287	12711.91
568.648	12675.53
569.01	12668.3
569.372	12779.25
569.734	12718.24
570.095	12734.96
570.457	12776.32
570.819	12762.08
571.18	12761.4
571.542	12770.22
571.903	12726.83
572.265	12660.39
572.626	12815.19
572.987	12809.54
573.349	12802.53
573.71	12833.04
574.071	12796.66
574.432	12784
574.794	12934.28
575.155	12864.9
575.516	12838.46
575.877	12838.24
576.238	12921.62
576.599	12917.1
576.96	12812.93
577.32	12813.15
577.681	12898.8
578.042	12856.31
578.403	12851.34
578.763	12888.63
579.124	12898.35
579.485	12895.18
579.845	12881.85
580.206	12894.28
580.566	12881.62
580.927	12912.13
581.287	12892.02
581.648	12875.3
582.008	12902.87
582.368	12842.53
582.728	12840.72
583.089	12874.62
583.449	12804.34
583.809	12842.76
584.169	12790.33
584.529	12761.18
584.889	12832.13
585.249	12750.78
585.609	12682.76
585.969	12742.19
586.329	12706.26
586.688	12771.34
587.048	12708.75
587.408	12733.15
587.768	12695.19
588.127	12667.62
588.487	12657.22
588.846	12786.49
589.206	12727.73
589.565	12682.53
589.925	12680.05
590.284	12639.37
590.643	12680.05
591.003	12675.98
591.362	12669.2
591.721	12707.17
592.08	12703.55
592.44	12658.35
592.799	12656.09
593.158	12566.6
593.517	12558.47
593.876	12585.81
594.235	12469.88
594.593	12561.41
594.952	12642.31
595.311	12493.39
595.67	12486.15
596.029	12540.16
596.387	12599.37
596.746	12577.23
597.104	12556.89
597.463	12523.44
597.822	12630.78
598.18	12449.55
598.538	12521.41
598.897	12506.72
599.255	12376.55
599.613	12544.68
599.972	12531.58
600.33	12524.35
600.688	12493.16
601.046	12497.23
601.404	12494.52
601.762	12516.89
602.12	12579.49
602.478	12569.32
602.836	12587.62
603.194	12496.32
603.552	12509.66
603.91	12460.17
604.268	12451.35
604.625	12407.96
604.983	12528.41
605.341	12446.16
605.698	12538.58
606.056	12585.59
606.413	12472.14
606.771	12553.95
607.128	12533.61
607.485	12505.59
607.843	12525.7
608.2	12557.34
608.557	12556.44
608.914	12561.86
609.272	12570.45
609.629	12601.41
609.986	12636.43
610.343	12538.58
610.7	12713.95
611.057	12632.37
611.414	12615.19
611.771	12598.92
612.127	12645.25
612.484	12702.42
612.841	12667.17
613.198	12648.41
613.554	12645.47
613.911	12708.52
614.267	12714.85
614.624	12736.32
614.98	12594.4
615.337	12709.2
615.693	12728.86
616.05	12719.82
616.406	12804.34
616.762	12746.71
617.118	12822.19
617.475	12737
617.831	12731.8
618.187	12740.61
618.543	12777.45
618.899	12863.77
619.255	12810.67
619.611	12846.37
619.967	12822.87
620.323	12867.84
620.678	12829.87
621.034	12814.51
621.39	12815.86
621.746	12757.79
622.101	12928.85
622.457	12798.69
622.812	12798.91
623.168	12854.05
623.523	12834.17
623.879	12923.21
624.234	12782.19
624.589	12801.63
624.945	12894.28
625.3	12825.81
625.655	12834.85
626.01	12887.05
626.365	12865.81
626.72	12768.86
627.075	12788.29
627.43	12824.22
627.785	12758.69
628.14	12817.45
628.495	12765.02
628.85	12763.21
629.205	12752.59
629.559	12822.87
629.914	12705.13
630.269	12829.42
630.623	12704.68
630.978	12702.65
631.332	12744.68
631.687	12769.31
632.041	12667.17
632.396	12689.77
632.75	12598.02
633.104	12681.86
633.459	12531.8
633.813	12622.42
634.167	12577
634.521	12497.23
634.875	12607.73
635.229	12569.54
635.583	12493.84
635.937	12492.03
636.291	12491.8
636.645	12528.41
636.999	12505.14
637.352	12536.1
637.706	12389.43
638.06	12468.75
638.413	12440.51
638.767	12511.92
639.121	12422.88
639.474	12368.42
639.828	12328.42
640.181	12370
640.534	12382.43
640.888	12305.82
641.241	12325.71
641.594	12274.86
641.947	12270.34
642.301	12233.05
642.654	12164.36
643.007	12290
643.36	12259.72
643.713	12195.77
644.066	12326.84
644.419	12222.21
644.771	12144.69
645.124	12022.66
645.477	11991.25
645.83	11917.13
646.182	11883.23
646.535	11857.24
646.888	11867.41
647.24	11857.92
647.593	11892.05
647.945	11840.97
648.298	11789
648.65	11744.25
649.002	11787.19
649.355	11818.38
649.707	11848.43
650.059	11916.9
650.411	12011.14
650.763	12074.41
651.115	12127.07
651.467	12096.11
651.819	12076.67
652.171	12038.03
652.523	12029.44
652.875	12085.49
653.227	11992.38
653.578	12203.22
653.93	12131.81
654.282	12087.97
654.633	12060.18
654.985	12025.83
655.337	12077.8
655.688	12063.12
656.039	12104.7
656.391	12000.52
656.742	12074.64
657.094	12052.49
657.445	12196.44
657.796	12088.65
658.147	12080.74
658.498	12108.09
658.849	12120.74
659.2	12183.11
659.551	12122.55
659.902	12094.98
660.253	12084.36
660.604	12112.83
660.955	12062.44
661.306	12125.49
661.656	12092.49
662.007	12139.95
662.358	12165.26
662.708	12166.16
663.059	12180.63
663.409	12082.1
663.76	12238.93
664.11	12175.88
664.461	12168.87
664.811	12155.77
665.161	12244.81
665.511	12146.05
665.862	12192.38
666.212	12162.55
666.562	12158.25
666.912	12153.06
667.262	12126.62
667.612	12210.23
667.962	12169.33
668.312	12159.84
668.662	12209.33
669.011	12165.94
669.361	12131.14
669.711	12164.36
670.06	12184.92
670.41	12074.19
670.76	12138.37
671.109	12205.71
671.459	12202.09
671.808	12048.65
672.157	12092.72
672.507	12008.65
672.856	11991.25
673.205	12127.75
673.554	12075.54
673.904	12075.09
674.253	12082.32
674.602	11932.27
674.951	11870.13
675.3	11779.51
675.649	12011.36
675.998	11973.63
676.346	11965.26
676.695	12012.04
677.044	11789.22
677.393	11989.9
677.741	11923.68
678.09	11865.38
678.438	11831.26
678.787	11879.84
679.135	11946.28
679.484	11801.43
679.832	11830.13
680.181	11803.01
680.529	11810.69
680.877	11749.9
681.225	11735.67
681.573	11789.22
681.922	11725.95
682.27	11680.98
682.618	11753.97
682.966	11627.19
683.314	11676.01
683.661	11570.7
684.009	11499.29
684.357	11522.56
684.705	11505.16
685.053	11515.78
685.4	11466.52
685.748	11455.67
686.095	11399.4
686.443	11291.84
686.79	11269.69
687.138	11335.22
687.485	11327.99
687.832	11324.83
688.18	11349.01
688.527	11286.19
688.874	11268.79
689.221	11234.66
689.568	11145.4
689.915	11043.71
690.262	11153.99
690.609	11053.88
690.956	11056.36
691.303	11020.88
691.65	10998.96
691.997	10951.73
692.344	10875.12
692.69	10833.32
693.037	10857.05
693.383	10757.39
693.73	10781.34
694.077	10759.65
694.423	10743.83
694.769	10668.58
695.116	10638.29
695.462	10612.08
695.808	10553.1
696.155	10624.96
696.501	10448.02
696.847	10481.46
697.193	10345.19
697.539	10438.52
697.885	10297.74
698.231	10291.86
698.577	10357.62
698.923	10211.41
699.269	10186.55
699.614	10110.62
699.96	10158.98
700.306	10080.34
700.651	10047.35
700.997	10041.93
701.342	9983.4
701.688	9938.88
702.033	9950.85
702.379	9943.85
702.724	9901.36
703.069	9858.43
703.415	9731.42
703.76	9726.45
704.105	9765.1
704.45	9732.33
704.795	9663.86
705.14	9610.52
705.485	9612.11
705.83	9497.98
706.175	9560.36
706.52	9488.04
706.865	9508.38
707.209	9426.8
707.554	9420.25
707.899	9420.7
708.243	9384.54
708.588	9332.57
708.932	9264.54
709.277	9266.13
709.621	9260.02
709.966	9223.42
710.31	9192.46
710.654	9144.32
710.998	9172.57
711.342	9149.07
711.687	9129.41
712.031	9080.82
712.375	9065.23
712.719	9068.62
713.063	9025.68
713.407	9030.2
713.75	8968.28
714.094	8944.55
714.438	8919.92
714.782	8976.19
715.125	8923.08
715.469	8933.93
715.812	8850.09
716.156	8816.87
716.499	8829.3
716.843	8848.06
717.186	8745.24
717.53	8818.68
717.873	8773.03
718.216	8800.15
718.559	8763.77
718.902	8665.92
719.246	8727.38
719.589	8699.81
719.932	8679.25
720.275	8639.02
720.617	8646.93
720.96	8645.35
721.303	8672.7
721.646	8676.54
721.989	8629.31
722.331	8621.4
722.674	8645.35
723.016	8602.64
723.359	8634.73
723.701	8570.1
724.044	8531.91
724.386	8478.58
724.729	8603.77
725.071	8508.41
725.413	8589.99
725.755	8535.98
726.097	8507.05
726.439	8429.54
726.782	8459.82
727.124	8531
727.465	8530.55
727.807	8499.82
728.149	8441.74
728.491	8452.14
728.833	8396.77
729.175	8435.19
729.516	8413.49
729.858	8448.29
730.199	8454.85
730.541	8468.86
730.882	8383.66
731.224	8487.16
731.565	8430.67
731.906	8411.23
732.248	8447.39
732.589	8362.2
732.93	8404
733.271	8382.99
733.612	8450.78
733.953	8461.18
734.294	8443.32
734.635	8435.87
734.976	8414.85
735.317	8422.08
735.658	8424.34
735.999	8394.96
736.339	8411.46
736.68	8453.27
737.021	8493.94
737.361	8415.53
737.702	8494.85
738.042	8477.22
738.383	8415.98
738.723	8496.66
739.063	8470.89
739.404	8590.89
739.744	8510.44
740.084	8511.57
740.424	8505.92
740.764	8509.76
741.104	8542.08
741.444	8550.44
741.784	8541.85
742.124	8645.13
742.464	8586.14
742.804	8611.68
743.143	8628.18
743.483	8606.26
743.823	8669.31
744.162	8697.1
744.502	8773.03
744.841	8763.99
745.181	8830.88
745.52	8800.15
745.86	8899.13
746.199	8937.1
746.538	8930.77
746.877	9005.34
747.216	9011.9
747.556	9054.15
747.895	9135.06
748.234	9212.57
748.573	9232.45
748.911	9260.93
749.25	9343.86
749.589	9337.54
749.928	9438.78
750.267	9567.36
750.605	9587.25
750.944	9687.58
751.283	9737.3
751.621	9829.5
751.96	9961.25
752.298	10030.17
752.636	10143.84
752.975	10198.08
753.313	10204.41
753.651	10413.21
753.989	10578.18
754.327	10654.11
754.666	10723.49
755.004	10862.47
755.342	11039.64
755.679	11127.32
756.017	11187.66
756.355	11420.42
756.693	11532.06
757.031	11691.15
757.368	11851.6
757.706	12005.26
758.044	12157.58
758.381	12309.44
758.719	12412.71
759.056	12683.44
759.394	12788.07
759.731	12905.8
760.068	13097.66
760.405	13202.75
760.743	13361.61
761.08	13567.03
761.417	13751.43
761.754	14013.12
762.091	14099.22
762.428	14234.13
762.765	14315.94
763.102	14689.49
763.438	14853.1
763.775	14894.68
764.112	15075.01
764.449	15367.21
764.785	15413.31
765.122	15580.54
765.458	15716.58
765.795	15953.41
766.131	16144.82
766.467	16173.74
766.804	16301.42
767.14	16433.85
767.476	16602.2
767.812	16666.84
768.148	16948.41
768.485	16901.41
768.821	17150.66
769.157	17249.87
769.492	17340.26
769.828	17547.04
770.164	17538.45
770.5	17625.23
770.836	17859.57
771.171	17878.1
771.507	17945.67
771.842	18033.13
772.178	18157.87
772.513	18224.31
772.849	18322.16
773.184	18490.29
773.519	18537.07
773.855	18568.25
774.19	18592.89
774.525	18672.66
774.86	18804.41
775.195	18890.96
775.53	18867.46
775.865	18846.44
776.2	18862.48
776.535	18874.46
776.87	19005.98
777.205	18979.77
777.539	19032.42
777.874	19049.6
778.209	19092.99
778.543	19024.29
778.878	19085.98
779.212	19146.09
779.547	19188.58
779.881	19241.68
780.215	19234
780.55	19330.72
780.884	19261.8
781.218	19211.4
781.552	19275.35
781.886	19240.55
782.22	19156.26
782.554	19284.62
782.888	19226.54
783.222	19232.42
783.556	19114.91
783.889	19164.4
784.223	19056.15
784.557	19088.02
784.89	19216.83
785.224	19086.66
785.557	19009.83
785.891	19130.73
786.224	19051.86
786.558	19124.17
786.891	19001.69
787.224	18996.72
787.557	18923.95
787.891	18828.13
788.224	18979.09
788.557	19019.09
788.89	18942.03
789.223	18872.65
789.556	18893.9
789.888	18806.44
790.221	18731.64
790.554	18735.93
790.887	18740.45
791.219	18674.92
791.552	18630.4
791.884	18530.74
792.217	18526.45
792.549	18587.24
792.882	18435.15
793.214	18454.81
793.546	18487.13
793.879	18447.35
794.211	18255.95
794.543	18329.84
794.875	18320.8
795.207	18392.21
795.539	18262.5
795.871	18198.55
796.203	18158.55
796.535	18076.97
796.867	18135.05
797.198	18011.66
797.53	18124.65
797.862	17813.92
798.193	17993.58
798.525	17883.07
798.856	17907.48
799.188	17747.71
799.519	17639.01
799.85	17689.63
800.182	17640.82
800.513	17688.73
800.844	17474.95
801.175	17625.68
801.506	17628.84
801.837	17500.03
802.168	17434.05
802.499	17438.79
802.83	17330.1
803.161	17226.82
803.491	17308.85
803.822	17349.3
804.153	17217.78
804.483	17102.3
804.814	17101.63
805.145	17000.39
805.475	17040.39
805.805	16943.89
806.136	17010.56
806.466	17022.76
806.796	16917
807.126	16800.39
807.457	16734.63
807.787	16859.6
808.117	16703.22
808.447	16640.17
808.777	16706.16
809.107	16553.39
809.436	16548.19
809.766	16477.91
810.096	16459.16
810.426	16411.93
810.755	16417.8
811.085	16452.15
811.414	16494.86
811.744	16319.5
812.073	16279.73
812.403	16242.67
812.732	16089.45
813.061	16244.47
813.39	16128.54
813.719	16081.31
814.049	16123.57
814.378	16050.58
814.707	15942.34
815.036	16025.27
815.365	15916.35
815.693	15847.65
816.022	15882.68
816.351	15783.7
816.68	15678.84
817.008	15783.47
817.337	15611.04
817.665	15551.38
817.994	15649.69
818.322	15743.92
818.651	15608.33
818.979	15467.77
819.307	15655.79
819.636	15561.1
819.964	15470.26
820.292	15500.99
820.62	15449.69
820.948	15474.78
821.276	15540.99
821.604	15437.94
821.932	15493.08
822.259	15470.03
822.587	15420.99
822.915	15370.15
823.243	15525.17
823.57	15377.38
823.898	15481.78
824.225	15324.5
824.553	15506.41
824.88	15381.22
825.207	15557.03
825.535	15503.25
825.862	15513.65
826.189	15402.69
826.516	15390.26
826.843	15575.79
827.17	15416.7
827.497	15531.5
827.824	15538.28
828.151	15475.68
828.478	15448.79
828.805	15620.76
829.131	15489.92
829.458	15436.81
829.785	15432.07
830.111	15404.27
830.438	15505.06
830.764	15569.92
831.09	15470.26
831.417	15397.04
831.743	15462.35
832.069	15489.92
832.395	15354.78
832.722	15399.75
833.048	15402.91
833.374	15405.4
833.7	15340.09
834.026	15270.26
834.351	15394.33
834.677	15294.67
835.003	15319.75
835.329	15321.33
835.654	15356.81
835.98	15167.21
836.306	15212.86
836.631	15143.26
836.956	15283.37
837.282	15237.27
837.607	15162.47
837.932	15042.7
838.258	15106.88
838.583	15104.62
838.908	15009.25
839.233	15054.22
839.558	14976.94
839.883	14937.16
840.208	14952.53
840.533	14882.25
840.858	14965.41
841.182	14879.76
841.507	14917.28
841.832	14855.36
842.156	14843.61
842.481	14810.61
842.805	14816.49
843.13	14717.96
843.454	14703.72
843.778	14723.84
844.103	14601.13
844.427	14635.02
844.751	14607.23
845.075	14491.07
845.399	14516.84
845.723	14449.72
846.047	14358.87
846.371	14280.91
846.695	14331.08
847.019	14192.78
847.343	14075.49
847.666	14118.2
847.99	14011.54
848.313	13996.4
848.637	13933.8
848.96	13985.32
849.284	13912.78
849.607	13746.91
849.931	13724.31
850.254	13675.05
850.577	13634.15
850.9	13449.07
851.223	13412.68
851.546	13434.15
851.869	13395.74
852.192	13450.2
852.515	13209.75
852.838	13186.7
853.161	13210.2
853.483	13100.15
853.806	13090.88
854.129	13126.14
854.451	13007.27
854.774	12976.76
855.096	12849.31
855.419	12926.14
855.741	12781.06
856.063	12707.84
856.385	12800.04
856.708	12689.54
857.03	12654.74
857.352	12676.66
857.674	12631.69
857.996	12525.25
858.318	12495.65
858.64	12559.83
858.961	12512.14
859.283	12510.79
859.605	12289.1
859.926	12349.21
860.248	12342.2
860.57	12280.96
860.891	12239.16
861.212	12206.61
861.534	12157.58
861.855	12094.3
862.176	12173.85
862.498	12224.92
862.819	12119.84
863.14	12091.81
863.461	12049.33
863.782	12078.48
864.103	12041.42
864.424	12006.85
864.745	12016.79
865.065	11873.74
865.386	11941.54
865.707	11877.13
866.027	11934.98
866.348	11885.49
866.668	11866.74
866.989	11795.55
867.309	11722.56
867.63	11727.98
867.95	11716.46
868.27	11713.52
868.59	11767.3
868.91	11642.34
869.23	11670.81
869.55	11587.42
869.87	11714.65
870.19	11613.86
870.51	11644.59
870.83	11620.19
871.15	11552.39
871.469	11550.36
871.789	11550.13
872.109	11464.03
872.428	11441.66
872.748	11433.3
873.067	11467.42
873.386	11478.5
873.706	11430.59
874.025	11351.72
874.344	11330.93
874.663	11422.45
874.982	11270.14
875.301	11388.1
875.62	11270.59
875.939	11249.35
876.258	11311.04
876.577	11248.45
876.896	11160.77
877.214	11201.89
877.533	11211.61
877.852	11142.69
878.17	11106.53
878.489	11163.25
878.807	11141.33
879.125	11091.39
879.444	11097.72
879.762	11008.23
880.08	11073.31
880.398	11015.01
880.716	11029.24
881.034	10958.74
881.352	10968.45
881.67	10936.59
881.988	10911.05
882.306	10916.93
882.624	10861.11
882.941	10807.78
883.259	10792.19
883.577	10769.36
883.894	10730.04
884.212	10737.05
884.529	10746.54
884.846	10723.26
885.164	10650.95
885.481	10641.01
885.798	10680.78
886.115	10531.86
886.432	10560.1
886.75	10577.96
887.067	10557.39
887.383	10492.31
887.7	10450.5
888.017	10474.46
888.334	10416.83
888.651	10472.42
888.967	10390.39
889.284	10278.08
889.6	10274.91
889.917	10222.71
890.233	10314.23
890.55	10168.7
890.866	10264.97
891.182	10118.08
891.498	10125.54
891.815	10057.97
892.131	10036.95
892.447	10036.5
892.763	10003.28
893.079	10016.16
893.395	9981.59
893.71	9900.46
894.026	9870.18
894.342	9920.12
894.657	9817.98
894.973	9772.1
895.289	9755.15
895.604	9731.42
895.92	9662.95
896.235	9577.98
896.55	9657.53
896.865	9630.86
897.181	9563.07
897.496	9591.54
897.811	9460.25
898.126	9482.17
898.441	9406.91
898.756	9384.54
899.071	9356.75
899.386	9337.54
899.7	9239.91
900.015	9187.94
900.33	9195.85
900.644	9204.89
900.959	9204.66
901.273	9084.89
901.588	9092.8
901.902	9078.11
902.216	9006.25
902.531	8990.65
902.845	8962.18
903.159	8871.11
903.473	8909.75
903.787	8849.87
904.101	8775.29
904.415	8804.67
904.729	8730.32
905.042	8696.65
905.356	8690.1
905.67	8657.1
905.984	8650.32
906.297	8572.13
906.611	8604.9
906.924	8512.47
907.237	8508.41
907.551	8474.96
907.864	8466.15
908.177	8414.4
908.491	8361.74
908.804	8268.19
909.117	8249.2
909.43	8213.5
909.743	8190.67
910.056	8235.65
910.368	8154.74
910.681	8094.41
910.994	8072.94
911.307	8096.67
911.619	8059.6
911.932	8003.33
912.244	7964.24
912.557	7946.39
912.869	7843.56
913.181	7842.89
913.494	7840.4
913.806	7749.33
914.118	7751.14
914.43	7716.56
914.742	7773.96
915.054	7635.89
915.366	7639.28
915.678	7630.46
915.99	7505.49
916.302	7521.99
916.613	7514.08
916.925	7432.05
917.236	7433.41
917.548	7447.42
917.859	7395.44
918.171	7348.66
918.482	7337.14
918.794	7311.38
919.105	7269.79
919.416	7259.63
919.727	7161.1
920.038	7158.84
920.349	7117.26
920.66	7120.42
920.971	7117.48
921.282	7096.69
921.593	7057.6
921.903	7027.54
922.214	6985.06
922.525	6914.32
922.835	6917.49
923.146	6826.19
923.456	6874.1
923.767	6859.18
924.077	6806.08
924.387	6782.35
924.697	6708
925.008	6682.47
925.318	6698.51
925.628	6646.08
925.938	6669.81
926.248	6614.22
926.558	6603.82
926.867	6564.5
927.177	6491.96
927.487	6468.91
927.796	6423.04
928.106	6411.74
928.416	6425.07
928.725	6378.52
929.034	6360.44
929.344	6392.08
929.653	6312.31
929.962	6263.95
930.271	6199.09
930.581	6257.39
930.89	6217.84
931.199	6115.47
931.508	6207.9
931.817	6133.78
932.125	6104.4
932.434	6101.46
932.743	5994.8
933.051	6019.43
933.36	5996.83
933.669	5938.76
933.977	5900.57
934.286	5929.49
934.594	5957.74
934.902	5881.13
935.21	5868.25
935.519	5831.41
935.827	5813.34
936.135	5799.55
936.443	5723.85
936.751	5731.53
937.059	5722.72
937.367	5674.58
937.674	5643.17
937.982	5658.99
938.29	5617.18
938.597	5588.48
938.905	5575.15
939.213	5543.06
939.52	5492.89
939.827	5524.3
940.135	5486.56
940.442	5442.05
940.749	5470.97
941.056	5443.85
941.363	5360.69
941.67	5348.04
941.977	5316.17
942.284	5278.21
942.591	5270.75
942.898	5250.86
943.205	5238.66
943.511	5227.36
943.818	5226.01
944.125	5152.34
944.431	5161.6
944.738	5083.64
945.044	5050.19
945.35	5099.91
945.657	5051.32
945.963	4983.75
946.269	4945.11
946.575	4989.4
946.881	4950.31
947.187	4934.26
947.493	4927.71
947.799	4907.6
948.105	4887.48
948.41	4869.41
948.716	4835.73
949.022	4781.5
949.327	4830.99
949.633	4717.32
949.938	4804.55
950.244	4800.71
950.549	4715.29
950.854	4690.43
951.16	4692.01
951.465	4631.22
951.77	4650.65
952.075	4617.44
952.38	4585.8
952.685	4619.02
952.99	4546.02
953.294	4519.13
953.599	4512.35
953.904	4495.18
954.209	4465.57
954.513	4450.21
954.818	4405.92
955.122	4412.02
955.426	4421.06
955.731	4379.7
956.035	4389.87
956.339	4346.03
956.643	4321.17
956.948	4325.69
957.252	4268.97
957.556	4266.26
957.86	4234.17
958.163	4237.56
958.467	4231.23
958.771	4212.25
959.075	4186.26
959.378	4209.99
959.682	4184.68
959.985	4084.12
960.289	4135.87
960.592	4092.7
960.896	4110.33
961.199	4090.44
961.502	4024.46
961.805	4010.9
962.108	3994.63
962.411	3974.06
962.714	3988.53
963.017	3939.26
963.32	3962.99
963.623	3934.74
963.926	3845.03
964.228	3884.35
964.531	3857.23
964.833	3874.4
965.136	3838.7
965.438	3833.73
965.741	3817.46
966.043	3793.73
966.345	3793.28
966.648	3786.95
966.95	3734.07
967.252	3690
967.554	3702.43
967.856	3654.75
968.158	3653.62
968.46	3689.32
968.761	3672.15
969.063	3617.69
969.365	3591.02
969.666	3614.98
969.968	3571.59
970.269	3590.8
970.571	3540.4
970.872	3570.91
971.174	3528.2
971.475	3504.02
971.776	3480.97
972.077	3461.53
972.378	3429.44
972.679	3443.68
972.98	3427.86
973.281	3393.51
973.582	3374.3
973.883	3367.3
974.183	3339.05
974.484	3346.96
974.785	3309.45
975.085	3301.99
975.386	3346.06
975.686	3272.84
975.986	3263.8
976.287	3276.45
976.587	3239.62
976.887	3230.8
977.187	3236.91
977.487	3203.23
977.787	3204.14
978.087	3166.63
978.387	3174.99
978.687	3161.65
978.987	3122.56
979.286	3115.1
979.586	3119.17
979.885	3084.82
980.185	3046.4
980.484	3085.05
980.784	3050.47
981.083	3054.54
981.382	2994.2
981.682	3019.96
981.981	2996.01
982.28	2994.65
982.579	2975.44
982.878	2967.53
983.177	2946.52
983.475	2944.94
983.774	2910.81
984.073	2917.14
984.372	2878.05
984.67	2881.89
984.969	2880.08
985.267	2839.18
985.566	2871.49
985.864	2836.24
986.162	2822.45
986.461	2801.44
986.759	2784.94
987.057	2815
987.355	2743.36
987.653	2763.25
987.951	2702.68
988.249	2736.81
988.547	2736.35
988.844	2688.67
989.142	2645.96
989.44	2685.06
989.737	2660.42
990.035	2642.8
990.332	2639.63
990.63	2629.46
990.927	2624.04
991.224	2613.65
991.521	2617.26
991.819	2553.08
992.116	2510.6
992.413	2557.15
992.71	2550.37
993.006	2500.2
993.303	2506.76
993.6	2526.64
993.897	2488.23
994.193	2479.86
994.49	2489.58
994.787	2476.47
995.083	2451.16
995.379	2454.55
995.676	2412.07
995.972	2431.73
996.268	2396.02
996.565	2402.58
996.861	2375.23
997.157	2370.71
997.453	2347.66
997.749	2363.48
998.044	2325.74
998.34	2304.5
998.636	2294.56
998.932	2276.93
999.227	2302.69
999.523	2246.65
999.818	2279.42
1000.114	2224.28
1000.409	2244.16
1000.704	2238.29
1001	2208.68
1001.295	2208.23
1001.59	2197.61
1001.885	2199.42
1002.18	2170.04
1002.475	2166.65
1002.77	2126.65
1003.065	2122.36
1003.359	2115.58
1003.654	2088.46
1003.949	2094.11
1004.243	2046.43
1004.538	2034
1004.832	2067.45
1005.127	2042.14
1005.421	2060.44
1005.715	2029.25
1006.009	2020.67
1006.304	1966.21
1006.598	2024.51
1006.892	1983.38
1007.186	1975.02
1007.48	1963.49
1007.773	1928.24
1008.067	1923.49
1008.361	1906.55
1008.655	1907.9
1008.948	1917.39
1009.242	1855.25
1009.535	1892.53
1009.829	1858.41
1010.122	1869.48
1010.415	1826.1
1010.708	1800.56
1011.001	1796.72
1011.295	1807.79
1011.588	1796.72
1011.881	1791.75
1012.173	1748.81
1012.466	1781.35
1012.759	1760.11
1013.052	1762.37
1013.344	1751.97
1013.637	1741.58
1013.93	1705.2
1014.222	1713.33
1014.514	1716.49
1014.807	1678.53
1015.099	1668.13
1015.391	1681.02
1015.683	1669.72
1015.976	1671.3
1016.268	1630.85
1016.56	1605.08
1016.851	1595.37
1017.143	1603.5
1017.435	1575.03
1017.727	1589.27
1018.018	1573.45
1018.31	1578.19
1018.602	1542.71
1018.893	1558.76
1019.185	1525.76
1019.476	1522.6
1019.767	1515.82
1020.058	1505.88
1020.35	1506.1
1020.641	1470.4
1020.932	1460
1021.223	1436.28
1021.514	1449.83
1021.804	1440.57
1022.095	1460.46
1022.386	1449.38
1022.677	1414.13
1022.967	1391.08
1023.258	1399.21
1023.548	1382.72
1023.839	1390.85
1024.129	1368.71
1024.419	1369.61
1024.709	1357.18
1025	1351.31
1025.29	1351.08
1025.58	1330.06
1025.87	1314.92
1026.16	1284.42
1026.449	1303.85
1026.739	1319.44
1027.029	1306.34
1027.319	1289.16
1027.608	1260.24
1027.898	1289.16
1028.187	1248.71
1028.477	1259.78
1028.766	1202.61
1029.055	1255.26
1029.344	1208.71
1029.634	1224.3
1029.923	1225.43
1030.212	1219.11
1030.501	1213.23
1030.79	1197.19
1031.078	1171.2
1031.367	1152.67
1031.656	1172.33
1031.945	1166.45
1032.233	1186.56
1032.522	1134.59
1032.81	1122.16
1033.099	1135.27
1033.387	1102.95
1033.675	1081.71
1033.963	1115.83
1034.251	1099.11
1034.54	1070.86
1034.828	1072.44
1035.116	1079
1035.403	1077.19
1035.691	1046.23
1035.979	1075.61
1036.267	1015.5
1036.554	1055.72
1036.842	1009.39
1037.129	1010.3
1037.417	1029.05
1037.704	1015.95
1037.992	1002.84
1038.279	988.15
1038.566	996.06
1038.853	996.06
1039.14	996.06
