Data from hue_150_FLMS001491_00069.txt Node
Date: Tue Feb 07 16:54:22 GMT 2017
User: dcchb
Spectrometer: FLMS00149
Trigger mode: 0
Integration Time (sec): 2.000000E-2
Scans to average: 10
Electric dark correction enabled: true
Nonlinearity correction enabled: false
Boxcar width: 0
XAxis mode: Wavelengths
Number of Pixels in Spectrum: 2048
>>>>>Begin Spectral Data<<<<<
341.393	-5.47
341.776	-5.47
342.16	-5.47
342.543	-84.56
342.927	-65.35
343.31	-53.83
343.693	-64
344.077	-50.89
344.46	-59.25
344.843	-37.33
345.226	-24.45
345.61	-28.52
345.993	-28.74
346.376	-28.29
346.759	17.81
347.142	13.29
347.525	28.21
347.908	41.54
348.291	65.04
348.674	87.41
349.057	121.99
349.44	142.55
349.823	150.46
350.206	168.54
350.588	197.47
350.971	185.94
351.354	227.75
351.737	245.83
352.119	250.8
352.502	266.84
352.884	294.87
353.267	297.58
353.65	284.24
354.032	306.62
354.414	317.01
354.797	317.69
355.179	329.44
355.562	323.79
355.944	317.01
356.326	319.05
356.709	315.88
357.091	331.93
357.473	338.25
357.855	327.63
358.238	357.01
358.62	350.46
359.002	337.12
359.384	340.29
359.766	334.19
360.148	345.03
360.53	323.56
360.912	340.29
361.294	353.39
361.676	349.33
362.057	338.93
362.439	321.53
362.821	336.45
363.203	335.99
363.584	329.89
363.966	316.11
364.348	323.56
364.729	326.05
365.111	321.31
365.493	336.9
365.874	314.07
366.256	317.46
366.637	305.49
367.019	321.08
367.4	292.61
367.781	320.18
368.163	339.61
368.544	332.15
368.925	303.9
369.306	325.82
369.688	321.31
370.069	314.75
370.45	307.07
370.831	301.87
371.212	328.08
371.593	293.28
371.974	326.73
372.355	320.18
372.736	308.65
373.117	344.81
373.498	329.89
373.879	321.76
374.26	320.85
374.641	319.5
375.021	335.77
375.402	326.28
375.783	331.47
376.163	328.99
376.544	344.58
376.925	349.33
377.305	313.85
377.686	320.4
378.066	316.56
378.447	320.63
378.827	306.84
379.208	344.13
379.588	319.5
379.968	324.02
380.349	322.44
380.729	339.84
381.109	348.65
381.489	336.9
381.87	355.2
382.25	336.45
382.63	362.66
383.01	349.1
383.39	341.87
383.77	331.47
384.15	350.68
384.53	330.57
384.91	358.82
385.29	354.3
385.67	347.07
386.049	358.37
386.429	365.15
386.809	359.04
387.189	368.08
387.568	365.37
387.948	379.61
388.328	355.43
388.707	383
389.087	365.37
389.466	387.29
389.846	358.14
390.225	359.04
390.605	375.77
390.984	387.52
391.363	384.58
391.743	381.19
392.122	384.35
392.501	375.99
392.881	370.8
393.26	391.36
393.639	393.85
394.018	386.84
394.397	393.85
394.776	410.12
395.155	393.17
395.534	380.96
395.913	400.4
396.292	385.94
396.671	399.27
397.05	395.2
397.429	387.74
397.808	412.15
398.186	411.47
398.565	413.73
398.944	398.59
399.323	420.06
399.701	401.75
400.08	399.72
400.458	415.09
400.837	449.89
401.215	419.16
401.594	412.15
401.972	414.86
402.351	421.19
402.729	438.36
403.107	411.02
403.486	432.26
403.864	423.45
404.242	418.03
404.62	442.66
404.999	437.91
405.377	426.16
405.755	442.21
406.133	442.88
406.511	431.81
406.889	447.4
407.267	481.98
407.645	449.44
408.023	459.15
408.401	446.05
408.779	455.76
409.156	461.87
409.534	470.23
409.912	471.36
410.29	484.01
410.667	461.87
411.045	479.72
411.422	488.53
411.8	513.39
412.178	504.58
412.555	497.12
412.933	503.22
413.31	514.52
413.687	518.14
414.065	499.61
414.442	520.85
414.819	516.1
415.197	545.03
415.574	540.06
415.951	553.84
416.328	534.86
416.705	538.25
417.082	547.06
417.46	558.81
417.837	549.55
418.214	554.52
418.591	555.2
418.967	577.12
419.344	572.15
419.721	572.82
420.098	577.8
420.475	559.72
420.852	579.15
421.228	603.78
421.605	571.02
421.982	576.21
422.358	599.04
422.735	585.93
423.111	611.02
423.488	605.14
423.864	606.5
424.241	609.21
424.617	624.57
424.994	648.75
425.37	626.16
425.746	638.36
426.123	617.12
426.499	635.42
426.875	634.74
427.251	660.05
427.627	664.12
428.003	668.64
428.379	670.67
428.756	682.88
429.132	673.61
429.507	689.21
429.883	690.79
430.259	685.59
430.635	710
431.011	735.53
431.387	723.78
431.763	747.51
432.138	741.63
432.514	719.26
432.89	725.14
433.265	761.07
433.641	770.56
434.016	772.82
434.392	778.47
434.767	775.08
435.143	794.74
435.518	802.42
435.894	805.81
436.269	807.39
436.644	818.47
437.02	846.04
437.395	824.12
437.77	833.16
438.145	839.26
438.52	869.99
438.895	897.34
439.271	897.79
439.646	874.96
440.021	889.65
440.395	890.78
440.77	886.49
441.145	895.3
441.52	911.8
441.895	920.61
442.27	906.15
442.645	914.28
443.019	968.75
443.394	938.24
443.769	920.84
444.143	940.72
444.518	933.94
444.892	939.59
445.267	944.34
445.641	985.92
446.016	950.89
446.39	994.06
446.764	979.82
447.139	1009.42
447.513	984.34
447.887	1012.59
448.262	1023.89
448.636	1008.74
449.01	1034.05
449.384	1021.4
449.758	1050.33
450.132	1076.09
450.506	1063.21
450.88	1060.27
451.254	1072.47
451.628	1098.46
452.002	1098.23
452.376	1100.27
452.75	1133.94
453.123	1126.26
453.497	1144.11
453.871	1174.84
454.244	1179.36
454.618	1208.74
454.992	1181.4
455.365	1214.39
455.739	1240.15
456.112	1240.6
456.486	1253.48
456.859	1261.17
457.232	1281.28
457.606	1285.8
457.979	1300.94
458.352	1319.47
458.725	1340.94
459.099	1358.79
459.472	1379.13
459.845	1362.86
460.218	1381.39
460.591	1412.8
460.964	1431.78
461.337	1473.14
461.71	1477.66
462.083	1497.32
462.456	1508.17
462.829	1539.58
463.201	1537.09
463.574	1575.96
463.947	1568.73
464.32	1641.27
464.692	1617.99
465.065	1651.44
465.438	1695.51
465.81	1694.38
466.183	1725.34
466.555	1755.84
466.928	1780.02
467.3	1783.64
467.672	1812.11
468.045	1836.29
468.417	1847.37
468.789	1920.81
469.161	1906.8
469.534	1968.49
469.906	2013.46
470.278	2034.48
470.65	2049.17
471.022	2095.5
471.394	2127.59
471.766	2206.68
472.138	2210.52
472.51	2266.11
472.882	2325.09
473.253	2351.31
473.625	2407.8
473.997	2455.26
474.369	2486.67
474.74	2548.59
475.112	2593.34
475.484	2651.41
475.855	2730.73
476.227	2755.14
476.598	2868.81
476.97	2882.59
477.341	3008.92
477.713	3042.82
478.084	3106.54
478.455	3190.38
478.827	3251.85
479.198	3383.82
479.569	3384.95
479.94	3505.4
480.311	3605.74
480.682	3698.39
481.053	3808.45
481.424	3945.16
481.795	3992.62
482.166	4087.31
482.537	4147.65
482.908	4312.61
483.279	4390.8
483.65	4500.18
484.021	4620.63
484.391	4747.63
484.762	4840.28
485.133	4944.23
485.503	5038.92
485.874	5178.8
486.244	5327.73
486.615	5431.23
486.985	5543.31
487.356	5734.95
487.726	5795.96
488.097	5960.7
488.467	6074.6
488.837	6266.91
489.207	6383.97
489.578	6504.42
489.948	6620.12
490.318	6757.52
490.688	6833.45
491.058	7024.18
491.428	7242.71
491.798	7288.58
492.168	7452.87
492.538	7581.68
492.908	7797.27
493.278	7957.94
493.648	8013.31
494.017	8183.47
494.387	8320.19
494.757	8425.27
495.126	8585.04
495.496	8642.67
495.866	8813.51
496.235	8928.99
496.605	9049.21
496.974	9139.38
497.344	9257.57
497.713	9450.78
498.082	9477.67
498.452	9661.62
498.821	9760.38
499.19	9807.38
499.559	9892.58
499.928	10108.39
500.298	10206.24
500.667	10298.67
501.036	10332.79
501.405	10533.47
501.774	10569.85
502.143	10689.85
502.512	10734.59
502.88	10831.31
503.249	10825.44
503.618	11008.03
503.987	11089.61
504.356	11143.85
504.724	11270.17
505.093	11297.51
505.462	11419.09
505.83	11440.56
506.199	11609.14
506.567	11708.35
506.936	11723.27
507.304	11865.86
507.672	11987.21
508.041	12089.36
508.409	12067.44
508.777	12223.37
509.145	12247.32
509.514	12308.56
509.882	12364.6
510.25	12406.19
510.618	12476.24
510.986	12581.32
511.354	12666.97
511.722	12678.27
512.09	12829
512.458	12734.54
512.826	12909.22
513.193	12932.27
513.561	12942.22
513.929	13033.51
514.297	13080.74
514.664	13221.08
515.032	13148.54
515.4	13291.13
515.767	13285.26
516.135	13389.21
516.502	13242.32
516.869	13563.89
517.237	13525.48
517.604	13498.36
517.972	13633.5
518.339	13712.59
518.706	13684.34
519.073	13704
519.44	13745.81
519.808	13860.16
520.175	13793.72
520.542	13900.16
520.909	13921.17
521.276	13935.86
521.643	14077.78
522.009	14105.58
522.376	14100.83
522.743	14204.1
523.11	14304.21
523.477	14397.32
523.843	14386.7
524.21	14461.05
524.577	14483.42
524.943	14475.96
525.31	14561.83
525.676	14564.55
526.043	14664.2
526.409	14680.48
526.776	14807.7
527.142	14726.12
527.508	14793.24
527.874	14879.79
528.241	14915.27
528.607	14831.66
528.973	14922.28
529.339	14814.48
529.705	14931.32
530.071	15057.87
530.437	15036.62
530.803	14969.06
531.169	14989.39
531.535	15023.07
531.901	14989.17
532.267	14989.62
532.632	14969.06
532.998	14947.36
533.364	15011.77
533.73	14988.49
534.095	15109.16
534.461	15020.58
534.826	15038.88
535.192	15087.7
535.557	15128.6
535.923	15072.56
536.288	15041.37
536.653	15045.21
537.019	14939
537.384	14905.1
537.749	15008.83
538.114	14965.21
538.479	14965.89
538.845	15015.16
539.21	14870.53
539.575	14824.65
539.94	14818.55
540.305	14906.68
540.67	14725.9
541.034	14812.22
541.399	14703.53
541.764	14667.37
542.129	14685.9
542.494	14720.02
542.858	14655.84
543.223	14648.61
543.587	14652.45
543.952	14567.26
544.316	14568.16
544.681	14576.3
545.045	14479.12
545.41	14527.49
545.774	14507.15
546.138	14427.83
546.503	14451.1
546.867	14344.21
547.231	14390.99
547.595	14434.83
547.959	14409.75
548.324	14281.84
548.688	14291.11
549.052	14236.65
549.416	14302.41
549.779	14199.36
550.143	14130.66
550.507	14273.93
550.871	14317.77
551.235	14179.47
551.599	14183.99
551.962	14117.33
552.326	14094.73
552.689	14136.99
553.053	14010.66
553.417	13999.36
553.78	14183.31
554.143	13996.88
554.507	14010.21
554.87	14007.72
555.234	14039.36
555.597	13953.26
555.96	13979.93
556.323	13924.56
556.686	13999.82
557.05	14023.77
557.413	13981.51
557.776	14016.99
558.139	13950.78
558.502	13945.13
558.865	13939.25
559.228	14105.58
559.59	13964.11
559.953	14005.92
560.316	14079.14
560.679	14056.76
561.041	14120.49
561.404	14143.09
561.767	14091.79
562.129	14022.64
562.492	14123.2
562.854	14081.85
563.217	14000.27
563.579	14119.13
563.941	14199.81
564.304	14149.87
564.666	14195.06
565.028	14193.26
565.39	14242.07
565.753	14218.11
566.115	14228.28
566.477	14273.48
566.839	14158
567.201	14272.58
567.563	14318.9
567.925	14347.6
568.287	14312.35
568.648	14342.41
569.01	14423.99
569.372	14424.44
569.734	14368.39
570.095	14484.1
570.457	14571.1
570.819	14512.8
571.18	14444.78
571.542	14458.56
571.903	14505.11
572.265	14626.24
572.626	14549.41
572.987	14620.59
573.349	14548.05
573.71	14638.89
574.071	14617.88
574.432	14595.28
574.794	14739.23
575.155	14744.65
575.516	14736.75
575.877	14822.17
576.238	14740.14
576.599	14809.74
576.96	14726.58
577.32	14714.37
577.681	14753.47
578.042	14808.83
578.403	14710.98
578.763	14817.65
579.124	14778.55
579.485	14812
579.845	14893.8
580.206	14836.63
580.566	14896.97
580.927	14788.72
581.287	14852.67
581.648	14790.3
582.008	14906.01
582.368	14788.27
582.728	14800.7
583.089	14762.51
583.449	14639.35
583.809	14858.78
584.169	14685.45
584.529	14741.26
584.889	14823.97
585.249	14714.37
585.609	14720.02
585.969	14794.37
586.329	14713.24
586.688	14739.23
587.048	14697.65
587.408	14661.72
587.768	14694.26
588.127	14729.97
588.487	14609.07
588.846	14660.36
589.206	14568.61
589.565	14661.04
589.925	14710.98
590.284	14652.68
590.643	14641.61
591.003	14675.73
591.362	14701.94
591.721	14682.06
592.08	14616.97
592.44	14760.25
592.799	14704.43
593.158	14542.17
593.517	14544.89
593.876	14756.18
594.235	14594.83
594.593	14579.01
594.952	14558.44
595.311	14558.9
595.67	14607.48
596.029	14781.94
596.387	14588.05
596.746	14677.76
597.104	14530.87
597.463	14515.51
597.822	14651.55
598.18	14565.68
598.538	14534.04
598.897	14601.38
599.255	14538.56
599.613	14698.33
599.972	14647.48
600.33	14671.89
600.688	14526.13
601.046	14631.44
601.404	14570.87
601.762	14574.04
602.12	14684.32
602.478	14639.57
602.836	14657.65
603.194	14579.91
603.552	14566.13
603.91	14525.23
604.268	14626.47
604.625	14569.97
604.983	14624.21
605.341	14587.14
605.698	14546.69
606.056	14766.35
606.413	14616.3
606.771	14680.93
607.128	14670.08
607.485	14619.69
607.843	14599.12
608.2	14661.04
608.557	14736.97
608.914	14673.47
609.272	14823.07
609.629	14743.3
609.986	14865.78
610.343	14743.75
610.7	14719.8
611.057	14857.65
611.414	14787.82
611.771	14784.88
612.127	14779.46
612.484	14676.18
612.841	14901.03
613.198	14835.5
613.554	14768.38
613.911	14826.69
614.267	14845.22
614.624	14816.52
614.98	14821.04
615.337	14823.97
615.693	14911.43
616.05	14826.91
616.406	14980.35
616.762	14928.38
617.118	14900.36
617.475	14893.8
617.831	14941.03
618.187	14986.23
618.543	15024.87
618.899	15065.1
619.255	15000.24
619.611	15047.92
619.967	15146
620.323	15031.65
620.678	14984.2
621.034	14973.8
621.39	14931.32
621.746	14997.08
622.101	15189.16
622.457	15046.79
622.812	14965.44
623.168	14958.89
623.523	15078.21
623.879	15141.93
624.234	14971.99
624.589	15017.42
624.945	15102.39
625.3	15073.91
625.655	15099.9
626.01	15089.96
626.365	15121.14
626.72	15048.15
627.075	15103.52
627.43	15000.02
627.785	15037.98
628.14	15063.97
628.495	15121.59
628.85	15109.84
629.205	14972.9
629.559	15021.48
629.914	14977.64
630.269	15006.12
630.623	14981.94
630.978	14945.1
631.332	15035.49
631.687	15021.03
632.041	14995.04
632.396	14978.55
632.75	14897.65
633.104	14939.68
633.459	14803.18
633.813	14855.16
634.167	14821.71
634.521	14868.72
634.875	14897.42
635.229	14862.17
635.583	14645.45
635.937	14692
636.291	14715.28
636.645	14614.94
636.999	14596.18
637.352	14647.26
637.706	14593.92
638.06	14745.33
638.413	14639.57
638.767	14603.19
639.121	14616.75
639.474	14535.17
639.828	14560.03
640.181	14481.61
640.534	14521.38
640.888	14517.54
641.241	14407.49
641.594	14376.75
641.947	14427.37
642.301	14435.96
642.654	14348.51
643.007	14426.7
643.36	14470.31
643.713	14431.67
644.066	14438.22
644.419	14345.8
644.771	14262.86
645.124	14177.66
645.477	14139.7
645.83	14085.69
646.182	13979.93
646.535	13958.01
646.888	13944.9
647.24	13891.8
647.593	13974.28
647.945	13861.51
648.298	13857.67
648.65	13790.1
649.002	13814.51
649.355	13787.39
649.707	13860.84
650.059	13914.85
650.411	14078.68
650.763	14056.09
651.115	14250.66
651.467	14178.34
651.819	14173.6
652.171	14124.78
652.523	14049.76
652.875	14195.74
653.227	14110.1
653.578	14188.74
653.93	14135.18
654.282	14038.23
654.633	14033.94
654.985	14071.23
655.337	14181.96
655.688	14144.22
656.039	14159.13
656.391	14049.31
656.742	14129.53
657.094	14179.02
657.445	14207.04
657.796	14123.65
658.147	14174.95
658.498	14082.53
658.849	14123.65
659.2	14181.73
659.551	14130.43
659.902	14183.54
660.253	14148.74
660.604	14104.22
660.955	14161.39
661.306	14092.24
661.656	14066.25
662.007	14172.47
662.358	14148.29
662.708	14141.05
663.059	14157.1
663.409	14040.49
663.76	14222.86
664.11	14192.58
664.461	14215.63
664.811	14265.12
665.161	14157.55
665.511	14234.39
665.862	14197.78
666.212	14198
666.562	14223.54
666.912	14164.78
667.262	14205.91
667.612	14136.99
667.962	14298.56
668.312	14213.14
668.662	14208.62
669.011	14191.9
669.361	14192.8
669.711	14137.89
670.06	14112.81
670.41	14147.83
670.76	14124.56
671.109	14085.91
671.459	14129.08
671.808	14033.49
672.157	14112.13
672.507	14101.28
672.856	13995.52
673.205	13990.55
673.554	14093.37
673.904	14041.62
674.253	14005.69
674.602	14006.59
674.951	13762.76
675.3	13791.69
675.649	13956.43
675.998	14067.16
676.346	14001.4
676.695	13969.53
677.044	13856.09
677.393	13927.73
677.741	13929.76
678.09	13878.46
678.438	13889.31
678.787	13841.4
679.135	13887.05
679.484	13787.62
679.832	13763.89
680.181	13730.22
680.529	13795.53
680.877	13656.77
681.225	13642.99
681.573	13700.61
681.922	13698.58
682.27	13611.13
682.618	13537.91
682.966	13550.34
683.314	13565.93
683.661	13522.77
684.009	13412.71
684.357	13468.3
684.705	13485.03
685.053	13433.5
685.4	13456.55
685.748	13443.22
686.095	13374.3
686.443	13323.45
686.79	13304.69
687.138	13302.88
687.485	13341.53
687.832	13289.33
688.18	13204.13
688.527	13067.86
688.874	13110.35
689.221	13112.61
689.568	13092.04
689.915	13005.27
690.262	12972.95
690.609	13000.97
690.956	12869
691.303	12893.63
691.65	12875.55
691.997	12824.71
692.344	12720.53
692.69	12713.07
693.037	12599.63
693.383	12582.68
693.73	12586.52
694.077	12532.51
694.423	12603.02
694.769	12460.87
695.116	12408.9
695.462	12397.15
695.808	12364.38
696.155	12297.94
696.501	12290.93
696.847	12312.4
697.193	12187.21
697.539	12294.78
697.885	12091.17
698.231	12090.49
698.577	12090.94
698.923	12011.85
699.269	11950.83
699.614	11888.68
699.96	11859.76
700.306	11882.58
700.651	11783.83
700.997	11751.74
701.342	11728.24
701.688	11670.16
702.033	11642.82
702.379	11597.62
702.724	11560.33
703.069	11562.59
703.415	11474.01
703.76	11438.3
704.105	11438.53
704.45	11389.71
704.795	11374.8
705.14	11311.3
705.485	11265.2
705.83	11190.85
706.175	11228.81
706.52	11185.2
706.865	11149.72
707.209	11182.94
707.554	11104.3
707.899	11078.31
708.243	11059.33
708.588	11020.01
708.932	10893.68
709.277	10865.21
709.621	10944.53
709.966	10828.83
710.31	10869.05
710.654	10709.73
710.998	10762.61
711.342	10733.01
711.687	10755.83
712.031	10692.56
712.375	10642.39
712.719	10672.67
713.063	10625.21
713.407	10662.05
713.75	10645.1
714.094	10631.77
714.438	10566.23
714.782	10527.14
715.125	10478.1
715.469	10477.65
715.812	10512.22
716.156	10342.28
716.499	10406.92
716.843	10457.99
717.186	10307.26
717.53	10387.03
717.873	10403.3
718.216	10383.87
718.559	10316.97
718.902	10199.69
719.246	10268.84
719.589	10278.78
719.932	10175.51
720.275	10163.53
720.617	10228.16
720.96	10218.45
721.303	10161.72
721.646	10223.42
721.989	10125.12
722.331	10148.17
722.674	10127.83
723.016	10076.75
723.359	10159.92
723.701	10147.94
724.044	10075.62
724.386	10078.11
724.729	10048.06
725.071	10006.25
725.413	9998.56
725.755	10054.83
726.097	9962.86
726.439	9948.17
726.782	9938.68
727.124	10046.7
727.465	9987.04
727.807	9945.23
728.149	9940.71
728.491	9881.96
728.833	9913.14
729.175	9901.17
729.516	9900.26
729.858	9889.19
730.199	9935.97
730.541	9853.03
730.882	9895.97
731.224	9887.61
731.565	9892.13
731.906	9862.52
732.248	9929.87
732.589	9817.55
732.93	9875.18
733.271	9780.27
733.612	9902.3
733.953	9805.8
734.294	9835.86
734.635	9788.63
734.976	9899.13
735.317	9809.42
735.658	9808.06
735.999	9753.83
736.339	9735.97
736.68	9822.52
737.021	9730.78
737.361	9747.27
737.702	9799.7
738.042	9771
738.383	9833.6
738.723	9810.1
739.063	9774.16
739.404	9959.7
739.744	9886.25
740.084	9829.98
740.424	9902.75
740.764	9828.17
741.104	9905.69
741.444	9818
741.784	9815.97
742.124	9928.28
742.464	9915.63
742.804	9927.83
743.143	9973.71
743.483	10016.87
743.823	9887.61
744.162	9989.98
744.502	10043.31
744.841	9948.4
745.181	10101.39
745.52	10050.99
745.86	10163.98
746.199	10126.02
746.538	10186.13
746.877	10319.01
747.216	10241.95
747.556	10330.99
747.895	10421.15
748.234	10378.44
748.573	10440.36
748.911	10453.02
749.25	10623.18
749.589	10596.52
749.928	10653.01
750.267	10749.96
750.605	10828.15
750.944	10785.44
751.283	10866.34
751.621	11001.48
751.96	11017.52
752.298	11145.43
752.636	11205.09
752.975	11269.04
753.313	11327.8
753.651	11517.39
753.989	11553.33
754.327	11537.51
754.666	11717.62
755.004	11809.82
755.342	12029.25
755.679	12172.97
756.017	12135.91
756.355	12346.3
756.693	12292.97
757.031	12541.55
757.368	12687.08
757.706	12833.52
758.044	12979.05
758.381	13133.85
758.719	13275.99
759.056	13401.19
759.394	13620.39
759.731	13604.12
760.068	13744.23
760.405	13887.95
760.743	14044.79
761.08	14236.65
761.417	14357.32
761.754	14520.48
762.091	14652
762.428	14817.65
762.765	14971.09
763.102	15159.79
763.438	15251.08
763.775	15340.57
764.112	15593.67
764.449	15710.28
764.785	15799.54
765.122	15953.21
765.458	16114.56
765.795	16135.13
766.131	16417.83
766.467	16531.73
766.804	16597.49
767.14	16690.82
767.476	16886.97
767.812	17008.55
768.148	17202.9
768.485	17232.5
768.821	17266.85
769.157	17495.99
769.492	17577.57
769.828	17674.07
770.164	17684.24
770.5	17785.25
770.836	17969.88
771.171	18045.58
771.507	18116.32
771.842	18086.94
772.178	18245.81
772.513	18366.48
772.849	18406.71
773.184	18477.66
773.519	18518.57
773.855	18605.34
774.19	18587.72
774.525	18629.3
774.86	18743.19
775.195	18803.53
775.53	18857.99
775.865	18860.93
776.2	18839.69
776.535	18799.01
776.87	18999.23
777.205	18982.74
777.539	18957.65
777.874	19098.21
778.209	18903.42
778.543	19104.99
778.878	19020.93
779.212	19159
779.547	19060.02
779.881	19203.97
780.215	19038.1
780.55	19234.03
780.884	19095.95
781.218	19218.44
781.552	19231.54
781.886	19152.22
782.22	19216.85
782.554	19166.01
782.888	19017.54
783.222	19037.2
783.556	19042.85
783.889	19039.01
784.223	18827.26
784.557	18898.44
784.89	19056.41
785.224	18868.84
785.557	18917.43
785.891	18880.59
786.224	18764.89
786.558	18893.92
786.891	18755.17
787.224	18844.89
787.557	18759.69
787.891	18831.33
788.224	18850.76
788.557	18743.19
788.89	18761.05
789.223	18773.7
789.556	18622.29
789.888	18631.56
790.221	18581.39
790.554	18479.92
790.887	18521.96
791.219	18503.88
791.552	18439.25
791.884	18357.89
792.217	18283.77
792.549	18371.68
792.882	18285.8
793.214	18189.99
793.546	18156.09
793.879	18188.18
794.211	17983.67
794.543	18095.08
794.875	18086.49
795.207	18180.27
795.539	18018.69
795.871	18037.45
796.203	17863.89
796.535	17858.92
796.867	17822.31
797.198	17714.75
797.53	17675.88
797.862	17711.36
798.193	17652.37
798.525	17589.1
798.856	17653.5
799.188	17546.39
799.519	17420.29
799.85	17382.55
800.182	17463.91
800.513	17412.83
800.844	17244.93
801.175	17333.51
801.506	17275.89
801.837	17253.52
802.168	17076.8
802.499	17133.29
802.83	17061.88
803.161	17006.06
803.491	16989.12
803.822	16949.12
804.153	16889.68
804.483	16731.95
804.814	16722.91
805.145	16777.82
805.475	16715.22
805.805	16683.59
806.136	16601.33
806.466	16645.85
806.796	16670.25
807.126	16509.35
807.457	16403.59
807.787	16538.28
808.117	16424.38
808.447	16328.12
808.777	16372.18
809.107	16328.34
809.436	16303.48
809.766	16270.72
810.096	16162.92
810.426	16191.62
810.755	16202.7
811.085	16136.03
811.414	16073.66
811.744	16079.76
812.073	16020.78
812.403	16033.89
812.732	15986.2
813.061	15837.06
813.39	15821.91
813.719	15742.37
814.049	15906.43
814.378	15842.25
814.707	15728.13
815.036	15812.2
815.365	15644.07
815.693	15566.78
816.022	15534.46
816.351	15551.64
816.68	15463.05
817.008	15546.67
817.337	15503.96
817.665	15455.37
817.994	15461.25
818.322	15339.67
818.651	15251.76
818.979	15315.94
819.307	15352.1
819.636	15314.13
819.964	15197.52
820.292	15208.6
820.62	15164.53
820.948	15199.56
821.276	15207.69
821.604	15239.56
821.932	15214.02
822.259	15275.94
822.587	15153.01
822.915	15080.92
823.243	15119.56
823.57	15161.14
823.898	15182.84
824.225	15159.56
824.553	15137.19
824.88	15160.91
825.207	15277.52
825.535	15128.15
825.862	15174.25
826.189	15106
826.516	15129.96
826.843	15331.31
827.17	15184.42
827.497	15188.71
827.824	15221.48
828.151	15250.63
828.478	15198.43
828.805	15283.85
829.131	15138.77
829.458	15164.98
829.785	15186
830.111	15127.24
830.438	15196.62
830.764	15175.83
831.09	15170.63
831.417	15072.1
831.743	15125.66
832.069	15109.62
832.395	15092.22
832.722	15190.29
833.048	15140.35
833.374	15061.26
833.7	14966.12
834.026	15021.03
834.351	15124.08
834.677	14992.33
835.003	15051.54
835.329	14967.25
835.654	15054.93
835.98	14919.57
836.306	14977.64
836.631	14957.98
836.956	14936.51
837.282	14943.29
837.607	14921.37
837.932	14825.78
838.258	14866.69
838.583	14841.15
838.908	14672.34
839.233	14720.7
839.558	14861.94
839.883	14693.58
840.208	14666.01
840.533	14596.64
840.858	14692.23
841.182	14648.84
841.507	14651.1
841.832	14626.24
842.156	14583.98
842.481	14590.99
842.805	14540.14
843.13	14476.19
843.454	14495.17
843.778	14301.5
844.103	14294.72
844.427	14312.12
844.751	14193.71
845.075	14256.98
845.399	14246.36
845.723	14100.38
846.047	14119.81
846.371	14034.62
846.695	14019.25
847.019	13960.04
847.343	13858.35
847.666	13818.13
847.99	13786.49
848.313	13758.47
848.637	13548.53
848.96	13579.49
849.284	13555.76
849.607	13472.82
849.931	13496.1
850.254	13368.65
850.577	13344.01
850.9	13237.8
851.223	13247.07
851.546	13153.28
851.869	13068.99
852.192	13153.06
852.515	13042.33
852.838	12910.8
853.161	12893.63
853.483	12907.19
853.806	12841.65
854.129	12812.28
854.451	12754.65
854.774	12674.65
855.096	12676.46
855.419	12596.46
855.741	12627.87
856.063	12554.88
856.385	12538.84
856.708	12552.85
857.03	12447.09
857.352	12487.09
857.674	12409.8
857.996	12325.51
858.318	12219.07
858.64	12271.05
858.961	12239.18
859.283	12198.73
859.605	12125.74
859.926	12209.13
860.248	12028.79
860.57	12028.34
860.891	12112.86
861.212	12042.8
861.534	11990.6
861.855	11919.19
862.176	11888.01
862.498	11901.34
862.819	11869.48
863.14	11846.65
863.461	11824.73
863.782	11864.73
864.103	11784.51
864.424	11711.29
864.745	11786.77
865.065	11639.65
865.386	11705.64
865.707	11666.77
866.027	11696.15
866.348	11614.79
866.668	11707.67
866.989	11613.66
867.309	11531.18
867.63	11579.31
867.95	11516.72
868.27	11459.77
868.59	11518.75
868.91	11432.43
869.23	11393.56
869.55	11394.91
869.87	11438.07
870.19	11460.45
870.51	11453.22
870.83	11458.19
871.15	11342.48
871.469	11307.91
871.789	11333.9
872.109	11304.07
872.428	11206.44
872.748	11298.19
873.067	11254.58
873.386	11210.28
873.706	11267.46
874.025	11137.29
874.344	11216.61
874.663	11179.1
874.982	11096.62
875.301	11102.72
875.62	11066.56
875.939	11071.76
876.258	11072.21
876.577	11009.61
876.896	11068.59
877.214	10926.9
877.533	10982.95
877.852	11038.31
878.17	10955.38
878.489	10923.51
878.807	10945.43
879.125	10933.68
879.444	10892.33
879.762	10886.68
880.08	10894.13
880.398	10833.57
880.716	10805.32
881.034	10859.79
881.352	10778.66
881.67	10795.15
881.988	10688.26
882.306	10715.38
882.624	10681.48
882.941	10610.53
883.259	10640.13
883.577	10564.88
883.894	10505.67
884.212	10561.49
884.529	10532.79
884.846	10526.91
885.164	10446.46
885.481	10434.49
885.798	10419.57
886.115	10374.6
886.432	10367.37
886.75	10381.38
887.067	10284.43
887.383	10271.1
887.7	10310.42
888.017	10203.76
888.334	10259.57
888.651	10233.81
888.967	10146.13
889.284	10174.83
889.6	10096.87
889.917	10043.31
890.233	10106.36
890.55	10039.69
890.866	10000.37
891.182	10026.59
891.498	9968.74
891.815	9938.45
892.131	9873.6
892.447	9777.78
892.763	9770.55
893.079	9839.92
893.395	9740.27
893.71	9739.36
894.026	9741.17
894.342	9783.88
894.657	9636.54
894.973	9624.11
895.289	9608.74
895.604	9631.34
895.92	9513.38
896.235	9423.89
896.55	9469.31
896.865	9449.65
897.181	9421.63
897.496	9409.43
897.811	9367.17
898.126	9305.02
898.441	9274.97
898.756	9256.44
899.071	9160.85
899.386	9246.27
899.7	9101.19
900.015	9131.47
900.33	9033.17
900.644	8959.95
900.959	9000.85
901.273	8932.15
901.588	8931.7
901.902	8892.15
902.216	8839.95
902.531	8849.44
902.845	8805.83
903.159	8750.69
903.473	8707.98
903.787	8682.44
904.101	8648.09
904.415	8606.74
904.729	8541.2
905.042	8559.05
905.356	8505.5
905.67	8486.29
905.984	8511.15
906.297	8415.56
906.611	8424.59
906.924	8368.78
907.237	8326.52
907.551	8292.17
907.864	8291.49
908.177	8286.75
908.491	8261.89
908.804	8202.68
909.117	8163.58
909.43	8056.47
909.743	8040.2
910.056	8041.78
910.368	7998.17
910.681	7924.95
910.994	7966.08
911.307	7872.97
911.619	7880.43
911.932	7915.91
912.244	7820.54
912.557	7825.29
912.869	7688.12
913.181	7736.93
913.494	7703.71
913.806	7642.92
914.118	7633.88
914.43	7539.87
914.742	7555.69
915.054	7518.63
915.366	7478.41
915.678	7478.18
915.99	7426.66
916.302	7322.7
916.613	7331.29
916.925	7323.61
917.236	7330.16
917.548	7278.18
917.859	7281.57
918.171	7205.87
918.482	7205.64
918.794	7168.36
919.105	7168.36
919.416	7087.91
919.727	7072.99
920.038	7033.22
920.349	7033.22
920.66	7023.73
920.971	6988.93
921.282	6911.41
921.593	6911.64
921.903	6819.44
922.214	6844.3
922.525	6848.59
922.835	6788.03
923.146	6753.68
923.456	6760.68
923.767	6669.84
924.077	6662.83
924.387	6579.22
924.697	6575.83
925.008	6596.62
925.318	6569.73
925.628	6514.59
925.938	6553.68
926.248	6448.15
926.558	6453.35
926.867	6447.47
927.177	6431.65
927.487	6443.86
927.796	6344.88
928.106	6327.02
928.416	6304.2
928.725	6268.95
929.034	6235.27
929.344	6235.27
929.653	6253.35
929.962	6190.53
930.271	6120.47
930.581	6143.98
930.89	6108.5
931.199	6140.36
931.508	6113.02
931.817	6044.54
932.125	6014.49
932.434	6031.44
932.743	5957.54
933.051	5949.41
933.36	5930.65
933.669	5916.41
933.977	5876.87
934.286	5809.75
934.594	5852.23
934.902	5756.64
935.21	5777.21
935.519	5729.3
935.827	5713.48
936.135	5671.67
936.443	5610.21
936.751	5636.19
937.059	5627.61
937.367	5542.18
937.674	5553.26
937.982	5520.04
938.29	5512.58
938.597	5508.97
938.905	5470.1
939.213	5458.8
939.52	5418.12
939.827	5379.03
940.135	5374.05
940.442	5328.86
940.749	5307.84
941.056	5364.34
941.363	5275.53
941.67	5271.91
941.977	5241.18
942.284	5182.87
942.591	5156.43
942.898	5158.69
943.205	5188.07
943.511	5178.35
943.818	5126.6
944.125	5077.34
944.431	5115.76
944.738	5062.2
945.044	5009.54
945.35	4960.05
945.657	4978.81
945.963	4956.44
946.269	4917.57
946.575	4932.71
946.881	4915.99
947.187	4884.35
947.493	4796.22
947.799	4830.11
948.105	4750.79
948.41	4779.94
948.716	4778.59
949.022	4772.49
949.327	4739.27
949.633	4718.93
949.938	4669.21
950.244	4676.44
950.549	4633.28
950.854	4619.27
951.16	4595.54
951.465	4624.92
951.77	4602.55
952.075	4493.85
952.38	4525.94
952.685	4525.04
952.99	4455.66
953.294	4437.58
953.599	4474.42
953.904	4414.3
954.209	4379.28
954.513	4386.06
954.818	4351.48
955.122	4339.05
955.426	4337.7
955.731	4306.51
956.035	4292.95
956.339	4297.92
956.643	4267.42
956.948	4273.52
957.252	4249.79
957.556	4223.58
957.86	4224.71
958.163	4158.49
958.467	4133.41
958.771	4136.57
959.075	4122.56
959.378	4062.22
959.682	4062.68
959.985	4025.61
960.289	4046.18
960.592	4024.26
960.896	4000.98
961.199	4021.09
961.502	4000.53
961.805	3956.69
962.108	3938.16
962.411	3935.22
962.714	3898.84
963.017	3897.48
963.32	3898.61
963.623	3876.24
963.926	3851.16
964.228	3854.09
964.531	3828.33
964.833	3774.1
965.136	3782.91
965.438	3732.51
965.741	3747.66
966.043	3706.53
966.345	3707.43
966.648	3666.3
966.95	3681.67
967.252	3674.66
967.554	3663.59
967.856	3623.82
968.158	3598.51
968.46	3607.77
968.761	3595.8
969.063	3554.67
969.365	3587.43
969.666	3522.8
969.968	3552.63
970.269	3520.54
970.571	3519.87
970.872	3475.12
971.174	3418.85
971.475	3459.3
971.776	3416.36
972.077	3414.78
972.378	3400.09
972.679	3375.46
972.98	3380.66
973.281	3344.73
973.582	3365.07
973.883	3330.94
974.183	3342.02
974.484	3313.09
974.785	3290.72
975.085	3266.76
975.386	3266.54
975.686	3275.13
975.986	3241.68
976.287	3195.81
976.587	3202.59
976.887	3159.42
977.187	3177.28
977.487	3174.11
977.787	3137.28
978.087	3154
978.387	3150.38
978.687	3107.9
978.987	3108.35
979.286	3056.15
979.586	3058.41
979.885	3072.42
980.185	3056.37
980.484	3007.56
980.784	3032.87
981.083	2988.58
981.382	2970.5
981.682	2951.29
981.981	2979.54
982.28	2915.59
982.579	2915.14
982.878	2904.29
983.177	2910.62
983.475	2894.12
983.774	2840.79
984.073	2867
984.372	2860.22
984.67	2819.77
984.969	2820.67
985.267	2843.05
985.566	2788.81
985.864	2815.7
986.162	2772.31
986.461	2758.3
986.759	2695.03
987.057	2727.12
987.355	2683.73
987.653	2689.38
987.951	2706.55
988.249	2675.14
988.547	2691.19
988.844	2652.09
989.142	2662.71
989.44	2620
989.737	2566.9
990.035	2611.41
990.332	2565.77
990.63	2579.32
990.927	2589.04
991.224	2583.39
991.521	2554.92
991.819	2537.97
992.116	2552.66
992.413	2522.15
992.71	2480.34
993.006	2506.11
993.303	2492.77
993.6	2480.12
993.897	2499.55
994.193	2465.88
994.49	2431.53
994.787	2442.61
995.083	2425.43
995.379	2411.65
995.676	2399.44
995.972	2394.92
996.268	2370.06
996.565	2364.19
996.861	2340.91
997.157	2352.44
997.453	2315.38
997.749	2305.66
998.044	2301.14
998.34	2278.09
998.636	2230.18
998.932	2281.93
999.227	2238.54
999.523	2227.92
999.818	2242.38
1000.114	2229.5
1000.409	2202.39
1000.704	2198.32
1001	2188.37
1001.295	2133.01
1001.59	2152.67
1001.885	2152.44
1002.18	2129.62
1002.475	2132.33
1002.77	2090.52
1003.065	2099.11
1003.359	2086.68
1003.654	2066.12
1003.949	2050.75
1004.243	2033.12
1004.538	2029.28
1004.832	2022.05
1005.127	2015.5
1005.421	1984.54
1005.715	1987.25
1006.009	2012.79
1006.304	1970.53
1006.598	1960.36
1006.892	1956.52
1007.186	1936.63
1007.48	1916.07
1007.773	1900.02
1008.067	1910.19
1008.361	1865.22
1008.655	1894.15
1008.948	1861.83
1009.242	1836.52
1009.535	1816.86
1009.829	1824.77
1010.122	1855.95
1010.415	1831.1
1010.708	1812.34
1011.001	1793.81
1011.295	1812.34
1011.588	1749.74
1011.881	1780.02
1012.173	1763.75
1012.466	1740.25
1012.759	1733.47
1013.052	1736.86
1013.344	1687.6
1013.637	1725.79
1013.93	1703.64
1014.222	1667.48
1014.514	1671.78
1014.807	1681.27
1015.099	1650.76
1015.391	1663.87
1015.683	1631.55
1015.976	1661.16
1016.268	1636.75
1016.56	1602.4
1016.851	1595.85
1017.143	1615.73
1017.435	1558.33
1017.727	1579.58
1018.018	1548.84
1018.31	1549.3
1018.602	1582.29
1018.893	1518.79
1019.185	1497.09
1019.476	1515.85
1019.767	1495.06
1020.058	1474.5
1020.35	1463.42
1020.641	1474.27
1020.932	1463.42
1021.223	1464.78
1021.514	1447.38
1021.804	1397.89
1022.095	1416.19
1022.386	1406.7
1022.677	1446.93
1022.967	1371.67
1023.258	1364.89
1023.548	1380.71
1023.839	1376.19
1024.129	1354.27
1024.419	1347.04
1024.709	1365.57
1025	1308.17
1025.29	1288.51
1025.58	1306.14
1025.87	1284.67
1026.16	1296.19
1026.449	1313.14
1026.739	1291.9
1027.029	1269.75
1027.319	1263.2
1027.608	1286.93
1027.898	1245.57
1028.187	1256.65
1028.477	1234.73
1028.766	1220.49
1029.055	1219.36
1029.344	1192.24
1029.634	1199.02
1029.923	1185.01
1030.212	1176.2
1030.501	1161.06
1030.79	1166.03
1031.078	1182.3
1031.367	1174.39
1031.656	1133.49
1031.945	1111.79
1032.233	1116.09
1032.522	1139.59
1032.81	1119.48
1033.099	1132.81
1033.387	1106.37
1033.675	1115.86
1033.963	1079.48
1034.251	1084.67
1034.54	1069.31
1034.828	1055.75
1035.116	1052.59
1035.403	1051.23
1035.691	1041.51
1035.979	1018.69
1036.267	1041.51
1036.554	1011.91
1036.842	998.12
1037.129	1005.35
1037.417	1041.74
1037.704	995.64
1037.992	998.58
1038.279	991.8
1038.566	993.15
1038.853	993.15
1039.14	993.15
