Data from hue_270_FLMS001491_00043.txt Node
Date: Tue Feb 07 15:57:14 GMT 2017
User: dcchb
Spectrometer: FLMS00149
Trigger mode: 0
Integration Time (sec): 2.000000E-2
Scans to average: 10
Electric dark correction enabled: true
Nonlinearity correction enabled: false
Boxcar width: 0
XAxis mode: Wavelengths
Number of Pixels in Spectrum: 2048
>>>>>Begin Spectral Data<<<<<
341.393	-14.91
341.776	-14.91
342.16	-14.91
342.543	-68.92
342.927	-65.53
343.31	-53.56
343.693	-71.41
344.077	-61.92
344.46	-58.98
344.843	-50.17
345.226	-57.63
345.61	-20.79
345.993	-30.96
346.376	10.85
346.759	24.41
347.142	18.98
347.525	42.03
347.908	60.11
348.291	81.81
348.674	77.29
349.057	89.94
349.44	120.45
349.823	150.96
350.206	171.75
350.588	190.5
350.971	216.72
351.354	241.12
351.737	241.35
352.119	242.93
352.502	253.55
352.884	258.98
353.267	290.16
353.65	291.29
354.032	301.69
354.414	317.51
354.797	303.95
355.179	305.08
355.562	333.32
355.944	320.44
356.326	334.45
356.709	342.14
357.091	346.21
357.473	331.74
357.855	344.62
358.238	325.42
358.62	322.7
359.002	329.93
359.384	311.18
359.766	345.08
360.148	359.09
360.53	343.49
360.912	347.79
361.294	343.49
361.676	337.84
362.057	317.51
362.439	326.55
362.821	318.41
363.203	337.17
363.584	336.94
363.966	332.19
364.348	322.48
364.729	314.57
365.111	330.61
365.493	335.36
365.874	329.93
366.256	333.78
366.637	305.08
367.019	319.54
367.4	322.48
367.781	307.11
368.163	312.53
368.544	322.03
368.925	323.83
369.306	324.06
369.688	309.37
370.069	302.59
370.45	294.23
370.831	327.45
371.212	322.7
371.593	318.86
371.974	308.24
372.355	307.11
372.736	319.77
373.117	316.6
373.498	319.77
373.879	300.78
374.26	297.39
374.641	319.99
375.021	325.42
375.402	307.79
375.783	314.57
376.163	325.19
376.544	334.23
376.925	326.32
377.305	321.8
377.686	331.06
378.066	337.62
378.447	345.75
378.827	315.92
379.208	319.99
379.588	349.6
379.968	323.83
380.349	324.29
380.729	346.88
381.109	340.33
381.489	361.8
381.87	358.41
382.25	329.03
382.63	342.82
383.01	354.57
383.39	366.77
383.77	348.47
384.15	344.85
384.53	357.73
384.91	348.69
385.29	345.75
385.67	343.72
386.049	353.89
386.429	353.89
386.809	361.12
387.189	357.73
387.568	359.76
387.948	378.52
388.328	354.11
388.707	367.67
389.087	338.07
389.466	391.63
389.846	361.12
390.225	365.87
390.605	360.67
390.984	369.26
391.363	381.23
391.743	369.03
392.122	387.11
392.501	381.23
392.881	390.05
393.26	397.96
393.639	389.14
394.018	399.09
394.397	394.34
394.776	409.93
395.155	402.02
395.534	391.63
395.913	404.96
396.292	413.77
396.671	409.03
397.05	397.96
397.429	388.01
397.808	409.48
398.186	397.05
398.565	427.33
398.944	402.02
399.323	379.2
399.701	427.56
400.08	420.55
400.458	427.79
400.837	413.55
401.215	421.91
401.594	442.02
401.972	411.06
402.351	427.11
402.729	450.16
403.107	451.06
403.486	460.78
403.864	462.36
404.242	444.73
404.62	458.29
404.999	443.15
405.377	456.26
405.755	465.98
406.133	467.33
406.511	463.26
406.889	478.18
407.267	472.53
407.645	496.48
408.023	478.41
408.401	467.78
408.779	510.04
409.156	500.33
409.534	515.69
409.912	518.18
410.29	518.63
410.667	512.3
411.045	552.75
411.422	521.79
411.8	558.86
412.178	541
412.555	591.62
412.933	549.36
413.31	566.99
413.687	576.48
414.065	572.19
414.442	579.65
414.819	600.44
415.197	625.07
415.574	603.6
415.951	611.28
416.328	618.97
416.705	638.4
417.082	639.08
417.46	650.6
417.837	653.99
418.214	677.95
418.591	638.85
418.967	646.08
419.344	679.08
419.721	686.54
420.098	681.56
420.475	689.25
420.852	679.08
421.228	723.6
421.605	734.67
421.982	755.46
422.358	740.55
422.735	761.56
423.111	770.6
423.488	747.55
423.864	771.51
424.241	781.9
424.617	789.81
424.994	820.77
425.37	850.83
425.746	831.16
426.123	838.17
426.499	807.21
426.875	837.49
427.251	880.65
427.627	883.37
428.003	892.86
428.379	911.39
428.756	921.78
429.132	916.81
429.507	945.96
429.883	934.89
430.259	957.26
430.635	969.24
431.011	971.05
431.387	1025.74
431.763	1037.03
432.138	1001.56
432.514	1022.8
432.89	1035.68
433.265	1063.02
433.641	1064.15
434.016	1097.15
434.392	1111.16
434.767	1126.98
435.143	1160.2
435.518	1165.62
435.894	1154.09
436.269	1187.54
436.644	1197.26
437.02	1222.11
437.395	1218.05
437.77	1236.8
438.145	1245.62
438.52	1286.97
438.895	1288.33
439.271	1320.64
439.646	1342.56
440.021	1334.65
440.395	1371.94
440.77	1360.64
441.145	1390.25
441.52	1408.32
441.895	1422.56
442.27	1419.62
442.645	1426.63
443.019	1431.83
443.394	1450.13
443.769	1494.88
444.143	1450.36
444.518	1479.96
444.892	1477.93
445.267	1488.55
445.641	1519.73
446.016	1505.72
446.39	1572.84
446.764	1531.49
447.139	1542.11
447.513	1576.91
447.887	1567.42
448.262	1592.5
448.636	1588.88
449.01	1597.7
449.384	1613.97
449.758	1597.47
450.132	1647.87
450.506	1658.71
450.88	1661.2
451.254	1642.67
451.628	1673.4
452.002	1705.72
452.376	1716.11
452.75	1697.58
453.123	1708.2
453.497	1748.43
453.871	1786.17
454.244	1747.07
454.618	1794.08
454.992	1820.52
455.365	1848.31
455.739	1867.52
456.112	1837.92
456.486	1894.41
456.859	1927.86
457.232	1947.97
457.606	1924.24
457.979	1941.19
458.352	1982.77
458.725	2002.21
459.099	2001.76
459.472	2077.46
459.845	2037.23
460.218	2084.24
460.591	2060.74
460.964	2085.14
461.337	2146.16
461.71	2177.8
462.083	2185.71
462.456	2179.38
462.829	2208.3
463.201	2212.37
463.574	2218.7
463.947	2276.78
464.32	2314.29
464.692	2306.38
465.065	2331.92
465.438	2359.49
465.81	2371.01
466.183	2398.81
466.555	2472.25
466.928	2460.27
467.3	2433.83
467.672	2503.66
468.045	2523.1
468.417	2541.63
468.789	2523.32
469.161	2598.8
469.534	2632.7
469.906	2670.21
470.278	2688.06
470.65	2702.08
471.022	2745.46
471.394	2827.04
471.766	2842.86
472.138	2856.2
472.51	2889.19
472.882	2896.2
473.253	2943.65
473.625	2972.13
473.997	3032.24
474.369	3044.44
474.74	3050.99
475.112	3089.41
475.484	3164.44
475.855	3174.83
476.227	3224.32
476.598	3256.19
476.97	3319.01
477.341	3407.14
477.713	3389.52
478.084	3381.15
478.455	3502.51
478.827	3509.74
479.198	3640.81
479.569	3539.12
479.94	3693.69
480.311	3715.61
480.682	3776.85
481.053	3863.85
481.424	3894.36
481.795	3939.11
482.166	3936.17
482.537	3961.03
482.908	4100.01
483.279	4130.74
483.65	4146.11
484.021	4210.51
484.391	4300.68
484.762	4266.1
485.133	4266.1
485.503	4374.8
485.874	4495.7
486.244	4444.85
486.615	4582.48
486.985	4591.97
487.356	4591.29
487.726	4648.47
488.097	4717.16
488.467	4752.64
488.837	4836.48
489.207	4909.93
489.578	4890.49
489.948	4979.76
490.318	5024.5
490.688	5031.51
491.058	5067.44
491.428	5125.06
491.798	5210.94
492.168	5263.36
492.538	5280.31
492.908	5334.77
493.278	5377.49
493.648	5388.33
494.017	5444.83
494.387	5469.01
494.757	5497.03
495.126	5543.81
495.496	5570.02
495.866	5558.27
496.235	5644.6
496.605	5685.27
496.974	5694.31
497.344	5743.8
497.713	5801.88
498.082	5797.81
498.452	5861.77
498.821	5801.43
499.19	5894.08
499.559	5911.48
499.928	5964.14
500.298	5952.61
500.667	5986.96
501.036	6032.84
501.405	6015.44
501.774	6048.2
502.143	6061.54
502.512	6096.79
502.88	6123.45
503.249	6124.58
503.618	6181.76
503.987	6212.94
504.356	6251.59
504.724	6255.65
505.093	6304.47
505.462	6241.87
505.83	6284.58
506.199	6344.24
506.567	6378.14
506.936	6380.4
507.304	6464.01
507.672	6431.47
508.041	6462.65
508.409	6471.47
508.777	6487.51
509.145	6545.36
509.514	6528.19
509.882	6587.62
510.25	6552.37
510.618	6593.72
510.986	6636.44
511.354	6663.55
511.722	6675.08
512.09	6744.68
512.458	6698.13
512.826	6744
513.193	6760.27
513.561	6816.32
513.929	6781.74
514.297	6841.4
514.664	6834.85
515.032	6814.74
515.4	6863.1
515.767	6875.3
516.135	6912.81
516.502	6896.77
516.869	7011.79
517.237	6932.25
517.604	6932.93
517.972	6923.89
518.339	7029.19
518.706	7037.1
519.073	7011.34
519.44	7032.58
519.808	7035.3
520.175	7029.65
520.542	7112.36
520.909	7182.86
521.276	7122.75
521.643	7125.01
522.009	7210.43
522.376	7226.25
522.743	7231.9
523.11	7300.6
523.477	7307.38
523.843	7363.65
524.21	7436.64
524.577	7401.16
524.943	7405.91
525.31	7430.77
525.676	7503.53
526.043	7550.76
526.409	7543.98
526.776	7599.12
527.142	7569.74
527.508	7650.65
527.874	7618.78
528.241	7688.61
528.607	7714.83
528.973	7771.77
529.339	7691.1
529.705	7691.55
530.071	7792.34
530.437	7790.08
530.803	7798.89
531.169	7829.62
531.535	7808.83
531.901	7861.26
532.267	7861.04
532.632	7901.94
532.998	7917.76
533.364	7959.56
533.73	7974.25
534.095	8002.73
534.461	8045.21
534.826	7986.46
535.192	7985.78
535.557	8081.14
535.923	8034.37
536.288	8042.73
536.653	8082.5
537.019	8078.66
537.384	8115.27
537.749	8068.71
538.114	8080.92
538.479	8087.92
538.845	8086.79
539.21	8108.49
539.575	8088.15
539.94	8089.73
540.305	8142.38
540.67	8147.58
541.034	8187.36
541.399	8210.41
541.764	8147.13
542.129	8184.64
542.494	8175.83
542.858	8221.7
543.223	8214.7
543.587	8234.59
543.952	8256.51
544.316	8231.65
544.681	8236.62
545.045	8297.18
545.41	8328.59
545.774	8317.3
546.138	8288.6
546.503	8310.06
546.867	8261.48
547.231	8353.68
547.595	8366.11
547.959	8347.58
548.324	8374.47
548.688	8365.2
549.052	8398.88
549.416	8362.04
549.779	8364.98
550.143	8388.48
550.507	8414.47
550.871	8411.08
551.235	8423.96
551.599	8505.54
551.962	8463.96
552.326	8495.82
552.689	8498.53
553.053	8483.39
553.417	8519.78
553.78	8603.84
554.143	8549.83
554.507	8544.41
554.87	8580.79
555.234	8684.97
555.597	8640.68
555.96	8597.06
556.323	8648.36
556.686	8636.61
557.05	8678.42
557.413	8666.66
557.776	8714.12
558.139	8712.09
558.502	8773.55
558.865	8765.87
559.228	8785.53
559.59	8835.25
559.953	8891.52
560.316	8862.14
560.679	8912.08
561.041	8907.79
561.404	9003.61
561.767	9052.87
562.129	8986.88
562.492	9105.98
562.854	9045.19
563.217	9079.54
563.579	9115.69
563.941	9118.4
564.304	9163.15
564.666	9166.31
565.028	9202.02
565.39	9212.19
565.753	9284.95
566.115	9362.24
566.477	9344.61
566.839	9333.31
567.201	9472.07
567.563	9437.72
567.925	9460.54
568.287	9435.91
568.648	9521.56
569.01	9533.76
569.372	9660.76
569.734	9562.01
570.095	9633.19
570.457	9737.82
570.819	9739.86
571.18	9631.84
571.542	9800.19
571.903	9729.91
572.265	9806.3
572.626	9842
572.987	9794.09
573.349	9886.52
573.71	9931.26
574.071	9942.56
574.432	9996.12
574.794	10056.23
575.155	10035.44
575.516	10005.16
575.877	10109.34
576.238	10230.69
576.599	10144.14
576.96	10196.34
577.32	10211.93
577.681	10314.98
578.042	10328.32
578.403	10349.78
578.763	10340.75
579.124	10312.5
579.485	10399.73
579.845	10498.71
580.206	10448.54
580.566	10513.85
580.927	10554.3
581.287	10525.15
581.648	10522.44
582.008	10595.2
582.368	10656.22
582.728	10624.58
583.089	10694.18
583.449	10676.33
583.809	10761.98
584.169	10782.09
584.529	10722.66
584.889	10840.17
585.249	10766.5
585.609	10794.74
585.969	10837.23
586.329	10888.3
586.688	10933.95
587.048	10937.11
587.408	10940.5
587.768	11041.29
588.127	10958.36
588.487	11012.37
588.846	11055.98
589.206	10987.06
589.565	11149.99
589.925	11176.88
590.284	11206.03
590.643	11232.25
591.003	11258.46
591.362	11231.57
591.721	11200.61
592.08	11285.8
592.44	11322.87
592.799	11366.03
593.158	11319.25
593.517	11369.87
593.876	11414.16
594.235	11405.58
594.593	11456.87
594.952	11438.34
595.311	11380.27
595.67	11479.7
596.029	11537.32
596.387	11507.49
596.746	11580.03
597.104	11611.67
597.463	11606.25
597.822	11639.24
598.18	11614.84
598.538	11600.15
598.897	11699.35
599.255	11613.03
599.613	11742.06
599.972	11632.01
600.33	11736.19
600.688	11745.23
601.046	11712.23
601.404	11827.49
601.762	11774.38
602.12	11879.91
602.478	11805.57
602.836	11868.39
603.194	11812.12
603.552	11792.91
603.91	11806.7
604.268	11845.79
604.625	11728.96
604.983	11895.05
605.341	11848.5
605.698	11882.63
606.056	11856.86
606.413	11864.32
606.771	11987.48
607.128	11882.63
607.485	11874.94
607.843	11981.61
608.2	12037.88
608.557	11981.61
608.914	12015.28
609.272	12083.3
609.629	12025.67
609.986	12125.33
610.343	12072.68
610.7	12085.56
611.057	12163.3
611.414	12096.86
611.771	12112.45
612.127	12231.77
612.484	12199.68
612.841	12270.64
613.198	12132.11
613.554	12160.58
613.911	12270.64
614.267	12288.94
614.624	12277.19
614.98	12228.38
615.337	12341.14
615.693	12350.86
616.05	12324.87
616.406	12330.07
616.762	12334.36
617.118	12395.38
617.475	12306.8
617.831	12334.36
618.187	12352.44
618.543	12410.3
618.899	12415.94
619.255	12431.99
619.611	12322.61
619.967	12483.51
620.323	12455.49
620.678	12442.16
621.034	12425.66
621.39	12415.27
621.746	12348.6
622.101	12558.31
622.457	12455.72
622.812	12431.54
623.168	12468.6
623.523	12485.1
623.879	12497.98
624.234	12442.38
624.589	12482.16
624.945	12489.62
625.3	12446
625.655	12423.63
626.01	12457.98
626.365	12524.87
626.72	12586.11
627.075	12460.24
627.43	12477.86
627.785	12379.11
628.14	12494.59
628.495	12491.65
628.85	12389.73
629.205	12377.08
629.559	12429.96
629.914	12325.78
630.269	12455.49
630.623	12372.33
630.978	12365.1
631.332	12390.18
631.687	12439.9
632.041	12321.48
632.396	12372.33
632.75	12337.08
633.104	12361.71
633.459	12259.79
633.813	12238.32
634.167	12282.39
634.521	12227.7
634.875	12322.39
635.229	12211.66
635.583	12198.1
635.937	12223.86
636.291	12230.86
636.645	12165.33
636.999	12109.96
637.352	12182.05
637.706	12061.38
638.06	12153.58
638.413	12106.57
638.767	12124.88
639.121	12085.33
639.474	12060.47
639.828	12071.32
640.181	12062.73
640.534	12055.5
640.888	11973.02
641.241	11988.84
641.594	12064.09
641.947	12007.59
642.301	11936.41
642.654	12056.18
643.007	12043.75
643.36	11949.74
643.713	11957.65
644.066	12008.95
644.419	11964.21
644.771	11820.71
645.124	11732.12
645.477	11678.79
645.83	11646.02
646.182	11556.76
646.535	11577.77
646.888	11595.18
647.24	11455.07
647.593	11532.13
647.945	11472.24
648.298	11523.76
648.65	11410.1
649.002	11473.37
649.355	11489.87
649.707	11517.21
650.059	11578.45
650.411	11706.13
650.763	11633.59
651.115	11740.03
651.467	11762.4
651.819	11737.09
652.171	11755.17
652.523	11691.9
652.875	11779.8
653.227	11599.47
653.578	11689.86
653.93	11741.16
654.282	11613.03
654.633	11685.34
654.985	11722.63
655.337	11664.33
655.688	11684.21
656.039	11782.74
656.391	11641.28
656.742	11664.1
657.094	11732.57
657.445	11752.91
657.796	11654.61
658.147	11628.85
658.498	11737.32
658.849	11749.52
659.2	11745.91
659.551	11654.83
659.902	11701.61
660.253	11669.75
660.604	11784.32
660.955	11602.63
661.306	11685.34
661.656	11712.46
662.007	11697.77
662.358	11659.81
662.708	11672.91
663.059	11804.21
663.409	11629.3
663.76	11692.8
664.11	11758.79
664.461	11710.2
664.811	11720.37
665.161	11775.96
665.511	11681.5
665.862	11716.53
666.212	11814.15
666.562	11738
666.912	11699.58
667.262	11713.82
667.612	11699.13
667.962	11744.55
668.312	11727.83
668.662	11756.98
669.011	11782.06
669.361	11691.9
669.711	11717.88
670.06	11724.21
670.41	11761.27
670.76	11660.94
671.109	11671.33
671.459	11718.56
671.808	11632.46
672.157	11703.2
672.507	11609.19
672.856	11563.99
673.205	11610.77
673.554	11622.97
673.904	11635.17
674.253	11764.66
674.602	11621.16
674.951	11458.68
675.3	11394.05
675.649	11593.14
675.998	11499.36
676.346	11497.1
676.695	11597.89
677.044	11485.57
677.393	11491.9
677.741	11517.89
678.09	11486.93
678.438	11428.4
678.787	11488.51
679.135	11471.11
679.484	11359.25
679.832	11468.4
680.181	11359.25
680.529	11388.85
680.877	11309.31
681.225	11314.73
681.573	11404.67
681.922	11315.18
682.27	11291.91
682.618	11205.36
682.966	11267.95
683.314	11265.69
683.661	11263.88
684.009	11160.38
684.357	11159.25
684.705	11114.51
685.053	11092.36
685.4	11164.45
685.748	11076.77
686.095	11108.18
686.443	11059.6
686.79	10957.9
687.138	10973.72
687.485	11011.46
687.832	10968.53
688.18	10954.06
688.527	10879.26
688.874	10879.94
689.221	10814.18
689.568	10853.95
689.915	10820.28
690.262	10792.03
690.609	10710.45
690.956	10701.64
691.303	10677.91
691.65	10643.34
691.997	10647.18
692.344	10572.6
692.69	10508.42
693.037	10493.51
693.383	10430.69
693.73	10457.58
694.077	10416.9
694.423	10434.08
694.769	10360.63
695.116	10343.46
695.462	10313.63
695.808	10258.94
696.155	10274.76
696.501	10191.37
696.847	10226.4
697.193	10106.85
697.539	10097.36
697.885	9991.6
698.231	9984.6
698.577	10010.81
698.923	9998.16
699.269	9894.2
699.614	9894.66
699.96	9844.71
700.306	9752.29
700.651	9788.22
700.997	9689.69
701.342	9762.23
701.688	9645.17
702.033	9646.98
702.379	9651.5
702.724	9613.08
703.069	9589.13
703.415	9512.52
703.76	9513.42
704.105	9517.26
704.45	9414.44
704.795	9403.82
705.14	9371.51
705.485	9363.6
705.83	9318.4
706.175	9337.38
706.52	9316.59
706.865	9277.5
707.209	9255.35
707.554	9210.38
707.899	9239.08
708.243	9183.71
708.588	9194.79
708.932	9101.23
709.277	9111.4
709.621	9082.93
709.966	9048.8
710.31	9022.14
710.654	9010.38
710.998	8925.64
711.342	9003.83
711.687	8950.27
712.031	8876.6
712.375	8889.48
712.719	8929.26
713.063	8870.95
713.407	8918.64
713.75	8776.04
714.094	8850.39
714.438	8816.27
714.782	8814.01
715.125	8792.09
715.469	8783.05
715.812	8745.76
716.156	8703.27
716.499	8758.19
716.843	8700.79
717.186	8682.94
717.53	8688.59
717.873	8692.88
718.216	8606.1
718.559	8641.35
718.902	8570.85
719.246	8579.21
719.589	8585.76
719.932	8539.44
720.275	8588.93
720.617	8497.18
720.96	8555.03
721.303	8557.06
721.646	8546.89
721.989	8442.94
722.331	8504.64
722.674	8501.47
723.016	8480.45
723.359	8544.41
723.701	8480
724.044	8408.82
724.386	8398.2
724.729	8453.56
725.071	8439.55
725.413	8461.02
725.755	8402.49
726.097	8255.83
726.439	8301.25
726.782	8364.75
727.124	8368.14
727.465	8323.62
727.807	8329.05
728.149	8331.98
728.491	8287.47
728.833	8265.32
729.175	8342.83
729.516	8242.95
729.858	8211.31
730.199	8243.17
730.541	8290.4
730.882	8252.89
731.224	8354.81
731.565	8211.08
731.906	8258.99
732.248	8249.05
732.589	8230.74
732.93	8208.15
733.271	8251.99
733.612	8255.38
733.953	8207.92
734.294	8214.25
734.635	8183.97
734.976	8215.15
735.317	8243.4
735.658	8231.2
735.999	8179.67
736.339	8234.36
736.68	8261.93
737.021	8196.62
737.361	8217.41
737.702	8253.12
738.042	8268.71
738.383	8226.22
738.723	8291.31
739.063	8260.8
739.404	8322.72
739.744	8249.27
740.084	8276.17
740.424	8290.18
740.764	8304.64
741.104	8367.92
741.444	8262.61
741.784	8250.4
742.124	8371.31
742.464	8311.19
742.804	8306.9
743.143	8284.75
743.483	8322.72
743.823	8339.22
744.162	8398.42
744.502	8438.87
744.841	8371.53
745.181	8448.37
745.52	8383.28
745.86	8550.06
746.199	8494.92
746.538	8579.89
746.877	8600.23
747.216	8619.89
747.556	8648.81
747.895	8714.35
748.234	8698.75
748.573	8712.99
748.911	8793.89
749.25	8849.48
749.589	8891.74
749.928	8930.61
750.267	9056.03
750.605	9077.95
750.944	9056.71
751.283	9158.4
751.621	9198.63
751.96	9344.39
752.298	9361.79
752.636	9463.03
752.975	9448.34
753.313	9540.54
753.651	9719.52
753.989	9742.57
754.327	9882.23
754.666	9936.24
755.004	10066.85
755.342	10149.11
755.679	10273.4
756.017	10333.74
756.355	10493.74
756.693	10587.52
757.031	10722.2
757.368	10784.58
757.706	11006.72
758.044	10997.22
758.381	11311.34
758.719	11338.68
759.056	11558.11
759.394	11703.42
759.731	11758.33
760.068	11865.45
760.405	12036.75
760.743	12164.88
761.08	12386.79
761.417	12442.61
761.754	12651.42
762.091	12799.44
762.428	12887.57
762.765	13045.76
763.102	13280.55
763.438	13311.97
763.775	13467.89
764.112	13664.73
764.449	13857.04
764.785	13964.6
765.122	14035.56
765.458	14252.51
765.795	14402.11
766.131	14560.3
766.467	14625.6
766.804	14727.07
767.14	14811.14
767.476	15078.02
767.812	15091.35
768.148	15314.17
768.485	15318.24
768.821	15449.09
769.157	15577.22
769.492	15675.07
769.828	15889.07
770.164	15838
770.5	15994.38
770.836	16178.11
771.171	16202.96
771.507	16280.7
771.842	16322.28
772.178	16565.44
772.513	16627.59
772.849	16739.45
773.184	16720.01
773.519	16786.9
773.855	16830.97
774.19	17034.58
774.525	16936.5
774.86	17113.67
775.195	17063.51
775.53	17200.9
775.865	17112.09
776.2	17180.34
776.535	17054.47
776.87	17279.32
777.205	17354.8
777.539	17317.51
777.874	17446.55
778.209	17449.26
778.543	17501.69
778.878	17481.8
779.212	17499.2
779.547	17522.25
779.881	17597.05
780.215	17505.08
780.55	17641.57
780.884	17598.86
781.218	17690.61
781.552	17673.66
781.886	17721.57
782.22	17633.66
782.554	17604.51
782.888	17545.75
783.222	17512.99
783.556	17465.53
783.889	17503.27
784.223	17469.37
784.557	17499.2
784.89	17600.89
785.224	17470.28
785.557	17531.29
785.891	17502.59
786.224	17511.4
786.558	17507.11
786.891	17456.49
787.224	17281.81
787.557	17323.39
787.891	17367.68
788.224	17392.99
788.557	17409.03
788.89	17445.87
789.223	17379.66
789.556	17284.97
789.888	17221.24
790.221	17230.73
790.554	17228.02
790.887	17168.14
791.219	17165.65
791.552	17218.3
791.884	17095.82
792.217	17090.62
792.549	17124.52
792.882	16961.81
793.214	16912.78
793.546	17020.57
793.879	16965.66
794.211	16913.45
794.543	16922.04
794.875	16863.96
795.207	16922.27
795.539	16841.59
795.871	16876.17
796.203	16684.76
796.535	16703.52
796.867	16685.44
797.198	16576.74
797.53	16709.84
797.862	16538.77
798.193	16594.59
798.525	16436.18
798.856	16446.35
799.188	16276.18
799.519	16316.41
799.85	16222.62
800.182	16283.64
800.513	16241.15
800.844	16117.99
801.175	16204.09
801.506	16217.65
801.837	16113.02
802.168	16063.31
802.499	15976.76
802.83	15915.06
803.161	15941.28
803.491	15914.84
803.822	15887.27
804.153	15855.4
804.483	15704.9
804.814	15675.52
805.145	15678.01
805.475	15678.91
805.805	15628.29
806.136	15665.35
806.466	15680.27
806.796	15611.79
807.126	15445.02
807.457	15358.47
807.787	15472.81
808.117	15408.63
808.447	15396.21
808.777	15481.17
809.107	15413.83
809.436	15310.56
809.766	15319.82
810.096	15289.99
810.426	15185.59
810.755	15201.86
811.085	15162.31
811.414	15189.66
811.744	15030.34
812.073	15026.72
812.403	15073.28
812.732	14963
813.061	14965.26
813.39	14896.78
813.719	14826.28
814.049	14984.69
814.378	14861.3
814.707	14788.31
815.036	14833.28
815.365	14737.01
815.693	14700.4
816.022	14611.82
816.351	14598.26
816.68	14529.56
817.008	14584.02
817.337	14509
817.665	14455.44
817.994	14475.55
818.322	14494.76
818.651	14356.23
818.979	14323.01
819.307	14466.51
819.636	14346.97
819.964	14323.69
820.292	14386.97
820.62	14359.17
820.948	14307.19
821.276	14232.39
821.604	14283.69
821.932	14380.19
822.259	14284.37
822.587	14267.65
822.915	14262.45
823.243	14287.08
823.57	14225.16
823.898	14278.95
824.225	14239.85
824.553	14240.3
824.88	14374.76
825.207	14390.58
825.535	14250.7
825.862	14402.11
826.189	14267.42
826.516	14272.39
826.843	14413.86
827.17	14327.98
827.497	14389.23
827.824	14348.1
828.151	14381.77
828.478	14275.78
828.805	14405.5
829.131	14332.96
829.458	14335.44
829.785	14284.14
830.111	14298.61
830.438	14377.48
830.764	14417.25
831.09	14374.54
831.417	14289.12
831.743	14355.1
832.069	14316.01
832.395	14215.9
832.722	14292.51
833.048	14277.82
833.374	14336.57
833.7	14133.87
834.026	14232.39
834.351	14185.84
834.677	14197.82
835.003	14248.44
835.329	14182.68
835.654	14184.94
835.98	14156.46
836.306	14141.55
836.631	14041.66
836.956	14130.02
837.282	14119.4
837.607	14018.61
837.932	13956.02
838.258	14033.98
838.583	14074.43
838.908	13913.53
839.233	13937.49
839.558	13970.71
839.883	13807.77
840.208	13808.68
840.533	13878.05
840.858	13826.08
841.182	13865.62
841.507	13768
841.832	13761.22
842.156	13729.58
842.481	13785.85
842.805	13725.06
843.13	13642.35
843.454	13605.97
843.778	13714.44
844.103	13524.84
844.427	13499.76
844.751	13529.14
845.075	13458.18
845.399	13423.38
845.723	13382.92
846.047	13377.28
846.371	13305.64
846.695	13263.15
847.019	13255.7
847.343	13101.12
847.666	13078.53
847.99	13003.73
848.313	13003.5
848.637	12833.33
848.96	12884.41
849.284	12744.98
849.607	12735.71
849.931	12756.73
850.254	12634.7
850.577	12594.02
850.9	12474.93
851.223	12520.35
851.546	12451.2
851.869	12359.9
852.192	12329.39
852.515	12353.12
852.838	12299.11
853.161	12262.73
853.483	12120.13
853.806	12124.88
854.129	12089.63
854.451	12089.4
854.774	12077.2
855.096	12034.71
855.419	11929.63
855.741	11928.95
856.063	11847.37
856.385	11827.94
856.708	11778.22
857.03	11749.52
857.352	11778.22
857.674	11693.48
857.996	11681.73
858.318	11609.19
858.64	11648.06
858.961	11616.64
859.283	11502.3
859.605	11438.34
859.926	11523.09
860.248	11461.17
860.57	11325.13
860.891	11437.67
861.212	11388.18
861.534	11321.28
861.855	11299.36
862.176	11312.02
862.498	11274.51
862.819	11289.19
863.14	11205.36
863.461	11196.99
863.782	11275.86
864.103	11247.39
864.424	11146.83
864.745	11161.06
865.065	11039.71
865.386	11098.92
865.707	10996.1
866.027	11082.65
866.348	11032.25
866.668	11045.59
866.989	10956.1
867.309	10933.5
867.63	10917.91
867.95	10938.47
868.27	10841.97
868.59	10936.89
868.91	10844.01
869.23	10819.38
869.55	10780.06
869.87	10895.31
870.19	10822.31
870.51	10788.64
870.83	10772.82
871.15	10739.6
871.469	10687.63
871.789	10801.52
872.109	10718.59
872.428	10690.79
872.748	10674.52
873.067	10678.59
873.386	10643.56
873.706	10598.82
874.025	10572.83
874.344	10521.53
874.663	10579.83
874.982	10494.64
875.301	10486.28
875.62	10498.26
875.939	10459.84
876.258	10446.73
876.577	10543
876.896	10463.23
877.214	10381.87
877.533	10433.62
877.852	10446.28
878.17	10411.93
878.489	10413.96
878.807	10301.42
879.125	10272.05
879.444	10267.75
879.762	10204.93
880.08	10304.59
880.398	10255.78
880.716	10215.55
881.034	10207.19
881.352	10192.27
881.67	10162.9
881.988	10206.29
882.306	10152.05
882.624	10198.38
882.941	10008.32
883.259	10011.26
883.577	10007.87
883.894	10013.97
884.212	10051.49
884.529	9982.11
884.846	9995.44
885.164	9948.89
885.481	9895.11
885.798	9906.86
886.115	9851.72
886.432	9886.52
886.75	9844.94
887.067	9857.82
887.383	9744.15
887.7	9783.92
888.017	9727.43
888.334	9691.72
888.651	9678.16
888.967	9701.89
889.284	9603.36
889.6	9573.31
889.917	9539.18
890.233	9526.76
890.55	9542.57
890.866	9540.77
891.182	9446.08
891.498	9427.55
891.815	9367.89
892.131	9398.62
892.447	9256.03
892.763	9296.03
893.079	9268.91
893.395	9280.66
893.71	9169.93
894.026	9221.23
894.342	9137.84
894.657	9103.04
894.973	9133.55
895.289	9041.57
895.604	9042.02
895.92	9003.38
896.235	8943.27
896.55	8963.83
896.865	8967.45
897.181	8851.97
897.496	8864.4
897.811	8828.47
898.126	8816.27
898.441	8793.67
898.756	8717.28
899.071	8737.4
899.386	8701.01
899.7	8592.32
900.015	8544.41
900.33	8533.33
900.644	8478.42
900.959	8555.93
901.273	8508.7
901.588	8422.38
901.902	8381.25
902.216	8351.42
902.531	8344.19
902.845	8307.13
903.159	8236.85
903.473	8262.83
903.787	8234.59
904.101	8125.89
904.415	8148.94
904.729	8033.01
905.042	8140.35
905.356	8080.92
905.67	8041.37
905.984	8003.18
906.297	7962.73
906.611	7938.1
906.924	7894.03
907.237	7902.17
907.551	7875.95
907.864	7833.24
908.177	7808.38
908.491	7784.65
908.804	7703.07
909.117	7687.48
909.43	7651.78
909.743	7579.46
910.056	7617.65
910.368	7586.24
910.681	7555.28
910.994	7521.38
911.307	7475.51
911.619	7407.71
911.932	7441.16
912.244	7324.78
912.557	7365
912.869	7344.21
913.181	7290.43
913.494	7274.16
913.806	7220.83
914.118	7185.8
914.43	7171.11
914.742	7175.63
915.054	7153.48
915.366	7027.16
915.678	7032.13
915.99	7029.19
916.302	6997.78
916.613	6938.35
916.925	6974.05
917.236	6915.98
917.548	6842.08
917.859	6805.7
918.171	6790.78
918.482	6729.54
918.794	6798.69
919.105	6750.78
919.416	6719.6
919.727	6717.34
920.038	6689.54
920.349	6596.89
920.66	6625.81
920.971	6573.61
921.282	6628.53
921.593	6530
921.903	6510.34
922.214	6489.09
922.525	6454.29
922.835	6480.73
923.146	6393.05
923.456	6384.24
923.767	6367.74
924.077	6287.74
924.387	6333.84
924.697	6249.55
925.008	6251.59
925.318	6187.86
925.628	6210.68
925.938	6167.3
926.248	6180.63
926.558	6120.07
926.867	6121.19
927.177	6056.11
927.487	6073.74
927.796	5959.84
928.106	5950.58
928.416	6000.75
928.725	5975.89
929.034	5959.84
929.344	5883.01
929.653	5908.32
929.962	5872.61
930.271	5827.19
930.581	5833.07
930.89	5772.05
931.199	5737.93
931.508	5726.63
931.817	5734.99
932.125	5693.41
932.434	5763.92
932.743	5636.69
933.051	5603.92
933.36	5618.16
933.669	5549.23
933.977	5552.62
934.286	5549.46
934.594	5543.36
934.902	5447.77
935.21	5394.43
935.519	5468.1
935.827	5415.22
936.135	5446.41
936.443	5342.01
936.751	5324.61
937.059	5331.16
937.367	5268.34
937.674	5294.55
937.982	5280.09
938.29	5249.81
938.597	5210.26
938.905	5106.53
939.213	5123.71
939.52	5172.07
939.827	5168.23
940.135	5103.82
940.442	5124.61
940.749	5074.44
941.056	5068.34
941.363	5027.66
941.67	4957.61
941.977	4958.97
942.284	4915.35
942.591	4949.47
942.898	4938.63
943.205	4903.37
943.511	4865.18
943.818	4864.96
944.125	4824.73
944.431	4806.43
944.738	4767.78
945.044	4767.33
945.35	4742.25
945.657	4690.05
945.963	4720.33
946.269	4677.17
946.575	4693.89
946.881	4626.32
947.187	4636.71
947.493	4655.92
947.799	4598.52
948.105	4590.39
948.41	4542.93
948.716	4537.28
949.022	4506.32
949.327	4499.77
949.633	4445.08
949.938	4436.27
950.244	4475.59
950.549	4332.99
950.854	4386.33
951.16	4375.93
951.465	4368.7
951.77	4332.09
952.075	4306.33
952.38	4279.21
952.685	4269.72
952.99	4222.71
953.294	4266.33
953.599	4243.5
953.904	4212.54
954.209	4180.23
954.513	4153.79
954.818	4169.61
955.122	4140.91
955.426	4092.32
955.731	4111.98
956.035	4094.13
956.339	4050.51
956.643	4040.57
956.948	4047.58
957.252	3985.88
957.556	4000.12
957.86	3974.81
958.163	3977.75
958.467	3959.67
958.771	3977.3
959.075	3904.08
959.378	3886
959.682	3875.6
959.985	3862.27
960.289	3847.13
960.592	3785.44
960.896	3853.68
961.199	3774.14
961.502	3770.3
961.805	3766.68
962.108	3765.78
962.411	3718.09
962.714	3732.11
963.017	3745.21
963.32	3703.86
963.623	3655.05
963.926	3680.81
964.228	3652.56
964.531	3683.97
964.833	3609.4
965.136	3559.45
965.438	3573.01
965.741	3533.92
966.043	3550.19
966.345	3519.91
966.648	3524.65
966.95	3540.25
967.252	3455.95
967.554	3430.42
967.856	3436.97
968.158	3468.61
968.46	3423.41
968.761	3425.22
969.063	3347.48
969.365	3366.47
969.666	3366.47
969.968	3328.95
970.269	3354.26
970.571	3323.08
970.872	3312.23
971.174	3308.84
971.475	3265
971.776	3288.05
972.077	3263.87
972.378	3225.23
972.679	3222.29
972.98	3219.58
973.281	3191.55
973.582	3166.47
973.883	3198.79
974.183	3158.11
974.484	3148.17
974.785	3123.99
975.085	3124.21
975.386	3064.78
975.686	3114.49
975.986	3064.33
976.287	3036.3
976.587	3030.88
976.887	3038.56
977.187	3052.12
977.487	2973.03
977.787	3000.37
978.087	2971.45
978.387	2961.05
978.687	3003.54
978.987	2921.05
979.286	2914.95
979.586	2849.64
979.885	2874.27
980.185	2876.53
980.484	2891.68
980.784	2880.38
981.083	2858.91
981.382	2799.25
981.682	2852.35
981.981	2793.37
982.28	2782.3
982.579	2759.48
982.878	2760.15
983.177	2767.38
983.475	2756.09
983.774	2732.58
984.073	2705.92
984.372	2724.22
984.67	2730.55
984.969	2681.29
985.267	2663.43
985.566	2653.72
985.864	2658.91
986.162	2627.05
986.461	2610.78
986.759	2624.56
987.057	2601.97
987.355	2594.96
987.653	2574.85
987.951	2590.44
988.249	2511.57
988.547	2553.61
988.844	2546.6
989.142	2525.36
989.44	2526.26
989.737	2506.15
990.035	2493.72
990.332	2504.34
990.63	2470.44
990.927	2425.02
991.224	2423.21
991.521	2458.01
991.819	2386.6
992.116	2423.44
992.413	2368.98
992.71	2379.82
993.006	2363.33
993.303	2379.6
993.6	2354.97
993.897	2329.43
994.193	2333.05
994.49	2326.49
994.787	2291.24
995.083	2276.55
995.379	2302.76
995.676	2221.64
995.972	2238.36
996.268	2211.24
996.565	2241.3
996.861	2232.48
997.157	2208.3
997.453	2187.51
997.749	2162.88
998.044	2156.1
998.34	2170.79
998.636	2169.66
998.932	2183.9
999.227	2151.36
999.523	2122.88
999.818	2131.24
1000.114	2130.11
1000.409	2081.3
1000.704	2076.33
1001	2060.96
1001.295	2021.87
1001.59	2034.3
1001.885	2065.26
1002.18	2011.25
1002.475	2032.26
1002.77	1981.64
1003.065	1997.46
1003.359	1999.04
1003.654	1968.54
1003.949	1933.51
1004.243	1925.83
1004.538	1928.31
1004.832	1932.6
1005.127	1933.06
1005.421	1921.98
1005.715	1915.88
1006.009	1852.38
1006.304	1878.14
1006.598	1898.26
1006.892	1864.36
1007.186	1832.49
1007.48	1841.31
1007.773	1826.17
1008.067	1810.57
1008.361	1790.46
1008.655	1795.88
1008.948	1801.76
1009.242	1760.41
1009.535	1771.03
1009.829	1785.94
1010.122	1764.47
1010.415	1731.25
1010.708	1725.6
1011.001	1731.48
1011.295	1705.72
1011.588	1715.21
1011.881	1676.34
1012.173	1665.49
1012.466	1677.47
1012.759	1675.44
1013.052	1648.32
1013.344	1660.75
1013.637	1596.79
1013.93	1621.65
1014.222	1620.97
1014.514	1593.86
1014.807	1578.94
1015.099	1573.74
1015.391	1581.65
1015.683	1537.36
1015.976	1560.18
1016.268	1517.7
1016.56	1517.7
1016.851	1511.37
1017.143	1514.76
1017.435	1482.45
1017.727	1470.47
1018.018	1481.54
1018.31	1457.59
1018.602	1445.84
1018.893	1465.05
1019.185	1445.84
1019.476	1430.02
1019.767	1449.45
1020.058	1416.46
1020.35	1423.69
1020.641	1371.26
1020.932	1379.17
1021.223	1393.18
1021.514	1376.46
1021.804	1379.85
1022.095	1341.89
1022.386	1354.99
1022.677	1330.81
1022.967	1315.9
1023.258	1321.55
1023.548	1328.55
1023.839	1313.41
1024.129	1289.68
1024.419	1298.27
1024.709	1271.83
1025	1304.15
1025.29	1262.57
1025.58	1253.75
1025.87	1244.71
1026.16	1253.98
1026.449	1235.22
1026.739	1242.91
1027.029	1229.8
1027.319	1205.62
1027.608	1206.07
1027.898	1170.36
1028.187	1189.8
1028.477	1175.79
1028.766	1151.83
1029.055	1151.38
1029.344	1149.57
1029.634	1166.97
1029.923	1162.46
1030.212	1117.03
1030.501	1121.55
1030.79	1151.16
1031.078	1108.67
1031.367	1087.43
1031.656	1069.8
1031.945	1096.47
1032.233	1098.95
1032.522	1072.97
1032.81	1073.42
1033.099	1062.12
1033.387	1045.62
1033.675	1052.4
1033.963	1043.36
1034.251	1032.97
1034.54	1035
1034.828	1008.34
1035.116	1021.89
1035.403	984.83
1035.691	996.58
1035.979	1001.78
1036.267	999.07
1036.554	1000.2
1036.842	981.44
1037.129	958.17
1037.417	970.6
1037.704	959.75
1037.992	934.66
1038.279	931.5
1038.566	943.03
1038.853	943.03
1039.14	943.03
