Data from hue_30_FLMS001491_9.txt Node
Date: Mon Feb 06 15:04:35 GMT 2017
User: dcchb
Spectrometer: FLMS00149
Trigger mode: 0
Integration Time (sec): 2.000000E-2
Scans to average: 10
Electric dark correction enabled: true
Nonlinearity correction enabled: false
Boxcar width: 0
XAxis mode: Wavelengths
Number of Pixels in Spectrum: 2048
>>>>>Begin Spectral Data<<<<<
341.393	-23.18
341.776	-23.18
342.16	-23.18
342.543	-42.16
342.927	-67.47
343.31	-64.76
343.693	-68.6
344.077	-68.83
344.46	-74.25
344.843	-60.92
345.226	-31.76
345.61	-31.31
345.993	-31.76
346.376	-11.88
346.759	-5.32
347.142	34.9
347.525	48.91
347.908	77.38
348.291	71.74
348.674	102.7
349.057	113.77
349.44	114.67
349.823	152.86
350.206	137.5
350.588	205.29
350.971	225.4
351.354	236.48
351.737	241
352.119	241.9
352.502	258.85
352.884	269.24
353.267	282.35
353.65	296.36
354.032	307.66
354.414	299.75
354.797	292.75
355.179	332.75
355.562	315.57
355.944	310.6
356.326	323.48
356.709	336.36
357.091	325.74
357.473	333.65
357.855	332.52
358.238	323.03
358.62	327.77
359.002	325.06
359.384	325.97
359.766	324.84
360.148	314.44
360.53	343.14
360.912	323.71
361.294	300.66
361.676	317.83
362.057	337.04
362.439	320.77
362.821	311.05
363.203	298.17
363.584	320.54
363.966	298.17
364.348	312.41
364.729	327.77
365.111	305.4
365.493	322.8
365.874	315.12
366.256	316.93
366.637	332.97
367.019	313.54
367.4	318.73
367.781	319.64
368.163	306.08
368.544	302.01
368.925	324.84
369.306	324.16
369.688	307.44
370.069	296.36
370.45	306.98
370.831	298.4
371.212	329.81
371.593	315.34
371.974	283.93
372.355	307.89
372.736	310.15
373.117	291.39
373.498	313.54
373.879	313.54
374.26	303.59
374.641	300.2
375.021	315.57
375.402	302.92
375.783	316.25
376.163	294.33
376.544	317.38
376.925	328.9
377.305	327.77
377.686	310.83
378.066	331.62
378.447	354.67
378.827	326.64
379.208	316.7
379.588	323.03
379.968	331.39
380.349	322.58
380.729	318.73
381.109	335.91
381.489	331.84
381.87	329.13
382.25	333.2
382.63	342.91
383.01	324.16
383.39	335.46
383.77	320.99
384.15	334.1
384.53	323.93
384.91	365.06
385.29	333.42
385.67	345.63
386.049	335.01
386.429	369.13
386.809	353.08
387.189	347.43
387.568	348.79
387.948	322.12
388.328	349.02
388.707	342.91
389.087	334.1
389.466	340.2
389.846	356.25
390.225	359.64
390.605	371.39
390.984	351.73
391.363	355.57
391.743	348.34
392.122	363.03
392.501	371.84
392.881	329.58
393.26	359.86
393.639	370.71
394.018	383.59
394.397	369.81
394.776	348.79
395.155	361.22
395.534	367.55
395.913	380.43
396.292	353.08
396.671	361.67
397.05	384.04
397.429	382.91
397.808	353.99
398.186	371.61
398.565	375.23
398.944	393.08
399.323	377.26
399.701	378.17
400.08	390.37
400.458	385.85
400.837	394.89
401.215	406.87
401.594	375
401.972	377.94
402.351	370.26
402.729	398.96
403.107	387.89
403.486	400.54
403.864	393.08
404.242	388.56
404.62	392.18
404.999	387.21
405.377	384.5
405.755	421.56
406.133	403.93
406.511	376.59
406.889	406.19
407.267	402.35
407.645	404.16
408.023	409.13
408.401	376.36
408.779	413.87
409.156	428.34
409.534	452.52
409.912	424.72
410.29	421.33
410.667	431.05
411.045	427.43
411.422	445.06
411.8	429.69
412.178	427.43
412.555	426.75
412.933	417.26
413.31	440.99
413.687	435.12
414.065	458.62
414.442	442.35
414.819	438.05
415.197	449.58
415.574	461.56
415.951	471.72
416.328	465.62
416.705	456.58
417.082	473.31
417.46	461.56
417.837	467.88
418.214	451.84
418.591	460.65
418.967	468.34
419.344	489.35
419.721	506.3
420.098	479.41
420.475	464.49
420.852	464.27
421.228	496.36
421.605	473.98
421.982	481.89
422.358	509.92
422.735	509.69
423.111	496.36
423.488	494.32
423.864	523.93
424.241	519.86
424.617	520.76
424.994	513.76
425.37	510.37
425.746	529.12
426.123	517.37
426.499	523.47
426.875	528.67
427.251	549.91
427.627	543.59
428.003	535
428.379	537.03
428.756	553.53
429.132	550.82
429.507	560.99
429.883	548.11
430.259	544.49
430.635	559.41
431.011	577.03
431.387	585.62
431.763	566.86
432.138	584.04
432.514	606.86
432.89	588.56
433.265	612.51
433.641	580.2
434.016	594.89
434.392	617.26
434.767	602.34
435.143	609.57
435.518	615
435.894	629.23
436.269	632.17
436.644	647.77
437.02	631.72
437.395	646.64
437.77	646.18
438.145	657.48
438.52	650.25
438.895	649.57
439.271	668.78
439.646	662.91
440.021	679.4
440.395	673.98
440.77	656.58
441.145	676.01
441.52	677.37
441.895	687.76
442.27	666.97
442.645	678.05
443.019	687.31
443.394	708.78
443.769	705.39
444.143	700.19
444.518	705.84
444.892	731.83
445.267	725.5
445.641	716.24
446.016	735.45
446.39	741.1
446.764	724.37
447.139	711.04
447.513	727.54
447.887	734.77
448.262	733.86
448.636	755.33
449.01	762.34
449.384	776.58
449.758	759.4
450.132	751.04
450.506	772.73
450.88	770.7
451.254	793.98
451.628	780.19
452.002	785.16
452.376	796.01
452.75	780.19
453.123	789.23
453.497	808.89
453.871	808.89
454.244	820.64
454.618	841.21
454.992	828.33
455.365	826.97
455.739	865.39
456.112	877.59
456.486	879.17
456.859	863.35
457.232	906.06
457.606	886.86
457.979	904.26
458.352	923.69
458.725	951.03
459.099	967.08
459.472	943.12
459.845	947.87
460.218	961.66
460.591	956.91
460.964	941.77
461.337	971.15
461.71	976.8
462.083	1015.67
462.456	1001.65
462.829	1000.75
463.201	996
463.574	1051.6
463.947	1029.22
464.32	1038.04
464.692	1067.19
465.065	1081.2
465.438	1099.96
465.81	1111.71
466.183	1121.88
466.555	1130.24
466.928	1150.13
467.3	1151.93
467.672	1168.2
468.045	1202.1
468.417	1189.9
468.789	1227.19
469.161	1214.08
469.534	1235.09
469.906	1243.23
470.278	1284.13
470.65	1276.45
471.022	1307.86
471.394	1325.26
471.766	1327.07
472.138	1371.14
472.51	1392.83
472.882	1404.81
473.253	1437.58
473.625	1431.25
473.997	1483.45
474.369	1488.2
474.74	1497.69
475.112	1562.32
475.484	1586.05
475.855	1564.58
476.227	1602.54
476.598	1672.6
476.97	1702.2
477.341	1714.86
477.713	1747.17
478.084	1749.66
478.455	1800.96
478.827	1849.54
479.198	1886.83
479.569	1917.56
479.94	1946.94
480.311	1971.35
480.682	2006.83
481.053	2073.49
481.424	2133.6
481.795	2170.66
482.166	2191.45
482.537	2233.49
482.908	2304.9
483.279	2385.57
483.65	2395.52
484.021	2479.36
484.391	2448.17
484.762	2526.13
485.133	2536.08
485.503	2640.48
485.874	2688.62
486.244	2689.97
486.615	2804.54
486.985	2814.04
487.356	2913.47
487.726	2882.51
488.097	2998.89
488.467	3010.87
488.837	3095.16
489.207	3134.25
489.578	3232.33
489.948	3253.35
490.318	3320.01
490.688	3360.24
491.058	3400.01
491.428	3457.18
491.798	3553
492.168	3580.8
492.538	3652.88
492.908	3701.92
493.278	3749.6
493.648	3807.46
494.017	3835.03
494.387	3868.02
494.757	3924.74
495.126	4009.94
495.496	4005.42
495.866	4069.14
496.235	4126.77
496.605	4216.03
496.974	4264.85
497.344	4257.61
497.713	4338.29
498.082	4340.1
498.452	4413.32
498.821	4417.84
499.19	4474.56
499.559	4552.75
499.928	4597.94
500.298	4618.06
500.667	4631.16
501.036	4654.89
501.405	4722.23
501.774	4717.04
502.143	4796.81
502.512	4825.06
502.88	4815.34
503.249	4908.22
503.618	4987.31
503.987	4955.45
504.356	5028.22
504.724	5072.73
505.093	5022.57
505.462	5089.23
505.83	5131.26
506.199	5191.37
506.567	5205.39
506.936	5284.25
507.304	5298.49
507.672	5306.17
508.041	5361.31
508.409	5400.18
508.777	5423.23
509.145	5454.19
509.514	5515.89
509.882	5563.12
510.25	5570.35
510.618	5613.51
510.986	5562.44
511.354	5636.56
511.722	5706.84
512.09	5749.33
512.458	5747.29
512.826	5752.94
513.193	5800.17
513.561	5849.21
513.929	5825.93
514.297	5910
514.664	5935.08
515.032	5951.58
515.4	5993.84
515.767	6008.75
516.135	6071.8
516.502	6053.95
516.869	6161.97
517.237	6080.39
517.604	6094.18
517.972	6197.9
518.339	6177.79
518.706	6190.9
519.073	6279.71
519.44	6248.97
519.808	6359.25
520.175	6331.23
520.542	6423.21
520.909	6410.1
521.276	6462.75
521.643	6441.96
522.009	6465.92
522.376	6566.48
522.743	6591.34
523.11	6643.31
523.477	6672.92
523.843	6738.68
524.21	6765.8
524.577	6804.21
524.943	6805.12
525.31	6850.77
525.676	6914.95
526.043	6877.21
526.409	6953.59
526.776	7021.61
527.142	7012.57
527.508	7043.53
527.874	7119.46
528.241	7201.04
528.607	7153.81
528.973	7268.61
529.339	7236.74
529.705	7297.08
530.071	7357.19
530.437	7358.1
530.803	7440.36
531.169	7492.33
531.535	7525.78
531.901	7482.16
532.267	7541.37
532.632	7634.25
532.998	7625.89
533.364	7679.22
533.73	7703.63
534.095	7704.3
534.461	7801.48
534.826	7792.66
535.192	7822.72
535.557	7842.38
535.923	7894.13
536.288	7979.78
536.653	7971.64
537.019	8002.37
537.384	7990.17
537.749	8017.74
538.114	8059.77
538.479	8101.13
538.845	8150.62
539.21	8113.11
539.575	8198.98
539.94	8187.45
540.305	8250.28
540.67	8319.2
541.034	8229.71
541.399	8344.06
541.764	8374.12
542.129	8402.14
542.494	8430.16
542.858	8506.32
543.223	8481.91
543.587	8581.57
543.952	8560.33
544.316	8596.03
544.681	8571.4
545.045	8694.56
545.41	8729.13
545.774	8700.66
546.138	8736.37
546.503	8783.6
546.867	8806.42
547.231	8868.34
547.595	8874.89
547.959	8963.93
548.324	8948.56
548.688	8966.87
549.052	9023.59
549.416	8989.69
549.779	9084.15
550.143	9099.07
550.507	9146.53
550.871	9164.6
551.235	9223.36
551.599	9224.49
551.962	9241.89
552.326	9282.11
552.689	9360.76
553.053	9318.5
553.417	9379.29
553.78	9497.48
554.143	9384.71
554.507	9474.2
554.87	9525.95
555.234	9571.15
555.597	9568.89
555.96	9579.06
556.323	9563.69
556.686	9621.99
557.05	9692.73
557.413	9723.46
557.776	9739.05
558.139	9803.46
558.502	9776.79
558.865	9875.32
559.228	9953.51
559.59	9909.44
559.953	9990.57
560.316	10041.64
560.679	9932.04
561.041	10054.98
561.404	10140.62
561.767	10145.37
562.129	10184.69
562.492	10224.69
562.854	10214.75
563.217	10221.75
563.579	10315.76
563.941	10322.54
564.304	10397.57
564.666	10435.08
565.028	10433.27
565.39	10445.47
565.753	10479.15
566.115	10496.32
566.477	10562.76
566.839	10607.28
567.201	10667.16
567.563	10735.64
567.925	10722.3
568.287	10753.04
568.648	10780.15
569.01	10769.08
569.372	10901.28
569.734	10856.08
570.095	11045.01
570.457	11086.59
570.819	11125.68
571.18	11115.06
571.542	11225.57
571.903	11273.02
572.265	11317.54
572.626	11304.89
572.987	11308.05
573.349	11396.64
573.71	11458.78
574.071	11500.36
574.432	11564.54
574.794	11708.72
575.155	11702.16
575.516	11776.51
575.877	11836.17
576.238	11976.06
576.599	12116.84
576.96	12110.06
577.32	12127.01
577.681	12282.49
578.042	12389.83
578.403	12449.26
578.763	12512.31
579.124	12663.95
579.485	12767.22
579.845	12925.18
580.206	12963.15
580.566	13048.34
580.927	13249.47
581.287	13392.52
581.648	13478.16
582.008	13666.63
582.368	13721.77
582.728	13953.4
583.089	14093.74
583.449	14170.35
583.809	14519.72
584.169	14700.96
584.529	14722.65
584.889	14993.38
585.249	15103.66
585.609	15211.45
585.969	15554.72
586.329	15745.45
586.688	15967.14
587.048	16120.8
587.408	16310.18
587.768	16490.96
588.127	16634.46
588.487	16905.19
588.846	17266.99
589.206	17367.55
589.565	17616.13
589.925	17887.31
590.284	18064.71
590.643	18388.32
591.003	18638.93
591.362	18902.65
591.721	19057.45
592.08	19372.24
592.44	19622.86
592.799	19861.05
593.158	19981.72
593.517	20304.2
593.876	20659.67
594.235	20718.88
594.593	21235.47
594.952	21461.23
595.311	21655.12
595.67	21880.43
596.029	22241.32
596.387	22640.86
596.746	22787.52
597.104	22987.29
597.463	23255.31
597.822	23547.5
598.18	23699.36
598.538	24024.33
598.897	24393.36
599.255	24359.46
599.613	24965.77
599.972	24952.66
600.33	25406.44
600.688	25295.03
601.046	25714.68
601.404	26123.25
601.762	26153.76
602.12	26623.35
602.478	26766.85
602.836	27023.57
603.194	27010.46
603.552	27187.41
603.91	27427.4
604.268	27796.2
604.625	27962.53
604.983	28179.7
605.341	28258.34
605.698	28628.95
606.056	28823.75
606.413	29003.63
606.771	29178.54
607.128	29449.27
607.485	29555.71
607.843	29769.26
608.2	29970.38
608.557	30328.34
608.914	30279.75
609.272	30660.76
609.629	30846.07
609.986	31099.85
610.343	31043.12
610.7	31511.59
611.057	31461.42
611.414	31645.82
611.771	31771.01
612.127	32112.25
612.484	32201.06
612.841	32284.45
613.198	32323.32
613.554	32519.02
613.911	32845.11
614.267	32965.79
614.624	32976.63
614.98	33116.74
615.337	33465.43
615.693	33415.49
616.05	33470.63
616.406	33831.98
616.762	33830.17
617.118	33928.25
617.475	34034.46
617.831	34195.81
618.187	34299.54
618.543	34449.81
618.899	34684.61
619.255	34724.61
619.611	34760.99
619.967	34977.48
620.323	35124.6
620.678	34982.91
621.034	35044.83
621.39	35047.76
621.746	35134.99
622.101	35682.32
622.457	35430.58
622.812	35613.85
623.168	35691.82
623.523	35842.09
623.879	35806.84
624.234	35688.43
624.589	35884.81
624.945	36030.79
625.3	36209.09
625.655	36269.65
626.01	36309.2
626.365	36323.89
626.72	36445.24
627.075	36436.2
627.43	36320.05
627.785	36419.25
628.14	36428.75
628.495	36684.11
628.85	36685.01
629.205	36541.74
629.559	36776.08
629.914	36565.47
630.269	36727.49
630.623	36620.15
630.978	36675.07
631.332	36739.92
631.687	36888.85
632.041	36700.15
632.396	36776.53
632.75	36616.99
633.104	36768.62
633.459	36798.23
633.813	36744.67
634.167	36754.61
634.521	36756.65
634.875	36826.48
635.229	36823.09
635.583	36573.6
635.937	36734.5
636.291	36759.81
636.645	36806.14
636.999	36713.03
637.352	36830.32
637.706	36626.48
638.06	36768.62
638.413	36601.85
638.767	36567.72
639.121	36626.93
639.474	36531.12
639.828	36455.19
640.181	36600.49
640.534	36666.71
640.888	36545.13
641.241	36435.07
641.594	36599.81
641.947	36662.86
642.301	36570.21
642.654	36462.64
643.007	36455.19
643.36	36430.1
643.713	36471.46
644.066	36573.37
644.419	36273.5
644.771	36148.3
645.124	35824.02
645.477	35788.08
645.83	35631.03
646.182	35546.73
646.535	35312.39
646.888	35574.3
647.24	35269.68
647.593	35539.28
647.945	35326.63
648.298	35273.07
648.65	35236.91
649.002	35165.05
649.355	35221.09
649.707	35137.71
650.059	35318.27
650.411	35765.94
650.763	35722.1
651.115	36280.95
651.467	35947.63
651.819	36034.86
652.171	35962.54
652.523	35901.3
652.875	35966.84
653.227	35843
653.578	36082.31
653.93	35925.93
654.282	35708.54
654.633	35676.9
654.985	35793.28
655.337	35878.7
655.688	35810.46
656.039	35997.34
656.391	35629.67
656.742	35669.67
657.094	35725.04
657.445	35755.54
657.796	35763
658.147	35791.25
658.498	35746.73
658.849	35713.74
659.2	35627.86
659.551	35680.74
659.902	35693.62
660.253	35691.82
660.604	35599.16
660.955	35581.99
661.306	35647.98
661.656	35567.07
662.007	35613.17
662.358	35598.48
662.708	35518.71
663.059	35544.02
663.409	35290.47
663.76	35577.02
664.11	35634.64
664.461	35634.87
664.811	35545.83
665.161	35534.53
665.511	35505.61
665.862	35581.99
666.212	35605.49
666.562	35670.35
666.912	35466.74
667.262	35436.68
667.612	35510.13
667.962	35563.01
668.312	35573.4
668.662	35608.43
669.011	35510.8
669.361	35504.48
669.711	35328.21
670.06	35429.22
670.41	35283.01
670.76	35197.59
671.109	35403.01
671.459	35367.08
671.808	35305.39
672.157	35289.79
672.507	35010.93
672.856	35114.2
673.205	35316.46
673.554	35461.54
673.904	35168.21
674.253	35505.61
674.602	35371.6
674.951	34813.65
675.3	34604.39
675.649	35207.99
675.998	35120.53
676.346	35140.87
676.695	35287.76
677.044	34984.49
677.393	35066.07
677.741	35056.35
678.09	34972.96
678.438	34835.12
678.787	35024.94
679.135	34982.91
679.484	34783.37
679.832	34799.18
680.181	34700.43
680.529	34755.57
680.877	34817.49
681.225	34682.8
681.573	34817.71
681.922	34680.32
682.27	34624.95
682.618	34584.05
682.966	34379.99
683.314	34593.77
683.661	34316.26
684.009	34335.69
684.357	34180.9
684.705	34221.8
685.053	34222.93
685.4	34022.93
685.748	33960.79
686.095	33945.65
686.443	33846.44
686.79	33780.23
687.138	33886.21
687.485	33786.78
687.832	33653.68
688.18	33711.75
688.527	33492.1
688.874	33638.31
689.221	33427.02
689.568	33493.46
689.915	33224.31
690.262	33299.79
690.609	33157.65
690.956	33205.33
691.303	33056.4
691.65	33006.01
691.997	32912.23
692.344	32876.3
692.69	32873.36
693.037	32676.75
693.383	32477.89
693.73	32616.64
694.077	32443.54
694.423	32422.75
694.769	32402.41
695.116	32179.82
695.462	32187.05
695.808	32050.56
696.155	32080.84
696.501	31786.16
696.847	31881.52
697.193	31612.15
697.539	31850.79
697.885	31514.75
698.231	31402.44
698.577	31434.07
698.923	31261.65
699.269	31255.77
699.614	31100.3
699.96	31063.24
700.306	31105.27
700.651	30865.05
700.997	30896.01
701.342	30702.34
701.688	30724.49
702.033	30663.47
702.379	30700.53
702.724	30513.19
703.069	30648.78
703.415	30237.5
703.76	30375.12
704.105	30314.1
704.45	30139.19
704.795	29992.76
705.14	29997.28
705.485	29926.09
705.83	29762.25
706.175	29946.66
706.52	29634.8
706.865	29573.56
707.209	29653.1
707.554	29490.17
707.899	29580.56
708.243	29483.17
708.588	29361.36
708.932	29195.26
709.277	29188.26
709.621	29123.4
709.966	28958.66
710.31	29103.06
710.654	28839.11
710.998	28958.43
711.342	28937.19
711.687	28751.89
712.031	28695.84
712.375	28593.92
712.719	28594.83
713.063	28493.81
713.407	28664.88
713.75	28388.73
714.094	28341.5
714.438	28340.14
714.782	28401.61
715.125	28114.39
715.469	28157.55
715.812	28054.73
716.156	27955.3
716.499	27936.99
716.843	28012.92
717.186	27732.7
717.53	27880.95
717.873	27968.18
718.216	27827.39
718.559	27575.87
718.902	27610.45
719.246	27557.11
719.589	27474.4
719.932	27507.62
720.275	27475.08
720.617	27414.75
720.96	27341.98
721.303	27323
721.646	27356.44
721.989	27189.89
722.331	27187.18
722.674	27090.46
723.016	27168.88
723.359	27138.82
723.701	27075.32
724.044	26830.35
724.386	26657.48
724.729	26934.53
725.071	26735.89
725.413	26800.07
725.755	26778.15
726.097	26650.47
726.439	26520.53
726.782	26542
727.124	26746.06
727.465	26519.18
727.807	26511.04
728.149	26411.83
728.491	26291.38
728.833	26370.03
729.175	26308.33
729.516	26382.68
729.858	26172.97
730.199	26232.18
730.541	26103.37
730.882	26043.93
731.224	26151.73
731.565	26018.62
731.906	25962.13
732.248	25972.75
732.589	25770.04
732.93	25826.76
733.271	25739.31
733.612	25798.52
733.953	25830.38
734.294	25646.88
734.635	25611.18
734.976	25667.45
735.317	25488.69
735.658	25540.22
735.999	25627.67
736.339	25519.65
736.68	25615.47
737.021	25456.83
737.361	25375.93
737.702	25445.76
738.042	25384.52
738.383	25297.96
738.723	25340.22
739.063	25208.48
739.404	25274.69
739.744	25215.93
740.084	25083.51
740.424	25064.3
740.764	25008.71
741.104	25132.77
741.444	25047.35
741.784	24921.03
742.124	25004.64
742.464	24950.4
742.804	24821.37
743.143	24892.78
743.483	24970.06
743.823	24686
744.162	24787.24
744.502	24810.07
744.841	24682.61
745.181	24755.61
745.52	24630.19
745.86	24668.38
746.199	24719
746.538	24605.55
746.877	24637.64
747.216	24651.43
747.556	24417.54
747.895	24389.97
748.234	24427.93
748.573	24382.51
748.911	24355.16
749.25	24285.34
749.589	24170.31
749.928	24224.09
750.267	24148.16
750.605	24188.84
750.944	24091.67
751.283	23968.28
751.621	24130.09
751.96	24010.09
752.298	23902.75
752.636	23926.93
752.975	23816.65
753.313	23765.8
753.651	23925.57
753.989	23757.67
754.327	23641.29
754.666	23530.33
755.004	23665.24
755.342	23669.76
755.679	23702.07
756.017	23538.01
756.355	23535.07
756.693	23464.79
757.031	23544.79
757.368	23290.56
757.706	23355.87
758.044	23191.13
758.381	23170.34
758.719	23073.16
759.056	23146.83
759.394	22987.52
759.731	22856.67
760.068	22811.7
760.405	22800.18
760.743	22681.76
761.08	22667.3
761.417	22662.1
761.754	22711.82
762.091	22552.27
762.428	22587.08
762.765	22354.54
763.102	22419.17
763.438	22178.05
763.775	22181.44
764.112	22163.81
764.449	22211.72
764.785	22082.46
765.122	21971.27
765.458	21973.31
765.795	21948.22
766.131	21906.87
766.467	21729.92
766.804	21737.38
767.14	21644.05
767.476	21502.81
767.812	21411.51
768.148	21558.18
768.485	21423.26
768.821	21278.64
769.157	21279.99
769.492	21200.45
769.828	21119.32
770.164	20844.75
770.5	20903.96
770.836	20842.71
771.171	20855.82
771.507	20801.13
771.842	20542.38
772.178	20587.81
772.513	20472.55
772.849	20462.39
773.184	20441.37
773.519	20464.65
773.855	20227.82
774.19	20157.76
774.525	20146.46
774.86	20101.27
775.195	20017.88
775.53	19996.64
775.865	19787.83
776.2	19738.11
776.535	19601.84
776.87	19595.29
777.205	19506.03
777.539	19435.29
777.874	19542.41
778.209	19240.04
778.543	19289.54
778.878	19166.15
779.212	19118.24
779.547	19047.51
779.881	19108.07
780.215	18969.77
780.55	18949.88
780.884	18857.91
781.218	18752.37
781.552	18768.42
781.886	18654.75
782.22	18619.95
782.554	18532.94
782.888	18398.71
783.222	18259.51
783.556	18218.15
783.889	18226.51
784.223	18021.09
784.557	18014.09
784.89	18028.1
785.224	17946.97
785.557	17764.15
785.891	17754.21
786.224	17771.83
786.558	17672.85
786.891	17601.44
787.224	17568
787.557	17527.77
787.891	17448.91
788.224	17423.37
788.557	17427.21
788.89	17276.03
789.223	17267.89
789.556	17101.34
789.888	17156.94
790.221	17049.14
790.554	16878.75
790.887	16979.99
791.219	16834.68
791.552	16794.69
791.884	16635.14
792.217	16709.04
792.549	16616.84
792.882	16497.07
793.214	16465.88
793.546	16503.17
793.879	16258.88
794.211	16259.78
794.543	16300.91
794.875	16252.55
795.207	16211.2
795.539	16146.79
795.871	16121.26
796.203	16006.01
796.535	15926.23
796.867	15942.96
797.198	15785.9
797.53	15861.15
797.862	15661.61
798.193	15706.35
798.525	15594.27
798.856	15695.73
799.188	15462.07
799.519	15404.21
799.85	15333.48
800.182	15343.88
800.513	15353.59
800.844	15225.01
801.175	15249.19
801.506	15343.2
801.837	15173.03
802.168	15111.34
802.499	15144.11
802.83	15007.39
803.161	15016.2
803.491	14984.34
803.822	14983.43
804.153	14913.61
804.483	14684.23
804.814	14752.03
805.145	14674.97
805.475	14595.65
805.805	14613.5
806.136	14538.02
806.466	14524.01
806.796	14533.5
807.126	14354.52
807.457	14370.34
807.787	14390.91
808.117	14418.93
808.447	14331.93
808.777	14281.98
809.107	14235.43
809.436	14190.23
809.766	14196.79
810.096	14108.65
810.426	14119.95
810.755	14015.1
811.085	13959.73
811.414	13978.71
811.744	13937.59
812.073	13884.71
812.403	13942.56
812.732	13749.12
813.061	13769.68
813.39	13623.47
813.719	13672.51
814.049	13723.81
814.378	13674.99
814.707	13621.66
815.036	13580.31
815.365	13489.46
815.693	13341.89
816.022	13439.52
816.351	13435.45
816.68	13282.46
817.008	13336.25
817.337	13211.05
817.665	13234.55
817.994	13262.8
818.322	13214.21
818.651	13239.98
818.979	13146.42
819.307	13096.03
819.636	13057.61
819.964	13066.65
820.292	13099.87
820.62	13066.65
820.948	12966.99
821.276	13055.57
821.604	13025.97
821.932	12975.12
822.259	13028.46
822.587	12910.95
822.915	12958.18
823.243	12998.18
823.57	12962.92
823.898	12907.33
824.225	12880.66
824.553	12896.93
824.88	12853.32
825.207	12926.31
825.535	12878.63
825.862	12887.67
826.189	12896.48
826.516	12913.21
826.843	12973.32
827.17	12949.81
827.497	12896.93
827.824	12940.55
828.151	12986.42
828.478	12822.13
828.805	12945.07
829.131	12929.25
829.458	12880.44
829.785	12823.26
830.111	12827.78
830.438	12934.67
830.764	12854.68
831.09	12820.1
831.417	12799.99
831.743	12898.52
832.069	12894.22
832.395	12766.09
832.722	12828.69
833.048	12803.15
833.374	12862.81
833.7	12758.63
834.026	12741.01
834.351	12803.6
834.677	12683.38
835.003	12811.97
835.329	12699.2
835.654	12719.31
835.98	12706.43
836.306	12638.41
836.631	12570.84
836.956	12615.36
837.282	12614.91
837.607	12598.86
837.932	12555.7
838.258	12584.85
838.583	12529.26
838.908	12392.32
839.233	12504.4
839.558	12354.8
839.883	12364.52
840.208	12425.53
840.533	12382.82
840.858	12394.12
841.182	12275.48
841.507	12357.06
841.832	12322.03
842.156	12249.95
842.481	12262.6
842.805	12267.8
843.13	12080.69
843.454	12181.93
843.778	12172.89
844.103	12030.52
844.427	12011.31
844.751	12051.53
845.075	11971.08
845.399	11967.69
845.723	11921.37
846.047	11862.84
846.371	11814.25
846.695	11856.28
847.019	11765.67
847.343	11687.02
847.666	11588.72
847.99	11535.61
848.313	11530.87
848.637	11506.46
848.96	11517.54
849.284	11431.66
849.607	11357.31
849.931	11320.71
850.254	11273.93
850.577	11184.89
850.9	11049.98
851.223	11042.75
851.546	11054.72
851.869	10964.33
852.192	11043.88
852.515	10950.32
852.838	10816.31
853.161	10930.43
853.483	10832.36
853.806	10697.44
854.129	10767.05
854.451	10703.55
854.774	10668.97
855.096	10642.3
855.419	10594.62
855.741	10591.23
856.063	10541.52
856.385	10529.99
856.708	10506.72
857.03	10445.02
857.352	10457.45
857.674	10435.53
857.996	10386.49
858.318	10318.92
858.64	10293.84
858.961	10281.86
859.283	10249.32
859.605	10189.44
859.926	10241.19
860.248	10253.61
860.57	10136.1
860.891	10165.03
861.212	10111.02
861.534	10077.8
861.855	10085.48
862.176	10096.33
862.498	10051.13
862.819	10045.71
863.14	9944.02
863.461	9944.02
863.782	9905.6
864.103	9879.61
864.424	9909.89
864.745	9937.92
865.065	9867.41
865.386	9777.92
865.707	9753.51
866.027	9778.37
866.348	9798.49
866.668	9730.24
866.989	9768.2
867.309	9668.09
867.63	9709.45
867.95	9687.53
868.27	9558.27
868.59	9643.01
868.91	9629.45
869.23	9669.9
869.55	9609.56
869.87	9629.9
870.19	9602.78
870.51	9604.14
870.83	9620.41
871.15	9540.19
871.469	9465.16
871.789	9571.37
872.109	9496.12
872.428	9450.47
872.748	9427.87
873.067	9428.78
873.386	9497.25
873.706	9396.91
874.025	9417.7
874.344	9388.33
874.663	9430.13
874.982	9422.68
875.301	9335.67
875.62	9315.33
875.939	9273.98
876.258	9311.27
876.577	9271.04
876.896	9276.47
877.214	9198.5
877.533	9167.99
877.852	9182.46
878.17	9271.72
878.489	9200.31
878.807	9177.71
879.125	9140.2
879.444	9127.54
879.762	9155.56
880.08	9139.07
880.398	9059.3
880.716	9143.36
881.034	9010.94
881.352	9047.77
881.67	9009.13
881.988	9005.74
882.306	9027.66
882.624	8967.77
882.941	8907.21
883.259	8882.8
883.577	8864.72
883.894	8840.09
884.212	8812.52
884.529	8891.84
884.846	8797.38
885.164	8832.63
885.481	8808.91
885.798	8757.38
886.115	8728.68
886.432	8692.53
886.75	8662.24
887.067	8689.14
887.383	8642.81
887.7	8601.23
888.017	8629.02
888.334	8602.81
888.651	8536.15
888.967	8471.74
889.284	8516.03
889.6	8459.09
889.917	8412.31
890.233	8443.72
890.55	8377.51
890.866	8384.51
891.182	8327.11
891.498	8363.04
891.815	8295.02
892.131	8270.62
892.447	8240.79
892.763	8253.89
893.079	8241.92
893.395	8242.14
893.71	8177.06
894.026	8194.69
894.342	8149.26
894.657	8059.77
894.973	8086.89
895.289	8035.14
895.604	8024.52
895.92	7965.31
896.235	8008.25
896.55	7949.72
896.865	7915.37
897.181	7903.85
897.496	7935.26
897.811	7891.42
898.126	7751.08
898.441	7764.64
898.756	7766.9
899.071	7741.59
899.386	7741.36
899.7	7744.3
900.015	7630.63
900.33	7587.47
900.644	7587.02
900.959	7543.86
901.273	7564.65
901.588	7473.35
901.902	7443.52
902.216	7497.3
902.531	7410.3
902.845	7427.47
903.159	7362.62
903.473	7342.73
903.787	7279.91
904.101	7218.67
904.415	7288.27
904.729	7193.36
905.042	7164.43
905.356	7174.6
905.67	7147.48
905.984	7172.57
906.297	7117.65
906.611	7087.6
906.924	7109.06
907.237	7003.76
907.551	7086.69
907.864	6978.67
908.177	6999.69
908.491	6924.21
908.804	6903.19
909.117	6890.09
909.43	6820.26
909.743	6767.83
910.056	6838.11
910.368	6800.37
910.681	6704.1
910.994	6692.8
911.307	6690.09
911.619	6672.01
911.932	6683.09
912.244	6590.21
912.557	6582.98
912.869	6533.03
913.181	6516.31
913.494	6503.88
913.806	6500.72
914.118	6463.88
914.43	6429.08
914.742	6435.18
915.054	6371.23
915.366	6366.94
915.678	6293.49
915.99	6262.53
916.302	6260.05
916.613	6191.12
916.925	6175.98
917.236	6184.57
917.548	6133.95
917.859	6111.58
918.171	6103.67
918.482	6048.53
918.794	6050.56
919.105	6116.77
919.416	6054.85
919.727	6023.67
920.038	5971.47
920.349	5959.94
920.66	5913.62
920.971	5857.8
921.282	5898.25
921.593	5844.69
921.903	5760.17
922.214	5767.18
922.525	5780.29
922.835	5724.24
923.146	5711.59
923.456	5688.99
923.767	5685.37
924.077	5629.56
924.387	5594.98
924.697	5567.41
925.008	5580.29
925.318	5568.99
925.628	5540.52
925.938	5509.78
926.248	5479.05
926.558	5449.45
926.867	5356.34
927.177	5403.57
927.487	5434.98
927.796	5322.44
928.106	5356.34
928.416	5288.55
928.725	5316.8
929.034	5267.98
929.344	5261.43
929.653	5231.6
929.962	5208.32
930.271	5155.44
930.581	5170.81
930.89	5160.19
931.199	5113.86
931.508	5070.02
931.817	5054.66
932.125	5069.34
932.434	5050.81
932.743	5022.11
933.051	5018.95
933.36	5005.62
933.669	4936.01
933.977	4875.68
934.286	4938.95
934.594	4915.9
934.902	4869.12
935.21	4835.9
935.519	4865.06
935.827	4791.84
936.135	4791.61
936.443	4668.45
936.751	4760.43
937.059	4712.74
937.367	4711.39
937.674	4654.44
937.982	4666.42
938.29	4636.59
938.597	4647.66
938.905	4593.88
939.213	4594.33
939.52	4538.06
939.827	4545.52
940.135	4498.74
940.442	4478.63
940.749	4512.75
941.056	4471.39
941.363	4464.61
941.67	4455.12
941.977	4406.99
942.284	4407.67
942.591	4374
942.898	4333.32
943.205	4336.48
943.511	4356.59
943.818	4309.14
944.125	4242.02
944.431	4236.82
944.738	4230.04
945.044	4229.14
945.35	4207.22
945.657	4161.8
945.963	4152.76
946.269	4161.8
946.575	4157.5
946.881	4138.75
947.187	4113.89
947.493	4063.72
947.799	4035.7
948.105	4059.88
948.41	4016.26
948.716	4037.05
949.022	4006.1
949.327	4009.03
949.633	3955.93
949.938	3902.37
950.244	3929.04
950.549	3923.16
950.854	3875.03
951.16	3882.71
951.465	3834.8
951.77	3865.76
952.075	3831.41
952.38	3845.65
952.685	3829.38
952.99	3784.41
953.294	3764.07
953.599	3753.45
953.904	3744.86
954.209	3692.21
954.513	3715.03
954.818	3644.75
955.122	3666.67
955.426	3683.39
955.731	3636.84
956.035	3652.66
956.339	3637.07
956.643	3614.02
956.948	3578.54
957.252	3561.59
957.556	3576.95
957.86	3538.08
958.163	3486.11
958.467	3524.98
958.771	3490.18
959.075	3518.42
959.378	3470.29
959.682	3461.02
959.985	3441.82
960.289	3420.8
960.592	3390.29
960.896	3381.03
961.199	3367.47
961.502	3363.63
961.805	3386.22
962.108	3320.01
962.411	3308.03
962.714	3306.45
963.017	3299
963.32	3232.56
963.623	3241.37
963.926	3254.02
964.228	3240.92
964.531	3211.31
964.833	3181.26
965.136	3171.77
965.438	3203.86
965.741	3164.31
966.043	3146.91
966.345	3153.46
966.648	3153.91
966.95	3147.59
967.252	3093.8
967.554	3063.52
967.856	3070.07
968.158	3040.7
968.46	3058.55
968.761	3012.68
969.063	3007.25
969.365	3027.82
969.666	2995.27
969.968	2951.66
970.269	2980.13
970.571	2989.85
970.872	2938.33
971.174	2938.33
971.475	2914.6
971.776	2925.45
972.077	2877.76
972.378	2828.05
972.679	2853.58
972.98	2880.93
973.281	2845.45
973.582	2842.96
973.883	2829.63
974.183	2843.64
974.484	2792.79
974.785	2769.74
975.085	2783.98
975.386	2741.5
975.686	2749.18
975.986	2752.34
976.287	2732.68
976.587	2727.94
976.887	2694.72
977.187	2691.78
977.487	2673.02
977.787	2632.8
978.087	2640.03
978.387	2630.99
978.687	2662.4
978.987	2613.82
979.286	2588.28
979.586	2584.66
979.885	2591.67
980.185	2593.93
980.484	2555.96
980.784	2533.59
981.083	2542.18
981.382	2515.29
981.682	2511.45
981.981	2506.25
982.28	2482.29
982.579	2474.38
982.878	2441.62
983.177	2440.03
983.475	2424.44
983.774	2440.26
984.073	2406.36
984.372	2416.08
984.67	2376.99
984.969	2401.62
985.267	2374.27
985.566	2358.23
985.864	2332.24
986.162	2348.29
986.461	2342.86
986.759	2323.65
987.057	2325.91
987.355	2302.41
987.653	2282.07
987.951	2341.05
988.249	2273.71
988.547	2270.32
988.844	2242.07
989.142	2255.18
989.44	2215.86
989.737	2223.32
990.035	2217.44
990.332	2214.05
990.63	2200.27
990.927	2209.31
991.224	2186.48
991.521	2196.65
991.819	2175.41
992.116	2150.55
992.413	2109.42
992.71	2144.68
993.006	2126.82
993.303	2066.71
993.6	2070.1
993.897	2106.71
994.193	2107.84
994.49	2091.34
994.787	2100.83
995.083	2033.27
995.379	2035.53
995.676	2026.49
995.972	2053.83
996.268	2001.85
996.565	2020.84
996.861	1997.11
997.157	2008.86
997.453	1959.6
997.749	1974.06
998.044	1938.35
998.34	1956.43
998.636	1928.18
998.932	1953.27
999.227	1902.65
999.523	1918.24
999.818	1894.74
1000.114	1896.32
1000.409	1895.64
1000.704	1894.06
1001	1856.55
1001.295	1838.02
1001.59	1846.6
1001.885	1855.87
1002.18	1837.79
1002.475	1796.21
1002.77	1775.87
1003.065	1787.17
1003.359	1780.84
1003.654	1788.98
1003.949	1781.75
1004.243	1760.73
1004.538	1765.7
1004.832	1742.2
1005.127	1722.54
1005.421	1717.34
1005.715	1726.38
1006.009	1681.64
1006.304	1697.23
1006.598	1660.85
1006.892	1679.38
1007.186	1647.51
1007.48	1664.91
1007.773	1638.02
1008.067	1632.82
1008.361	1643.45
1008.655	1624.91
1008.948	1635.31
1009.242	1601.19
1009.535	1580.85
1009.829	1579.49
1010.122	1587.18
1010.415	1585.82
1010.708	1550.79
1011.001	1559.83
1011.295	1564.35
1011.588	1518.25
1011.881	1523.45
1012.173	1519.83
1012.466	1518.25
1012.759	1510.57
1013.052	1501.75
1013.344	1483.22
1013.637	1479.61
1013.93	1431.25
1014.222	1455.88
1014.514	1467.18
1014.807	1441.87
1015.099	1447.97
1015.391	1445.48
1015.683	1413.4
1015.976	1420.63
1016.268	1398.93
1016.56	1397.8
1016.851	1386.5
1017.143	1351.02
1017.435	1388.08
1017.727	1346.05
1018.018	1362.1
1018.31	1356.45
1018.602	1326.17
1018.893	1329.56
1019.185	1307.18
1019.476	1320.06
1019.767	1317.58
1020.058	1324.81
1020.35	1293.85
1020.641	1273.29
1020.932	1272.83
1021.223	1256.56
1021.514	1256.11
1021.804	1236.45
1022.095	1244.13
1022.386	1235.32
1022.677	1208.88
1022.967	1228.99
1023.258	1233.06
1023.548	1207.98
1023.839	1225.38
1024.129	1178.37
1024.419	1188.77
1024.709	1175.44
1025	1157.36
1025.29	1171.37
1025.58	1164.14
1025.87	1123.23
1026.16	1120.07
1026.449	1141.99
1026.739	1127.98
1027.029	1124.36
1027.319	1126.17
1027.608	1092.05
1027.898	1088.66
1028.187	1054.53
1028.477	1069.9
1028.766	1073.29
1029.055	1080.52
1029.344	1054.53
1029.634	1048.43
1029.923	1044.37
1030.212	1048.88
1030.501	1046.17
1030.79	1002.56
1031.078	1020.19
1031.367	994.87
1031.656	1024.25
1031.945	1006.4
1032.233	983.58
1032.522	1000.75
1032.81	997.36
1033.099	959.62
1033.387	1001.65
1033.675	980.64
1033.963	965.5
1034.251	981.54
1034.54	939.74
1034.828	944.48
1035.116	932.28
1035.403	939.28
1035.691	925.05
1035.979	916.01
1036.267	912.39
1036.554	895.44
1036.842	911.49
1037.129	890.02
1037.417	886.4
1037.704	878.27
1037.992	908.78
1038.279	856.57
1038.566	854.99
1038.853	854.99
1039.14	854.99
