Data from hue_30_FLMS001491_86.txt Node
Date: Mon Feb 06 15:06:12 GMT 2017
User: dcchb
Spectrometer: FLMS00149
Trigger mode: 0
Integration Time (sec): 2.000000E-2
Scans to average: 10
Electric dark correction enabled: true
Nonlinearity correction enabled: false
Boxcar width: 0
XAxis mode: Wavelengths
Number of Pixels in Spectrum: 2048
>>>>>Begin Spectral Data<<<<<
341.393	-26.06
341.776	-26.06
342.16	-26.06
342.543	-52.95
342.927	-66.51
343.31	-83.23
343.693	-47.75
344.077	-87.07
344.46	-64.48
344.843	-53.4
345.226	-49.79
345.61	-21.99
345.993	-20.64
346.376	7.39
346.759	16.65
347.142	27.27
347.525	51.45
347.908	68.4
348.291	65.46
348.674	95.75
349.057	95.97
349.44	114.28
349.823	140.26
350.206	158.34
350.588	199.92
350.971	219.13
351.354	224.78
351.737	264.78
352.119	256.19
352.502	254.39
352.884	253.93
353.267	285.57
353.65	306.81
354.032	307.49
354.414	321.28
354.797	307.27
355.179	344.78
355.562	321.5
355.944	331.22
356.326	341.16
356.709	337.1
357.091	336.87
357.473	341.84
357.855	336.87
358.238	344.78
358.62	336.87
359.002	349.75
359.384	347.94
359.766	328.28
360.148	323.54
360.53	334.61
360.912	347.94
361.294	321.5
361.676	348.17
362.057	356.76
362.439	323.54
362.821	340.94
363.203	326.93
363.584	345.23
363.966	319.02
364.348	343.65
364.729	318.79
365.111	314.5
365.493	307.72
365.874	314.05
366.256	315.85
366.637	318.57
367.019	325.12
367.4	336.19
367.781	313.82
368.163	334.16
368.544	304.78
368.925	318.11
369.306	351.11
369.688	300.03
370.069	330.09
370.45	325.34
370.831	309.98
371.212	313.82
371.593	331.9
371.974	312.01
372.355	334.38
372.736	330.99
373.117	327.15
373.498	318.79
373.879	333.48
374.26	329.41
374.641	321.95
375.021	320.6
375.402	339.81
375.783	336.87
376.163	352.46
376.544	322.86
376.925	338
377.305	354.72
377.686	317.21
378.066	354.27
378.447	358.34
378.827	322.41
379.208	340.49
379.588	330.09
379.968	338
380.349	333.93
380.729	343.42
381.109	355.85
381.489	333.48
381.87	332.12
382.25	362.41
382.63	359.92
383.01	339.58
383.39	346.13
383.77	346.36
384.15	356.3
384.53	356.98
384.91	358.79
385.29	360.15
385.67	354.04
386.049	366.93
386.429	352.69
386.809	368.96
387.189	381.84
387.568	362.41
387.948	372.35
388.328	362.86
388.707	365.57
389.087	387.72
389.466	372.35
389.846	393.37
390.225	362.18
390.605	388.62
390.984	393.14
391.363	374.61
391.743	376.19
392.122	412.8
392.501	369.41
392.881	383.87
393.26	397.21
393.639	400.82
394.018	374.61
394.397	401.05
394.776	394.95
395.155	393.37
395.534	387.94
395.913	380.48
396.292	399.01
396.671	416.87
397.05	399.69
397.429	401.05
397.808	387.49
398.186	417.09
398.565	413.03
398.944	411.9
399.323	422.97
399.701	416.64
400.08	424.78
400.458	408.05
400.837	419.81
401.215	440.82
401.594	432.46
401.972	416.19
402.351	421.16
402.729	427.49
403.107	455.74
403.486	433.36
403.864	446.7
404.242	428.62
404.62	453.7
404.999	460.71
405.377	441.95
405.755	426.13
406.133	455.28
406.511	455.51
406.889	462.29
407.267	462.52
407.645	475.17
408.023	464.32
408.401	467.26
408.779	474.72
409.156	455.74
409.534	459.13
409.912	466.58
410.29	483.31
410.667	498
411.045	504.55
411.422	511.1
411.8	483.76
412.178	485.34
412.555	484.21
412.933	504.55
413.31	497.32
413.687	514.72
414.065	511.78
414.442	501.84
414.819	522.18
415.197	528.05
415.574	508.62
415.951	526.47
416.328	536.86
416.705	550.88
417.082	547.94
417.46	555.17
417.837	539.35
418.214	543.87
418.591	562.85
418.967	545.23
419.344	546.58
419.721	565.79
420.098	571.21
420.475	566.69
420.852	569.86
421.228	573.7
421.605	581.61
421.982	583.42
422.358	583.64
422.735	577.32
423.111	610.99
423.488	602.17
423.864	580.93
424.241	614.6
424.617	583.87
424.994	599.69
425.37	605.11
425.746	613.25
426.123	606.02
426.499	608.05
426.875	643.75
427.251	648.73
427.627	659.57
428.003	642.17
428.379	644.88
428.756	656.64
429.132	643.75
429.507	674.26
429.883	704.77
430.259	690.76
430.635	694.83
431.011	675.62
431.387	694.83
431.763	725.11
432.138	720.59
432.514	736.86
432.89	724.88
433.265	772.34
433.641	736.86
434.016	769.85
434.392	777.54
434.767	761.04
435.143	753.36
435.518	795.39
435.894	777.54
436.269	814.37
436.644	788.61
437.02	813.47
437.395	786.8
437.77	814.15
438.145	822.51
438.52	824.99
438.895	863.18
439.271	847.82
439.646	844.43
440.021	842.17
440.395	856.86
440.77	859.34
441.145	875.39
441.52	844.2
441.895	872.45
442.27	884.43
442.645	894.37
443.019	884.43
443.394	888.95
443.769	882.17
444.143	906.57
444.518	919.45
444.892	913.13
445.267	920.13
445.641	909.51
446.016	907.48
446.39	923.97
446.764	943.63
447.139	954.03
447.513	959.68
447.887	966.46
448.262	970.75
448.636	971.43
449.01	960.58
449.384	963.07
449.758	978.21
450.132	985.44
450.506	1016.63
450.88	1006.23
451.254	1017.76
451.628	1014.82
452.002	1027.02
452.376	1036.51
452.75	1038.09
453.123	1038.09
453.497	1060.47
453.871	1043.29
454.244	1080.13
454.618	1111.31
454.992	1110.86
455.365	1111.09
455.739	1165.32
456.112	1159.22
456.486	1167.58
456.859	1173.91
457.232	1196.96
457.606	1180.69
457.979	1208.71
458.352	1205.55
458.725	1201.25
459.099	1229.95
459.472	1271.76
459.845	1272.44
460.218	1273.79
460.591	1286.68
460.964	1298.43
461.337	1302.95
461.71	1346.56
462.083	1348.14
462.456	1351.98
462.829	1354.47
463.201	1383.4
463.574	1429.5
463.947	1405.54
464.32	1468.14
464.692	1449.61
465.065	1458.2
465.438	1460.23
465.81	1502.49
466.183	1535.93
466.555	1534.58
466.928	1580.9
467.3	1582.49
467.672	1598.98
468.045	1631.07
468.417	1618.19
468.789	1639.89
469.161	1665.87
469.534	1695.7
469.906	1724.18
470.278	1735.25
470.65	1742.71
471.022	1781.58
471.394	1828.36
471.766	1835.36
472.138	1872.65
472.51	1895.92
472.882	1946.54
473.253	1942.48
473.625	1989.93
473.997	2046.2
474.369	2043.94
474.74	2109.25
475.112	2097.05
475.484	2173.66
475.855	2181.57
476.227	2190.38
476.598	2272.19
476.97	2299.53
477.341	2346.76
477.713	2384.95
478.084	2418.85
478.455	2488
478.827	2517.6
479.198	2589.47
479.569	2598.51
479.94	2726.86
480.311	2745.62
480.682	2827.88
481.053	2901.77
481.424	2939.51
481.795	2946.52
482.166	3039.4
482.537	3132.95
482.908	3151.71
483.279	3241.43
483.65	3266.06
484.021	3353.74
484.391	3398.26
484.762	3435.09
485.133	3529.55
485.503	3566.62
485.874	3684.35
486.244	3684.58
486.615	3802.77
486.985	3894.06
487.356	3927.51
487.726	4012.48
488.097	4086.83
488.467	4143.55
488.837	4229.42
489.207	4313.71
489.578	4375.18
489.948	4459.93
490.318	4503.77
490.688	4551.9
491.058	4628.73
491.428	4745.79
491.798	4741.5
492.168	4882.74
492.538	4935.62
492.908	5013.36
493.278	5059.91
493.648	5146.91
494.017	5197.53
494.387	5288.6
494.757	5313.24
495.126	5352.78
495.496	5423.52
495.866	5494.25
496.235	5581.25
496.605	5647.92
496.974	5692.66
497.344	5814.69
497.713	5755.71
498.082	5864.41
498.452	5899.44
498.821	5992.77
499.19	6029.6
499.559	6066.66
499.928	6138.53
500.298	6162.25
500.667	6245.87
501.036	6271.85
501.405	6330.84
501.774	6336.03
502.143	6429.59
502.512	6443.83
502.88	6526.99
503.249	6577.38
503.618	6625.29
503.987	6703.93
504.356	6671.84
504.724	6786.19
505.093	6780.54
505.462	6811.95
505.83	6891.95
506.199	6926.07
506.567	7040.2
506.936	7035.68
507.304	7100.76
507.672	7162
508.041	7161.77
508.409	7209.68
508.777	7277.93
509.145	7334.2
509.514	7360.41
509.882	7377.36
510.25	7336.01
510.618	7441.77
510.986	7527.42
511.354	7570.58
511.722	7627.3
512.09	7706.85
512.458	7673.63
512.826	7740.97
513.193	7793.17
513.561	7793.85
513.929	7857.58
514.297	7971.02
514.664	7986.84
515.032	8063.22
515.4	8057.12
515.767	8121.75
516.135	8127.4
516.502	8121.07
516.869	8265.93
517.237	8310.22
517.604	8213.5
517.972	8296.89
518.339	8374.17
518.706	8370.1
519.073	8437
519.44	8458.69
519.808	8496.43
520.175	8520.61
520.542	8632.7
520.909	8750.43
521.276	8735.29
521.643	8783.65
522.009	8825.23
522.376	8828.17
522.743	8889.41
523.11	8966.25
523.477	9050.99
523.843	9105.23
524.21	9117.2
524.577	9215.51
524.943	9293.92
525.31	9271.1
525.676	9331.66
526.043	9454.14
526.409	9426.57
526.776	9561.26
527.142	9588.6
527.508	9667.25
527.874	9685.55
528.241	9687.13
528.607	9760.35
528.973	9875.15
529.339	9890.06
529.705	9968.25
530.071	10010.97
530.437	10093.68
530.803	10149.49
531.169	10189.27
531.535	10234.91
531.901	10256.38
532.267	10234.46
532.632	10358.3
532.998	10385.65
533.364	10390.16
533.73	10457.73
534.095	10486.43
534.461	10562.14
534.826	10642.14
535.192	10660.89
535.557	10822.24
535.923	10711.74
536.288	10767.78
536.653	10842.81
537.019	10867.44
537.384	10910.6
537.749	10953.54
538.114	11022.92
538.479	11027.89
538.845	11100.43
539.21	11092.52
539.575	11189.69
539.94	11255.68
540.305	11294.77
540.67	11249.58
541.034	11350.82
541.399	11355.56
541.764	11460.19
542.129	11447.09
542.494	11577.48
542.858	11564.6
543.223	11632.84
543.587	11739.73
543.952	11652.73
544.316	11733.86
544.681	11722.56
545.045	11814.76
545.41	11875.55
545.774	11944.25
546.138	11938.37
546.503	12001.42
546.867	11979.95
547.231	12070.8
547.595	12108.31
547.959	12253.17
548.324	12223.79
548.688	12236.9
549.052	12251.81
549.416	12339.94
549.779	12297.23
550.143	12374.07
550.507	12418.36
550.871	12491.58
551.235	12538.58
551.599	12672.82
551.962	12681.4
552.326	12705.58
552.689	12804.34
553.053	12779.25
553.417	12729.54
553.78	12909.87
554.143	12824
554.507	12922.08
554.87	12922.3
555.234	13143.31
555.597	12997.55
555.96	13096.53
556.323	13124.56
556.686	13165.68
557.05	13252.69
557.413	13266.7
557.776	13390.31
558.139	13443.64
558.502	13340.14
558.865	13352.12
559.228	13581.72
559.59	13599.35
559.953	13552.34
560.316	13792.56
560.679	13753.01
561.041	13769.51
561.404	13847.47
561.767	13869.4
562.129	13964.08
562.492	14016.96
562.854	14031.2
563.217	13994.14
563.579	14091.99
563.941	14214.7
564.304	14270.29
564.666	14355.94
565.028	14326.78
565.39	14457.4
565.753	14496.05
566.115	14494.92
566.477	14610.62
566.839	14553.22
567.201	14692.42
567.563	14610.62
567.925	14845.41
568.287	14816.26
568.648	14773.1
569.01	14941.46
569.372	14998.41
569.734	14993.43
570.095	15066.2
570.457	15127.44
570.819	15265.74
571.18	15237.04
571.542	15338.51
571.903	15356.59
572.265	15402.24
572.626	15553.64
572.987	15585.73
573.349	15681.1
573.71	15714.54
574.071	15912.51
574.432	15855.56
574.794	16060.52
575.155	16061.2
575.516	16060.75
575.877	16226.85
576.238	16303.91
576.599	16459.61
576.96	16501.19
577.32	16572.37
577.681	16720.39
578.042	16780.73
578.403	16931.01
578.763	17115.86
579.124	17184.79
579.485	17454.16
579.845	17535.06
580.206	17564.21
580.566	17714.04
580.927	17797.65
581.287	17970.3
581.648	18128.94
582.008	18406
582.368	18460.23
582.728	18681.02
583.089	18845.76
583.449	18994.91
583.809	19194.68
584.169	19444.16
584.529	19528.46
584.889	19864.49
585.249	19951.72
585.609	20207.99
585.969	20608.2
586.329	20642.1
586.688	21017.91
587.048	21121.41
587.408	21301.06
587.768	21529.31
588.127	21792.35
588.487	22063.76
588.846	22514.37
589.206	22473.91
589.565	22728.6
589.925	23155.25
590.284	23440.89
590.643	23675.69
591.003	23896.48
591.362	24251.27
591.721	24554.31
592.08	24741.65
592.44	25089.89
592.799	25364.91
593.158	25738.69
593.517	25925.58
593.876	26222.06
594.235	26603.07
594.593	26731.66
594.952	27107.01
595.311	27399.66
595.67	27793.1
596.029	28142.47
596.387	28302.46
596.746	28550.14
597.104	29045.72
597.463	29083.68
597.822	29499.49
598.18	29730.22
598.538	29970.67
598.897	30493.36
599.255	30544.89
599.613	31271.2
599.972	31243.63
600.33	31555.26
600.688	31722.49
601.046	32041.8
601.404	32424.61
601.762	32477.72
602.12	32904.37
602.478	33240.64
602.836	33513.85
603.194	33578.71
603.552	33777.57
603.91	33983.44
604.268	34465.46
604.625	34494.62
604.983	34909.29
605.341	34941.38
605.698	35360.81
606.056	35602.61
606.413	35783.4
606.771	36035.37
607.128	36357.39
607.485	36350.61
607.843	36585.41
608.2	37095
608.557	37315.56
608.914	37282.34
609.272	37706.96
609.629	37884.36
609.986	38152.6
610.343	38147.17
610.7	38737.89
611.057	38687.5
611.414	38839.36
611.771	38996.19
612.127	39286.81
612.484	39476.41
612.841	39733.12
613.198	39728.83
613.554	39964.98
613.911	40306.44
614.267	40287.01
614.624	40478.87
614.98	40532.87
615.337	40837.95
615.693	40990.72
616.05	40969.93
616.406	41444.04
616.762	41450.82
617.118	41488.78
617.475	41587.08
617.831	41849.22
618.187	42018.03
618.543	42216.67
618.899	42347.29
619.255	42424.58
619.611	42505.48
619.967	42701.41
620.323	42750.44
620.678	42810.1
621.034	42785.92
621.39	42995.18
621.746	42974.62
622.101	43469.29
622.457	43264.55
622.812	43269.53
623.168	43492.35
623.523	43502.97
623.879	43766.24
624.234	43607.14
624.589	43656.41
624.945	43910.41
625.3	43914.25
625.655	44092.33
626.01	43925.78
626.365	44272.44
626.72	44220.91
627.075	44242.38
627.43	44222.72
627.785	44139.33
628.14	44259.78
628.495	44427.01
628.85	44491.64
629.205	44325.54
629.559	44622.71
629.914	44431.08
630.269	44497.52
630.623	44363.06
630.978	44383.17
631.332	44662.71
631.687	44714.01
632.041	44564.86
632.396	44590.85
632.75	44418.42
633.104	44719.66
633.459	44551.07
633.813	44655.7
634.167	44599.89
634.521	44640.11
634.875	44567.35
635.229	44703.61
635.583	44575.93
635.937	44501.81
636.291	44490.74
636.645	44575.93
636.999	44595.82
637.352	44678.3
637.706	44337.97
638.06	44571.41
638.413	44703.84
638.767	44418.87
639.121	44627
639.474	44457.07
639.828	44330.74
640.181	44524.18
640.534	44418.87
640.888	44396.95
641.241	44261.14
641.594	44194.7
641.947	44376.84
642.301	44388.14
642.654	44334.58
643.007	44315.6
643.36	44154.93
643.713	44283.28
644.066	44372.32
644.419	43989.51
644.771	43838.1
645.124	43450.31
645.477	43475.85
645.83	43222.97
646.182	43048.29
646.535	43035.41
646.888	43069.31
647.24	42819.37
647.593	43114.5
647.945	42980.04
648.298	42773.95
648.65	42769.43
649.002	42658.92
649.355	42878.58
649.707	42829.99
650.059	43022.3
650.411	43333.93
650.763	43435.17
651.115	43963.75
651.467	43801.26
651.819	43786.8
652.171	43679.91
652.523	43698.44
652.875	43705.22
653.227	43474.49
653.578	43894.59
653.93	43626.8
654.282	43469.07
654.633	43373.93
654.985	43531.44
655.337	43585
655.688	43501.16
656.039	43699.12
656.391	43335.29
656.742	43300.03
657.094	43352.46
657.445	43434.04
657.796	43398.79
658.147	43382.74
658.498	43382.07
658.849	43355.85
659.2	43319.24
659.551	43238.34
659.902	43380.71
660.253	43346.59
660.604	43325.8
660.955	43058.23
661.306	43368.05
661.656	43149.53
662.007	43137.55
662.358	43199.02
662.708	43293.03
663.059	43299.58
663.409	42919.03
663.76	43229.75
664.11	43225.91
664.461	43304.78
664.811	43257.78
665.161	43142.3
665.511	43216.42
665.862	43211.22
666.212	43232.92
666.562	43442.63
666.912	43070.44
667.262	43148.85
667.612	43220.71
667.962	43214.16
668.312	43163.99
668.662	43182.52
669.011	43165.8
669.361	43085.58
669.711	42977.33
670.06	42960.83
670.41	42831.35
670.76	42865.24
671.109	43013.94
671.459	42857.33
671.808	42780.05
672.157	42964.22
672.507	42689.65
672.856	42718.13
673.205	42848.07
673.554	42909.76
673.904	42721.07
674.253	42965.58
674.602	42759.03
674.951	42250.8
675.3	42148.2
675.649	42764.23
675.998	42766.26
676.346	42768.07
676.695	42805.81
677.044	42512.71
677.393	42685.59
677.741	42714.29
678.09	42547.96
678.438	42557.68
678.787	42561.07
679.135	42646.94
679.484	42311.59
679.832	42433.39
680.181	42132.38
680.529	42471.81
680.877	42222.77
681.225	42047.86
681.573	42336.44
681.922	42142.32
682.27	42008.32
682.618	41919.28
682.966	41851.48
683.314	42026.39
683.661	41768.32
684.009	41614.65
684.357	41638.38
684.705	41515
685.053	41581.66
685.4	41554.54
685.748	41182.35
686.095	41404.26
686.443	41082.92
686.79	41108.23
687.138	41246.75
687.485	41240.88
687.832	40992.3
688.18	41082.69
688.527	40926.54
688.874	40889.48
689.221	40731.51
689.568	40634.57
689.915	40534.46
690.262	40710.95
690.609	40403.39
690.956	40282.94
691.303	40380.11
691.65	40135.6
691.997	40135.37
692.344	39965.43
692.69	39941.25
693.037	40040.01
693.383	39634.82
693.73	39755.72
694.077	39416.29
694.423	39452.68
694.769	39419.46
695.116	39456.97
695.462	39230.99
695.808	39009.75
696.155	39335.84
696.501	38923.65
696.847	38910.32
697.193	38551.01
697.539	38771.79
697.885	38504.23
698.231	38257.91
698.577	38412.03
698.923	38305.14
699.269	38102.88
699.614	38021.53
699.96	37998.48
700.306	37972.94
700.651	37796.68
700.997	37624.25
701.342	37603.91
701.688	37631.26
702.033	37436.01
702.379	37460.87
702.724	37373.64
703.069	37311.94
703.415	36858.17
703.76	36970.03
704.105	36919.41
704.45	36842.12
704.795	36640.32
705.14	36687.1
705.485	36552.19
705.83	36490.27
706.175	36484.62
706.52	36530.95
706.865	36184.97
707.209	36260.44
707.554	36055.48
707.899	36292.31
708.243	35885.99
708.588	35856.39
708.932	35622.04
709.277	35709.05
709.621	35821.36
709.966	35566.9
710.31	35577.52
710.654	35211.21
710.998	35301.15
711.342	35262.96
711.687	35166.91
712.031	35082.85
712.375	34896.19
712.719	34882.85
713.063	34881.27
713.407	34920.37
713.75	34792.46
714.094	34815.51
714.438	34611.45
714.782	34574.61
715.125	34508.17
715.469	34627.27
715.812	34316.32
716.156	34125.59
716.499	34208.97
716.843	34231.35
717.186	34009.43
717.53	34092.37
717.873	34111.35
718.216	34054.85
718.559	33872.26
718.902	33624.58
719.246	33846.95
719.589	33617.8
719.932	33473.85
720.275	33542.1
720.617	33459.61
720.96	33342.33
721.303	33464.59
721.646	33430.01
721.989	33217.59
722.331	33375.55
722.674	33207.87
723.016	33187.98
723.359	33235.21
723.701	33126.74
724.044	32942.79
724.386	32750.03
724.729	32914.09
725.071	32749.12
725.413	32864.15
725.755	32732.63
726.097	32647.43
726.439	32536.7
726.782	32534.89
727.124	32486.08
727.465	32381
727.807	32386.87
728.149	32409.7
728.491	32227.1
728.833	32338.51
729.175	32122.47
729.516	32094.23
729.858	32093.32
730.199	32134.23
730.541	32044.74
730.882	31918.19
731.224	32033.89
731.565	31882.93
731.906	31793.9
732.248	31882.03
732.589	31626.22
732.93	31531.3
733.271	31609.95
733.612	31451.53
733.953	31649.27
734.294	31492.89
734.635	31322.72
734.976	31584.64
735.317	31365.43
735.658	31291.54
735.999	31289.05
736.339	31150.97
736.68	31250.63
737.021	31133.8
737.361	31026.46
737.702	31230.97
738.042	31084.76
738.383	31100.58
738.723	30980.13
739.063	30897.87
739.404	30927.25
739.744	30870.3
740.084	30874.37
740.424	30851.77
740.764	30673.25
741.104	30796.41
741.444	30534.49
741.784	30595.96
742.124	30612.68
742.464	30477.55
742.804	30455.85
743.143	30419.69
743.483	30321.17
743.823	30204.33
744.162	30189.87
744.502	30194.39
744.841	30053.83
745.181	30221.06
745.52	30026.26
745.86	30104.22
746.199	29972.7
746.538	29923.21
746.877	30015.86
747.216	29853.83
747.556	29969.99
747.895	29868.3
748.234	29726.38
748.573	29695.42
748.911	29738.58
749.25	29684.35
749.589	29453.62
749.928	29536.55
750.267	29557.8
750.605	29469.21
750.944	29539.72
751.283	29396.22
751.621	29419.72
751.96	29210.46
752.298	29294.75
752.636	29261.76
752.975	29096.34
753.313	28956
753.651	28948.77
753.989	28886.63
754.327	28902.22
754.666	28648.44
755.004	28782.9
755.342	28829.91
755.679	28773.18
756.017	28603.47
756.355	28587.43
756.693	28495.68
757.031	28594.66
757.368	28380.43
757.706	28314.89
758.044	28333.2
758.381	28403.02
758.719	28149.7
759.056	28182.24
759.394	28030.38
759.731	27829.25
760.068	27872.64
760.405	27826.99
760.743	27762.36
761.08	27766.43
761.417	27612.99
761.754	27422.26
762.091	27428.36
762.428	27448.25
762.765	27191.3
763.102	27257.29
763.438	27217.52
763.775	27038.31
764.112	26986.11
764.449	27112.44
764.785	26886.68
765.122	26663.41
765.458	26654.6
765.795	26543.19
766.131	26561.04
766.467	26427.48
766.804	26277.66
767.14	26281.95
767.476	26093.93
767.812	25983.65
768.148	26102.07
768.485	25825.01
768.821	25764.68
769.157	25667.05
769.492	25666.83
769.828	25659.82
770.164	25357.23
770.5	25347.96
770.836	25274.75
771.171	25321.75
771.507	25182.32
771.842	24943.45
772.178	25064.58
772.513	24859.61
772.849	24799.96
773.184	24710.92
773.519	24762.67
773.855	24579.62
774.19	24488.33
774.525	24383.47
774.86	24353.87
775.195	24235.22
775.53	24227.31
775.865	24044.72
776.2	23994.33
776.535	23664.39
776.87	23894.67
777.205	23716.59
777.539	23588.46
777.874	23650.83
778.209	23458.97
778.543	23456.94
778.878	23375.13
779.212	23266.44
779.547	23174.69
779.881	23059.89
780.215	23083.62
780.55	22942.15
780.884	22834.13
781.218	22842.72
781.552	22745.55
781.886	22609.28
782.22	22498.32
782.554	22457.42
782.888	22181.95
783.222	22148.27
783.556	22135.62
783.889	21941.5
784.223	21782.63
784.557	21857.89
784.89	21918.68
785.224	21692.47
785.557	21633.48
785.891	21527.72
786.224	21519.14
786.558	21504.67
786.891	21230.56
787.224	21225.13
787.557	21253.16
787.891	21154.18
788.224	21085.02
788.557	21029.66
788.89	20930.23
789.223	20962.54
789.556	20717.35
789.888	20753.73
790.221	20633.51
790.554	20549.45
790.887	20521.2
791.219	20467.41
791.552	20354.42
791.884	20266.52
792.217	20226.29
792.549	20149
792.882	20113.3
793.214	19934.09
793.546	19912.63
793.879	19783.59
794.211	19685.74
794.543	19801.44
794.875	19712.41
795.207	19703.59
795.539	19586.98
795.871	19561
796.203	19377.05
796.535	19299.99
796.867	19291.4
797.198	19297.05
797.53	19238.52
797.862	19119.43
798.193	19049.37
798.525	18983.84
798.856	19005.53
799.188	18907.91
799.519	18755.59
799.85	18684.64
800.182	18682.15
800.513	18706.33
800.844	18518.09
801.175	18563.06
801.506	18548.59
801.837	18449.39
802.168	18344.31
802.499	18319.9
802.83	18148.15
803.161	18103.63
803.491	18187.47
803.822	18074.26
804.153	18031.09
804.483	17880.36
804.814	17824.77
805.145	17884.66
805.475	17760.14
805.805	17704.32
806.136	17694.61
806.466	17681.5
806.796	17746.58
807.126	17493.03
807.457	17456.65
807.787	17470.88
808.117	17395.18
808.447	17209.42
808.777	17451.9
809.107	17277.44
809.436	17308.17
809.766	17227.27
810.096	17100.5
810.426	17057.11
810.755	17013.95
811.085	17040.84
811.414	16974.85
811.744	16875.42
812.073	16849.88
812.403	16840.39
812.732	16750
813.061	16713.61
813.39	16599.72
813.719	16518.14
814.049	16667.97
814.378	16486.95
814.707	16507.52
815.036	16473.85
815.365	16331.7
815.693	16230.24
816.022	16199.5
816.351	16183.91
816.68	16093.07
817.008	16140.75
817.337	16013.52
817.665	16042.9
817.994	16029.11
818.322	15968.55
818.651	15964.03
818.979	15915.44
819.307	15917.7
819.636	15920.41
819.964	15767.65
820.292	15865.27
820.62	15877.48
820.948	15738.05
821.276	15835.67
821.604	15763.13
821.932	15816.01
822.259	15728.33
822.587	15789.8
822.915	15694.88
823.243	15702.34
823.57	15637.71
823.898	15692.62
824.225	15660.31
824.553	15669.8
824.88	15627.32
825.207	15644.49
825.535	15564.72
825.862	15631.61
826.189	15615.79
826.516	15607.2
826.843	15724.26
827.17	15593.42
827.497	15680.65
827.824	15630.93
828.151	15640.65
828.478	15565.62
828.805	15649.91
829.131	15614.89
829.458	15645.17
829.785	15511.61
830.111	15600.2
830.438	15604.94
830.764	15592.29
831.09	15580.31
831.417	15447.43
831.743	15555.45
832.069	15563.36
832.395	15461.9
832.722	15632.96
833.048	15440.43
833.374	15513.19
833.7	15467.77
834.026	15434.78
834.351	15502.8
834.677	15456.7
835.003	15469.35
835.329	15388.45
835.654	15314.33
835.98	15282.01
836.306	15313.2
836.631	15239.98
836.956	15275.69
837.282	15326.08
837.607	15244.95
837.932	15232.98
838.258	15161.79
838.583	15176.03
838.908	15075.24
839.233	15120.89
839.558	15069.14
839.883	15080.21
840.208	15046.99
840.533	15049.48
840.858	14959.54
841.182	15041.34
841.507	14938.97
841.832	14821.69
842.156	14821.69
842.481	14873.44
842.805	14797.05
843.13	14761.58
843.454	14701.92
843.778	14707.34
844.103	14666.44
844.427	14640.9
844.751	14621.69
845.075	14553.22
845.399	14501.24
845.723	14530.17
846.047	14368.14
846.371	14349.83
846.695	14285.2
847.019	14167.01
847.343	14170.4
847.666	14077.3
847.99	13974.93
848.313	13989.17
848.637	13931.31
848.96	13861.49
849.284	13853.35
849.607	13749.4
849.931	13728.38
850.254	13602.96
850.577	13483.87
850.9	13431.89
851.223	13441.84
851.546	13415.4
851.869	13263.76
852.192	13324.78
852.515	13278.45
852.838	13169.75
853.161	13203.65
853.483	13098.57
853.806	13102.64
854.129	13123.43
854.451	12934.5
854.774	12965.24
855.096	12923.21
855.419	12806.6
855.741	12811.57
856.063	12802.08
856.385	12885.92
856.708	12750.78
857.03	12576.32
857.352	12637.11
857.674	12635.98
857.996	12616.32
858.318	12549.2
858.64	12439.83
858.961	12435.99
859.283	12408.42
859.605	12270.57
859.926	12445.48
860.248	12365.93
860.57	12299.49
860.891	12293.84
861.212	12161.42
861.534	12161.64
861.855	12141.76
862.176	12099.27
862.498	12116.9
862.819	12190.12
863.14	12080.74
863.461	11965.26
863.782	11991.48
864.103	12034.87
864.424	11970.69
864.745	12032.83
865.065	11907.86
865.386	11863.57
865.707	11898.6
866.027	11923.91
866.348	11815.66
866.668	11870.35
866.989	11730.47
867.309	11693.86
867.63	11778.83
867.95	11775.89
868.27	11604.6
868.59	11680.3
868.91	11589.68
869.23	11694.09
869.55	11627.42
869.87	11635.1
870.19	11628.32
870.51	11590.13
870.83	11599.17
871.15	11508.33
871.469	11528.89
871.789	11494.32
872.109	11541.09
872.428	11476.46
872.748	11471.04
873.067	11424.71
873.386	11552.85
873.706	11462.23
874.025	11311.95
874.344	11295
874.663	11332.51
874.982	11289.58
875.301	11283.25
875.62	11274.44
875.939	11213.87
876.258	11269.46
876.577	11147.88
876.896	11188.34
877.214	11118.73
877.533	11122.8
877.852	11137.72
878.17	11206.87
878.489	11084.84
878.807	11097.26
879.125	11060.43
879.444	11107.21
879.762	11041.9
880.08	11009.36
880.398	10901.56
880.716	10999.87
881.034	10930.26
881.352	10886.87
881.67	10908.8
881.988	10863.82
882.306	10824.73
882.624	10810.04
882.941	10785.63
883.259	10728.69
883.577	10696.37
883.894	10711.96
884.212	10694.34
884.529	10650.04
884.846	10731.17
885.164	10622.25
885.481	10568.92
885.798	10664.06
886.115	10554.91
886.432	10524.85
886.75	10438.07
887.067	10582.02
887.383	10459.09
887.7	10457.73
888.017	10370.5
888.334	10404.63
888.651	10360.33
888.967	10359.21
889.284	10278.08
889.6	10236.5
889.917	10152.66
890.233	10248.7
890.55	10134.8
890.866	10172.54
891.182	10132.77
891.498	10058.87
891.815	10063.85
892.131	10064.3
892.447	10014.13
892.763	9957.18
893.079	9999.89
893.395	9880.8
893.71	9836.73
894.026	9811.87
894.342	9811.65
894.657	9695.04
894.973	9782.05
895.289	9735.27
895.604	9726.23
895.92	9685.32
896.235	9549.28
896.55	9631.99
896.865	9590.41
897.181	9585.44
897.496	9607.13
897.811	9504.09
898.126	9441.94
898.441	9463.41
898.756	9366.01
899.071	9330.76
899.386	9370.3
899.7	9237.88
900.015	9287.82
900.33	9138.9
900.644	9162.63
900.959	9191.78
901.273	9125.34
901.588	9050.54
901.902	8955.85
902.216	9002.86
902.531	8963.08
902.845	8948.17
903.159	8911.33
903.473	8919.02
903.787	8878.57
904.101	8822.07
904.415	8804.9
904.729	8725.35
905.042	8752.24
905.356	8682.86
905.67	8645.58
905.984	8608.29
906.297	8540.5
906.611	8543.43
906.924	8578.91
907.237	8528.74
907.551	8474.28
907.864	8405.58
908.177	8466.83
908.491	8348.86
908.804	8326.72
909.117	8263.44
909.43	8258.24
909.743	8225.93
910.056	8179.6
910.368	8125.82
910.681	8121.52
910.994	8138.92
911.307	8055.76
911.619	8037.91
911.932	8039.49
912.244	7938.48
912.557	7949.1
912.869	7915.2
913.181	7874.3
913.494	7828.2
913.806	7825.49
914.118	7796.56
914.43	7737.35
914.742	7737.13
915.054	7626.17
915.366	7609.22
915.678	7606.06
915.99	7576
916.302	7517.92
916.613	7517.7
916.925	7503.91
917.236	7467.98
917.548	7381.66
917.859	7420.98
918.171	7336.01
918.482	7314.31
918.794	7270.47
919.105	7262.11
919.416	7285.16
919.727	7187.76
920.038	7192.28
920.349	7135.56
920.66	7110.7
920.971	7129.91
921.282	7025.51
921.593	7005.39
921.903	6988.9
922.214	7020.31
922.525	6913.42
922.835	6879.52
923.146	6858.28
923.456	6873.87
923.767	6788
924.077	6860.31
924.387	6767.89
924.697	6685.4
925.008	6660.77
925.318	6658.96
925.628	6705.97
925.938	6643.82
926.248	6549.81
926.558	6537.84
926.867	6556.14
927.177	6455.58
927.487	6462.13
927.796	6467.33
928.106	6463.49
928.416	6386.43
928.725	6401.79
929.034	6384.39
929.344	6364.06
929.653	6316.83
929.962	6235.25
930.271	6214
930.581	6231.18
930.89	6164.74
931.199	6123.16
931.508	6182.14
931.817	6130.39
932.125	6117.06
932.434	6044.06
932.743	6014.69
933.051	6015.59
933.36	5966.55
933.669	5924.52
933.977	5892.2
934.286	5871.87
934.594	5907.57
934.902	5807.69
935.21	5793.68
935.519	5810.62
935.827	5793.9
936.135	5764.75
936.443	5706.22
936.751	5641.59
937.059	5669.16
937.367	5584.42
937.674	5685.43
937.982	5594.58
938.29	5522.95
938.597	5585.55
938.905	5464.64
939.213	5441.14
939.52	5463.51
939.827	5480.01
940.135	5404.99
940.442	5371.99
940.749	5360.92
941.056	5371.99
941.363	5293.35
941.67	5258.32
941.977	5290.41
942.284	5232.33
942.591	5221.49
942.898	5190.98
943.205	5171.09
943.511	5164.31
943.818	5113.92
944.125	5120.25
944.431	5090.64
944.738	5067.59
945.044	5089.74
945.35	5052.68
945.657	5009.06
945.963	5001.15
946.269	4971.32
946.575	4968.16
946.881	4908.5
947.187	4967.03
947.493	4905.11
947.799	4890.87
948.105	4906.69
948.41	4819.01
948.716	4827.37
949.022	4788.73
949.327	4778.56
949.633	4737.21
949.938	4685
950.244	4731.1
950.549	4671.9
950.854	4657.43
951.16	4702.4
951.465	4609.07
951.77	4551.67
952.075	4584.89
952.38	4580.15
952.685	4560.94
952.99	4526.14
953.294	4465.35
953.599	4551
953.904	4433.26
954.209	4376.76
954.513	4417.67
954.818	4402.07
955.122	4398.01
955.426	4393.03
955.731	4327.27
956.035	4331.11
956.339	4283.21
956.643	4280.95
956.948	4279.82
957.252	4261.06
957.556	4249.54
957.86	4236.2
958.163	4215.64
958.467	4159.14
958.771	4138.8
959.075	4123.89
959.378	4064.46
959.682	4104.45
959.985	4117.11
960.289	4113.95
960.592	4056.77
960.896	4035.76
961.199	4047.96
961.502	4007.73
961.805	4014.97
962.108	3969.54
962.411	3968.64
962.714	3955.31
963.017	3918.24
963.32	3919.83
963.623	3885.02
963.926	3861.75
964.228	3820.85
964.531	3833.95
964.833	3810.45
965.136	3805.71
965.438	3774.75
965.741	3714.86
966.043	3769.32
966.345	3725.71
966.648	3706.27
966.95	3724.58
967.252	3665.82
967.554	3641.64
967.856	3674.64
968.158	3639.16
968.46	3606.39
968.761	3604.81
969.063	3617.01
969.365	3572.04
969.666	3531.59
969.968	3544.47
970.269	3539.72
970.571	3525.94
970.872	3493.4
971.174	3500.63
971.475	3472.38
971.776	3457.92
972.077	3427.41
972.378	3425.38
972.679	3386.51
972.98	3393.74
973.281	3384.47
973.582	3384.93
973.883	3348.99
974.183	3312.61
974.484	3305.15
974.785	3322.1
975.085	3306.28
975.386	3329.56
975.686	3255.21
975.986	3245.27
976.287	3234.42
976.587	3198.49
976.887	3184.93
977.187	3181.31
977.487	3182.9
977.787	3170.02
978.087	3092.73
978.387	3130.24
978.687	3139.06
978.987	3078.94
979.286	3061.77
979.586	3051.15
979.885	3061.09
980.185	3047.08
980.484	3054.09
980.784	3036.01
981.083	3015.44
981.382	3005.5
981.682	2985.39
981.981	2972.73
982.28	2968.21
982.579	2923.02
982.878	2950.36
983.177	2921.89
983.475	2930.47
983.774	2884.37
984.073	2877.14
984.372	2887.76
984.67	2854.77
984.969	2869.01
985.267	2833.3
985.566	2828.33
985.864	2802.57
986.162	2782.68
986.461	2741.55
986.759	2765.96
987.057	2728.45
987.355	2755.56
987.653	2707.43
987.951	2721.21
988.249	2744.04
988.547	2711.27
988.844	2676.02
989.142	2649.13
989.44	2643.02
989.737	2623.14
990.035	2633.53
990.332	2604.38
990.63	2608.45
990.927	2582.91
991.224	2598.28
991.521	2555.57
991.819	2568
992.116	2551.73
992.413	2553.76
992.71	2506.76
993.006	2509.92
993.303	2485.97
993.6	2476.93
993.897	2470.6
994.193	2451.84
994.49	2439.87
994.787	2469.92
995.083	2426.08
995.379	2433.09
995.676	2407.32
995.972	2400.54
996.268	2387.89
996.565	2365.06
996.861	2376.82
997.157	2347.89
997.453	2323.71
997.749	2334.33
998.044	2280.32
998.34	2312.41
998.636	2284.84
998.932	2269.93
999.227	2246.65
999.523	2262.47
999.818	2227.89
1000.114	2241
1000.409	2208.91
1000.704	2185.63
1001	2171.85
1001.295	2183.37
1001.59	2197.61
1001.885	2162.81
1002.18	2110.61
1002.475	2130.04
1002.77	2110.38
1003.065	2128.69
1003.359	2108.35
1003.654	2077.16
1003.949	2042.81
1004.243	2052.08
1004.538	2050.5
1004.832	2046.2
1005.127	2048.24
1005.421	2024.96
1005.715	2010.27
1006.009	2017.05
1006.304	1944.06
1006.598	1979.09
1006.892	1965.98
1007.186	1925.75
1007.48	1943.16
1007.773	1935.7
1008.067	1928.47
1008.361	1902.48
1008.655	1900.22
1008.948	1878.3
1009.242	1893.44
1009.535	1846.43
1009.829	1879.88
1010.122	1836.72
1010.415	1830.16
1010.708	1810.5
1011.001	1821.12
1011.295	1816.38
1011.588	1801.46
1011.881	1806.44
1012.173	1736.38
1012.466	1763.72
1012.759	1749.26
1013.052	1751.07
1013.344	1720.79
1013.637	1718.75
1013.93	1693.9
1014.222	1658.87
1014.514	1704.52
1014.807	1695.48
1015.099	1669.49
1015.391	1637.63
1015.683	1668.81
1015.976	1652.99
1016.268	1638.76
1016.56	1603.5
1016.851	1639.89
1017.143	1614.8
1017.435	1590.85
1017.727	1542.04
1018.018	1568.48
1018.31	1573.67
1018.602	1535.48
1018.893	1540.23
1019.185	1528.93
1019.476	1531.19
1019.767	1517.86
1020.058	1489.61
1020.35	1510.4
1020.641	1474.01
1020.932	1493.22
1021.223	1477.86
1021.514	1480.57
1021.804	1460.91
1022.095	1429.27
1022.386	1461.13
1022.677	1407.8
1022.967	1434.92
1023.258	1402.6
1023.548	1393.11
1023.839	1379.55
1024.129	1355.37
1024.419	1367.13
1024.709	1327.58
1025	1354.92
1025.29	1320.57
1025.58	1330.29
1025.87	1341.82
1026.16	1309.73
1026.449	1314.02
1026.739	1302.27
1027.029	1254.36
1027.319	1267.47
1027.608	1261.14
1027.898	1246
1028.187	1249.16
1028.477	1244.19
1028.766	1232.67
1029.055	1217.52
1029.344	1217.52
1029.634	1208.94
1029.923	1219.78
1030.212	1213
1030.501	1203.97
1030.79	1191.76
1031.078	1180.69
1031.367	1145.44
1031.656	1155.83
1031.945	1157.64
1032.233	1130.07
1032.522	1125.55
1032.81	1125.1
1033.099	1128.94
1033.387	1130.3
1033.675	1112.89
1033.963	1079.9
1034.251	1100.92
1034.54	1087.36
1034.828	1093.23
1035.116	1068.38
1035.403	1052.78
1035.691	1057.75
1035.979	1028.15
1036.267	1040.58
1036.554	1027.92
1036.842	1036.96
1037.129	1036.06
1037.417	999.68
1037.704	980.69
1037.992	1021.82
1038.279	1009.39
1038.566	1014.82
1038.853	1014.82
1039.14	1014.82
