Data from hue_330_FLMS001491_32.txt Node
Date: Mon Feb 06 15:45:18 GMT 2017
User: dcchb
Spectrometer: FLMS00149
Trigger mode: 0
Integration Time (sec): 2.000000E-2
Scans to average: 10
Electric dark correction enabled: true
Nonlinearity correction enabled: false
Boxcar width: 0
XAxis mode: Wavelengths
Number of Pixels in Spectrum: 2048
>>>>>Begin Spectral Data<<<<<
341.393	-1.13
341.776	-1.13
342.16	-1.13
342.543	-48.81
342.927	-61.69
343.31	-75.7
343.693	-64.86
344.077	-68.7
344.46	-73.22
344.843	-56.27
345.226	-59.43
345.61	-4.97
345.993	-19.89
346.376	-11.75
346.759	19.89
347.142	25.99
347.525	42.48
347.908	73.67
348.291	89.26
348.674	72.31
349.057	111.18
349.44	125.87
349.823	131.3
350.206	154.35
350.588	172.2
350.971	195.7
351.354	215.14
351.737	234.34
352.119	235.02
352.502	266.66
352.884	263.5
353.267	281.8
353.65	298.75
354.032	309.82
354.414	298.75
354.797	306.88
355.179	320.67
355.562	332.65
355.944	329.26
356.326	317.51
356.709	341.46
357.091	337.84
357.473	340.56
357.855	339.2
358.238	343.95
358.62	333.55
359.002	338.52
359.384	353.89
359.766	335.36
360.148	315.02
360.53	339.65
360.912	348.69
361.294	326.77
361.676	334
362.057	319.31
362.439	326.77
362.821	331.29
363.203	304.85
363.584	322.03
363.966	320.22
364.348	296.94
364.729	317.51
365.111	312.31
365.493	322.93
365.874	308.47
366.256	319.31
366.637	317.73
367.019	314.57
367.4	306.88
367.781	316.15
368.163	292.65
368.544	304.85
368.925	297.85
369.306	313.66
369.688	301.24
370.069	316.38
370.45	290.84
370.831	290.39
371.212	305.3
371.593	316.15
371.974	295.59
372.355	324.96
372.736	319.99
373.117	314.79
373.498	321.35
373.879	318.18
374.26	313.44
374.641	320.9
375.021	311.86
375.402	334
375.783	282.93
376.163	326.32
376.544	327.67
376.925	329.93
377.305	322.7
377.686	305.98
378.066	334.68
378.447	316.15
378.827	322.7
379.208	328.35
379.588	305.98
379.968	299.43
380.349	322.7
380.729	342.14
381.109	318.64
381.489	319.09
381.87	336.04
382.25	325.64
382.63	326.09
383.01	353.66
383.39	334.68
383.77	311.86
384.15	321.12
384.53	345.53
384.91	337.84
385.29	347.34
385.67	355.02
386.049	360.44
386.429	347.11
386.809	340.33
387.189	341.46
387.568	337.84
387.948	350.73
388.328	353.44
388.707	336.71
389.087	354.11
389.466	339.88
389.846	350.5
390.225	346.66
390.605	346.66
390.984	361.57
391.363	364.96
391.743	348.69
392.122	363.83
392.501	353.66
392.881	365.87
393.26	367
393.639	364.51
394.018	360.44
394.397	393.89
394.776	362.93
395.155	363.83
395.534	364.96
395.913	365.64
396.292	356.37
396.671	351.63
397.05	380.55
397.429	350.73
397.808	363.61
398.186	371.52
398.565	385.53
398.944	369.03
399.323	390.5
399.701	372.42
400.08	391.85
400.458	392.98
400.837	401.12
401.215	393.89
401.594	383.04
401.972	405.64
402.351	405.19
402.729	398.18
403.107	399.09
403.486	412.19
403.864	394.79
404.242	387.56
404.62	422.59
404.999	400.89
405.377	411.06
405.755	419.42
406.133	414.9
406.511	401.57
406.889	432.76
407.267	399.76
407.645	421.01
408.023	418.29
408.401	439.31
408.779	438.41
409.156	456.03
409.534	434.79
409.912	436.37
410.29	457.62
410.667	487.44
411.045	451.06
411.422	465.98
411.8	443.38
412.178	473.21
412.555	482.7
412.933	485.18
413.31	477.73
413.687	489.7
414.065	494.68
414.442	501.46
414.819	508.24
415.197	525.18
415.574	524.73
415.951	514.56
416.328	511.85
416.705	536.48
417.082	527.44
417.46	564.96
417.837	543.94
418.214	561.34
418.591	557.73
418.967	565.86
419.344	576.71
419.721	593.88
420.098	587.56
420.475	587.33
420.852	583.71
421.228	608.35
421.605	613.54
421.982	635.01
422.358	603.15
422.735	610.15
423.111	626.2
423.488	611.06
423.864	644.5
424.241	616.71
424.617	673.88
424.994	648.8
425.37	655.35
425.746	668.91
426.123	672.98
426.499	661.9
426.875	679.08
427.251	711.39
427.627	696.7
428.003	722.47
428.379	713.43
428.756	722.69
429.132	728.57
429.507	727.44
429.883	731.51
430.259	748.91
430.635	775.12
431.011	757.04
431.387	795.46
431.763	763.82
432.138	794.33
432.514	787.55
432.89	829.58
433.265	808.11
433.641	834.33
434.016	819.64
434.392	826.19
434.767	856.47
435.143	860.09
435.518	849.92
435.894	863.03
436.269	879.3
436.644	890.37
437.02	906.64
437.395	918.39
437.77	920.43
438.145	884.5
438.52	905.96
438.895	922.91
439.271	922.01
439.646	937.15
440.021	952.07
440.395	955.91
440.77	966.75
441.145	961.33
441.52	998.39
441.895	978.96
442.27	985.51
442.645	999.97
443.019	978.28
443.394	1008.34
443.769	988.9
444.143	996.58
444.518	1021.44
444.892	998.39
445.267	1022.35
445.641	1018.73
446.016	1022.35
446.39	1043.36
446.764	1047.66
447.139	1025.06
447.513	1030.26
447.887	1064.6
448.262	1043.59
448.636	1042.01
449.01	1057.15
449.384	1074.32
449.758	1052.85
450.132	1094.43
450.506	1085.17
450.88	1074.77
451.254	1057.6
451.628	1083.36
452.002	1086.07
452.376	1095.56
452.75	1122.46
453.123	1130.59
453.497	1143.7
453.871	1126.98
454.244	1154.55
454.618	1169.69
454.992	1167.65
455.365	1154.09
455.739	1148.67
456.112	1194.09
456.486	1205.17
456.859	1199.29
457.232	1193.64
457.606	1199.74
457.979	1226.86
458.352	1234.32
458.725	1226.86
459.099	1223.02
459.472	1293.07
459.845	1258.05
460.218	1264.37
460.591	1289.23
460.964	1279.51
461.337	1302.56
461.71	1307.54
462.083	1347.08
462.456	1328.1
462.829	1345.5
463.201	1349.34
463.574	1358.83
463.947	1372.62
464.32	1373.98
464.692	1412.17
465.065	1408.55
465.438	1406.74
465.81	1433.86
466.183	1457.36
466.555	1456.01
466.928	1470.92
467.3	1467.08
467.672	1485.38
468.045	1514.76
468.417	1513.18
468.789	1528.1
469.161	1543.01
469.534	1561.09
469.906	1589.56
470.278	1576
470.65	1610.35
471.022	1653.52
471.394	1626.85
471.766	1631.82
472.138	1639.5
472.51	1687.19
472.882	1723.57
473.253	1715.21
473.625	1721.08
473.997	1773.74
474.369	1778.26
474.74	1807.64
475.112	1817.13
475.484	1850.35
475.855	1882.21
476.227	1851.48
476.598	1897.58
476.97	1918.14
477.341	1972.83
477.713	1973.51
478.084	2000.63
478.455	2052.6
478.827	2058.48
479.198	2081.75
479.569	2079.49
479.94	2142.77
480.311	2113.62
480.682	2189.32
481.053	2226.61
481.424	2254.86
481.795	2233.39
482.166	2300.73
482.537	2310.45
482.908	2342.99
483.279	2383.44
483.65	2399.48
484.021	2415.53
484.391	2468.41
484.762	2459.14
485.133	2487.62
485.503	2524.23
485.874	2560.16
486.244	2569.88
486.615	2608.74
486.985	2586.37
487.356	2658.46
487.726	2676.54
488.097	2748.4
488.467	2713.6
488.837	2803.32
489.207	2842.86
489.578	2869.08
489.948	2858.68
490.318	2879.7
490.688	2861.17
491.058	2938.23
491.428	2971
491.798	2989.07
492.168	3039.92
492.538	3020.26
492.908	3052.8
493.278	3101.39
493.648	3124.89
494.017	3162.85
494.387	3164.44
494.757	3182.06
495.126	3201.5
495.496	3220.48
495.866	3264.32
496.235	3281.72
496.605	3301.83
496.974	3339.12
497.344	3300.48
497.713	3356.52
498.082	3345
498.452	3324.21
498.821	3379.35
499.19	3409.85
499.559	3474.94
499.928	3421.15
500.298	3438.78
500.667	3465.45
501.036	3456.86
501.405	3487.59
501.774	3495.5
502.143	3533.01
502.512	3515.39
502.88	3582.73
503.249	3554.71
503.618	3613.69
503.987	3586.57
504.356	3584.54
504.724	3607.36
505.093	3638.77
505.462	3621.6
505.83	3646.23
506.199	3660.69
506.567	3675.38
506.936	3714.25
507.304	3746.79
507.672	3737.75
508.041	3754.48
508.409	3727.59
508.777	3747.02
509.145	3834.25
509.514	3779.56
509.882	3807.81
510.25	3742.27
510.618	3835.83
510.986	3827.92
511.354	3860.01
511.722	3910.41
512.09	3897.75
512.458	3876.73
512.826	3962.16
513.193	3885.1
513.561	3906.11
513.929	3907.47
514.297	3941.59
514.664	4013.23
515.032	3989.95
515.4	4012.1
515.767	3992.89
516.135	3964.42
516.502	3967.81
516.869	4060.01
517.237	4060.91
517.604	4049.84
517.972	4087.12
518.339	4081.7
518.706	4060.01
519.073	4024.3
519.44	4119.21
519.808	4104.52
520.175	4087.58
520.542	4154.69
520.909	4148.14
521.276	4141.13
521.643	4158.31
522.009	4225.65
522.376	4235.59
522.743	4220.68
523.11	4240.34
523.477	4278.98
523.843	4290.28
524.21	4313.11
524.577	4314.24
524.943	4327.57
525.31	4348.36
525.676	4388.13
526.043	4380.68
526.409	4402.82
526.776	4462.26
527.142	4501.35
527.508	4487.79
527.874	4496.6
528.241	4526.21
528.607	4533.21
528.973	4577.96
529.339	4580.22
529.705	4571.86
530.071	4658.86
530.437	4643.72
530.803	4656.37
531.169	4673.78
531.535	4664.06
531.901	4703.83
532.267	4683.04
532.632	4757.62
532.998	4775.92
533.364	4809.14
533.73	4770.04
534.095	4826.99
534.461	4836.03
534.826	4819.53
535.192	4897.27
535.557	4890.94
535.923	4921.23
536.288	4964.16
536.653	4984.73
537.019	4961.9
537.384	4977.04
537.749	4990.15
538.114	4993.54
538.479	5072.86
538.845	5074.89
539.21	5076.25
539.575	5066.76
539.94	5130.49
540.305	5104.05
540.67	5132.29
541.034	5186.76
541.399	5169.36
541.764	5223.82
542.129	5218.17
542.494	5271.27
542.858	5235.57
543.223	5285.28
543.587	5332.29
543.952	5351.5
544.316	5285.06
544.681	5346.75
545.045	5395.34
545.41	5430.82
545.774	5382.68
546.138	5430.14
546.503	5459.52
546.867	5439.86
547.231	5506.07
547.595	5558.72
547.959	5608.21
548.324	5575.45
548.688	5575.22
549.052	5606.63
549.416	5583.13
549.779	5610.25
550.143	5640.98
550.507	5702
550.871	5730.7
551.235	5711.49
551.599	5710.81
551.962	5741.32
552.326	5755.78
552.689	5838.26
553.053	5765.5
553.417	5758.49
553.78	5842.56
554.143	5821.09
554.507	5942.89
554.87	5939.28
555.234	5920.52
555.597	5856.12
555.96	5906.29
556.323	5968.66
556.686	5969.56
557.05	6043.68
557.413	5996.9
557.776	6007.07
558.139	6061.99
558.502	6095.43
558.865	6075.32
559.228	6096.79
559.59	6122.78
559.953	6097.92
560.316	6169.56
560.679	6115.32
561.041	6223.11
561.404	6185.83
561.767	6234.41
562.129	6228.76
562.492	6258.14
562.854	6271.7
563.217	6311.02
563.579	6335.43
563.941	6302.89
564.304	6355.99
564.666	6321.42
565.028	6443.9
565.39	6411.58
565.753	6403.67
566.115	6488.42
566.477	6483.67
566.839	6490.9
567.201	6546.49
567.563	6570.67
567.925	6560.96
568.287	6595.31
568.648	6605.02
569.01	6619.71
569.372	6671.69
569.734	6689.54
570.095	6756.88
570.457	6737.68
570.819	6784
571.18	6818.13
571.542	6876.43
571.903	6914.39
572.265	6936.31
572.626	6969.08
572.987	6966.82
573.349	6991.68
573.71	7114.16
574.071	7097.21
574.432	7115.29
574.794	7240.26
575.155	7266.25
575.516	7222.41
575.877	7356.42
576.238	7365
576.599	7486.13
576.96	7556.19
577.32	7577.88
577.681	7710.31
578.042	7709.18
578.403	7864.88
578.763	7943.07
579.124	8033.24
579.485	8126.57
579.845	8237.98
580.206	8286.34
580.566	8372.44
580.927	8472.77
581.287	8651.07
581.648	8797.73
582.008	8953.44
582.368	9022.14
582.728	9202.24
583.089	9336.03
583.449	9428.23
583.809	9634.32
584.169	9847.88
584.529	9918.38
584.889	10184.36
585.249	10334.42
585.609	10426.17
585.969	10688.53
586.329	10865.48
586.688	11065.7
587.048	11358.57
587.408	11485.57
587.768	11711.78
588.127	11961.49
588.487	12148.61
588.846	12465.21
589.206	12606.45
589.565	12903.39
589.925	13166.21
590.284	13407.78
590.643	13711.05
591.003	13963.93
591.362	14113.08
591.721	14500.64
592.08	14730.01
592.44	15084.8
592.799	15336.77
593.158	15591.45
593.517	15844.56
593.876	16168.61
594.235	16409.74
594.593	16692.67
594.952	17073
595.311	17288.36
595.67	17638.41
596.029	18029.58
596.387	18330.14
596.746	18526.74
597.104	18730.13
597.463	19058.71
597.822	19432.48
598.18	19641.74
598.538	19848.29
598.897	20250.09
599.255	20362.4
599.613	20961.03
599.972	21079.9
600.33	21410.74
600.688	21557.17
601.046	21990.16
601.404	22283.03
601.762	22536.81
602.12	22882.56
602.478	23182.22
602.836	23422.89
603.194	23554.86
603.552	23904.91
603.91	24053.6
604.268	24530.65
604.625	24482.97
604.983	24836.18
605.341	25006.57
605.698	25447.69
606.056	25558.42
606.413	25779.89
606.771	26119.77
607.128	26442.24
607.485	26537.38
607.843	26799.07
608.2	27136.46
608.557	27428.66
608.914	27477.02
609.272	27807.86
609.629	28076.1
609.986	28364
610.343	28462.08
610.7	28757.66
611.057	28842.18
611.414	28960.82
611.771	29163.07
612.127	29475.16
612.484	29724.64
612.841	30020.91
613.198	29913.56
613.554	30129.38
613.911	30588.8
614.267	30668.35
614.624	30808.46
614.98	30920.32
615.337	31211.16
615.693	31348.55
616.05	31476.01
616.406	31709.22
616.762	31788.32
617.118	31931.82
617.475	32013.17
617.831	32144.24
618.187	32377.91
618.543	32631.23
618.899	32854.96
619.255	32965.91
619.611	32929.98
619.967	32964.11
620.323	33341.72
620.678	33309.63
621.034	33344.43
621.39	33474.37
621.746	33539.91
622.101	33993.46
622.457	33738.77
622.812	34035.26
623.168	34230.29
623.523	34265.54
623.879	34383.73
624.234	34282.26
624.589	34514.57
624.945	34550.96
625.3	34672.08
625.655	34711.86
626.01	34877.5
626.365	34960.89
626.72	34979.87
627.075	35000.89
627.43	34976.93
627.785	34990.72
628.14	35170.6
628.495	35244.5
628.85	35326.98
629.205	35196.36
629.559	35448.11
629.914	35444.72
630.269	35463.25
630.623	35424.83
630.978	35535.56
631.332	35575.56
631.687	35751.15
632.041	35555
632.396	35667.08
632.75	35592.51
633.104	35707.54
633.459	35689.91
633.813	35578.27
634.167	35858.72
634.521	35710.47
634.875	35682
635.229	35690.36
635.583	35620.53
635.937	35742.79
636.291	35738.04
636.645	35672.06
636.999	35700.08
637.352	35826.85
637.706	35618.5
638.06	35766.74
638.413	35678.61
638.767	35815.33
639.121	35713.41
639.474	35674.32
639.828	35738.04
640.181	35604.94
640.534	35654.88
640.888	35687.2
641.241	35501.44
641.594	35712.96
641.947	35776.23
642.301	35767.65
642.654	35696.69
643.007	35645.62
643.36	35594.32
643.713	35664.6
644.066	35723.81
644.419	35567.2
644.771	35246.98
645.124	35132.18
645.477	34945.07
645.83	34770.16
646.182	34677.28
646.535	34576.72
646.888	34757.73
647.24	34502.14
647.593	34698.07
647.945	34636.6
648.298	34553.89
648.65	34375.59
649.002	34410.62
649.355	34527.45
649.707	34567.45
650.059	34520.9
650.411	35031.17
650.763	35063.26
651.115	35443.59
651.467	35285.17
651.819	35436.58
652.171	35283.82
652.523	35241.33
652.875	35291.05
653.227	35171.5
653.578	35373.31
653.93	35213.99
654.282	35174.44
654.633	34947.78
654.985	35209.47
655.337	35210.83
655.688	35145.52
656.039	35221.67
656.391	35049.93
656.742	35033.88
657.094	35076.14
657.445	35177.83
657.796	35063.71
658.147	35013.32
658.498	34982.36
658.849	35050.83
659.2	35085.86
659.551	34876.15
659.902	35083.82
660.253	35087.66
660.604	35085.86
660.955	34931.51
661.306	35076.82
661.656	34895.81
662.007	35042.24
662.358	34994.33
662.708	35023.49
663.059	34965.86
663.409	34648.58
663.76	35023.94
664.11	34972.41
664.461	34970.15
664.811	35060.1
665.161	34961.11
665.511	34919.08
665.862	34997.72
666.212	35064.84
666.562	35045.41
666.912	34829.37
667.262	34880.66
667.612	34880.21
667.962	35038.85
668.312	34971.51
668.662	35104.84
669.011	34858.52
669.361	34901.23
669.711	34822.81
670.06	34841.57
670.41	34735.81
670.76	34773.1
671.109	34901.46
671.459	34764.96
671.808	34765.64
672.157	34816.26
672.507	34539.88
672.856	34644.74
673.205	34800.21
673.554	34721.57
673.904	34597.96
674.253	34762.02
674.602	34795.47
674.951	34244.07
675.3	34006.34
675.649	34704.62
675.998	34599.09
676.346	34502.82
676.695	34695.81
677.044	34466.89
677.393	34463.5
677.741	34670.27
678.09	34519.54
678.438	34367.68
678.787	34642.25
679.135	34497.17
679.484	34281.58
679.832	34447.91
680.181	34264.64
680.529	34317.74
680.877	34140.12
681.225	34074.36
681.573	34374.69
681.922	34077.3
682.27	33995.94
682.618	34114.58
682.966	33883.63
683.314	33940.12
683.661	33915.49
684.009	33724.76
684.357	33754.59
684.705	33683.18
685.053	33715.05
685.4	33721.15
685.748	33454.94
686.095	33464.2
686.443	33410.87
686.79	33434.6
687.138	33451.32
687.485	33419.91
687.832	33369.52
688.18	33270.76
688.527	33078.68
688.874	33132.91
689.221	33051.56
689.568	32967.49
689.915	32909.42
690.262	33007.04
690.609	32858.8
690.956	32734.96
691.303	32592.14
691.65	32603.89
691.997	32471.01
692.344	32325.7
692.69	32322.31
693.037	32372.26
693.383	32065.37
693.73	32130.91
694.077	31956.22
694.423	32010.23
694.769	32057.91
695.116	31817.69
695.462	31773.4
695.808	31714.42
696.155	31845.72
696.501	31534.09
696.847	31594.88
697.193	31365.73
697.539	31386.75
697.885	31125.06
698.231	31030.6
698.577	31111.72
698.923	31004.61
699.269	30855.46
699.614	30833.77
699.96	30789.7
700.306	30864.95
700.651	30605.75
700.997	30605.97
701.342	30486.88
701.688	30367.56
702.033	30377.28
702.379	30317.85
702.724	30260
703.069	30307.23
703.415	29962.83
703.76	29929.83
704.105	30118.53
704.45	29879.44
704.795	29867.92
705.14	29621.59
705.485	29694.13
705.83	29653.01
706.175	29645.32
706.52	29534.14
706.865	29407.59
707.209	29344.99
707.554	29210.53
707.899	29304.31
708.243	29065
708.588	29210.53
708.932	28973.25
709.277	28902.97
709.621	28937.77
709.966	28681.96
710.31	28805.8
710.654	28507.95
710.998	28623.43
711.342	28661.85
711.687	28474.28
712.031	28493.26
712.375	28275.64
712.719	28281.29
713.063	28245.36
713.407	28392.93
713.75	28190.45
714.094	28173.04
714.438	27977.8
714.782	28096.44
715.125	27840.4
715.469	27871.36
715.812	27754.75
716.156	27576.45
716.499	27752.49
716.843	27588.43
717.186	27499.39
717.53	27655.32
717.873	27572.83
718.216	27543
718.559	27408.54
718.902	27329
719.246	27325.38
719.589	27290.81
719.932	27005.39
720.275	27150.25
720.617	27034.32
720.96	27135.56
721.303	27072.06
721.646	26983.47
721.989	26956.58
722.331	27028.22
722.674	26925.17
723.016	26751.84
723.359	26689.69
723.701	26856.02
724.044	26490.38
724.386	26499.42
724.729	26693.08
725.071	26552.75
725.413	26574.22
725.755	26471.17
726.097	26409.02
726.439	26357.27
726.782	26203.15
727.124	26463.48
727.465	26374.67
727.807	26309.82
728.149	26130.39
728.491	26220.55
728.833	26062.37
729.175	26080.22
729.516	25992.76
729.858	25944.4
730.199	26035.25
730.541	25864.4
730.882	25898.75
731.224	26057.39
731.565	25816.27
731.906	25696.27
732.248	25748.93
732.589	25595.94
732.93	25582.15
733.271	25649.27
733.612	25653.34
733.953	25611.3
734.294	25476.17
734.635	25430.29
734.976	25516.17
735.317	25354.59
735.658	25472.55
735.999	25383.06
736.339	25318.66
736.68	25361.37
737.021	25247.47
737.361	25187.36
737.702	25358.43
738.042	25196.85
738.383	25141.71
738.723	25215.83
739.063	25005.44
739.404	25143.07
739.744	24975.16
740.084	24892.45
740.424	24987.82
740.764	24827.82
741.104	24995.73
741.444	24731.1
741.784	24633.7
742.124	24740.59
742.464	24662.85
742.804	24621.05
743.143	24669.63
743.483	24548.51
743.823	24450.88
744.162	24539.69
744.502	24468.28
744.841	24395.29
745.181	24606.81
745.52	24348.06
745.86	24311.45
746.199	24283.66
746.538	24267.38
746.877	24433.03
747.216	24357.33
747.556	24224.67
747.895	24165.69
748.234	24079.14
748.573	24085.24
748.911	24090.89
749.25	24025.13
749.589	23893.61
749.928	23869.88
750.267	23831.92
750.605	23831.92
750.944	23830.11
751.283	23710.56
751.621	23712.37
751.96	23633.28
752.298	23621.75
752.636	23643.67
752.975	23437.8
753.313	23343.12
753.651	23550.79
753.989	23363.91
754.327	23349.22
754.666	23262.89
755.004	23242.33
755.342	23266.73
755.679	23219.73
756.017	23026.29
756.355	22974.76
756.693	22974.31
757.031	23096.12
757.368	22843.92
757.706	22777.25
758.044	22719.4
758.381	22743.13
758.719	22723.47
759.056	22738.84
759.394	22656.58
759.731	22451.84
760.068	22381.56
760.405	22310.37
760.743	22336.14
761.08	22358.73
761.417	22177.95
761.754	22134.11
762.091	22137.05
762.428	21942.7
762.765	21916.71
763.102	21946.99
763.438	21937.73
763.775	21629.49
764.112	21658.87
764.449	21618.41
764.785	21500.45
765.122	21333.45
765.458	21426.78
765.795	21402.6
766.131	21336.61
766.467	21338.42
766.804	21088.71
767.14	21124.64
767.476	21077.41
767.812	20924.42
768.148	20925.78
768.485	20831.99
768.821	20829.96
769.157	20711.09
769.492	20610.98
769.828	20599.68
770.164	20535.28
770.5	20398.11
770.836	20349.52
771.171	20234.04
771.507	20229.52
771.842	20011.23
772.178	20115.63
772.513	20110.88
772.849	20019.13
773.184	19849.42
773.519	19925.58
773.855	19772.14
774.19	19643.78
774.525	19626.83
774.86	19617.11
775.195	19500.96
775.53	19429.32
775.865	19309.1
776.2	19182.55
776.535	19131.47
776.87	19090.8
777.205	19009.22
777.539	18953.4
777.874	18958.37
778.209	18765.61
778.543	18730.35
778.878	18643.35
779.212	18658.94
779.547	18585.05
779.881	18531.49
780.215	18423.47
780.55	18473.86
780.884	18279.07
781.218	18242.68
781.552	18265.06
781.886	18120.43
782.22	18115
782.554	18022.35
782.888	17863.71
783.222	17749.14
783.556	17726.54
783.889	17680.21
784.223	17573.1
784.557	17528.58
784.89	17628.69
785.224	17469.15
785.557	17405.87
785.891	17329.26
786.224	17319.54
786.558	17348.47
786.891	17137.18
787.224	17022.38
787.557	16924.53
787.891	16953.9
788.224	16943.74
788.557	16916.39
788.89	16830.97
789.223	16822.83
789.556	16709.62
789.888	16610.86
790.221	16670.97
790.554	16421.26
790.887	16448.83
791.219	16431.43
791.552	16285.67
791.884	16361.38
792.217	16136.75
792.549	16157.09
792.882	16152.34
793.214	16083.19
793.546	16027.83
793.879	15854.72
794.211	15879.13
794.543	15921.84
794.875	15837.55
795.207	15902.41
795.539	15702.41
795.871	15720.94
796.203	15655.41
796.535	15495.19
796.867	15519.14
797.198	15462.87
797.53	15473.27
797.862	15341.74
798.193	15271.46
798.525	15143.78
798.856	15249.99
799.188	15079.38
799.519	15014.52
799.85	14944.24
800.182	14953.73
800.513	14962.77
800.844	14819.72
801.175	14910.79
801.506	14932.49
801.837	14798.25
802.168	14711.25
802.499	14680.74
802.83	14570.01
803.161	14558.49
803.491	14674.42
803.822	14562.78
804.153	14503.57
804.483	14395.78
804.814	14311.49
805.145	14273.97
805.475	14238.27
805.805	14214.09
806.136	14255.67
806.466	14259.29
806.796	14177.93
807.126	14034.43
807.457	14116.46
807.787	14007.77
808.117	13951.27
808.447	13916.7
808.777	13982.23
809.107	13845.51
809.436	13830.14
809.766	13802.35
810.096	13727.32
810.426	13727.77
810.755	13646.42
811.085	13650.49
811.414	13666.08
811.744	13490.27
812.073	13555.12
812.403	13434
812.732	13339.76
813.061	13430.61
813.39	13351.97
813.719	13281.91
814.049	13368.91
814.378	13325.75
814.707	13259.09
815.036	13189.26
815.365	13055.25
815.693	13026.32
816.022	13077.17
816.351	13059.32
816.68	12956.95
817.008	12995.59
817.337	12855.71
817.665	12850.28
817.994	12887.12
818.322	12947.68
818.651	12803.28
818.979	12749.5
819.307	12793.11
819.636	12793.34
819.964	12612.78
820.292	12716.95
820.62	12727.8
820.948	12673.79
821.276	12719.67
821.604	12611.87
821.932	12640.57
822.259	12655.03
822.587	12634.7
822.915	12609.61
823.243	12630.85
823.57	12549.95
823.898	12571.42
824.225	12574.13
824.553	12563.29
824.88	12528.26
825.207	12526.45
825.535	12548.82
825.862	12698.65
826.189	12479.67
826.516	12676.05
826.843	12616.84
827.17	12556.05
827.497	12575.94
827.824	12594.7
828.151	12586.56
828.478	12597.86
828.805	12584.08
829.131	12548.37
829.458	12469.95
829.785	12513.12
830.111	12522.16
830.438	12524.87
830.764	12525.77
831.09	12563.74
831.417	12483.74
831.743	12539.78
832.069	12450.75
832.395	12465.21
832.722	12514.25
833.048	12432.89
833.374	12430.86
833.7	12435.83
834.026	12464.53
834.351	12551.31
834.677	12415.04
835.003	12453.23
835.329	12425.89
835.654	12513.57
835.98	12316.96
836.306	12298.43
836.631	12365.55
836.956	12411.2
837.282	12297.76
837.607	12199.45
837.932	12249.4
838.258	12186.57
838.583	12206.91
838.908	12149.06
839.233	12128.72
839.558	12136.86
839.883	12074.71
840.208	12066.12
840.533	12065.45
840.858	12023.19
841.182	12055.05
841.507	12039.46
841.832	11922.17
842.156	11893.7
842.481	11970.31
842.805	11959.23
843.13	11900.25
843.454	11922.62
843.778	11773.25
844.103	11787.26
844.427	11779.58
844.751	11705
845.075	11717.88
845.399	11685.34
845.723	11600.15
846.047	11633.82
846.371	11506.82
846.695	11570.54
847.019	11491.22
847.343	11434.28
847.666	11292.58
847.99	11260.04
848.313	11197.45
848.637	11184.34
848.96	11246.71
849.284	11201.29
849.607	11039.48
849.931	11007.85
850.254	11010.33
850.577	10919.49
850.9	10811.92
851.223	10832.48
851.546	10839.49
851.869	10761.07
852.192	10734.18
852.515	10642.43
852.838	10604.24
853.161	10603.34
853.483	10606.05
853.806	10483.79
854.129	10478.37
854.451	10453.06
854.774	10417.58
855.096	10364.02
855.419	10271.14
855.741	10359.95
856.063	10276.79
856.385	10191.37
856.708	10258.26
857.03	10260.97
857.352	10169.68
857.674	10176.91
857.996	10055.33
858.318	10046.74
858.64	10051.04
858.961	10049.45
859.283	9990.7
859.605	9966.97
859.926	9943.92
860.248	9926.07
860.57	9903.47
860.891	9918.84
861.212	9868.22
861.534	9842.45
861.855	9792.74
862.176	9798.84
862.498	9799.06
862.819	9709.12
863.14	9707.54
863.461	9791.38
863.782	9684.04
864.103	9660.99
864.424	9703.93
864.745	9607.66
865.065	9625.74
865.386	9601.78
865.707	9540.54
866.027	9557.04
866.348	9579.64
866.668	9548.9
866.989	9519.75
867.309	9459.41
867.63	9454.67
867.95	9428
868.27	9361.34
868.59	9412.86
868.91	9388
869.23	9355.23
869.55	9302.13
869.87	9355.46
870.19	9325.63
870.51	9337.83
870.83	9312.3
871.15	9287.67
871.469	9225.97
871.789	9278.17
872.109	9206.31
872.428	9221.68
872.748	9231.85
873.067	9218.97
873.386	9133.55
873.706	9146.43
874.025	9107.11
874.344	9110.04
874.663	9147.33
874.982	9162.47
875.301	9152.08
875.62	9099.42
875.939	9093.55
876.258	9032.08
876.577	8974.45
876.896	9003.38
877.214	9054.23
877.533	8937.84
877.852	8981.91
878.17	8996.15
878.489	8924.06
878.807	8943.95
879.125	8907.56
879.444	8883.38
879.762	8919.09
880.08	8842.03
880.398	8768.81
880.716	8864.63
881.034	8770.39
881.352	8817.62
881.67	8733.56
881.988	8756.83
882.306	8773.78
882.624	8747.11
882.941	8665.99
883.259	8646.55
883.577	8628.93
883.894	8629.38
884.212	8649.04
884.529	8641.81
884.846	8550.28
885.164	8544.41
885.481	8535.82
885.798	8575.82
886.115	8490.4
886.432	8459.21
886.75	8367.46
887.067	8494.92
887.383	8444.98
887.7	8435.94
888.017	8413.79
888.334	8402.72
888.651	8339.44
888.967	8346.22
889.284	8277.52
889.6	8291.08
889.917	8169.95
890.233	8245.21
890.55	8175.15
890.866	8215.15
891.182	8131.31
891.498	8131.76
891.815	8121.14
892.131	8068.49
892.447	8023.74
892.763	8044.99
893.079	8021.48
893.395	7982.61
893.71	7987.81
894.026	7941.26
894.342	7876.4
894.657	7876.4
894.973	7902.62
895.289	7847.93
895.604	7835.27
895.92	7744.43
896.235	7779.91
896.55	7746.01
896.865	7753.69
897.181	7728.61
897.496	7717.31
897.811	7650.65
898.126	7631.66
898.441	7567.48
898.756	7474.83
899.071	7487.03
899.386	7513.7
899.7	7528.39
900.015	7383.99
900.33	7432.8
900.644	7400.48
900.959	7403.2
901.273	7352.8
901.588	7320.94
901.902	7231.9
902.216	7189.64
902.531	7195.07
902.845	7218.57
903.159	7167.27
903.473	7165.91
903.787	7118
904.101	7118.91
904.415	7080.04
904.729	7085.24
905.042	7006.37
905.356	7011.34
905.67	6969.08
905.984	6978.57
906.297	6958.24
906.611	6976.09
906.924	6878.24
907.237	6847.5
907.551	6828.07
907.864	6781.74
908.177	6769.77
908.491	6744
908.804	6736.32
909.117	6747.17
909.43	6673.72
909.743	6648.86
910.056	6659.71
910.368	6621.75
910.681	6540.84
910.994	6551.47
911.307	6536.55
911.619	6421.07
911.932	6504.91
912.244	6432.6
912.557	6415.42
912.869	6386.72
913.181	6361.41
913.494	6300.85
913.806	6325.03
914.118	6312.83
914.43	6224.92
914.742	6224.47
915.054	6205.71
915.366	6159.16
915.678	6110.57
915.99	6128.88
916.302	6049.56
916.613	6082.1
916.925	6045.49
917.236	6089.11
917.548	6017.24
917.859	6014.76
918.171	5927.98
918.482	5920.97
918.794	5913.74
919.105	5929.11
919.416	5866.51
919.727	5847.08
920.038	5862.9
920.349	5776.57
920.66	5746.29
920.971	5754.88
921.282	5776.35
921.593	5676.69
921.903	5667.42
922.214	5675.33
922.525	5656.12
922.835	5584.71
923.146	5564.15
923.456	5506.52
923.767	5516.24
924.077	5498.16
924.387	5503.58
924.697	5450.93
925.008	5453.87
925.318	5432.85
925.628	5402.8
925.938	5371.61
926.248	5349.01
926.558	5309.69
926.867	5287.54
927.177	5262.91
927.487	5246.64
927.796	5192.41
928.106	5228.79
928.416	5186.98
928.725	5131.62
929.034	5180.43
929.344	5139.3
929.653	5125.51
929.962	5063.6
930.271	5111.96
930.581	5080.54
930.89	5040.09
931.199	4969.36
931.508	4982.92
931.817	4961.9
932.125	4944.05
932.434	4922.81
932.743	4889.14
933.051	4838.29
933.36	4833.55
933.669	4835.35
933.977	4796.26
934.286	4832.42
934.594	4781.8
934.902	4736.6
935.21	4711.51
935.519	4743.83
935.827	4664.06
936.135	4654.79
936.443	4636.26
936.751	4611.86
937.059	4575.25
937.367	4594.68
937.674	4619.77
937.982	4578.41
938.29	4557.39
938.597	4541.12
938.905	4471.97
939.213	4445.31
939.52	4482.82
939.827	4477.4
940.135	4477.62
940.442	4413.22
940.749	4409.6
941.056	4404.4
941.363	4314.46
941.67	4350.39
941.977	4293.67
942.284	4274.46
942.591	4282.83
942.898	4262.49
943.205	4225.65
943.511	4233.11
943.818	4219.78
944.125	4140.68
944.431	4144.07
944.738	4190.85
945.044	4168.93
945.35	4125.77
945.657	4116.05
945.963	4055.26
946.269	4100.01
946.575	4050.74
946.881	4023.85
947.187	4020.91
947.493	3958.99
947.799	4020.91
948.105	3960.12
948.41	3924.64
948.716	3918.32
949.022	3909.05
949.327	3898.2
949.633	3827.92
949.938	3847.81
950.244	3886.23
950.549	3776.62
950.854	3825.21
951.16	3800.8
951.465	3747.47
951.77	3758.09
952.075	3770.75
952.38	3731.43
952.685	3723.74
952.99	3705.44
953.294	3679
953.599	3629.74
953.904	3648.94
954.209	3638.55
954.513	3620.7
954.818	3572.34
955.122	3561.71
955.426	3540.02
955.731	3549.96
956.035	3512.22
956.339	3549.51
956.643	3527.59
956.948	3491.89
957.252	3457.54
957.556	3468.16
957.86	3431.55
958.163	3475.16
958.467	3415.5
958.771	3412.79
959.075	3401.04
959.378	3366.92
959.682	3403.3
959.985	3357.88
960.289	3316.75
960.592	3290.99
960.896	3301.16
961.199	3278.78
961.502	3275.39
961.805	3291.44
962.108	3249.63
962.411	3235.62
962.714	3188.62
963.017	3211.89
963.32	3190.42
963.623	3148.62
963.926	3165.11
964.228	3153.82
964.531	3119.47
964.833	3147.26
965.136	3142.06
965.438	3076.53
965.741	3075.4
966.043	3085.12
966.345	3027.94
966.648	3083.31
966.95	3018.9
967.252	3032.24
967.554	3010.54
967.856	2986.81
968.158	2993.82
968.46	2965.8
968.761	2931.9
969.063	2979.58
969.365	2918.34
969.666	2929.64
969.968	2919.02
970.269	2889.87
970.571	2869.98
970.872	2877.44
971.174	2832.47
971.475	2847.83
971.776	2795.18
972.077	2778.46
972.378	2801.96
972.679	2808.29
972.98	2770.55
973.281	2777.33
973.582	2748.4
973.883	2776.42
974.183	2693.94
974.484	2764.45
974.785	2704.34
975.085	2711.57
975.386	2690.1
975.686	2696.43
975.986	2685.81
976.287	2653.26
976.587	2618.01
976.887	2609.42
977.187	2633.38
977.487	2590.89
977.787	2568.75
978.087	2615.75
978.387	2569.2
978.687	2542.76
978.987	2564.9
979.286	2539.82
979.586	2545.92
979.885	2521.52
980.185	2502.99
980.484	2477.9
980.784	2501.18
981.083	2496.21
981.382	2442.87
981.682	2498.24
981.981	2456.43
982.28	2421.18
982.579	2409.65
982.878	2432.93
983.177	2424.8
983.475	2384.8
983.774	2390.67
984.073	2393.84
984.372	2354.97
984.67	2356.32
984.969	2356.77
985.267	2333.5
985.566	2323.1
985.864	2318.36
986.162	2299.37
986.461	2301.63
986.759	2270.67
987.057	2271.13
987.355	2272.26
987.653	2275.42
987.951	2244.46
988.249	2219.15
988.547	2243.33
988.844	2205.37
989.142	2235.2
989.44	2192.26
989.737	2178.25
990.035	2195.87
990.332	2157.68
990.63	2106.61
990.927	2108.65
991.224	2144.35
991.521	2136.22
991.819	2123.79
992.116	2121.07
992.413	2068.87
992.71	2067.29
993.006	2097.57
993.303	2044.69
993.6	2017.12
993.897	2041.3
994.193	2044.69
994.49	2036.78
994.787	2004.47
995.083	2026.84
995.379	1993.62
995.676	1990.46
995.972	1958.14
996.268	1972.15
996.565	1968.99
996.861	2007.18
997.157	1930.8
997.453	1954.98
997.749	1933.96
998.044	1893.28
998.34	1899.61
998.636	1928.54
998.932	1893.06
999.227	1863.23
999.523	1870.91
999.818	1849.89
1000.114	1818.94
1000.409	1835.88
1000.704	1814.87
1001	1819.61
1001.295	1809.67
1001.59	1825.94
1001.885	1783
1002.18	1815.77
1002.475	1767.41
1002.77	1742.33
1003.065	1752.72
1003.359	1758.6
1003.654	1758.6
1003.949	1749.78
1004.243	1710.46
1004.538	1700.07
1004.832	1734.64
1005.127	1691.93
1005.421	1658.26
1005.715	1697.58
1006.009	1677.24
1006.304	1675.89
1006.598	1656.23
1006.892	1644.25
1007.186	1625.27
1007.48	1607.19
1007.773	1630.92
1008.067	1606.74
1008.361	1605.61
1008.655	1616.68
1008.948	1573.74
1009.242	1574.87
1009.535	1547.98
1009.829	1524.03
1010.122	1544.59
1010.415	1542.11
1010.708	1537.59
1011.001	1514.08
1011.295	1509.56
1011.588	1493.97
1011.881	1487.42
1012.173	1503.46
1012.466	1494.65
1012.759	1472.73
1013.052	1444.03
1013.344	1444.71
1013.637	1461.88
1013.93	1445.84
1014.222	1436.35
1014.514	1400.87
1014.807	1435.44
1015.099	1398.38
1015.391	1408.1
1015.683	1409.91
1015.976	1401.77
1016.268	1360.19
1016.56	1376.01
1016.851	1370.59
1017.143	1335.33
1017.435	1366.29
1017.727	1335.78
1018.018	1315.67
1018.31	1324.03
1018.602	1293.07
1018.893	1312.06
1019.185	1310.25
1019.476	1252.85
1019.767	1260.98
1020.058	1270.25
1020.35	1312.28
1020.641	1253.3
1020.932	1249.01
1021.223	1239.97
1021.514	1249.91
1021.804	1224.6
1022.095	1218.05
1022.386	1204.04
1022.677	1213.75
1022.967	1178.95
1023.258	1197.03
1023.548	1174.88
1023.839	1161.1
1024.129	1186.64
1024.419	1147.99
1024.709	1153.42
1025	1126.3
1025.29	1130.59
1025.58	1122.23
1025.87	1118.84
1026.16	1111.61
1026.449	1091.5
1026.739	1119.97
1027.029	1111.61
1027.319	1081.78
1027.608	1074.1
1027.898	1069.8
1028.187	1089.01
1028.477	1060.31
1028.766	1086.53
1029.055	1032.06
1029.344	1031.39
1029.634	1038.16
1029.923	1034.32
1030.212	1032.29
1030.501	1044.72
1030.79	988.9
1031.078	1009.01
1031.367	997.49
1031.656	1001.56
1031.945	1005.85
1032.233	972.18
1032.522	981.44
1032.81	970.14
1033.099	966.3
1033.387	955.68
1033.675	938.73
1033.963	931.95
1034.251	947.77
1034.54	957.04
1034.828	948.68
1035.116	924.5
1035.403	900.99
1035.691	919.07
1035.979	903.71
1036.267	887.43
1036.554	878.39
1036.842	884.04
1037.129	874.55
1037.417	904.38
1037.704	873.65
1037.992	858.96
1038.279	864.84
1038.566	849.47
1038.853	849.47
1039.14	849.47
