Data from hue_36_FLMS001491_00082.txt Node
Date: Tue Feb 07 17:30:24 GMT 2017
User: dcchb
Spectrometer: FLMS00149
Trigger mode: 0
Integration Time (sec): 2.000000E-2
Scans to average: 10
Electric dark correction enabled: true
Nonlinearity correction enabled: false
Boxcar width: 0
XAxis mode: Wavelengths
Number of Pixels in Spectrum: 2048
>>>>>Begin Spectral Data<<<<<
341.393	-4.89
341.776	-4.89
342.16	-4.89
342.543	-61.83
342.927	-48.05
343.31	-73.36
343.693	-64.32
344.077	-75.85
344.46	-79.24
344.843	-56.86
345.226	-31.1
345.61	-32.46
345.993	-13.47
346.376	-5.79
346.759	-3.53
347.142	26.07
347.525	69.01
347.908	58.16
348.291	72.85
348.674	84.15
349.057	125.73
349.44	127.99
349.823	131.83
350.206	173.41
350.588	188.1
350.971	205.28
351.354	218.84
351.737	225.62
352.119	261.55
352.502	271.49
352.884	283.47
353.267	275.56
353.65	301.55
354.032	294.54
354.414	311.94
354.797	325.95
355.179	315.56
355.562	329.34
355.944	328.89
356.326	337.48
356.709	341.09
357.091	346.97
357.473	334.31
357.855	353.97
358.238	338.38
358.62	326.18
359.002	335.9
359.384	353.3
359.766	365.05
360.148	358.04
360.53	343.35
360.912	327.99
361.294	329.57
361.676	311.94
362.057	349.23
362.439	341.09
362.821	316.23
363.203	325.5
363.584	329.34
363.966	322.11
364.348	339.28
364.729	324.82
365.111	294.77
365.493	324.14
365.874	314.2
366.256	315.33
366.637	319.62
367.019	304.26
367.4	308.78
367.781	319.17
368.163	312.84
368.544	283.47
368.925	302.45
369.306	324.6
369.688	313.75
370.069	306.74
370.45	337.25
370.831	303.58
371.212	324.82
371.593	305.39
371.974	316.01
372.355	310.59
372.736	333.41
373.117	321.43
373.498	331.6
373.879	331.6
374.26	334.31
374.641	336.12
375.021	305.16
375.402	306.07
375.783	338.38
376.163	319.62
376.544	346.74
376.925	316.91
377.305	323.69
377.686	331.83
378.066	318.72
378.447	311.26
378.827	334.09
379.208	329.79
379.588	313.3
379.968	327.08
380.349	320.75
380.729	301.77
381.109	326.86
381.489	325.05
381.87	320.75
382.25	346.29
382.63	329.34
383.01	333.18
383.39	342.45
383.77	333.86
384.15	366.18
384.53	340.87
384.91	342.67
385.29	341.54
385.67	339.51
386.049	338.61
386.429	360.75
386.809	354.65
387.189	343.13
387.568	355.56
387.948	336.12
388.328	360.08
388.707	341.77
389.087	355.1
389.466	346.52
389.846	329.34
390.225	358.95
390.605	361.66
390.984	370.92
391.363	386.29
391.743	376.35
392.122	367.53
392.501	344.03
392.881	361.43
393.26	361.43
393.639	379.96
394.018	334.54
394.397	373.86
394.776	355.1
395.155	384.48
395.534	373.86
395.913	379.96
396.292	384.26
396.671	390.81
397.05	377.25
397.429	381.54
397.808	366.63
398.186	369.57
398.565	389.45
398.944	363.24
399.323	389.68
399.701	373.18
400.08	376.8
400.458	407.53
400.837	406.18
401.215	405.5
401.594	390.36
401.972	389.91
402.351	383.58
402.729	397.59
403.107	390.13
403.486	391.71
403.864	397.36
404.242	414.99
404.62	398.04
404.999	393.52
405.377	415.89
405.755	411.37
406.133	394.88
406.511	410.92
406.889	402.56
407.267	422.9
407.645	429.23
408.023	431.71
408.401	405.95
408.779	438.72
409.156	434.42
409.534	436.46
409.912	438.49
410.29	457.93
410.667	437.81
411.045	419.96
411.422	427.87
411.8	434.88
412.178	452.28
412.555	457.93
412.933	462.9
413.31	467.64
413.687	463.35
414.065	471.71
414.442	459.28
414.819	453.41
415.197	465.84
415.574	444.82
415.951	468.1
416.328	452.73
416.705	492.05
417.082	465.61
417.46	489.11
417.837	476.68
418.214	491.15
418.591	495.44
418.967	480.52
419.344	481.88
419.721	499.28
420.098	499.73
420.475	511.03
420.852	519.62
421.228	494.08
421.605	517.59
421.982	503.12
422.358	521.88
422.735	518.26
423.111	519.85
423.488	520.3
423.864	518.94
424.241	532.73
424.617	532.5
424.994	539.05
425.37	502.9
425.746	529.56
426.123	528.88
426.499	552.16
426.875	552.39
427.251	539.51
427.627	583.8
428.003	563.01
428.379	570.69
428.756	558.94
429.132	583.57
429.507	565.72
429.883	559.84
430.259	584.25
430.635	604.14
431.011	578.37
431.387	608.88
431.763	607.3
432.138	616.34
432.514	613.63
432.89	611.59
433.265	616.34
433.641	631.48
434.016	623.57
434.392	639.39
434.767	636
435.143	619.5
435.518	643.46
435.894	652.27
436.269	674.64
436.644	665.38
437.02	660.86
437.395	646.17
437.77	664.47
438.145	669.45
438.52	658.82
438.895	679.84
439.271	658.6
439.646	694.98
440.021	682.55
440.395	682.55
440.77	691.37
441.145	720.29
441.52	697.92
441.895	704.02
442.27	714.42
442.645	705.15
443.019	716
443.394	709.22
443.769	720.52
444.143	719.61
444.518	717.81
444.892	725.26
445.267	738.14
445.641	753.96
446.016	729.56
446.39	746.73
446.764	758.93
447.139	758.48
447.513	742.21
447.887	767.52
448.262	779.27
448.636	771.14
449.01	775.21
449.384	767.3
449.758	801.42
450.132	784.24
450.506	804.13
450.88	805.04
451.254	790.35
451.628	823.34
452.002	819.95
452.376	822.21
452.75	843.45
453.123	800.74
453.497	851.59
453.871	839.38
454.244	865.37
454.618	863.34
454.992	885.94
455.365	861.53
455.739	904.47
456.112	880.06
456.486	906.73
456.859	904.02
457.232	948.31
457.606	932.26
457.979	931.59
458.352	923.9
458.725	953.96
459.099	939.72
459.472	975.2
459.845	969.32
460.218	970.91
460.591	991.47
460.964	1015.88
461.337	1019.04
461.71	1026.95
462.083	1048.64
462.456	1026.05
462.829	1057.68
463.201	1058.59
463.574	1063.79
463.947	1098.36
464.32	1123.67
464.692	1101.07
465.065	1107.4
465.438	1130
465.81	1140.17
466.183	1161.18
466.555	1218.13
466.928	1188.3
467.3	1192.37
467.672	1203.44
468.045	1194.63
468.417	1221.75
468.789	1264.23
469.161	1289.99
469.534	1318.69
469.906	1347.17
470.278	1347.17
470.65	1369.31
471.022	1393.04
471.394	1399.37
471.766	1433.95
472.138	1445.92
472.51	1470.33
472.882	1520.72
473.253	1538.58
473.625	1547.16
473.997	1614.28
474.369	1624.9
474.74	1654.28
475.112	1709.64
475.484	1707.16
475.855	1761.62
476.227	1766.82
476.598	1869.41
476.97	1874.61
477.341	1947.6
477.713	1956.87
478.084	2007.94
478.455	2043.65
478.827	2086.36
479.198	2149.86
479.569	2197.32
479.94	2292.45
480.311	2274.83
480.682	2346.24
481.053	2460.13
481.424	2480.92
481.795	2526.57
482.166	2610.64
482.537	2700.13
482.908	2717.75
483.279	2800.92
483.65	2871.42
484.021	2949.39
484.391	3022.6
484.762	3087.01
485.133	3151.64
485.503	3235.25
485.874	3277.51
486.244	3367.68
486.615	3510.27
486.985	3563.61
487.356	3672.3
487.726	3701.23
488.097	3830.49
488.467	3900.32
488.837	4049.47
489.207	4108
489.578	4235.45
489.948	4235.45
490.318	4397.26
490.688	4463.24
491.058	4538.27
491.428	4643.58
491.798	4705.05
492.168	4863.46
492.538	4924.48
492.908	5012.38
493.278	5143.23
493.648	5217.8
494.017	5296.89
494.387	5395.2
494.757	5429.77
495.126	5575.08
495.496	5608.52
495.866	5680.61
496.235	5802.64
496.605	5856.43
496.974	5975.29
497.344	6068.63
497.713	6115.4
498.082	6207.61
498.452	6307.72
498.821	6412.12
499.19	6443.31
499.559	6521.04
499.928	6629.51
500.298	6707.93
500.667	6753.58
501.036	6836.06
501.405	6927.81
501.774	6915.16
502.143	7028.37
502.512	7043.29
502.88	7166
503.249	7244.87
503.618	7266.79
503.987	7409.16
504.356	7457.74
504.724	7546.78
505.093	7541.13
505.462	7562.15
505.83	7647.34
506.199	7838.07
506.567	7915.36
506.936	7910.16
507.304	8010.04
507.672	8092.98
508.041	8119.19
508.409	8172.75
508.777	8274.9
509.145	8310.83
509.514	8396.93
509.882	8446.19
510.25	8510.82
510.618	8532.97
510.986	8603.25
511.354	8715.34
511.722	8707.43
512.09	8877.14
512.458	8855.9
512.826	8913.07
513.193	8898.83
513.561	8999.17
513.929	9108.77
514.297	9165.04
514.664	9271.03
515.032	9221.76
515.4	9378.6
515.767	9381.53
516.135	9456.33
516.502	9377.01
516.869	9539.49
517.237	9613.84
517.604	9574.52
517.972	9696.55
518.339	9798.92
518.706	9778.36
519.073	9801.63
519.44	9867.62
519.808	10040.05
520.175	9988.97
520.542	10194.62
520.909	10195.52
521.276	10278.23
521.643	10402.98
522.009	10336.08
522.376	10440.04
522.743	10404.1
523.11	10555.29
523.477	10600.26
523.843	10640.03
524.21	10783.08
524.577	10899.91
524.943	10926.58
525.31	10914.37
525.676	11046.12
526.043	11129.51
526.409	11140.36
526.776	11194.82
527.142	11296.74
527.508	11336.74
527.874	11485.88
528.241	11486.11
528.607	11585.99
528.973	11691.08
529.339	11620.12
529.705	11789.15
530.071	11828.47
530.437	11908.47
530.803	11975.59
531.169	12027.79
531.535	12006.77
531.901	12070.73
532.267	12103.72
532.632	12246.99
532.998	12238.86
533.364	12371.51
533.73	12364.28
534.095	12506.87
534.461	12529.47
534.826	12551.17
535.192	12624.39
535.557	12793.65
535.923	12816.02
536.288	12793.42
536.653	12774.66
537.019	12875.23
537.384	12877.71
537.749	12965.85
538.114	13049.69
538.479	13050.59
538.845	13158.38
539.21	13179.4
539.575	13257.36
539.94	13215.78
540.305	13359.73
540.67	13397.02
541.034	13390.47
541.399	13454.87
541.764	13552.5
542.129	13511.14
542.494	13580.52
542.858	13607.64
543.223	13639.05
543.587	13663.23
543.952	13746.16
544.316	13822.55
544.681	13827.07
545.045	13983.45
545.41	14117.91
545.774	14140.28
546.138	14120.84
546.503	14158.58
546.867	14216.21
547.231	14332.82
547.595	14388.18
547.959	14364.9
548.324	14425.92
548.688	14394.73
549.052	14576.2
549.416	14513.83
549.779	14515.41
550.143	14600.38
550.507	14779.36
550.871	14776.19
551.235	14756.76
551.599	14887.38
551.962	15054.83
552.326	14924.89
552.689	14978.9
553.053	15025.23
553.417	15060.25
553.78	15281.49
554.143	15141.38
554.507	15245.79
554.87	15285.56
555.234	15499.79
555.597	15430.64
555.96	15433.35
556.323	15507.02
556.686	15586.34
557.05	15650.07
557.413	15658.66
557.776	15723.06
558.139	15871.53
558.502	15823.62
558.865	15921.47
559.228	16095.48
559.59	15978.42
559.953	16077.63
560.316	16245.08
560.679	16181.13
561.041	16344.29
561.404	16376.83
561.767	16436.04
562.129	16365.76
562.492	16634.45
562.854	16568.69
563.217	16495.92
563.579	16664.96
563.941	16733.66
564.304	16867.44
564.666	16992.86
565.028	16964.84
565.39	17058.85
565.753	17135.23
566.115	17201.89
566.477	17265.17
566.839	17281.89
567.201	17377.93
567.563	17421.32
567.925	17437.59
568.287	17501.09
568.648	17588.1
569.01	17686.85
569.372	17796.45
569.734	17791.71
570.095	17926.17
570.457	18039.38
570.819	17988.99
571.18	18160.51
571.542	18114.18
571.903	18249.55
572.265	18276.67
572.626	18425.59
572.987	18468.07
573.349	18530.44
573.71	18546.04
574.071	18618.13
574.432	18735.64
574.794	19004.56
575.155	18943.54
575.516	19034.39
575.877	19118.45
576.238	19199.81
576.599	19292.23
576.96	19420.82
577.32	19383.3
577.681	19562.73
578.042	19768.83
578.403	19847.02
578.763	20035.49
579.124	19997.53
579.485	20397.51
579.845	20459.43
580.206	20550.05
580.566	20702.37
580.927	20830.05
581.287	20990.04
581.648	21089.47
582.008	21339.18
582.368	21420.99
582.728	21567.65
583.089	21668.22
583.449	21908.21
583.809	22099.84
584.169	22194.3
584.529	22359.04
584.889	22755.64
585.249	22702.76
585.609	22855.3
585.969	23268.63
586.329	23399.24
586.688	23606.24
587.048	23804.66
587.408	23938.44
587.768	24098.43
588.127	24273.12
588.487	24537.97
588.846	24853.22
589.206	24862.93
589.565	25170.72
589.925	25448.68
590.284	25654.33
590.643	25838.5
591.003	26068.1
591.362	26351.93
591.721	26450.24
592.08	26815.65
592.44	27030.11
592.799	27180.84
593.158	27372.47
593.517	27597.55
593.876	27788.73
594.235	27984.89
594.593	28285.22
594.952	28516.85
595.311	28700.35
595.67	28879.33
596.029	29341.91
596.387	29520.89
596.746	29693.77
597.104	29823.48
597.463	29867.32
597.822	30260.31
598.18	30237.93
598.538	30528.77
598.897	30889.44
599.255	30828.43
599.613	31449.88
599.972	31393.61
600.33	31723.32
600.688	31928.96
601.046	32064.78
601.404	32289.18
601.762	32291.67
602.12	32728.72
602.478	32914.25
602.836	32993.57
603.194	32971.87
603.552	33268.59
603.91	33281.24
604.268	33739.54
604.625	33685.98
604.983	34073.09
605.341	33873.32
605.698	34265.17
606.056	34448.9
606.413	34498.84
606.771	34852.05
607.128	34988.77
607.485	34932.05
607.843	35043.01
608.2	35294.52
608.557	35426.5
608.914	35473.5
609.272	35986.48
609.629	35960.04
609.986	36203.43
610.343	36217.44
610.7	36461.95
611.057	36508.5
611.414	36681.61
611.771	36841.38
612.127	36988.26
612.484	37051.09
612.841	37256.96
613.198	37263.74
613.554	37245.89
613.911	37730.39
614.267	37753.22
614.624	37713.22
614.98	37931.97
615.337	38083.83
615.693	38125.41
616.05	38167.44
616.406	38488.11
616.762	38449.92
617.118	38502.12
617.475	38590.48
617.831	38827.54
618.187	38806.3
618.543	38884.26
618.899	39203.12
619.255	39102.79
619.611	39099.85
619.967	39319.95
620.323	39394.08
620.678	39434.3
621.034	39259.84
621.39	39431.36
621.746	39357.47
622.101	39839.94
622.457	39544.81
622.812	39753.16
623.168	39879.04
623.523	39961.97
623.879	39987.28
624.234	39945.48
624.589	40045.59
624.945	40166.94
625.3	40149.31
625.655	40366.26
626.01	40169.42
626.365	40360.15
626.72	40185.24
627.075	40331.68
627.43	40357.89
627.785	40263.66
628.14	40382.07
628.495	40340.72
628.85	40727.6
629.205	40372.13
629.559	40714.49
629.914	40514.05
630.269	40564.89
630.623	40542.52
630.978	40399.7
631.332	40612.35
631.687	40782.74
632.041	40538.23
632.396	40695.06
632.75	40498.68
633.104	40588.85
633.459	40544.33
633.813	40392.92
634.167	40477.44
634.521	40639.24
634.875	40627.27
635.229	40596.08
635.583	40476.53
635.937	40512.69
636.291	40506.59
636.645	40529.87
636.999	40438.34
637.352	40573.48
637.706	40306.6
638.06	40646.47
638.413	40451.22
638.767	40282.42
639.121	40535.97
639.474	40170.1
639.828	40118.13
640.181	40335.75
640.534	40259.14
640.888	40177.56
641.241	40034.96
641.594	40248.52
641.947	40265.92
642.301	40134.17
642.654	40240.61
643.007	40309.76
643.36	40115.64
643.713	39991.58
644.066	40220.95
644.419	39981.41
644.771	39776.89
645.124	39308.43
645.477	39213.06
645.83	39112.95
646.182	39032.05
646.535	38870.7
646.888	39096.23
647.24	38817.6
647.593	39071.83
647.945	38938.72
648.298	38804.94
648.65	38737.82
649.002	38729.24
649.355	38791.61
649.707	38808.33
650.059	38868.44
650.411	39328.54
650.763	39401.53
651.115	39870.67
651.467	39653.73
651.819	39744.35
652.171	39524.47
652.523	39401.08
652.875	39571.02
653.227	39310.24
653.578	39511.81
653.93	39460.97
654.282	39266.17
654.633	39277.7
654.985	39311.82
655.337	39406.51
655.688	39352.04
656.039	39373.51
656.391	39293.97
656.742	39268.43
657.094	39263.46
657.445	39339.16
657.796	39339.62
658.147	39181.88
658.498	39209.68
658.849	39323.57
659.2	39271.14
659.551	39094.88
659.902	39309.79
660.253	39167.42
660.604	39354.76
660.955	39057.14
661.306	39257.81
661.656	39245.83
662.007	39239.5
662.358	39034.54
662.708	39208.09
663.059	39200.18
663.409	38980.98
663.76	39143.69
664.11	39222.1
664.461	39186.85
664.811	39184.37
665.161	39226.62
665.511	39072.73
665.862	39080.41
666.212	39078.15
666.562	39191.6
666.912	38985.95
667.262	39138.94
667.612	38983.24
667.962	39204.7
668.312	38973.07
668.662	39299.84
669.011	39021.88
669.361	38949.12
669.711	38872.96
670.06	38849.68
670.41	38934.43
670.76	38879.51
671.109	38994.99
671.459	38817.37
671.808	38932.17
672.157	38986.86
672.507	38641.78
672.856	38734.89
673.205	38786.18
673.554	38889.91
673.904	38744.15
674.253	39062.56
674.602	38717.26
674.951	38313.88
675.3	38076.37
675.649	38775.11
675.998	38730.82
676.346	38852.17
676.695	38709.35
677.044	38444.72
677.393	38606.75
677.741	38569.92
678.09	38540.77
678.438	38482.91
678.787	38617.15
679.135	38483.59
679.484	38251.96
679.832	38548.68
680.181	38271.85
680.529	38462.12
680.877	38291.06
681.225	38229.59
681.573	38359.98
681.922	38087.44
682.27	38088.57
682.618	38019.88
682.966	37938.07
683.314	37952.53
683.661	37783.27
684.009	37649.04
684.357	37649.94
684.705	37750.5
685.053	37709.38
685.4	37582.6
685.748	37412.66
686.095	37552.54
686.443	37311.42
686.79	37292.44
687.138	37421.47
687.485	37398.2
687.832	37148.26
688.18	37299.89
688.527	37118.66
688.874	37032.11
689.221	36827.14
689.568	36870.75
689.915	36737.2
690.262	36766.35
690.609	36739.23
690.956	36627.37
691.303	36577.43
691.65	36433.7
691.997	36369.07
692.344	36205.01
692.69	36242.52
693.037	36160.49
693.383	35979.03
693.73	36003.66
694.077	35863.55
694.423	35630.33
694.769	35651.58
695.116	35562.99
695.462	35607.28
695.808	35449.1
696.155	35468.3
696.501	35233.51
696.847	35186.96
697.193	35040.75
697.539	35193.96
697.885	34913.29
698.231	34744.03
698.577	34700.19
698.923	34659.06
699.269	34625.16
699.614	34437.37
699.96	34424.04
700.306	34429.91
700.651	34193.76
700.997	34170.94
701.342	34118.28
701.688	33994.22
702.033	33838.52
702.379	33792.64
702.724	33822.02
703.069	33898.4
703.415	33420.67
703.76	33521.69
704.105	33531.41
704.45	33452.31
704.795	33222.26
705.14	33100.91
705.485	33133
705.83	33058.88
706.175	33031.76
706.52	32894.81
706.865	32902.27
707.209	32753.8
707.554	32724.65
707.899	32834.02
708.243	32559.68
708.588	32474.71
708.932	32369.63
709.277	32396.75
709.621	32468.16
709.966	32078.11
710.31	32101.84
710.654	31936.65
710.998	32057.09
711.342	32063.65
711.687	31893.03
712.031	31911.56
712.375	31565.13
712.719	31744.11
713.063	31581.85
713.407	31580.95
713.75	31555.41
714.094	31493.49
714.438	31349.09
714.782	31470.44
715.125	31142.99
715.469	31267.06
715.812	31104.58
716.156	31006.73
716.499	30921.98
716.843	31018.7
717.186	30830.69
717.53	30911.36
717.873	30943.23
718.216	30748.65
718.559	30604.7
718.902	30487.64
719.246	30559.96
719.589	30469.34
719.932	30406.06
720.275	30412.62
720.617	30310.02
720.96	30221.21
721.303	30257.59
721.646	30285.16
721.989	30138.5
722.331	30036.36
722.674	30013.53
723.016	30021.22
723.359	29962.91
723.701	30105.73
724.044	29825.52
724.386	29747.1
724.729	29926.76
725.071	29717.5
725.413	29724.5
725.755	29669.14
726.097	29554.34
726.439	29385.53
726.782	29352.76
727.124	29539.42
727.465	29358.63
727.807	29412.19
728.149	29277.73
728.491	29252.2
728.833	29314.12
729.175	29097.62
729.516	29014.92
729.858	29041.36
730.199	29108.92
730.541	28906.67
730.882	28906.22
731.224	29047
731.565	28828.71
731.906	28800.01
732.248	28914.58
732.589	28719.33
732.93	28656.05
733.271	28745.09
733.612	28647.47
733.953	28689.5
734.294	28576.96
734.635	28494.7
734.976	28556.85
735.317	28373.35
735.658	28350.98
735.999	28375.61
736.339	28374.03
736.68	28329.51
737.021	28184.2
737.361	28184.88
737.702	28283.18
738.042	28188.04
738.383	28155.73
738.723	28147.59
739.063	28051.55
739.404	28143.53
739.744	27979.46
740.084	27862.4
740.424	27871.22
740.764	27833.93
741.104	27916.64
741.444	27725.91
741.784	27602.52
742.124	27655.85
742.464	27827.83
742.804	27619.47
743.143	27670.32
743.483	27604.78
743.823	27422.87
744.162	27423.32
744.502	27419.7
744.841	27347.39
745.181	27398.01
745.52	27299.03
745.86	27323.89
746.199	27269.42
746.538	27210.22
746.877	27300.61
747.216	27263.55
747.556	27107.39
747.895	27170.22
748.234	27099.49
748.573	26905.14
748.911	26999.37
749.25	26939.49
749.589	26904.69
749.928	26828.08
750.267	26885.03
750.605	26723.45
750.944	26628.31
751.283	26641.19
751.621	26644.13
751.96	26469.22
752.298	26513.74
752.636	26477.58
752.975	26392.61
753.313	26265.61
753.651	26460.63
753.989	26270.81
754.327	26182.22
754.666	26069
755.004	26138.83
755.342	26240.98
755.679	26062.68
756.017	25856.81
756.355	26000.31
756.693	25859.74
757.031	25859.74
757.368	25691.16
757.706	25713.08
758.044	25672.18
758.381	25652.74
758.719	25569.81
759.056	25534.55
759.394	25389.7
759.731	25205.75
760.068	25223.6
760.405	25182.02
760.743	25042.59
761.08	25069.03
761.417	24942.03
761.754	24950.16
762.091	24865.19
762.428	24772.31
762.765	24518.76
763.102	24755.59
763.438	24601.02
763.775	24438.99
764.112	24505.66
764.449	24417.3
764.785	24435.15
765.122	24335.49
765.458	24142.27
765.795	24038.32
766.131	24111.99
766.467	23979.34
766.804	23868.84
767.14	23719.01
767.476	23799.23
767.812	23713.59
768.148	23582.74
768.485	23455.29
768.821	23418.68
769.157	23423.42
769.492	23387.94
769.828	23388.17
770.164	23059.14
770.5	22995.86
770.836	23029.99
771.171	22853.95
771.507	22824.34
771.842	22597.68
772.178	22653.27
772.513	22592.26
772.849	22486.05
773.184	22373.73
773.519	22494.18
773.855	22225.72
774.19	22168.99
774.525	22074.76
774.86	22107.75
775.195	22004.25
775.53	21999.28
775.865	21809.68
776.2	21606.97
776.535	21483.59
776.87	21538.05
777.205	21426.19
777.539	21359.52
777.874	21357.49
778.209	21158.62
778.543	21296.25
778.878	21126.99
779.212	21030.72
779.547	20874.56
779.881	21033.43
780.215	20790.5
780.55	20880.21
780.884	20596.61
781.218	20596.15
781.552	20635.02
781.886	20551.86
782.22	20381.47
782.554	20403.39
782.888	20155.04
783.222	20168.37
783.556	19957.07
783.889	20013.57
784.223	19872.1
784.557	19934.48
784.89	19823.52
785.224	19706.01
785.557	19667.36
785.891	19604.09
786.224	19539.91
786.558	19505.56
786.891	19408.39
787.224	19272.35
787.557	19324.1
787.891	19186.7
788.224	19165
788.557	19117.32
788.89	18987.38
789.223	19003.43
789.556	18948.29
789.888	18857.67
790.221	18809.99
790.554	18609.54
790.887	18654.28
791.219	18604.79
791.552	18479.37
791.884	18369.77
792.217	18277.8
792.549	18249.32
792.882	18187.63
793.214	18109.21
793.546	18143.11
793.879	17981.08
794.211	17888.88
794.543	18008.65
794.875	17841.65
795.207	17900.86
795.539	17783.8
795.871	17832.61
796.203	17596.01
796.535	17585.39
796.867	17505.16
797.198	17519.62
797.53	17462.68
797.862	17269.91
798.193	17394.43
798.525	17188.79
798.856	17270.59
799.188	16980.66
799.519	16990.6
799.85	16866.08
800.182	17030.6
800.513	16923.03
800.844	16769.36
801.175	16850.72
801.506	16854.1
801.837	16786.31
802.168	16714
802.499	16633.09
802.83	16539.99
803.161	16418.18
803.491	16469.93
803.822	16438.97
804.153	16370.95
804.483	16164.18
804.814	16209.6
805.145	16121.47
805.475	16053
805.805	16104.52
806.136	16042.83
806.466	16064.97
806.796	16014.35
807.126	15878.09
807.457	15867.01
807.787	15860.23
808.117	15740.69
808.447	15720.35
808.777	15690.75
809.107	15649.16
809.436	15668.15
809.766	15580.69
810.096	15506.57
810.426	15415.05
810.755	15493.91
811.085	15426.8
811.414	15342.73
811.744	15272.23
812.073	15246.01
812.403	15257.08
812.732	15160.36
813.061	15148.84
813.39	15086.69
813.719	15010.09
814.049	15162.4
814.378	15020.48
814.707	14954.72
815.036	14999.01
815.365	14805.12
815.693	14764.22
816.022	14787.04
816.351	14747.04
816.68	14657.55
817.008	14680.6
817.337	14560.38
817.665	14553.37
817.994	14622.07
818.322	14607.84
818.651	14533.94
818.979	14463.21
819.307	14491.91
819.636	14485.81
819.964	14343.89
820.292	14370.33
820.62	14394.73
820.948	14302.31
821.276	14315.64
821.604	14290.1
821.932	14342.08
822.259	14293.27
822.587	14285.13
822.915	14234.51
823.243	14258.69
823.57	14285.13
823.898	14253.72
824.225	14239.03
824.553	14212.59
824.88	14257.11
825.207	14177.11
825.535	14177.79
825.862	14251.91
826.189	14221.86
826.516	14217.79
826.843	14294.62
827.17	14212.14
827.497	14219.82
827.824	14281.52
828.151	14316.09
828.478	14229.77
828.805	14262.08
829.131	14188.64
829.458	14136.89
829.785	14100.05
830.111	14100.96
830.438	14242.2
830.764	14157.9
831.09	14222.31
831.417	14130.56
831.743	14111.58
832.069	14197.9
832.395	14063.9
832.722	14151.13
833.048	14104.35
833.374	13987.97
833.7	14041.07
834.026	14089.43
834.351	14012.15
834.677	14056.89
835.003	14077.45
835.329	14030.9
835.654	14019.15
835.98	14011.47
836.306	13890.34
836.631	13970.56
836.956	14008.08
837.282	13921.07
837.607	13866.39
837.932	13874.52
838.258	13817.35
838.583	13891.7
838.908	13688.09
839.233	13609.67
839.558	13762.21
839.883	13606.28
840.208	13592.04
840.533	13589.78
840.858	13616.22
841.182	13601.08
841.507	13595.43
841.832	13524.25
842.156	13561.54
842.481	13494.19
842.805	13506.85
843.13	13509.33
843.454	13352.95
843.778	13312.5
844.103	13349.11
844.427	13277.02
844.751	13284.48
845.075	13209.45
845.399	13184.6
845.723	13030.25
846.047	13207.65
846.371	13043.13
846.695	13095.56
847.019	12943.47
847.343	12881.1
847.666	12799.52
847.99	12793.42
848.313	12698.06
848.637	12752.97
848.96	12704.61
849.284	12675.68
849.607	12537.61
849.931	12513.88
850.254	12408.12
850.577	12391.4
850.9	12306.2
851.223	12299.65
851.546	12231.63
851.869	12167.45
852.192	12216.26
852.515	12035.7
852.838	11942.14
853.161	11990.73
853.483	11964.06
853.806	11926.78
854.129	11899.66
854.451	11815.14
854.774	11754.8
855.096	11777.4
855.419	11749.83
855.741	11750.74
856.063	11593.23
856.385	11586.45
856.708	11546.67
857.03	11518.88
857.352	11488.14
857.674	11420.58
857.996	11474.36
858.318	11369.28
858.64	11278.21
858.961	11329.5
859.283	11288.6
859.605	11183.75
859.926	11255.61
860.248	11187.59
860.57	11162.05
860.891	11145.55
861.212	11114.14
861.534	11092
861.855	11126.8
862.176	11041.38
862.498	11010.19
862.819	10986.91
863.14	10952.34
863.461	10922.51
863.782	10916.63
864.103	10969.97
864.424	10873.7
864.745	10885.22
865.065	10787.37
865.386	10847.71
865.707	10736.07
866.027	10917.54
866.348	10734.94
866.668	10803.42
866.989	10725.9
867.309	10653.14
867.63	10716.19
867.95	10674.83
868.27	10633.7
868.59	10662.4
868.91	10636.87
869.23	10614.04
869.55	10601.84
869.87	10656.75
870.19	10624.44
870.51	10561.16
870.83	10569.07
871.15	10491.11
871.469	10490.66
871.789	10550.99
872.109	10509.19
872.428	10403.2
872.748	10477.1
873.067	10445.91
873.386	10388.74
873.706	10399.81
874.025	10349.19
874.344	10320.72
874.663	10334.73
874.982	10332.47
875.301	10238.91
875.62	10240.72
875.939	10186.03
876.258	10295.18
876.577	10156.2
876.896	10162.08
877.214	10200.49
877.533	10172.02
877.852	10109.65
878.17	10215.86
878.489	10092.47
878.807	10097.45
879.125	10120.95
879.444	10109.42
879.762	10004.12
880.08	10078.01
880.398	9983.55
880.716	10007.05
881.034	9963.21
881.352	9953.95
881.67	9959.6
881.988	9917.11
882.306	9856.1
882.624	9850.22
882.941	9866.49
883.259	9775.87
883.577	9700.17
883.894	9797.79
884.212	9727.51
884.529	9790.11
884.846	9674.41
885.164	9676.21
885.481	9675.31
885.798	9592.15
886.115	9599.83
886.432	9617.68
886.75	9614.52
887.067	9602.54
887.383	9487.07
887.7	9581.08
888.017	9527.52
888.334	9485.26
888.651	9418.59
888.967	9497.24
889.284	9327.07
889.6	9429.89
889.917	9285.72
890.233	9286.39
890.55	9226.06
890.866	9296.56
891.182	9166.85
891.498	9214.76
891.815	9202.1
892.131	9120.52
892.447	9080.07
892.763	9087.76
893.079	9137.02
893.395	9060.86
893.71	8976.35
894.026	9009.11
894.342	8938.15
894.657	8874.88
894.973	8872.17
895.289	8857.7
895.604	8880.53
895.92	8841.43
896.235	8779.97
896.55	8785.84
896.865	8718.95
897.181	8706.3
897.496	8665.17
897.811	8655.68
898.126	8560.54
898.441	8625.85
898.756	8543.14
899.071	8542.46
899.386	8479.41
899.7	8502.91
900.015	8429.02
900.33	8340.88
900.644	8346.76
900.959	8361.9
901.273	8285.29
901.588	8259.98
901.902	8269.25
902.216	8225.41
902.531	8263.6
902.845	8133.66
903.159	8096.14
903.473	8055.69
903.787	7963.27
904.101	8056.82
904.415	7975.47
904.729	7937.96
905.042	7967.11
905.356	7871.97
905.67	7943.83
905.984	7929.82
906.297	7930.27
906.611	7777.06
906.924	7810.5
907.237	7767.79
907.551	7749.26
907.864	7674.23
908.177	7649.15
908.491	7655.93
908.804	7560.56
909.117	7526.89
909.43	7508.14
909.743	7493.22
910.056	7448.93
910.368	7476.05
910.681	7370.74
910.994	7395.6
911.307	7327.12
911.619	7303.85
911.932	7310.4
912.244	7236.96
912.557	7251.42
912.869	7201.03
913.181	7186.34
913.494	7174.13
913.806	7078.77
914.118	7130.07
914.43	7039.67
914.742	7005.78
915.054	6984.99
915.366	7034.25
915.678	6947.02
915.99	6958.32
916.302	6835.61
916.613	6840.58
916.925	6836.29
917.236	6824.76
917.548	6781.83
917.859	6756.97
918.171	6708.38
918.482	6689.17
918.794	6683.52
919.105	6676.75
919.416	6601.95
919.727	6587.03
920.038	6573.47
920.349	6509.29
920.66	6498.22
920.971	6489.18
921.282	6433.14
921.593	6368.05
921.903	6381.39
922.214	6301.84
922.525	6296.42
922.835	6305
923.146	6291.22
923.456	6285.34
923.767	6163.54
924.077	6188.4
924.387	6242.63
924.697	6144.78
925.008	6194.5
925.318	6148.62
925.628	6113.14
925.938	6050.55
926.248	6013.03
926.558	6006.93
926.867	5936.43
927.177	6020.72
927.487	5953.6
927.796	5908.86
928.106	5877.22
928.416	5867.95
928.725	5887.16
929.034	5817.11
929.344	5803.55
929.653	5732.36
929.962	5761.52
930.271	5716.32
930.581	5689.88
930.89	5678.35
931.199	5617.34
931.508	5594.29
931.817	5612.82
932.125	5531.24
932.434	5583.67
932.743	5553.16
933.051	5458.47
933.36	5497.79
933.669	5435.65
933.977	5397.46
934.286	5406.5
934.594	5362.2
934.902	5310
935.21	5333.96
935.519	5323.33
935.827	5315.65
936.135	5243.56
936.443	5211.47
936.751	5193.62
937.059	5217.12
937.367	5138.48
937.674	5135.32
937.982	5138.93
938.29	5081.76
938.597	5089.22
938.905	5040.18
939.213	5041.99
939.52	5019.16
939.827	4976.68
940.135	4967.19
940.442	4944.14
940.749	4931.93
941.056	4944.14
941.363	4915.44
941.67	4826.4
941.977	4805.61
942.284	4783.69
942.591	4804.25
942.898	4754.31
943.205	4779.39
943.511	4779.17
943.818	4746.85
944.125	4691.26
944.431	4641.77
944.738	4677.48
945.044	4671.37
945.35	4609.23
945.657	4593.64
945.963	4578.04
946.269	4539.63
946.575	4561.55
946.881	4519.97
947.187	4532.85
947.493	4503.92
947.799	4461.89
948.105	4429.57
948.41	4426.86
948.716	4413.3
949.022	4434.54
949.327	4380.53
949.633	4322.91
949.938	4337.82
950.244	4343.25
950.549	4287.2
950.854	4319.97
951.16	4280.2
951.465	4246.53
951.77	4223.25
952.075	4188.45
952.38	4142.57
952.685	4199.52
952.99	4124.72
953.294	4163.14
953.599	4134.44
953.904	4078.62
954.209	4031.84
954.513	4070.71
954.818	4068.45
955.122	4022.8
955.426	4049.47
955.731	3959.75
956.035	3940.55
956.339	3940.77
956.643	3982.8
956.948	3918.4
957.252	3903.71
957.556	3929.7
957.86	3881.34
958.163	3857.16
958.467	3838.63
958.771	3859.42
959.075	3787.56
959.378	3818.52
959.682	3811.06
959.985	3761.57
960.289	3717.95
960.592	3709.37
960.896	3702.36
961.199	3696.26
961.502	3658.52
961.805	3639.76
962.108	3608.13
962.411	3602.02
962.714	3592.76
963.017	3583.95
963.32	3541.69
963.623	3537.17
963.926	3551.18
964.228	3484.96
964.531	3519.54
964.833	3471.63
965.136	3475.02
965.438	3458.3
965.741	3466.66
966.043	3477.73
966.345	3434.12
966.648	3389.6
966.95	3393.67
967.252	3364.52
967.554	3386.66
967.856	3380.33
968.158	3318.19
968.46	3305.08
968.761	3291.75
969.063	3316.16
969.365	3256.95
969.666	3240.45
969.968	3213.79
970.269	3234.8
970.571	3224.18
970.872	3207.01
971.174	3151.64
971.475	3194.13
971.776	3169.27
972.077	3196.16
972.378	3130.4
972.679	3164.3
972.98	3084.98
973.281	3107.57
973.582	3077.52
973.883	3098.31
974.183	3055.15
974.484	3034.36
974.785	3075.94
975.085	3039.78
975.386	3005.2
975.686	3039.78
975.986	2976.5
976.287	2999.1
976.587	2931.31
976.887	2954.13
977.187	2963.17
977.487	2917.97
977.787	2914.36
978.087	2874.36
978.387	2884.75
978.687	2856.73
978.987	2850.63
979.286	2841.59
979.586	2856.05
979.885	2792.55
980.185	2767.92
980.484	2772.67
980.784	2785.55
981.083	2745.55
981.382	2721.14
981.682	2758.43
981.981	2698.54
982.28	2710.52
982.579	2719.11
982.878	2691.31
983.177	2673.46
983.475	2708.04
983.774	2670.97
984.073	2652.9
984.372	2659.9
984.67	2616.74
984.969	2624.87
985.267	2617.64
985.566	2630.75
985.864	2599.11
986.162	2554.37
986.461	2584.2
986.759	2528.38
987.057	2532.22
987.355	2520.92
987.653	2490.19
987.951	2510.3
988.249	2474.14
988.547	2469.17
988.844	2454.03
989.142	2475.05
989.44	2421.72
989.737	2390.08
990.035	2452.22
990.332	2392.79
990.63	2398.44
990.927	2382.17
991.224	2371.55
991.521	2360.7
991.819	2358.21
992.116	2329.52
992.413	2341.27
992.71	2328.61
993.006	2306.92
993.303	2272.79
993.6	2290.65
993.897	2256.75
994.193	2289.06
994.49	2246.58
994.787	2221.72
995.083	2194.15
995.379	2221.72
995.676	2193.47
995.972	2203.42
996.268	2183.76
996.565	2184.21
996.861	2154.6
997.157	2174.26
997.453	2174.49
997.749	2155.51
998.044	2120.93
998.34	2148.28
998.636	2099.46
998.932	2099.46
999.227	2064.89
999.523	2064.21
999.818	2068.5
1000.114	2039.35
1000.409	2076.87
1000.704	2054.72
1001	2059.47
1001.295	2022.4
1001.59	2030.77
1001.885	2032.57
1002.18	1966.81
1002.475	1956.87
1002.77	1967.49
1003.065	1956.87
1003.359	1928.62
1003.654	1918.68
1003.949	1898.57
1004.243	1878.45
1004.538	1891.11
1004.832	1889.3
1005.127	1874.39
1005.421	1894.05
1005.715	1861.96
1006.009	1858.11
1006.304	1867.38
1006.598	1812.69
1006.892	1822.41
1007.186	1812.24
1007.48	1820.83
1007.773	1786.03
1008.067	1812.01
1008.361	1757.1
1008.655	1759.13
1008.948	1741.73
1009.242	1718.91
1009.535	1724.33
1009.829	1728.17
1010.122	1706.71
1010.415	1700.83
1010.708	1705.35
1011.001	1675.52
1011.295	1667.61
1011.588	1667.39
1011.881	1655.41
1012.173	1646.82
1012.466	1656.09
1012.759	1632.58
1013.052	1604.11
1013.344	1620.38
1013.637	1627.16
1013.93	1599.59
1014.222	1580.38
1014.514	1574.96
1014.807	1560.72
1015.099	1539.71
1015.391	1546.94
1015.683	1528.86
1015.976	1513.72
1016.268	1504.23
1016.56	1526.37
1016.851	1497.45
1017.143	1486.83
1017.435	1494.73
1017.727	1454.74
1018.018	1506.49
1018.31	1442.98
1018.602	1461.29
1018.893	1417.45
1019.185	1432.59
1019.476	1407.28
1019.767	1405.7
1020.058	1396.66
1020.35	1400.27
1020.641	1363.89
1020.932	1350.33
1021.223	1356.89
1021.514	1336.09
1021.804	1352.37
1022.095	1354.4
1022.386	1344
1022.677	1325.02
1022.967	1317.34
1023.258	1269.66
1023.548	1313.27
1023.839	1287.73
1024.129	1287.96
1024.419	1265.36
1024.709	1269.88
1025	1267.17
1025.29	1237.57
1025.58	1230.79
1025.87	1211.13
1026.16	1209.54
1026.449	1213.39
1026.739	1207.51
1027.029	1239.6
1027.319	1195.76
1027.608	1190.11
1027.898	1191.69
1028.187	1174.07
1028.477	1126.61
1028.766	1160.51
1029.055	1150.56
1029.344	1126.83
1029.634	1146.04
1029.923	1094.75
1030.212	1101.3
1030.501	1144.24
1030.79	1078.47
1031.078	1094.52
1031.367	1097.46
1031.656	1054.75
1031.945	1074.18
1032.233	1085.25
1032.522	1096.55
1032.81	1054.75
1033.099	1049.55
1033.387	1055.65
1033.675	1025.14
1033.963	1028.98
1034.251	1027.4
1034.54	1023.33
1034.828	1006.39
1035.116	1001.19
1035.403	985.82
1035.691	991.92
1035.979	972.26
1036.267	991.47
1036.554	986.95
1036.842	967.74
1037.129	983.56
1037.417	969.55
1037.704	965.26
1037.992	948.08
1038.279	927.52
1038.566	934.75
1038.853	934.75
1039.14	934.75
