Data from hue_200_FLMS001491_00064.txt Node
Date: Tue Feb 07 16:43:46 GMT 2017
User: dcchb
Spectrometer: FLMS00149
Trigger mode: 0
Integration Time (sec): 2.000000E-2
Scans to average: 10
Electric dark correction enabled: true
Nonlinearity correction enabled: false
Boxcar width: 0
XAxis mode: Wavelengths
Number of Pixels in Spectrum: 2048
>>>>>Begin Spectral Data<<<<<
341.393	-10.42
341.776	-10.42
342.16	-10.42
342.543	-74.15
342.927	-80.25
343.31	-79.35
343.693	-70.53
344.077	-78.22
344.46	-64.43
344.843	-43.42
345.226	-44.77
345.61	-36.41
345.993	-18.56
346.376	-5.45
346.759	14.89
347.142	15.56
347.525	50.59
347.908	68.22
348.291	66.64
348.674	126.75
349.057	98.5
349.44	149.35
349.823	131.95
350.206	167.88
350.588	190.25
350.971	199.06
351.354	225.73
351.737	223.69
352.119	263.69
352.502	273.86
352.884	273.64
353.267	294.88
353.65	287.65
354.032	308.44
354.414	309.79
354.797	315.22
355.179	320.87
355.562	319.06
355.944	331.04
356.326	340.53
356.709	342.79
357.091	325.84
357.473	344.6
357.855	345.05
358.238	327.65
358.62	331.26
359.002	362.45
359.384	341.21
359.766	336.01
360.148	335.56
360.53	333.75
360.912	349.79
361.294	330.36
361.676	344.6
362.057	348.89
362.439	305.73
362.821	328.78
363.203	336.91
363.584	325.84
363.966	320.87
364.348	326.52
364.729	324.03
365.111	314.54
365.493	327.19
365.874	330.13
366.256	327.87
366.637	327.87
367.019	305.95
367.4	321.77
367.781	315.67
368.163	319.06
368.544	350.25
368.925	335.33
369.306	313.64
369.688	307.31
370.069	333.75
370.45	338.72
370.831	312.73
371.212	328.78
371.593	334.88
371.974	309.12
372.355	322.68
372.736	311.6
373.117	309.79
373.498	319.29
373.879	304.14
374.26	294.65
374.641	327.19
375.021	319.06
375.402	325.84
375.783	314.09
376.163	348.21
376.544	340.98
376.925	328.32
377.305	334.88
377.686	321.09
378.066	337.36
378.447	342.56
378.827	346.63
379.208	331.04
379.588	335.1
379.968	330.36
380.349	333.75
380.729	362.45
381.109	333.07
381.489	343.01
381.87	343.47
382.25	346.63
382.63	339.85
383.01	344.37
383.39	356.35
383.77	357.7
384.15	349.57
384.53	345.27
384.91	365.16
385.29	358.83
385.67	369.68
386.049	345.95
386.429	359.51
386.809	362.67
387.189	382.79
387.568	360.41
387.948	359.74
388.328	402.9
388.707	360.87
389.087	368.78
389.466	393.41
389.846	367.87
390.225	379.4
390.605	385.27
390.984	376.23
391.363	384.37
391.743	374.2
392.122	378.72
392.501	394.99
392.881	389.57
393.26	394.99
393.639	419.85
394.018	401.54
394.397	394.09
394.776	404.93
395.155	426.18
395.534	404.03
395.913	386.18
396.292	413.52
396.671	415.78
397.05	416.01
397.429	419.62
397.808	408.77
398.186	416.23
398.565	413.52
398.944	417.36
399.323	420.75
399.701	432.73
400.08	413.52
400.458	427.53
400.837	458.26
401.215	448.55
401.594	454.88
401.972	446.29
402.351	463.69
402.729	442.22
403.107	465.27
403.486	468.21
403.864	494.65
404.242	479.51
404.62	484.7
404.999	500.52
405.377	473.41
405.755	508.43
406.133	489
406.511	507.98
406.889	501.65
407.267	510.01
407.645	532.61
408.023	536.91
408.401	535.1
408.779	536.68
409.156	525.16
409.534	567.19
409.912	575.32
410.29	584.36
410.667	584.82
411.045	600.86
411.422	609
411.8	638.37
412.178	626.17
412.555	631.82
412.933	630.46
413.31	651.03
413.687	665.72
414.065	669.78
414.442	671.59
414.819	710.01
415.197	703.91
415.574	722.21
415.951	714.08
416.328	744.13
416.705	744.36
417.082	755.88
417.46	767.18
417.837	759.95
418.214	798.14
418.591	781.19
418.967	826.39
419.344	810.8
419.721	818.03
420.098	837.46
420.475	852.6
420.852	863.68
421.228	887.63
421.605	857.12
421.982	892.83
422.358	918.59
422.735	949.55
423.111	954.3
423.488	968.08
423.864	983.67
424.241	1033.84
424.617	1027.52
424.994	1025.71
425.37	1057.12
425.746	1061.86
426.123	1092.37
426.499	1099.6
426.875	1107.51
427.251	1124.69
427.627	1155.87
428.003	1155.2
428.379	1145.7
428.756	1212.6
429.132	1207.85
429.507	1219.15
429.883	1236.32
430.259	1239.26
430.635	1257.79
431.011	1260.05
431.387	1296.89
431.763	1333.27
432.138	1339.6
432.514	1381.86
432.89	1388.41
433.265	1422.53
433.641	1412.82
434.016	1426.15
434.392	1492.36
434.767	1529.65
435.143	1543.21
435.518	1566.94
435.894	1570.1
436.269	1614.39
436.644	1648.29
437.02	1680.83
437.395	1715.63
437.77	1721.06
438.145	1741.39
438.52	1764.9
438.895	1814.16
439.271	1825.01
439.646	1867.95
440.021	1934.16
440.395	1944.1
440.77	1903.42
441.145	1973.03
441.52	1993.14
441.895	2005.34
442.27	2058.22
442.645	2083.98
443.019	2103.87
443.394	2105.45
443.769	2174.15
444.143	2125.11
444.518	2156.75
444.892	2160.14
445.267	2219.8
445.641	2202.17
446.016	2229.74
446.39	2276.3
446.764	2295.28
447.139	2296.63
447.513	2304.32
447.887	2351.32
448.262	2370.98
448.636	2384.09
449.01	2421.15
449.384	2440.81
449.758	2416.63
450.132	2500.7
450.506	2483.52
450.88	2519
451.254	2513.58
451.628	2559
452.002	2565.78
452.376	2568.72
452.75	2615.95
453.123	2656.4
453.497	2681.48
453.871	2737.98
454.244	2757.19
454.618	2775.27
454.992	2807.81
455.365	2829.5
455.739	2903.17
456.112	2929.39
456.486	2972.55
456.859	2980.68
457.232	3025.88
457.606	3046.67
457.979	3040.12
458.352	3178.42
458.725	3179.55
459.099	3189.49
459.472	3269.04
459.845	3300.45
460.218	3290.73
460.591	3320.34
460.964	3389.49
461.337	3459.32
461.71	3487.79
462.083	3544.51
462.456	3531.86
462.829	3535.7
463.201	3624.28
463.574	3629.48
463.947	3667.45
464.32	3795.8
464.692	3795.13
465.065	3838.06
465.438	3855.24
465.81	3939.53
466.183	4002.58
466.555	4059.07
466.928	4065.63
467.3	4096.59
467.672	4182.01
468.045	4286.86
468.417	4306.53
468.789	4328.9
469.161	4367.54
469.534	4424.49
469.906	4527.76
470.278	4532.06
470.65	4568.89
471.022	4653.18
471.394	4736.12
471.766	4795.55
472.138	4892.95
472.51	4958.94
472.882	5013.17
473.253	5099.05
473.625	5149.21
473.997	5254.97
474.369	5243.9
474.74	5360.06
475.112	5412.48
475.484	5472.6
475.855	5538.58
476.227	5587.62
476.598	5788.29
476.97	5769.99
477.341	5913.49
477.713	5991.45
478.084	6056.99
478.455	6225.12
478.827	6257.89
479.198	6413.36
479.569	6429.18
479.94	6587.37
480.311	6673.69
480.682	6752.11
481.053	6844.09
481.424	7002.95
481.795	7098.32
482.166	7187.81
482.537	7240.01
482.908	7410.85
483.279	7470.96
483.65	7589.6
484.021	7727.45
484.391	7822.14
484.762	7905.3
485.133	7941.68
485.503	8055.58
485.874	8157.95
486.244	8187.1
486.615	8427.77
486.985	8505.06
487.356	8661.89
487.726	8664.6
488.097	8771.04
488.467	8873.18
488.837	8999.06
489.207	9142.56
489.578	9247.19
489.948	9276.34
490.318	9422.1
490.688	9408.99
491.058	9593.39
491.428	9659.38
491.798	9718.59
492.168	9945.92
492.538	9953.38
492.908	10067.05
493.278	10190.21
493.648	10133.04
494.017	10293.26
494.387	10304.11
494.757	10358.57
495.126	10522.86
495.496	10534.38
495.866	10613.25
496.235	10750.88
496.605	10781.16
496.974	10795.85
497.344	10848.27
497.713	10878.78
498.082	11008.95
498.452	11056.4
498.821	11057.08
499.19	11149.06
499.559	11187.25
499.928	11288.49
500.298	11290.75
500.667	11394.02
501.036	11341.37
501.405	11434.7
501.774	11430.18
502.143	11480.35
502.512	11518.54
502.88	11582.27
503.249	11665.43
503.618	11669.72
503.987	11662.49
504.356	11748.36
504.724	11836.72
505.093	11796.95
505.462	11840.11
505.83	11895.03
506.199	11967.11
506.567	12111.74
506.936	12048.47
507.304	12202.81
507.672	12109.03
508.041	12187.45
508.409	12281.68
508.777	12299.31
509.145	12291.85
509.514	12363.49
509.882	12388.12
510.25	12475.58
510.618	12392.41
510.986	12415.01
511.354	12542.01
511.722	12661.33
512.09	12597.61
512.458	12582.24
512.826	12688
513.193	12657.27
513.561	12713.99
513.929	12730.71
514.297	12814.1
514.664	12775
515.032	12845.28
515.4	12912.63
515.767	12863.14
516.135	12860.65
516.502	12771.61
516.869	12975.22
517.237	12967.09
517.604	12920.54
517.972	13026.97
518.339	13038.72
518.706	12998.27
519.073	13032.85
519.44	13101.77
519.808	13221.09
520.175	13052.51
520.542	13178.61
520.909	13275.33
521.276	13205.27
521.643	13265.16
522.009	13321.66
522.376	13339.51
522.743	13312.39
523.11	13327.53
523.477	13467.87
523.843	13443.01
524.21	13593.51
524.577	13517.13
524.943	13502.67
525.31	13520.97
525.676	13630.35
526.043	13710.8
526.409	13557.58
526.776	13652.72
527.142	13683
527.508	13607.75
527.874	13680.29
528.241	13659.27
528.607	13616.11
528.973	13792.38
529.339	13640.97
529.705	13697.69
530.071	13668.76
530.437	13758.93
530.803	13672.83
531.169	13788.31
531.535	13625.6
531.901	13644.58
532.267	13626.73
532.632	13673.51
532.998	13622.44
533.364	13596.9
533.73	13680.97
534.095	13704.47
534.461	13627.41
534.826	13552.16
535.192	13605.04
535.557	13608.88
535.923	13513.51
536.288	13496.11
536.653	13535.89
537.019	13428.55
537.384	13406.62
537.749	13382.67
538.114	13281.43
538.479	13315.1
538.845	13291.15
539.21	13151.72
539.575	13240.98
539.94	13145.84
540.305	13215.9
540.67	13110.81
541.034	13020.87
541.399	13081.89
541.764	12998.95
542.129	12973.64
542.494	12909.46
542.858	12990.59
543.223	12891.16
543.587	12868.56
543.952	12745.85
544.316	12813.87
544.681	12766.19
545.045	12743.37
545.41	12737.94
545.774	12646.64
546.138	12558.74
546.503	12579.98
546.867	12465.63
547.231	12556.7
547.595	12430.15
547.959	12433.54
548.324	12383.15
548.688	12311.74
549.052	12302.93
549.416	12282.13
549.779	12297.05
550.143	12190.39
550.507	12137.05
550.871	12148.35
551.235	12037.62
551.599	12110.39
551.962	12046.21
552.326	12074.46
552.689	12128.92
553.053	11914.69
553.417	11954.23
553.78	12008.7
554.143	11947.68
554.507	11926.44
554.87	11775.03
555.234	11914.23
555.597	11772.32
555.96	11823.62
556.323	11766.67
556.686	11725.54
557.05	11758.08
557.413	11676.5
557.776	11645.32
558.139	11702.04
558.502	11667.69
558.865	11687.12
559.228	11626.56
559.59	11662.72
559.953	11611.64
560.316	11731.19
560.679	11684.41
561.041	11705.2
561.404	11649.16
561.767	11711.53
562.129	11596.28
562.492	11647.58
562.854	11605.32
563.217	11653.68
563.579	11672.21
563.941	11670.63
564.304	11648.03
564.666	11697.74
565.028	11664.52
565.39	11669.72
565.753	11696.84
566.115	11688.93
566.477	11723.51
566.839	11700.46
567.201	11818.64
567.563	11761.7
567.925	11701.58
568.287	11766.44
568.648	11735.93
569.01	11762.15
569.372	11878.98
569.734	11817.74
570.095	11851.19
570.457	11833.78
570.819	11787.91
571.18	11776.16
571.542	11868.59
571.903	11860.9
572.265	11949.49
572.626	11828.36
572.987	11912.43
573.349	11881.47
573.71	11910.85
574.071	11882.37
574.432	11910.39
574.794	12025.19
575.155	11843.05
575.516	11911.07
575.877	11978.41
576.238	11921.92
576.599	11998.07
576.96	11931.64
577.32	11999.43
577.681	11964.63
578.042	11997.62
578.403	11956.49
578.763	11998.53
579.124	12028.81
579.485	12023.38
579.845	12024.06
580.206	12014.57
580.566	11940.22
580.927	11944.29
581.287	12052.54
581.648	11960.79
582.008	11955.82
582.368	12025.19
582.728	12026.55
583.089	11981.35
583.449	12057.96
583.809	12072.42
584.169	12012.31
584.529	11939.09
584.889	12061.12
585.249	11954.01
585.609	11960.56
585.969	12026.1
586.329	11975.93
586.688	11983.61
587.048	11939.32
587.408	11932.09
587.768	11911.52
588.127	11873.56
588.487	11861.58
588.846	11963.95
589.206	11799.21
589.565	11826.55
589.925	11970.28
590.284	11902.03
590.643	11881.24
591.003	11915.14
591.362	11970.28
591.721	11940
592.08	11904.29
592.44	11832.65
592.799	11851.64
593.158	11812.32
593.517	11842.37
593.876	11921.92
594.235	11818.87
594.593	11864.29
594.952	11845.76
595.311	11811.86
595.67	11845.99
596.029	11916.49
596.387	11825.42
596.746	11869.26
597.104	11783.16
597.463	11828.36
597.822	11811.41
598.18	11758.31
598.538	11736.84
598.897	11844.41
599.255	11729.15
599.613	11868.81
599.972	11867
600.33	11781.36
600.688	11845.99
601.046	11771.87
601.404	11773.22
601.762	11760.11
602.12	11799.89
602.478	11796.72
602.836	11757.85
603.194	11735.71
603.552	11789.49
603.91	11673.34
604.268	11824.07
604.625	11742.49
604.983	11741.81
605.341	11735.26
605.698	11809.15
606.056	11816.84
606.413	11822.03
606.771	11766.67
607.128	11761.02
607.485	11797.85
607.843	11783.39
608.2	11822.49
608.557	11847.34
608.914	11902.03
609.272	11834.01
609.629	11869.26
609.986	11933.44
610.343	11812.77
610.7	11973.67
611.057	11930.28
611.414	11845.31
611.771	11897.29
612.127	11897.51
612.484	11942.93
612.841	11951.75
613.198	11989.71
613.554	11906.55
613.911	11980
614.267	11981.35
614.624	11953.33
614.98	11949.94
615.337	11966.21
615.693	11977.74
616.05	12058.19
616.406	12004.63
616.762	12073.33
617.118	12048.47
617.475	11975.7
617.831	12010.5
618.187	12089.37
618.543	12086.66
618.899	12088.92
619.255	12068.13
619.611	12069.48
619.967	12026.77
620.323	12067.68
620.678	12018.19
621.034	12010.73
621.39	12153.78
621.746	12077.85
622.101	12222.48
622.457	12037.62
622.812	12056.6
623.168	12076.49
623.523	12065.42
623.879	12124.85
624.234	12069.94
624.589	12069.71
624.945	12062.48
625.3	12103.83
625.655	12050.5
626.01	12152.42
626.365	11998.75
626.72	12002.82
627.075	11977.28
627.43	11954.23
627.785	12020.9
628.14	11982.71
628.495	11987.91
628.85	12051.18
629.205	11878.08
629.559	12084.85
629.914	11979.77
630.269	12016.15
630.623	11932.99
630.978	11860.22
631.332	11971.63
631.687	11947.91
632.041	11903.84
632.396	11911.52
632.75	11892.77
633.104	11810.96
633.459	11817.06
633.813	11776.61
634.167	11783.16
634.521	11762.37
634.875	11808.93
635.229	11742.04
635.583	11697.52
635.937	11767.57
636.291	11764.18
636.645	11685.77
636.999	11678.31
637.352	11715.82
637.706	11562.83
638.06	11648.93
638.413	11627.01
638.767	11583.4
639.121	11615.03
639.474	11577.29
639.828	11601.47
640.181	11608.03
640.534	11575.49
640.888	11588.82
641.241	11488.26
641.594	11537.97
641.947	11470.86
642.301	11531.65
642.654	11517.86
643.007	11533.45
643.36	11469.5
643.713	11438.77
644.066	11476.96
644.419	11448.94
644.771	11418.88
645.124	11227.02
645.477	11231.09
645.83	11128.94
646.182	11097.53
646.535	11101.15
646.888	11086.01
647.24	11011.43
647.593	11100.47
647.945	10999.91
648.298	11069.74
648.65	11006.91
649.002	11002.85
649.355	11095.05
649.707	11023.18
650.059	11119.45
650.411	11203.74
650.763	11242.61
651.115	11359.67
651.467	11241.03
651.819	11249.62
652.171	11263.4
652.523	11179.56
652.875	11295.72
653.227	11236.51
653.578	11375.04
653.93	11250.3
654.282	11313.57
654.633	11238.32
654.985	11185.67
655.337	11276.51
655.688	11252.56
656.039	11344.53
656.391	11191.32
656.742	11277.87
657.094	11302.95
657.445	11343.63
657.796	11276.29
658.147	11279.22
658.498	11254.37
658.849	11304.08
659.2	11284.19
659.551	11295.95
659.902	11340.01
660.253	11307.92
660.604	11289.39
660.955	11256.17
661.306	11280.58
661.656	11255.27
662.007	11248.94
662.358	11313.12
662.708	11239.22
663.059	11312.44
663.409	11211.88
663.76	11390.86
664.11	11379.11
664.461	11330.97
664.811	11286.23
665.161	11397.86
665.511	11276.06
665.862	11321.26
666.212	11307.7
666.562	11326.23
666.912	11274.48
667.262	11295.72
667.612	11263.4
667.962	11254.37
668.312	11266.57
668.662	11364.64
669.011	11321.26
669.361	11260.69
669.711	11316.96
670.06	11293.46
670.41	11274.25
670.76	11220.02
671.109	11244.2
671.459	11128.27
671.808	11229.06
672.157	11217.3
672.507	11158.55
672.856	11170.3
673.205	11144.54
673.554	11118.32
673.904	11079
674.253	11205.33
674.602	11163.52
674.951	11017.08
675.3	10951.77
675.649	11133.24
675.998	11103.41
676.346	11151.99
676.695	11174.14
677.044	11048.04
677.393	11168.94
677.741	11194.25
678.09	11105.44
678.438	11015.73
678.787	11117.19
679.135	11059.79
679.484	10932.34
679.832	11002.17
680.181	10903.87
680.529	11005.56
680.877	10911.1
681.225	10932.79
681.573	10964.88
681.922	10851.21
682.27	10828.39
682.618	10815.28
682.966	10767.37
683.314	10818.44
683.661	10822.51
684.009	10739.8
684.357	10702.06
684.705	10660.03
685.053	10675.85
685.4	10640.6
685.748	10646.7
686.095	10569.41
686.443	10556.08
686.79	10516.98
687.138	10571.9
687.485	10518.11
687.832	10474.05
688.18	10470.43
688.527	10381.17
688.874	10380.49
689.221	10374.61
689.568	10349.08
689.915	10285.58
690.262	10325.8
690.609	10233.37
690.956	10160.38
691.303	10168.07
691.65	10200.16
691.997	10167.39
692.344	10062.98
692.69	10053.94
693.037	10041.97
693.383	9953.61
693.73	9968.52
694.077	9937.56
694.423	9976.43
694.769	9924.23
695.116	9831.8
695.462	9796.1
695.808	9794.06
696.155	9770.79
696.501	9639.72
696.847	9670.45
697.193	9668.19
697.539	9666.38
697.885	9480.17
698.231	9537.57
698.577	9525.82
698.923	9532.15
699.269	9435.66
699.614	9398.59
699.96	9352.04
700.306	9382.78
700.651	9303.68
700.997	9316.11
701.342	9256.45
701.688	9187.75
702.033	9201.54
702.379	9137.58
702.724	9142.56
703.069	9185.49
703.415	9045.38
703.76	9036.8
704.105	9036.34
704.45	8985.05
704.795	8952.28
705.14	8917.48
705.485	8835.67
705.83	8838.38
706.175	8877.7
706.52	8887.2
706.865	8799.74
707.209	8793.41
707.554	8764.94
707.899	8667.09
708.243	8737.6
708.588	8691.72
708.932	8552.97
709.277	8607.2
709.621	8606.3
709.966	8512.52
710.31	8565.85
710.654	8491.5
710.998	8507.09
711.342	8461.44
711.687	8412.63
712.031	8336.93
712.375	8396.81
712.719	8343.48
713.063	8369.47
713.407	8377.83
713.75	8276.59
714.094	8365.63
714.438	8310.26
714.782	8373.08
715.125	8261.45
715.469	8274.56
715.812	8213.09
716.156	8148.68
716.499	8199.53
716.843	8162.92
717.186	8157.27
717.53	8176.48
717.873	8208.57
718.216	8131.96
718.559	8111.62
718.902	8086.31
719.246	8117.27
719.589	8025.98
719.932	8043.83
720.275	8089.48
720.617	7985.98
720.96	8013.09
721.303	8068.69
721.646	8035.47
721.989	7955.47
722.331	8027.78
722.674	8000.21
723.016	7989.14
723.359	7925.87
723.701	8026.88
724.044	7894.23
724.386	7889.26
724.729	7936.26
725.071	7957.05
725.413	7940.33
725.755	7868.92
726.097	7862.36
726.439	7843.38
726.782	7865.53
727.124	7923.38
727.465	7831.4
727.807	7885.41
728.149	7843.83
728.491	7824.62
728.833	7815.59
729.175	7806.77
729.516	7826.21
729.858	7828.92
730.199	7792.99
730.541	7833.89
730.882	7802.25
731.224	7837.73
731.565	7774.91
731.906	7860.33
732.248	7865.53
732.589	7835.47
732.93	7715.25
733.271	7834.57
733.612	7759.32
733.953	7853.32
734.294	7782.37
734.635	7783.95
734.976	7762.03
735.317	7765.87
735.658	7783.04
735.999	7810.61
736.339	7795.02
736.68	7856.26
737.021	7790.95
737.361	7776.04
737.702	7832.53
738.042	7841.8
738.383	7723.84
738.723	7854
739.063	7770.16
739.404	7916.15
739.744	7865.98
740.084	7831.86
740.424	7882.02
740.764	7867.34
741.104	7880.89
741.444	7932.87
741.784	7856.49
742.124	7910.72
742.464	7962.93
742.804	7983.04
743.143	7962.02
743.483	8033.21
743.823	7959.08
744.162	8033.43
744.502	8060.78
744.841	8018.07
745.181	8093.77
745.52	8131.74
745.86	8146.2
746.199	8136.71
746.538	8226.65
746.877	8264.61
747.216	8370.83
747.556	8322.01
747.895	8402.46
748.234	8439.75
748.573	8481.1
748.911	8503.25
749.25	8649.91
749.589	8599.75
749.928	8732.4
750.267	8798.16
750.605	8851.72
750.944	8941.66
751.283	8995.22
751.621	9120.41
751.96	9186.85
752.298	9249.45
752.636	9402.66
752.975	9483.34
753.313	9569.44
753.651	9647.4
753.989	9719.72
754.327	9852.14
754.666	9871.58
755.004	10128.29
755.342	10234.96
755.679	10345.46
756.017	10473.59
756.355	10682.4
756.693	10782.74
757.031	10947.48
757.368	11046.23
757.706	11184.99
758.044	11306.79
758.381	11493.23
758.719	11670.85
759.056	11850.96
759.394	11967.11
759.731	12129.82
760.068	12326.88
760.405	12400.78
760.743	12558.06
761.08	12843.93
761.417	13007.77
761.754	13177.93
762.091	13332.28
762.428	13577.24
762.765	13664.47
763.102	13869.89
763.438	14112.37
763.775	14210.45
764.112	14449.76
764.449	14602.53
764.785	14769.53
765.122	14940.37
765.458	15150.53
765.795	15262.62
766.131	15453.8
766.467	15601.6
766.804	15753.68
767.14	15874.81
767.476	16004.75
767.812	16208.81
768.148	16324.51
768.485	16507.79
768.821	16665.07
769.157	16798.63
769.492	16907.1
769.828	17118.39
770.164	17044.95
770.5	17206.3
770.836	17404.03
771.171	17402.68
771.507	17522.45
771.842	17621.66
772.178	17769.67
772.513	17846.28
772.849	17867.07
773.184	18024.13
773.519	18125.37
773.855	18279.94
774.19	18363.33
774.525	18348.87
774.86	18519.48
775.195	18570.1
775.53	18688.97
775.865	18643.32
776.2	18723.1
776.535	18680.38
776.87	18799.93
777.205	18846.26
777.539	18903.66
777.874	18985.01
778.209	19015.74
778.543	18987.5
778.878	19007.38
779.212	19034.95
779.547	19090.32
779.881	19185
780.215	19136.42
780.55	19276.08
780.884	19265
781.218	19203.99
781.552	19345
781.886	19305.23
782.22	19230.88
782.554	19175.96
782.888	19122.63
783.222	19206.92
783.556	19171.9
783.889	19155.85
784.223	19143.42
784.557	19128.06
784.89	19233.59
785.224	19153.37
785.557	19237.21
785.891	19072.01
786.224	19053.93
786.558	19168.73
786.891	19037.21
787.224	19013.03
787.557	19012.35
787.891	19115.18
788.224	19013.03
788.557	19035.86
788.89	19056.19
789.223	19085.35
789.556	19022.3
789.888	18850.32
790.221	18918.57
790.554	18820.49
790.887	18827.27
791.219	18730.33
791.552	18812.13
791.884	18639.26
792.217	18625.24
792.549	18707.5
792.882	18660.27
793.214	18626.37
793.546	18594.96
793.879	18527.39
794.211	18473.84
794.543	18557.22
794.875	18468.41
795.207	18610.1
795.539	18475.19
795.871	18436.32
796.203	18294.63
796.535	18241.98
796.867	18193.17
797.198	18203.79
797.53	18243.79
797.862	18009.89
798.193	18091.93
798.525	18002.21
798.856	18075.43
799.188	17897.13
799.519	17820.52
799.85	17716.57
800.182	17803.8
800.513	17784.36
800.844	17615.1
801.175	17820.75
801.506	17733.74
801.837	17723.35
802.168	17582.79
802.499	17549.79
802.83	17425.5
803.161	17468.66
803.491	17448.78
803.822	17359.29
804.153	17474.99
804.483	17187.99
804.814	17302.79
805.145	17294.88
805.475	17241.55
805.805	17126.3
806.136	17109.35
806.466	17154.1
806.796	17116.58
807.126	16967.44
807.457	16938.74
807.787	16947.55
808.117	16869.13
808.447	16890.83
808.777	16899.64
809.107	16782.81
809.436	16741.23
809.766	16646.09
810.096	16679.08
810.426	16613.32
810.755	16703.26
811.085	16650.38
811.414	16674.11
811.744	16477.05
812.073	16511.85
812.403	16478.18
812.732	16421.23
813.061	16389.6
813.39	16272.54
813.719	16284.29
814.049	16388.24
814.378	16396.15
814.707	16246.78
815.036	16309.37
815.365	16110.28
815.693	16145.31
816.022	16072.54
816.351	16079.32
816.68	15920.68
817.008	16000.23
817.337	15939.44
817.665	15827.13
817.994	15918.2
818.322	15824.19
818.651	15798.88
818.979	15733.34
819.307	15859.89
819.636	15829.61
819.964	15737.41
820.292	15717.07
820.62	15761.59
820.948	15696.51
821.276	15732.21
821.604	15632.56
821.932	15751.65
822.259	15667.81
822.587	15705.77
822.915	15627.58
823.243	15658.54
823.57	15694.47
823.898	15685.66
824.225	15666.23
824.553	15604.99
824.88	15630.52
825.207	15704.42
825.535	15701.03
825.862	15632.1
826.189	15698.32
826.516	15720.46
826.843	15753.91
827.17	15770.18
827.497	15667.58
827.824	15796.62
828.151	15825.09
828.478	15695.83
828.805	15829.16
829.131	15659
829.458	15720.69
829.785	15640.46
830.111	15741.03
830.438	15812.89
830.764	15634.59
831.09	15801.59
831.417	15670.75
831.743	15810.4
832.069	15666.23
832.395	15592.33
832.722	15709.84
833.048	15599.11
833.374	15602.27
833.7	15571.77
834.026	15575.61
834.351	15579.45
834.677	15612.44
835.003	15698.99
835.329	15597.75
835.654	15520.92
835.98	15453.35
836.306	15524.54
836.631	15464.65
836.956	15550.75
837.282	15518.66
837.607	15506.23
837.932	15416.74
838.258	15394.14
838.583	15380.36
838.908	15304.65
839.233	15320.25
839.558	15228.95
839.883	15204.54
840.208	15182.4
840.533	15186.69
840.858	15241.6
841.182	15196.18
841.507	15247.03
841.832	15049.75
842.156	15110.76
842.481	15156.64
842.805	15119.57
843.13	14976.75
843.454	15003.19
843.778	14834.38
844.103	14930.65
844.427	14809.3
844.751	14915.96
845.075	14668.96
845.399	14747.61
845.723	14733.14
846.047	14689.08
846.371	14550.1
846.695	14572.02
847.019	14455.64
847.343	14407.05
847.666	14351.23
847.99	14280.05
848.313	14298.35
848.637	14156.89
848.96	14125.7
849.284	14070.79
849.607	13998.93
849.931	13957.57
850.254	14009.09
850.577	13914.18
850.9	13819.5
851.223	13696.11
851.546	13675.77
851.869	13502.89
852.192	13651.36
852.515	13566.62
852.838	13408.88
853.161	13408.43
853.483	13351.26
853.806	13334.76
854.129	13320.3
854.451	13335.21
854.774	13163.92
855.096	13122.79
855.419	13146.29
855.741	13072.85
856.063	13059.97
856.385	13069.91
856.708	12908.11
857.03	12914.66
857.352	12872.4
857.674	12834.44
857.996	12845.74
858.318	12711.95
858.64	12723.25
858.961	12700.65
859.283	12645.74
859.605	12592.18
859.926	12633.09
860.248	12563.26
860.57	12551.05
860.891	12628.57
861.212	12513.77
861.534	12522.13
861.855	12362.36
862.176	12469.02
862.498	12436.03
862.819	12432.64
863.14	12279.65
863.461	12294.11
863.782	12203.04
864.103	12298.41
864.424	12255.69
864.745	12216.83
865.065	12088.24
865.386	12131.4
865.707	12062.25
866.027	12075.36
866.348	12013.22
866.668	12093.44
866.989	12012.76
867.309	11985.65
867.63	12007.11
867.95	11986.32
868.27	11856.38
868.59	11928.47
868.91	11892.77
869.23	11808.25
869.55	11839.66
869.87	11860
870.19	11755.82
870.51	11859.77
870.83	11820.9
871.15	11710.85
871.469	11717.86
871.789	11790.85
872.109	11718.31
872.428	11649.16
872.748	11697.52
873.067	11718.99
873.386	11715.82
873.706	11678.08
874.025	11564.87
874.344	11585.88
874.663	11655.48
874.982	11519.22
875.301	11579.55
875.62	11547.92
875.939	11487.81
876.258	11512.44
876.577	11479.44
876.896	11431.54
877.214	11472.44
877.533	11422.5
877.852	11430.63
878.17	11419.78
878.489	11360.8
878.807	11378.66
879.125	11303.18
879.444	11317.87
879.762	11314.02
880.08	11318.09
880.398	11187.93
880.716	11275.83
881.034	11228.83
881.352	11176.63
881.67	11137.08
881.988	11176.4
882.306	11121.26
882.624	11059.34
882.941	11009.4
883.259	11015.28
883.577	10936.18
883.894	10969.17
884.212	10946.58
884.529	10974.37
884.846	10850.99
885.164	10835.85
885.481	10829.07
885.798	10853.7
886.115	10731.22
886.432	10778.67
886.75	10714.04
887.067	10720.82
887.383	10754.94
887.7	10698
888.017	10656.41
888.334	10669.3
888.651	10639.01
888.967	10553.59
889.284	10528.06
889.6	10479.02
889.917	10460.26
890.233	10437.21
890.55	10449.87
890.866	10453.71
891.182	10354.28
891.498	10292.58
891.815	10281.74
892.131	10185.69
892.447	10195.86
892.763	10133.26
893.079	10167.84
893.395	10106.82
893.71	10125.58
894.026	10069.54
894.342	10061.63
894.657	10004.23
894.973	9940.5
895.289	9966.26
895.604	9907.96
895.92	9879.03
896.235	9777.79
896.55	9853.05
896.865	9757
897.181	9697.12
897.496	9771.47
897.811	9730.79
898.126	9669.32
898.441	9608.98
898.756	9532.38
899.071	9491.47
899.386	9490.12
899.7	9386.84
900.015	9399.5
900.33	9339.16
900.644	9362.66
900.959	9327.64
901.273	9267.75
901.588	9259.39
901.902	9235.44
902.216	9212.61
902.531	9152.95
902.845	9155.21
903.159	9095.55
903.473	9089
903.787	9052.62
904.101	9059.62
904.415	8902.79
904.729	8900.75
905.042	8832.73
905.356	8856.24
905.67	8762.91
905.984	8848.1
906.297	8770.59
906.611	8670.7
906.924	8689.01
907.237	8635.45
907.551	8618.5
907.864	8564.49
908.177	8572.18
908.491	8529.92
908.804	8488.11
909.117	8417.15
909.43	8425.96
909.743	8315.69
910.056	8388.23
910.368	8341
910.681	8247.21
910.994	8244.73
911.307	8227.33
911.619	8190.26
911.932	8200.21
912.244	8094
912.557	8063.26
912.869	8012.64
913.181	7991.17
913.494	7963.83
913.806	7917.73
914.118	7952.08
914.43	7869.14
914.742	7845.64
915.054	7817.39
915.366	7771.74
915.678	7800.22
915.99	7737.4
916.302	7644.74
916.613	7626.89
916.925	7676.83
917.236	7541.24
917.548	7527.46
917.859	7537.4
918.171	7455.59
918.482	7465.76
918.794	7440.68
919.105	7421.02
919.416	7315.26
919.727	7274.13
920.038	7296.96
920.349	7229.39
920.66	7239.78
920.971	7222.38
921.282	7250.85
921.593	7145.55
921.903	7107.81
922.214	7082.27
922.525	7067.81
922.835	7040.01
923.146	7007.92
923.456	6975.16
923.767	6939.68
924.077	6941.48
924.387	6906.23
924.697	6821.94
925.008	6794.37
925.318	6767.7
925.628	6820.81
925.938	6741.94
926.248	6653.13
926.558	6660.59
926.867	6677.76
927.177	6673.47
927.487	6561.38
927.796	6608.84
928.106	6577.43
928.416	6495.62
928.725	6510.99
929.034	6395.06
929.344	6496.3
929.653	6384.21
929.962	6382.63
930.271	6376.08
930.581	6324.55
930.89	6315.96
931.199	6309.86
931.508	6262.86
931.817	6237.1
932.125	6238.45
932.434	6226.25
932.743	6165.01
933.051	6163.88
933.36	6068.06
933.669	6040.26
933.977	6014.95
934.286	5982.64
934.594	6026.48
934.902	5963.2
935.21	5984.9
935.519	5976.31
935.827	5944.22
936.135	5861.96
936.443	5861.06
936.751	5803.66
937.059	5863.55
937.367	5796.2
937.674	5806.82
937.982	5717.79
938.29	5792.81
938.597	5706.94
938.905	5644.8
939.213	5605.02
939.52	5530.67
939.827	5624.91
940.135	5614.51
940.442	5534.06
940.749	5555.53
941.056	5564.35
941.363	5485.48
941.67	5463.78
941.977	5456.33
942.284	5440.51
942.591	5380.85
942.898	5340.62
943.205	5359.15
943.511	5304.01
943.818	5264.01
944.125	5268.99
944.431	5294.07
944.738	5234.64
945.044	5175.43
945.35	5116
945.657	5131.14
945.963	5151.02
946.269	5093.85
946.575	5139.5
946.881	5049.1
947.187	5012.72
947.493	5029.9
947.799	5003.91
948.105	5002.78
948.41	4947.41
948.716	4946.51
949.022	4904.25
949.327	4924.14
949.633	4867.87
949.938	4882.33
950.244	4840.75
950.549	4819.73
950.854	4784.93
951.16	4791.48
951.465	4741.32
951.77	4735.89
952.075	4748.55
952.38	4700.64
952.685	4673.07
952.99	4633.75
953.294	4646.63
953.599	4609.12
953.904	4588.33
954.209	4575.67
954.513	4532.51
954.818	4528.44
955.122	4487.99
955.426	4526.63
955.731	4499.06
956.035	4436.01
956.339	4445.73
956.643	4416.58
956.948	4370.03
957.252	4345.17
957.556	4417.48
957.86	4353.98
958.163	4339.74
958.467	4343.81
958.771	4296.13
959.075	4218.84
959.378	4252.29
959.682	4262.68
959.985	4184.72
960.289	4183.36
960.592	4191.95
960.896	4128.9
961.199	4145.4
961.502	4108.34
961.805	4087.32
962.108	4042.13
962.411	4036.25
962.714	4071.5
963.017	4038.51
963.32	4018.4
963.623	3976.59
963.926	3981.34
964.228	3989.25
964.531	3972.3
964.833	3920.55
965.136	3916.93
965.438	3896.59
965.741	3909.47
966.043	3878.29
966.345	3858.18
966.648	3821.79
966.95	3789.7
967.252	3795.13
967.554	3785.18
967.856	3746.54
968.158	3738.86
968.46	3735.24
968.761	3730.5
969.063	3739.53
969.365	3690.04
969.666	3687.33
969.968	3612.53
970.269	3638.52
970.571	3656.37
970.872	3614.79
971.174	3595.81
971.475	3551.97
971.776	3568.92
972.077	3537.51
972.378	3512.65
972.679	3518.98
972.98	3523.27
973.281	3481.24
973.582	3458.64
973.883	3466.55
974.183	3426.1
974.484	3429.94
974.785	3422.25
975.085	3370.28
975.386	3404.18
975.686	3391.07
975.986	3341.13
976.287	3343.16
976.587	3329.38
976.887	3331.18
977.187	3287.12
977.487	3284.63
977.787	3263.16
978.087	3224.07
978.387	3237.4
978.687	3203.73
978.987	3183.39
979.286	3216.61
979.586	3173.67
979.885	3172.77
980.185	3154.24
980.484	3175.03
980.784	3114.24
981.083	3093.22
981.382	3107.01
981.682	3090.06
981.981	3055.03
982.28	3011.64
982.579	3020.91
982.878	3019.33
983.177	3008.25
983.475	3015.71
983.774	2954.24
984.073	2940.69
984.372	2927.8
984.67	2958.99
984.969	2950.4
985.267	2921.93
985.566	2864.76
985.864	2856.62
986.162	2881.25
986.461	2825.66
986.759	2824.53
987.057	2814.14
987.355	2811.2
987.653	2832.67
987.951	2780.01
988.249	2774.14
988.547	2767.36
988.844	2749.96
989.142	2740.01
989.44	2728.71
989.737	2719
990.035	2745.21
990.332	2709.28
990.63	2642.61
990.927	2651.65
991.224	2645.78
991.521	2634.93
991.819	2653.24
992.116	2624.99
992.413	2603.75
992.71	2594.48
993.006	2593.35
993.303	2567.81
993.6	2548.61
993.897	2543.86
994.193	2526.23
994.49	2507.02
994.787	2485.1
995.083	2467.25
995.379	2475.84
995.676	2455.95
995.972	2420.7
996.268	2443.3
996.565	2443.75
996.861	2403.75
997.157	2407.37
997.453	2396.07
997.749	2383.19
998.044	2353.13
998.34	2370.08
998.636	2336.41
998.932	2309.29
999.227	2309.29
999.523	2320.59
999.818	2314.04
1000.114	2279.69
1000.409	2261.61
1000.704	2261.38
1001	2254.6
1001.295	2230.65
1001.59	2239.91
1001.885	2207.15
1002.18	2196.52
1002.475	2172.8
1002.77	2199.46
1003.065	2184.55
1003.359	2153.14
1003.654	2124.66
1003.949	2118.33
1004.243	2128.73
1004.538	2106.36
1004.832	2080.37
1005.127	2097.09
1005.421	2049.86
1005.715	2041.95
1006.009	2035.4
1006.304	2032.46
1006.598	2005.34
1006.892	2021.16
1007.186	2018
1007.48	1998.56
1007.773	2016.19
1008.067	1970.09
1008.361	1945.01
1008.655	1950.65
1008.948	1939.36
1009.242	1943.65
1009.535	1924.89
1009.829	1914.05
1010.122	1890.09
1010.415	1853.03
1010.708	1820.26
1011.001	1854.39
1011.295	1855.52
1011.588	1807.16
1011.881	1809.42
1012.173	1795.4
1012.466	1784.78
1012.759	1784.78
1013.052	1774.61
1013.344	1751.34
1013.637	1758.34
1013.93	1735.29
1014.222	1713.15
1014.514	1732.13
1014.807	1696.65
1015.099	1704.11
1015.391	1702.3
1015.683	1687.39
1015.976	1661.62
1016.268	1689.19
1016.56	1652.36
1016.851	1641.28
1017.143	1617.1
1017.435	1629.08
1017.727	1620.27
1018.018	1605.13
1018.31	1598.12
1018.602	1589.76
1018.893	1592.7
1019.185	1541.63
1019.476	1543.66
1019.767	1532.36
1020.058	1515.41
1020.35	1530.55
1020.641	1524.45
1020.932	1529.2
1021.223	1477
1021.514	1490.78
1021.804	1484.9
1022.095	1452.14
1022.386	1446.49
1022.677	1426.6
1022.967	1453.94
1023.258	1441.52
1023.548	1421.4
1023.839	1422.76
1024.129	1406.04
1024.419	1381.18
1024.709	1368.07
1025	1384.34
1025.29	1346.83
1025.58	1349.31
1025.87	1342.99
1026.16	1356.32
1026.449	1321.29
1026.739	1337.56
1027.029	1315.19
1027.319	1324.23
1027.608	1304.8
1027.898	1299.82
1028.187	1251.69
1028.477	1297.34
1028.766	1257.57
1029.055	1255.31
1029.344	1261.63
1029.634	1234.97
1029.923	1220.28
1030.212	1212.82
1030.501	1216.66
1030.79	1192.48
1031.078	1191.13
1031.367	1188.42
1031.656	1190.22
1031.945	1174.18
1032.233	1158.36
1032.522	1176.66
1032.81	1150.9
1033.099	1142.77
1033.387	1108.87
1033.675	1133.95
1033.963	1109.55
1034.251	1136.44
1034.54	1099.6
1034.828	1094.18
1035.116	1088.3
1035.403	1082.66
1035.691	1070.9
1035.979	1084.46
1036.267	1073.39
1036.554	1047.4
1036.842	1050.79
1037.129	1053.96
1037.417	1050.57
1037.704	1033.16
1037.992	1007.63
1038.279	994.75
1038.566	1042.66
1038.853	1042.66
1039.14	1042.66
