Data from hue_140_FLMS001491_00076.txt Node
Date: Tue Feb 07 16:56:23 GMT 2017
User: dcchb
Spectrometer: FLMS00149
Trigger mode: 0
Integration Time (sec): 2.000000E-2
Scans to average: 10
Electric dark correction enabled: true
Nonlinearity correction enabled: false
Boxcar width: 0
XAxis mode: Wavelengths
Number of Pixels in Spectrum: 2048
>>>>>Begin Spectral Data<<<<<
341.393	-1.4
341.776	-1.4
342.16	-1.4
342.543	-59.93
342.927	-55.41
343.31	-47.72
343.693	-63.09
344.077	-66.93
344.46	-49.31
344.843	-55.41
345.226	-33.49
345.61	-39.14
345.993	-17.67
346.376	-0.49
346.759	15.78
347.142	13.52
347.525	36.11
347.908	52.16
348.291	86.74
348.674	66.85
349.057	102.1
349.44	129.9
349.823	148.65
350.206	161.54
350.588	198.14
350.971	212.83
351.354	239.05
351.737	251.93
352.119	251.02
352.502	268.88
352.884	279.72
353.267	287.63
353.65	270.01
354.032	298.25
354.414	305.03
354.797	326.5
355.179	327.18
355.562	317.92
355.944	320.18
356.326	329.89
356.709	340.51
357.091	319.72
357.473	325.37
357.855	333.06
358.238	331.02
358.62	324.92
359.002	331.93
359.384	345.03
359.766	320.85
360.148	317.46
360.53	318.59
360.912	332.38
361.294	339.38
361.676	339.61
362.057	331.25
362.439	339.16
362.821	310.91
363.203	331.47
363.584	334.19
363.966	336.22
364.348	330.12
364.729	313.4
365.111	325.6
365.493	333.28
365.874	315.2
366.256	321.31
366.637	334.64
367.019	343.68
367.4	318.59
367.781	319.72
368.163	311.59
368.544	301.19
368.925	305.03
369.306	340.29
369.688	305.03
370.069	312.27
370.45	320.85
370.831	317.69
371.212	335.32
371.593	335.77
371.974	326.95
372.355	311.59
372.736	308.42
373.117	346.39
373.498	297.35
373.879	305.71
374.26	326.5
374.641	300.97
375.021	322.89
375.402	312.49
375.783	323.34
376.163	336.45
376.544	333.28
376.925	310.46
377.305	320.85
377.686	299.16
378.066	343.45
378.447	335.54
378.827	338.25
379.208	328.31
379.588	341.42
379.968	343.68
380.349	344.36
380.729	316.33
381.109	328.08
381.489	347.75
381.87	337.58
382.25	363.56
382.63	333.28
383.01	332.83
383.39	345.94
383.77	355.43
384.15	349.78
384.53	334.19
384.91	346.39
385.29	349.33
385.67	362.43
386.049	375.09
386.429	343.68
386.809	356.56
387.189	370.12
387.568	356.11
387.948	351.36
388.328	380.74
388.707	365.15
389.087	361.08
389.466	354.3
389.846	342.55
390.225	371.25
390.605	359.72
390.984	375.77
391.363	382.32
391.743	390.68
392.122	379.38
392.501	381.87
392.881	371.25
393.26	384.81
393.639	384.35
394.018	394.07
394.397	394.98
394.776	372.83
395.155	371.25
395.534	382.09
395.913	394.98
396.292	389.1
396.671	397.69
397.05	392.94
397.429	396.33
397.808	403.11
398.186	399.72
398.565	398.14
398.944	393.85
399.323	410.34
399.701	422.09
400.08	421.64
400.458	410.12
400.837	415.09
401.215	413.73
401.594	425.94
401.972	409.44
402.351	395.88
402.729	409.44
403.107	450.12
403.486	438.82
403.864	437.91
404.242	436.78
404.62	437.46
404.999	420.29
405.377	427.97
405.755	445.37
406.133	436.33
406.511	421.87
406.889	428.65
407.267	437.01
407.645	459.15
408.023	439.49
408.401	447.4
408.779	421.19
409.156	455.99
409.534	451.02
409.912	472.49
410.29	465.03
410.667	474.97
411.045	472.71
411.422	464.8
411.8	469.78
412.178	499.15
412.555	510.68
412.933	514.97
413.31	506.84
413.687	490.34
414.065	503.45
414.442	482.66
414.819	510.68
415.197	518.14
415.574	522.88
415.951	522.43
416.328	495.99
416.705	523.56
417.082	519.49
417.46	507.51
417.837	543.9
418.214	545.93
418.591	552.94
418.967	519.49
419.344	555.42
419.721	540.96
420.098	557.68
420.475	526.5
420.852	525.14
421.228	569.66
421.605	556.1
421.982	561.07
422.358	553.16
422.735	551.36
423.111	564.24
423.488	576.67
423.864	559.26
424.241	598.59
424.617	577.8
424.994	580.73
425.37	593.39
425.746	620.96
426.123	602.2
426.499	610.56
426.875	603.33
427.251	632.03
427.627	603.11
428.003	634.52
428.379	622.31
428.756	633.84
429.132	643.33
429.507	628.64
429.883	650.79
430.259	655.76
430.635	673.39
431.011	681.97
431.387	663.22
431.763	670
432.138	695.08
432.514	685.82
432.89	675.19
433.265	686.04
433.641	696.44
434.016	721.29
434.392	710.45
434.767	758.58
435.143	740.96
435.518	735.98
435.894	739.37
436.269	756.32
436.644	747.96
437.02	759.94
437.395	766.49
437.77	760.39
438.145	785.47
438.52	791.35
438.895	797
439.271	805.13
439.646	817.11
440.021	842.42
440.395	844.46
440.77	824.57
441.145	815.76
441.52	842.2
441.895	835.19
442.27	867.05
442.645	836.32
443.019	862.76
443.394	857.34
443.769	841.52
444.143	846.94
444.518	893.72
444.892	875.41
445.267	913.38
445.641	879.48
446.016	895.75
446.39	910.67
446.764	892.82
447.139	922.65
447.513	926.94
447.887	924.45
448.262	905.24
448.636	911.8
449.01	914.28
449.384	936.66
449.758	931.23
450.132	973.94
450.506	958.58
450.88	968.75
451.254	970.1
451.628	982.98
452.002	1013.26
452.376	1014.85
452.75	1039.48
453.123	1009.87
453.497	1050.55
453.871	1025.92
454.244	1081.74
454.618	1059.59
454.992	1083.77
455.365	1101.85
455.739	1092.13
456.112	1112.92
456.486	1131.68
456.859	1118.12
457.232	1147.5
457.606	1167.38
457.979	1163.54
458.352	1187.5
458.725	1196.31
459.099	1197.89
459.472	1230.21
459.845	1237.67
460.218	1242.86
460.591	1263.43
460.964	1253.94
461.337	1292.58
461.71	1333.03
462.083	1341.62
462.456	1346.59
462.829	1343.43
463.201	1373.71
463.574	1372.58
463.947	1416.64
464.32	1413.25
464.692	1476.75
465.065	1420.49
465.438	1478.34
465.81	1521.95
466.183	1508.62
466.555	1552.01
466.928	1579.8
467.3	1575.74
467.672	1596.75
468.045	1639.69
468.417	1659.58
468.789	1686.24
469.161	1700.93
469.534	1747.03
469.906	1770.08
470.278	1803.98
470.65	1811.44
471.022	1836.97
471.394	1905.22
471.766	1921.26
472.138	1967.14
472.51	1989.51
472.882	2035.61
473.253	2081.26
473.625	2100.92
473.997	2164.19
474.369	2240.58
474.74	2278.54
475.112	2294.81
475.484	2394.92
475.855	2387.92
476.227	2439.22
476.598	2517.86
476.97	2554.69
477.341	2646.67
477.713	2698.19
478.084	2764.18
478.455	2825.87
478.827	2885.76
479.198	3037.39
479.569	3041.46
479.94	3159.87
480.311	3198.74
480.682	3289.81
481.053	3390.83
481.424	3483.26
481.795	3601.22
482.166	3677.6
482.537	3745.85
482.908	3902.91
483.279	3944.94
483.65	4022
484.021	4114.43
484.391	4275.55
484.762	4357.13
485.133	4445.72
485.503	4570.01
485.874	4747.18
486.244	4800.28
486.615	4944.01
486.985	5062.65
487.356	5236.88
487.726	5305.35
488.097	5469.19
488.467	5535.86
488.837	5736.76
489.207	5852.69
489.578	6002.06
489.948	6112.11
490.318	6229.85
490.688	6376.06
491.058	6502.84
491.428	6686.34
491.798	6813.11
492.168	7002.03
492.538	7068.7
492.908	7230.95
493.278	7389.82
493.648	7457.39
494.017	7601.79
494.387	7736.7
494.757	7946.87
495.126	8008.11
495.496	8148.67
495.866	8201.32
496.235	8375.78
496.605	8503.69
496.974	8657.36
497.344	8758.15
497.713	8868.88
498.082	8980.06
498.452	9126.5
498.821	9175.76
499.19	9262.09
499.559	9444.91
499.928	9495.53
500.298	9633.15
500.667	9834.95
501.036	9794.05
501.405	9925.8
501.774	10016.19
502.143	10138.9
502.512	10228.39
502.88	10342.51
503.249	10379.12
503.618	10505.44
503.987	10563.07
504.356	10619.34
504.724	10792.89
505.093	10814.81
505.462	10885.77
505.83	11004.64
506.199	11056.16
506.567	11257.29
506.936	11246.89
507.304	11412.31
507.672	11379.55
508.041	11465.87
508.409	11532.54
508.777	11641.01
509.145	11648.01
509.514	11723.04
509.882	11782.92
510.25	11869.25
510.618	12004.61
510.986	11965.97
511.354	12109.92
511.722	12163.93
512.09	12221.78
512.458	12243.7
512.826	12339.75
513.193	12367.77
513.561	12435.79
513.929	12498.61
514.297	12640.3
514.664	12650.25
515.032	12716.23
515.4	12738.83
515.767	12778.83
516.135	12840.3
516.502	12680.98
516.869	12937.92
517.237	12993.74
517.604	12845.27
517.972	12990.58
518.339	13021.54
518.706	13040.74
519.073	13015.43
519.44	13165.71
519.808	13313.51
520.175	13175.88
520.542	13307.4
520.909	13326.84
521.276	13330.91
521.643	13425.82
522.009	13393.96
522.376	13468.76
522.743	13551.24
523.11	13580.17
523.477	13677.56
523.843	13651.12
524.21	13762.31
524.577	13747.17
524.943	13814.06
525.31	13786.71
525.676	13906.03
526.043	13951.23
526.409	13967.95
526.776	14093.6
527.142	14021.51
527.508	14019.25
527.874	14081.4
528.241	14030.1
528.607	14116.2
528.973	14169.08
529.339	14062.64
529.705	14160.72
530.071	14230.09
530.437	14214.95
530.803	14249.07
531.169	14212.24
531.535	14158.91
531.901	14194.61
532.267	14187.83
532.632	14176.99
532.998	14190.77
533.364	14200.94
533.73	14163.2
534.095	14243.2
534.461	14200.94
534.826	14250.66
535.192	14197.1
535.557	14253.59
535.923	14092.92
536.288	14152.58
536.653	14118.46
537.019	14042.3
537.384	14053.15
537.749	14088.17
538.114	14093.37
538.479	14021.96
538.845	13999.14
539.21	13950.78
539.575	13984.45
539.94	13922.76
540.305	13878.24
540.67	13843.89
541.034	13776.77
541.399	13914.39
541.764	13849.99
542.129	13697
542.494	13841.18
542.858	13756.88
543.223	13782.87
543.587	13694.51
543.952	13655.87
544.316	13689.09
544.681	13503.56
545.045	13604.35
545.41	13555.99
545.774	13599.83
546.138	13516.66
546.503	13499.49
546.867	13469.66
547.231	13528.19
547.595	13378.36
547.959	13467.85
548.324	13401.19
548.688	13298.37
549.052	13288.42
549.416	13288.87
549.779	13199.16
550.143	13151.25
550.507	13218.82
550.871	13221.08
551.235	13145.15
551.599	13177.46
551.962	13127.75
552.326	13061.31
552.689	13137.24
553.053	12976.11
553.417	12988.54
553.78	13150.12
554.143	13009.11
554.507	13024.93
554.87	13055.66
555.234	13101.08
555.597	12941.76
555.96	12938.6
556.323	12863.57
556.686	12906.96
557.05	12904.7
557.413	12915.78
557.776	12927.53
558.139	13008.88
558.502	12922.33
558.865	12922.56
559.228	12919.39
559.59	12921.2
559.953	12933.4
560.316	13039.16
560.679	13017.69
561.041	13012.04
561.404	12984.25
561.767	13067.18
562.129	12835.1
562.492	13073.96
562.854	12991.03
563.217	12960.07
563.579	12946.74
563.941	13053.85
564.304	13116
564.666	13099.05
565.028	13098.14
565.39	13048.2
565.753	13134.53
566.115	13067.64
566.477	13121.87
566.839	13101.76
567.201	13138.37
567.563	13141.76
567.925	13190.35
568.287	13197.12
568.648	13182.44
569.01	13170.46
569.372	13232.6
569.734	13205.03
570.095	13329.78
570.457	13254.75
570.819	13318.48
571.18	13287.74
571.542	13331.58
571.903	13413.16
572.265	13365.26
572.626	13347.18
572.987	13390.11
573.349	13407.29
573.71	13504.24
574.071	13463.11
574.432	13395.09
574.794	13542.65
575.155	13473.05
575.516	13447.51
575.877	13475.54
576.238	13438.47
576.599	13533.39
576.96	13465.59
577.32	13477.12
577.681	13487.29
578.042	13589.66
578.403	13502.65
578.763	13421.3
579.124	13458.81
579.485	13466.04
579.845	13537.68
580.206	13534.52
580.566	13539.04
580.927	13438.93
581.287	13590.79
581.648	13572.03
582.008	13566.61
582.368	13632.82
582.728	13555.53
583.089	13576.78
583.449	13487.74
583.809	13528.19
584.169	13527.29
584.529	13458.81
584.889	13546.04
585.249	13486.61
585.609	13414.07
585.969	13579.71
586.329	13469.89
586.688	13527.96
587.048	13468.53
587.408	13443.9
587.768	13379.49
588.127	13445.93
588.487	13341.08
588.846	13454.97
589.206	13365.48
589.565	13372.49
589.925	13468.98
590.284	13376.56
590.643	13307.63
591.003	13408.87
591.362	13433.05
591.721	13341.98
592.08	13385.37
592.44	13329.55
592.799	13342.88
593.158	13330
593.517	13422.66
593.876	13334.3
594.235	13227.86
594.593	13299.27
594.952	13273.96
595.311	13221.76
595.67	13193.28
596.029	13339.04
596.387	13332.49
596.746	13361.64
597.104	13318.25
597.463	13275.99
597.822	13310.57
598.18	13380.85
598.538	13295.43
598.897	13278.48
599.255	13169.55
599.613	13436.21
599.972	13353.96
600.33	13334.07
600.688	13270.34
601.046	13374.07
601.404	13414.97
601.762	13300.62
602.12	13282.55
602.478	13354.86
602.836	13379.94
603.194	13290.91
603.552	13336.56
603.91	13268.99
604.268	13373.84
604.625	13262.89
604.983	13327.29
605.341	13209.78
605.698	13277.57
606.056	13374.97
606.413	13283.45
606.771	13353.96
607.128	13387.18
607.485	13327.52
607.843	13229.67
608.2	13348.53
608.557	13402.77
608.914	13354.18
609.272	13428.53
609.629	13422.66
609.986	13578.36
610.343	13508.53
610.7	13441.41
611.057	13524.12
611.414	13448.64
611.771	13494.29
612.127	13540.84
612.484	13500.39
612.841	13509.88
613.198	13426.72
613.554	13516.89
613.911	13539.49
614.267	13606.61
614.624	13526.61
614.98	13561.41
615.337	13658.81
615.693	13555.08
616.05	13586.04
616.406	13667.39
616.762	13556.21
617.118	13615.19
617.475	13584.91
617.831	13645.47
618.187	13593.05
618.543	13664.23
618.899	13687.06
619.255	13669.65
619.611	13718.24
619.967	13770.67
620.323	13779.03
620.678	13673.72
621.034	13661.52
621.39	13666.04
621.746	13692.25
622.101	13809.54
622.457	13733.38
622.812	13657.9
623.168	13814.28
623.523	13748.97
623.879	13677.34
624.234	13667.62
624.589	13715.76
624.945	13741.52
625.3	13766.83
625.655	13802.08
626.01	13798.69
626.365	13807.05
626.72	13724.57
627.075	13714.4
627.43	13704.46
627.785	13669.88
628.14	13688.41
628.495	13764.12
628.85	13721.18
629.205	13672.59
629.559	13731.35
629.914	13662.88
630.269	13692.03
630.623	13605.25
630.978	13649.77
631.332	13580.17
631.687	13603.44
632.041	13522.31
632.396	13710.78
632.75	13568.19
633.104	13547.17
633.459	13468.3
633.813	13474.86
634.167	13481.86
634.521	13407.97
634.875	13493.39
635.229	13397.8
635.583	13399.15
635.937	13360.51
636.291	13407.29
636.645	13373.62
636.999	13325.03
637.352	13366.84
637.706	13285.26
638.06	13368.42
638.413	13310.57
638.767	13279.38
639.121	13342.88
639.474	13217.92
639.828	13223.79
640.181	13260.85
640.534	13189.44
640.888	13109.9
641.241	13160.29
641.594	13191.48
641.947	13236.22
642.301	13101.53
642.654	13156.45
643.007	13127.97
643.36	13112.83
643.713	13172.27
644.066	13190.35
644.419	13103.34
644.771	12989.45
645.124	12852.95
645.477	12903.12
645.83	12747.42
646.182	12734.54
646.535	12586.52
646.888	12674.43
647.24	12679.17
647.593	12770.02
647.945	12628.78
648.298	12691.83
648.65	12653.86
649.002	12578.61
649.355	12763.92
649.707	12652.73
650.059	12757.36
650.411	12848.89
650.763	12852.5
651.115	12983.8
651.467	12941.31
651.819	12953.52
652.171	13001.42
652.523	12939.28
652.875	12914.42
653.227	12899.28
653.578	12985.83
653.93	12962.55
654.282	12905.83
654.633	12868.77
654.985	12873.74
655.337	12903.35
655.688	12928.66
656.039	12974.76
656.391	12878.49
656.742	12944.48
657.094	12918.94
657.445	12924.82
657.796	12922.1
658.147	12926.4
658.498	12913.29
658.849	12965.27
659.2	12989.45
659.551	12915.32
659.902	12940.41
660.253	12920.3
660.604	12932.05
660.955	12939.96
661.306	12955.32
661.656	12971.37
662.007	12900.41
662.358	12990.12
662.708	12890.47
663.059	12937.92
663.409	12845.72
663.76	13053.17
664.11	13015.43
664.461	12999.62
664.811	13007.07
665.161	12962.78
665.511	12972.27
665.862	13007.53
666.212	12981.76
666.562	13047.3
666.912	12926.62
667.262	12992.16
667.612	12973.4
667.962	12999.62
668.312	12960.29
668.662	12945.83
669.011	12986.28
669.361	12911.93
669.711	12960.52
670.06	12929.11
670.41	12883.46
670.76	12892.05
671.109	12902.67
671.459	12906.06
671.808	12856.12
672.157	12935.21
672.507	12807.53
672.856	12885.95
673.205	12866.51
673.554	12837.36
673.904	12840.52
674.253	12883.46
674.602	12818.83
674.951	12600.98
675.3	12603.47
675.649	12794.2
675.998	12787.87
676.346	12796.68
676.695	12781.09
677.044	12713.52
677.393	12695.22
677.741	12778.83
678.09	12716.69
678.438	12678.49
678.787	12666.74
679.135	12805.27
679.484	12631.04
679.832	12727.08
680.181	12539.06
680.529	12630.36
680.877	12533.19
681.225	12469.46
681.573	12648.21
681.922	12532.96
682.27	12440.53
682.618	12434.21
682.966	12479.63
683.314	12490.48
683.661	12370.25
684.009	12389.24
684.357	12307.66
684.705	12277.6
685.053	12246.42
685.4	12294.1
685.748	12216.36
686.095	12152.63
686.443	12155.8
686.79	12124.16
687.138	12163.48
687.485	12206.19
687.832	12135.46
688.18	12108.11
688.527	12016.14
688.874	11996.25
689.221	11946.76
689.568	11911.96
689.915	11980.89
690.262	11933.66
690.609	11881.45
690.956	11789.93
691.303	11820.66
691.65	11757.16
691.997	11760.55
692.344	11730.5
692.69	11695.24
693.037	11641.46
693.383	11502.03
693.73	11626.77
694.077	11478.3
694.423	11522.59
694.769	11481.46
695.116	11400.79
695.462	11419.54
695.808	11397.62
696.155	11326.21
696.501	11181.81
696.847	11216.16
697.193	11172.55
697.539	11191.3
697.885	11127.12
698.231	11115.6
698.577	11027.01
698.923	11048.03
699.269	10901.14
699.614	10877.64
699.96	10894.59
700.306	10850.97
700.651	10724.2
700.997	10762.61
701.342	10709.73
701.688	10731.2
702.033	10668.6
702.379	10680.35
702.724	10601.71
703.069	10602.84
703.415	10496.86
703.76	10530.08
704.105	10476.74
704.45	10486.91
704.795	10347.48
705.14	10351.1
705.485	10373.7
705.83	10248.5
706.175	10309.29
706.52	10262.51
706.865	10250.54
707.209	10187.26
707.554	10116.3
707.899	10207.37
708.243	10107.71
708.588	9997.21
708.932	10023.65
709.277	10008.28
709.621	10039.69
709.966	10003.99
710.31	9979.36
710.654	9860.04
710.998	9866.14
711.342	9867.72
711.687	9849.87
712.031	9794.73
712.375	9801.51
712.719	9852.13
713.063	9799.47
713.407	9791.11
713.75	9749.31
714.094	9780.27
714.438	9665.69
714.782	9677.22
715.125	9684.22
715.469	9629.53
715.812	9553.83
716.156	9588.41
716.499	9569.88
716.843	9613.94
717.186	9544.34
717.53	9555.41
717.873	9566.94
718.216	9507.5
718.559	9481.97
718.902	9421.86
719.246	9450.56
719.589	9366.27
719.932	9348.41
720.275	9401.97
720.617	9357
720.96	9420.5
721.303	9341.18
721.646	9332.59
721.989	9350.67
722.331	9300.5
722.674	9267.96
723.016	9298.47
723.359	9237.45
723.701	9299.37
724.044	9253.73
724.386	9184.12
724.729	9305.02
725.071	9208.53
725.413	9223.9
725.755	9189.77
726.097	9146.84
726.439	9186.83
726.782	9184.57
727.124	9174.63
727.465	9098.93
727.807	9166.27
728.149	9108.42
728.491	9064.58
728.833	9126.95
729.175	9084.69
729.516	9093.05
729.858	9095.99
730.199	9095.09
730.541	9016.67
730.882	9040.17
731.224	9126.05
731.565	9033.17
731.906	9083.79
732.248	9069.1
732.589	9108.19
732.93	9072.49
733.271	9019.16
733.612	9054.63
733.953	9060.74
734.294	9085.37
734.635	8978.25
734.976	9053.73
735.317	9000.4
735.658	9026.16
735.999	9094.63
736.339	9007.4
736.68	9059.61
737.021	9075.2
737.361	9024.35
737.702	9053.96
738.042	9068.87
738.383	9064.58
738.723	9079.49
739.063	9080.85
739.404	9112.94
739.744	9077.01
740.084	9182.32
740.424	9142.99
740.764	9095.76
741.104	9198.36
741.444	9159.26
741.784	9191.58
742.124	9119.49
742.464	9163.11
742.804	9238.81
743.143	9169.66
743.483	9247.17
743.823	9183.44
744.162	9272.71
744.502	9353.16
744.841	9357
745.181	9386.38
745.52	9310.22
745.86	9443.1
746.199	9445.58
746.538	9442.42
746.877	9519.93
747.216	9550.44
747.556	9568.07
747.895	9644
748.234	9679.7
748.573	9753.37
748.911	9768.06
749.25	9776.65
749.589	9865.91
749.928	9914.27
750.267	10010.09
750.605	10050.09
750.944	10127.37
751.283	10160.14
751.621	10253.47
751.96	10410.98
752.298	10432
752.636	10533.47
752.975	10567.59
753.313	10701.15
753.651	10846
753.989	10936.62
754.327	10942.72
754.666	11085.09
755.004	11281.24
755.342	11374.12
755.679	11481.46
756.017	11541.58
756.355	11735.24
756.693	11857.72
757.031	12011.62
757.368	12082.8
757.706	12231.95
758.044	12316.92
758.381	12557.37
758.719	12620.42
759.056	12873.97
759.394	12973.18
759.731	13062.21
760.068	13259.27
760.405	13285.03
760.743	13471.24
761.08	13734.29
761.417	13779.48
761.754	13972.02
762.091	14168.85
762.428	14264.44
762.765	14455.17
763.102	14693.58
763.438	14777.2
763.775	14819.68
764.112	15103.29
764.449	15292.44
764.785	15384.64
765.122	15480
765.458	15560.23
765.795	15722.26
766.131	15987.79
766.467	16038.86
766.804	16096.94
767.14	16166.31
767.476	16503.03
767.812	16652.85
768.148	16741.89
768.485	16825.96
768.821	16865.28
769.157	17056.01
769.492	17180.07
769.828	17241.76
770.164	17279.73
770.5	17509.33
770.836	17510.46
771.171	17516.79
771.507	17744.12
771.842	17796.78
772.178	17873.61
772.513	17990.45
772.849	18002.2
773.184	18058.01
773.519	18246.26
773.855	18314.28
774.19	18344.56
774.525	18400.6
774.86	18521.73
775.195	18576.42
775.53	18527.83
775.865	18513.82
776.2	18549.3
776.535	18590.88
776.87	18559.47
777.205	18636.98
777.539	18698.45
777.874	18784.1
778.209	18774.61
778.543	18781.84
778.878	18781.84
779.212	18751.1
779.547	18790.88
779.881	18819.58
780.215	18771.89
780.55	18882.85
780.884	18782.06
781.218	18828.84
781.552	18934.38
781.886	18856.86
782.22	18835.85
782.554	18763.08
782.888	18668.85
783.222	18701.39
783.556	18720.14
783.889	18659.81
784.223	18625.23
784.557	18677.66
784.89	18653.25
785.224	18586.36
785.557	18533.26
785.891	18578.9
786.224	18585.01
786.558	18626.59
786.891	18526.7
787.224	18526.02
787.557	18504.56
787.891	18534.61
788.224	18475.63
788.557	18474.73
788.89	18362.64
789.223	18585.23
789.556	18356.99
789.888	18363.99
790.221	18350.44
790.554	18207.84
790.887	18226.15
791.219	18218.91
791.552	18172.14
791.884	18188.18
792.217	18108.86
792.549	18077
792.882	17994.96
793.214	18040.16
793.546	17924.68
793.879	17941.63
794.211	17739.15
794.543	17879.71
794.875	17880.39
795.207	17952.93
795.539	17806.5
795.871	17846.95
796.203	17671.81
796.535	17574.64
796.867	17577.35
797.198	17510.68
797.53	17542.55
797.862	17353.85
798.193	17439.73
798.525	17401.31
798.856	17332.61
799.188	17202.44
799.519	17197.25
799.85	17049.45
800.182	17196.79
800.513	17191.14
800.844	16897.82
801.175	17077.7
801.506	17003.58
801.837	16948.66
802.168	16917.03
802.499	16846.75
802.83	16858.05
803.161	16877.48
803.491	16754.55
803.822	16848.1
804.153	16646.75
804.483	16513.42
804.814	16552.97
805.145	16479.07
805.475	16466.64
805.805	16512.97
806.136	16498.28
806.466	16433.2
806.796	16416.7
807.126	16231.4
807.457	16232.3
807.787	16335.35
808.117	16221
808.447	16150.04
808.777	16217.61
809.107	16075.02
809.436	16105.75
809.766	16037.28
810.096	16040.21
810.426	15911.86
810.755	15887.68
811.085	15959.09
811.414	15871.18
811.744	15700.79
812.073	15884.96
812.403	15792.31
812.732	15697.62
813.061	15727.91
813.39	15595.93
813.719	15644.52
814.049	15690.17
814.378	15566.55
814.707	15659.66
815.036	15566.33
815.365	15503.96
815.693	15339.44
816.022	15397.07
816.351	15279.78
816.68	15270.74
817.008	15359.33
817.337	15231.87
817.665	15091.31
817.994	15265.77
818.322	15206.34
818.651	15039.79
818.979	15060.8
819.307	15174.93
819.636	15074.82
819.964	14974.25
820.292	14988.49
820.62	15023.29
820.948	14968.6
821.276	15001.15
821.604	14927.7
821.932	14998.89
822.259	14924.08
822.587	15024.2
822.915	14997.98
823.243	14957.76
823.57	14945.33
823.898	14945.78
824.225	14895.84
824.553	14905.1
824.88	14942.16
825.207	14957.08
825.535	14934.71
825.862	14902.84
826.189	14979.9
826.516	15026.91
826.843	15014.25
827.17	15043.18
827.497	15056.28
827.824	14907.81
828.151	15071.65
828.478	14971.09
828.805	15079.79
829.131	15063.29
829.458	14978.55
829.785	14949.17
830.111	14968.83
830.438	15080.24
830.764	14954.14
831.09	15129.05
831.417	14986.91
831.743	15005.44
832.069	15111.65
832.395	14855.61
832.722	14934.71
833.048	14906.91
833.374	14923.41
833.7	14912.79
834.026	14923.86
834.351	14925.44
834.677	14920.47
835.003	14853.35
835.329	14906.01
835.654	14744.43
835.98	14755.73
836.306	14734.94
836.631	14703.3
836.956	14794.82
837.282	14800.7
837.607	14731.1
837.932	14716.63
838.258	14686.13
838.583	14707.37
838.908	14571.78
839.233	14585.34
839.558	14519.35
839.883	14521.61
840.208	14424.66
840.533	14463.98
840.858	14440.26
841.182	14399.58
841.507	14478.67
841.832	14440.48
842.156	14404.78
842.481	14415.62
842.805	14302.41
843.13	14314.38
843.454	14249.07
843.778	14228.06
844.103	14111.68
844.427	14162.3
844.751	14164.56
845.075	14027.84
845.399	14057.89
845.723	13962.98
846.047	14059.25
846.371	13914.85
846.695	13987.61
847.019	13788.75
847.343	13776.77
847.666	13697.68
847.99	13571.35
848.313	13647.96
848.637	13571.58
848.96	13487.06
849.284	13449.55
849.607	13371.36
849.931	13320.29
850.254	13235.54
850.577	13228.08
850.9	13179.72
851.223	13079.39
851.546	13047.07
851.869	12905.38
852.192	13059.5
852.515	12849.11
852.838	12880.75
853.161	12781.99
853.483	12700.19
853.806	12678.95
854.129	12653.18
854.451	12670.81
854.774	12574.99
855.096	12593.3
855.419	12528.67
855.741	12439.18
856.063	12380.65
856.385	12372.74
856.708	12381.33
857.03	12289.58
857.352	12309.24
857.674	12285.51
857.996	12248.45
858.318	12090.49
858.64	12101.33
858.961	12133.2
859.283	12025.18
859.605	11943.82
859.926	12032.18
860.248	11938.4
860.57	11916.48
860.891	11972.98
861.212	11989.92
861.534	11797.39
861.855	11745.41
862.176	11800.78
862.498	11776.37
862.819	11778.63
863.14	11716.71
863.461	11664.96
863.782	11676.71
864.103	11761.46
864.424	11605.53
864.745	11631.52
865.065	11550.61
865.386	11568.69
865.707	11483.5
866.027	11549.71
866.348	11500.22
866.668	11516.04
866.989	11436.95
867.309	11462.48
867.63	11436.49
867.95	11351.3
868.27	11330.06
868.59	11371.41
868.91	11300.45
869.23	11250.74
869.55	11263.39
869.87	11287.34
870.19	11296.16
870.51	11265.2
870.83	11309.04
871.15	11165.54
871.469	11173.9
871.789	11166.9
872.109	11165.77
872.428	11153.11
872.748	11062.72
873.067	11114.92
873.386	11104.3
873.706	11116.73
874.025	10999.89
874.344	10982.72
874.663	11054.36
874.982	10943.4
875.301	11009.61
875.62	10994.7
875.939	11015.71
876.258	10960.12
876.577	10887.58
876.896	10891.65
877.214	10808.71
877.533	10904.76
877.852	10854.14
878.17	10798.09
878.489	10869.95
878.807	10814.14
879.125	10754.48
879.444	10714.48
879.762	10773.46
880.08	10806.45
880.398	10715.83
880.716	10749.05
881.034	10707.02
881.352	10617.31
881.67	10597.42
881.988	10686
882.306	10534.82
882.624	10553.13
882.941	10493.02
883.259	10467.48
883.577	10516.07
883.894	10410.98
884.212	10497.53
884.529	10394.03
884.846	10337.99
885.164	10368.05
885.481	10340.25
885.798	10342.28
886.115	10261.38
886.432	10266.58
886.75	10243.08
887.067	10236.75
887.383	10226.81
887.7	10210.08
888.017	10176.19
888.334	10176.19
888.651	10135.74
888.967	10101.39
889.284	10027.26
889.6	10044.21
889.917	9915.86
890.233	9933.93
890.55	9868.85
890.866	9915.63
891.182	9913.37
891.498	9860.26
891.815	9785.01
892.131	9731.68
892.447	9774.39
892.763	9722.19
893.079	9693.49
893.395	9639.7
893.71	9560.84
894.026	9622.76
894.342	9613.49
894.657	9551.12
894.973	9467.05
895.289	9459.37
895.604	9432.48
895.92	9346.6
896.235	9386.38
896.55	9342.54
896.865	9332.14
897.181	9299.15
897.496	9276.78
897.811	9229.55
898.126	9142.32
898.441	9177.34
898.756	9183.67
899.071	9082.43
899.386	9096.44
899.7	8991.59
900.015	8968.31
900.33	8970.34
900.644	8886.73
900.959	8918.14
901.273	8911.14
901.588	8805.6
901.902	8820.06
902.216	8753.4
902.531	8729.67
902.845	8673.18
903.159	8717.47
903.473	8595.21
903.787	8582.56
904.101	8573.97
904.415	8503.24
904.729	8486.74
905.042	8423.46
905.356	8469.57
905.67	8391.15
905.984	8402.9
906.297	8353.86
906.611	8300.98
906.924	8291.27
907.237	8199.74
907.551	8257.14
907.864	8166.3
908.177	8158.61
908.491	8171.49
908.804	8052.85
909.117	8044.72
909.43	8020.76
909.743	7949.81
910.056	7927.43
910.368	7968.11
910.681	7927.43
910.994	7839.3
911.307	7887.66
911.619	7745.97
911.932	7759.53
912.244	7663.03
912.557	7730.83
912.869	7670.72
913.181	7664.61
913.494	7613.77
913.806	7576.93
914.118	7519.53
914.43	7488.8
914.742	7522.92
915.054	7469.82
915.366	7396.37
915.678	7395.7
915.99	7332.87
916.302	7305.08
916.613	7243.83
916.925	7295.59
917.236	7186.21
917.548	7190.73
917.859	7152.99
918.171	7133.56
918.482	7103.05
918.794	7104.86
919.105	7073.44
919.416	6981.47
919.727	7047.46
920.038	6964.29
920.349	6925.65
920.66	6909.15
920.971	6924.3
921.282	6849.95
921.593	6807.01
921.903	6771.08
922.214	6744.64
922.525	6770.85
922.835	6715.04
923.146	6649.05
923.456	6595.72
923.767	6603.63
924.077	6629.16
924.387	6632.1
924.697	6548.49
925.008	6532.67
925.318	6472.78
925.628	6455.38
925.938	6418.09
926.248	6415.38
926.558	6353.91
926.867	6372.67
927.177	6370.86
927.487	6334.48
927.796	6245.22
928.106	6306.68
928.416	6225.1
928.725	6212.45
929.034	6204.31
929.344	6176.29
929.653	6160.47
929.962	6116.41
930.271	6081.15
930.581	6107.82
930.89	6015.39
931.199	6010.65
931.508	5994.6
931.817	6013.36
932.125	5931.55
932.434	5984.21
932.743	5823.08
933.051	5823.31
933.36	5832.57
933.669	5811.78
933.977	5819.92
934.286	5735.63
934.594	5753.7
934.902	5719.36
935.21	5629.41
935.519	5680.26
935.827	5640.49
936.135	5580.15
936.443	5545.35
936.751	5602.97
937.059	5578.57
937.367	5478.23
937.674	5507.16
937.982	5495.18
938.29	5488.63
938.597	5428.97
938.905	5388.52
939.213	5383.54
939.52	5338.8
939.827	5381.51
940.135	5327.73
940.442	5314.85
940.749	5287.5
941.056	5336.31
941.363	5203.89
941.67	5260.38
941.977	5179.71
942.284	5126.15
942.591	5142.42
942.898	5112.37
943.205	5113.95
943.511	5102.87
943.818	5108.07
944.125	4975.19
944.431	5061.75
944.738	5006.38
945.044	4979.04
945.35	4951.47
945.657	4933.84
945.963	4880.73
946.269	4878.47
946.575	4842.77
946.881	4857.68
947.187	4825.37
947.493	4753.96
947.799	4772.49
948.105	4738.82
948.41	4763
948.716	4720.74
949.022	4724.13
949.327	4698.82
949.633	4614.75
949.938	4622.43
950.244	4618.14
950.549	4568.88
950.854	4504.92
951.16	4531.59
951.465	4581.31
951.77	4550.8
952.075	4490.91
952.38	4469.44
952.685	4479.84
952.99	4432.84
953.294	4384.48
953.599	4372.05
953.904	4357.81
954.209	4355.55
954.513	4328.88
954.818	4309
955.122	4315.55
955.426	4290.01
955.731	4299.05
956.035	4236.91
956.339	4263.8
956.643	4210.24
956.948	4222.67
957.252	4206.4
957.556	4152.39
957.86	4117.82
958.163	4101.54
958.467	4109.68
958.771	4099.51
959.075	4118.27
959.378	4083.69
959.682	4038.72
959.985	4002.79
960.289	3999.85
960.592	3969.8
960.896	3986.97
961.199	3944.71
961.502	3891.15
961.805	3929.8
962.108	3921.89
962.411	3911.04
962.714	3852.29
963.017	3850.48
963.32	3850.25
963.623	3819.97
963.926	3829.24
964.228	3796.24
964.531	3775.9
964.833	3766.41
965.136	3732.29
965.438	3702.91
965.741	3709.46
966.043	3715.57
966.345	3692.52
966.648	3665.85
966.95	3644.61
967.252	3626.08
967.554	3644.38
967.856	3599.19
968.158	3575.68
968.46	3570.94
968.761	3561.9
969.063	3521.45
969.365	3553.31
969.666	3491.17
969.968	3483.71
970.269	3487.78
970.571	3436.03
970.872	3451.17
971.174	3476.93
971.475	3430.6
971.776	3387.44
972.077	3401.45
972.378	3384.95
972.679	3344.73
972.98	3333.43
973.281	3318.29
973.582	3297.27
973.883	3298.18
974.183	3264.96
974.484	3281.68
974.785	3264.5
975.085	3239.65
975.386	3235.13
975.686	3219.08
975.986	3191.96
976.287	3170.95
976.587	3173.66
976.887	3139.08
977.187	3138.63
977.487	3149.03
977.787	3140.44
978.087	3084.85
978.387	3076.26
978.687	3082.59
978.987	3065.41
979.286	3055.7
979.586	3036.71
979.885	2991.97
980.185	3024.74
980.484	2990.84
980.784	3012.99
981.083	2965.3
981.382	2983.83
981.682	2931.18
981.981	2913.55
982.28	2901.58
982.579	2873.1
982.878	2876.04
983.177	2863.61
983.475	2876.94
983.774	2832.88
984.073	2841.92
984.372	2796.04
984.67	2797.4
984.969	2810.05
985.267	2785.2
985.566	2797.4
985.864	2751.07
986.162	2750.62
986.461	2685.99
986.759	2693.67
987.057	2700
987.355	2679.21
987.653	2710.39
987.951	2659.77
988.249	2626.1
988.547	2676.95
988.844	2644.63
989.142	2600.12
989.44	2628.36
989.737	2603.05
990.035	2598.31
990.332	2559.89
990.63	2577.74
990.927	2540.23
991.224	2524.19
991.521	2521.93
991.819	2515.82
992.116	2504.07
992.413	2488.93
992.71	2482.6
993.006	2458.2
993.303	2455.71
993.6	2462.49
993.897	2444.41
994.193	2421.36
994.49	2393.79
994.787	2410.74
995.083	2401.93
995.379	2370.06
995.676	2370.06
995.972	2383.17
996.268	2309.28
996.565	2363.96
996.861	2336.62
997.157	2347.69
997.453	2273.8
997.749	2297.52
998.044	2263.4
998.34	2272.21
998.636	2261.14
998.932	2259.56
999.227	2227.7
999.523	2238.99
999.818	2190.18
1000.114	2205.1
1000.409	2177.08
1000.704	2158.32
1001	2147.92
1001.295	2135.49
1001.59	2144.76
1001.885	2113.35
1002.18	2124.87
1002.475	2071.77
1002.77	2123.29
1003.065	2094.37
1003.359	2100.47
1003.654	2067.02
1003.949	2020.24
1004.243	2029.73
1004.538	2030.64
1004.832	2019.34
1005.127	2013.01
1005.421	2022.5
1005.715	1959.68
1006.009	1970.3
1006.304	1949.28
1006.598	1960.81
1006.892	1939.12
1007.186	1917.65
1007.48	1947.03
1007.773	1905.67
1008.067	1907.48
1008.361	1883.75
1008.655	1900.92
1008.948	1836.75
1009.242	1880.81
1009.535	1826.8
1009.829	1826.8
1010.122	1827.25
1010.415	1783.19
1010.708	1815.96
1011.001	1779.8
1011.295	1752.45
1011.588	1811.21
1011.881	1744.32
1012.173	1739.8
1012.466	1714.26
1012.759	1712.68
1013.052	1736.86
1013.344	1727.6
1013.637	1686.92
1013.93	1669.07
1014.222	1633.59
1014.514	1675.85
1014.807	1670.65
1015.099	1634.72
1015.391	1614.83
1015.683	1602.18
1015.976	1595.62
1016.268	1618.67
1016.56	1607.6
1016.851	1572.8
1017.143	1578.45
1017.435	1559.46
1017.727	1559.46
1018.018	1575.06
1018.31	1516.75
1018.602	1501.61
1018.893	1520.82
1019.185	1516.08
1019.476	1501.84
1019.767	1501.84
1020.058	1472.69
1020.35	1484.44
1020.641	1455.06
1020.932	1448.96
1021.223	1431.33
1021.514	1428.62
1021.804	1399.02
1022.095	1410.09
1022.386	1395.63
1022.677	1384.78
1022.967	1375.97
1023.258	1365.8
1023.548	1362.41
1023.839	1371.22
1024.129	1332.35
1024.419	1337.32
1024.709	1356.31
1025	1325.8
1025.29	1312.24
1025.58	1307.49
1025.87	1292.58
1026.16	1289.19
1026.449	1264.33
1026.739	1259.59
1027.029	1265.01
1027.319	1247.83
1027.608	1259.59
1027.898	1266.37
1028.187	1230.66
1028.477	1222.3
1028.766	1202.41
1029.055	1203.99
1029.344	1206.25
1029.634	1196.08
1029.923	1177.78
1030.212	1185.46
1030.501	1151.34
1030.79	1207.61
1031.078	1144.56
1031.367	1152.47
1031.656	1141.17
1031.945	1140.49
1032.233	1132.58
1032.522	1113.37
1032.81	1119.02
1033.099	1121.06
1033.387	1108.63
1033.675	1093.26
1033.963	1072.7
1034.251	1082.19
1034.54	1063.66
1034.828	1069.31
1035.116	1053.04
1035.403	1053.72
1035.691	1047.61
1035.979	1033.38
1036.267	1022.53
1036.554	1004
1036.842	1020.72
1037.129	1020.72
1037.417	997.9
1037.704	990.67
1037.992	998.12
1038.279	991.34
1038.566	972.81
1038.853	972.81
1039.14	972.81
