Data from hue_24_FLMS001491_00054.txt Node
Date: Tue Feb 07 17:12:27 GMT 2017
User: dcchb
Spectrometer: FLMS00149
Trigger mode: 0
Integration Time (sec): 2.000000E-2
Scans to average: 10
Electric dark correction enabled: true
Nonlinearity correction enabled: false
Boxcar width: 0
XAxis mode: Wavelengths
Number of Pixels in Spectrum: 2048
>>>>>Begin Spectral Data<<<<<
341.393	-12.87
341.776	-12.87
342.16	-12.87
342.543	-41.34
342.927	-68.68
343.31	-71.85
343.693	-66.42
344.077	-70.27
344.46	-89.93
344.843	-42.7
345.226	-44.73
345.61	-32.98
345.993	0.92
346.376	-13.32
346.759	7.47
347.142	40.47
347.525	28.71
347.908	62.61
348.291	85.44
348.674	96.96
349.057	109.62
349.44	128.15
349.823	150.97
350.206	194.81
350.588	199.56
350.971	217.41
351.354	245.21
351.737	235.94
352.119	261.02
352.502	267.35
352.884	288.82
353.267	284.07
353.65	291.76
354.032	325.88
354.414	306.67
354.797	294.92
355.179	326.56
355.562	318.42
355.944	331.76
356.326	341.25
356.709	312.55
357.091	332.21
357.473	340.34
357.855	344.64
358.238	349.61
358.62	336.5
359.002	351.19
359.384	367.01
359.766	352.32
360.148	348.25
360.53	364.07
360.912	330.85
361.294	339.89
361.676	340.34
362.057	322.72
362.439	323.17
362.821	342.6
363.203	334.47
363.584	350.97
363.966	341.25
364.348	312.55
364.729	314.81
365.111	320.91
365.493	306.9
365.874	327.69
366.256	319.55
366.637	316.16
367.019	317.52
367.4	324.3
367.781	302.61
368.163	312.32
368.544	308.48
368.925	306.67
369.306	319.78
369.688	313.45
370.069	327.46
370.45	329.5
370.831	311.42
371.212	334.47
371.593	324.98
371.974	332.89
372.355	341.7
372.736	308.93
373.117	309.16
373.498	330.4
373.879	336.05
374.26	331.98
374.641	315.03
375.021	349.61
375.402	341.02
375.783	333.79
376.163	332.21
376.544	339.67
376.925	322.27
377.305	324.07
377.686	327.46
378.066	348.93
378.447	327.24
378.827	345.99
379.208	360.91
379.588	332.43
379.968	351.19
380.349	351.42
380.729	333.11
381.109	328.37
381.489	354.58
381.87	345.77
382.25	348.93
382.63	344.19
383.01	342.6
383.39	347.58
383.77	361.13
384.15	350.06
384.53	340.57
384.91	360.23
385.29	349.61
385.67	357.07
386.049	363.39
386.429	372.43
386.809	367.46
387.189	340.34
387.568	375.37
387.948	351.87
388.328	357.29
388.707	361.59
389.087	361.36
389.466	349.61
389.846	356.16
390.225	363.39
390.605	379.44
390.984	383.73
391.363	392.32
391.743	365.65
392.122	380.34
392.501	372.66
392.881	379.44
393.26	396.39
393.639	374.24
394.018	376.73
394.397	376.05
394.776	373.11
395.155	379.67
395.534	379.67
395.913	377.18
396.292	395.71
396.671	374.47
397.05	380.34
397.429	388.25
397.808	366.11
398.186	394.58
398.565	380.8
398.944	390.51
399.323	385.99
399.701	403.62
400.08	390.74
400.458	396.16
400.837	387.12
401.215	400.68
401.594	410.62
401.972	400.23
402.351	409.95
402.729	400
403.107	422.83
403.486	387.57
403.864	384.18
404.242	408.59
404.62	424.18
404.999	411.53
405.377	423.96
405.755	435.48
406.133	420.57
406.511	417.4
406.889	396.16
407.267	430.74
407.645	428.03
408.023	432.32
408.401	422.38
408.779	430.51
409.156	449.49
409.534	444.75
409.912	424.41
410.29	458.76
410.667	438.65
411.045	465.31
411.422	444.75
411.8	448.59
412.178	442.94
412.555	459.89
412.933	450.62
413.31	443.62
413.687	461.02
414.065	483.62
414.442	475.93
414.819	458.53
415.197	459.21
415.574	474.35
415.951	481.13
416.328	492.66
416.705	483.39
417.082	502.37
417.46	489.94
417.837	494.69
418.214	483.39
418.591	477.52
418.967	496.95
419.344	511.87
419.721	524.29
420.098	514.8
420.475	515.93
420.852	510.96
421.228	514.12
421.605	501.92
421.982	501.47
422.358	527.01
422.735	519.55
423.111	530.4
423.488	505.31
423.864	538.98
424.241	552.77
424.617	564.97
424.994	545.08
425.37	553.67
425.746	543.73
426.123	560
426.499	554.58
426.875	560.68
427.251	578.53
427.627	582.6
428.003	560.23
428.379	578.3
428.756	578.53
429.132	568.81
429.507	591.41
429.883	588.02
430.259	600.68
430.635	603.16
431.011	590.28
431.387	605.65
431.763	618.3
432.138	618.75
432.514	610.39
432.89	625.53
433.265	641.13
433.641	634.57
434.016	645.42
434.392	639.09
434.767	639.09
435.143	657.4
435.518	660.34
435.894	671.63
436.269	659.88
436.644	671.41
437.02	671.63
437.395	687
437.77	690.62
438.145	699.66
438.52	711.63
438.895	685.65
439.271	677.96
439.646	719.54
440.021	718.41
440.395	721.8
440.77	684.52
441.145	718.19
441.52	733.78
441.895	727.9
442.27	739.88
442.645	740.56
443.019	728.58
443.394	736.49
443.769	772.88
444.143	767.9
444.518	749.6
444.892	729.71
445.267	746.66
445.641	787.79
446.016	757.28
446.39	754.8
446.764	761.35
447.139	755.25
447.513	784.63
447.887	788.47
448.262	764.97
448.636	762.93
449.01	798.41
449.384	811.97
449.758	797.51
450.132	808.58
450.506	814
450.88	814.46
451.254	816.49
451.628	830.05
452.002	836.38
452.376	847
452.75	865.53
453.123	864.85
453.497	885.41
453.871	884.28
454.244	877.28
454.618	890.39
454.992	907.33
455.365	885.64
455.739	901.23
456.112	884.96
456.486	912.76
456.859	942.36
457.232	905.3
457.606	926.09
457.979	950.72
458.352	982.36
458.725	965.64
459.099	991.4
459.472	1011.29
459.845	1000.44
460.218	1019.87
460.591	1010.84
460.964	985.52
461.337	1015.58
461.71	1046.77
462.083	1070.04
462.456	1076.82
462.829	1074.79
463.201	1073.88
463.574	1086.77
463.947	1093.77
464.32	1132.41
464.692	1126.31
465.065	1122.24
465.438	1139.87
465.81	1169.02
466.183	1157.72
466.555	1208.8
466.928	1233.2
467.3	1219.42
467.672	1237.5
468.045	1257.38
468.417	1249.25
468.789	1266.42
469.161	1260.55
469.534	1319.08
469.906	1306.42
470.278	1344.16
470.65	1347.1
471.022	1358.62
471.394	1360.66
471.766	1411.5
472.138	1384.84
472.51	1434.33
472.882	1465.51
473.253	1511.39
473.625	1499.86
473.997	1525.62
474.369	1550.93
474.74	1560.88
475.112	1591.38
475.484	1611.95
475.855	1665.73
476.227	1649.46
476.598	1684.49
476.97	1722
477.341	1785.28
477.713	1820.76
478.084	1785.96
478.455	1863.02
478.827	1874.77
479.198	1949.12
479.569	1950.47
479.94	1992.96
480.311	2021.66
480.682	2074.54
481.053	2111.37
481.424	2115.66
481.795	2187.98
482.166	2215.1
482.537	2249.22
482.908	2302.78
483.279	2330.12
483.65	2404.47
484.021	2452.83
484.391	2454.41
484.762	2484.69
485.133	2517.69
485.503	2595.88
485.874	2616.22
486.244	2659.15
486.615	2720.85
486.985	2732.37
487.356	2811.24
487.726	2846.72
488.097	2912.71
488.467	2946.6
488.837	2975.98
489.207	3052.59
489.578	3091.01
489.948	3110.89
490.318	3160.83
490.688	3191.12
491.058	3244.67
491.428	3288.29
491.798	3379.59
492.168	3381.17
492.538	3422.75
492.908	3464.56
493.278	3544.1
493.648	3528.51
494.017	3588.62
494.387	3608.96
494.757	3665.68
495.126	3715.17
495.496	3724.44
495.866	3768.73
496.235	3824.55
496.605	3846.01
496.974	3881.95
497.344	3923.3
497.713	3945.45
498.082	3973.02
498.452	4044.43
498.821	4025.45
499.19	4055.5
499.559	4112
499.928	4161.71
500.298	4177.08
500.667	4195.38
501.036	4231.77
501.405	4277.19
501.774	4281.03
502.143	4305.21
502.512	4343.18
502.88	4334.59
503.249	4384.53
503.618	4379.79
503.987	4452.78
504.356	4462.72
504.724	4495.26
505.093	4488.71
505.462	4516.73
505.83	4517.41
506.199	4568.26
506.567	4666.56
506.936	4668.37
507.304	4663.17
507.672	4701.59
508.041	4726.44
508.409	4751.98
508.777	4782.04
509.145	4827.01
509.514	4794.24
509.882	4807.35
510.25	4880.11
510.618	4869.04
510.986	4904.97
511.354	4955.59
511.722	4977.06
512.09	5006.21
512.458	4963.5
512.826	5070.84
513.193	5059.09
513.561	5056.38
513.929	5137.51
514.297	5109.03
514.664	5139.09
515.032	5200.33
515.4	5198.52
515.767	5228.58
516.135	5234.45
516.502	5233.55
516.869	5338.63
517.237	5308.12
517.604	5296.82
517.972	5364.39
518.339	5374.56
518.706	5399.87
519.073	5383.83
519.44	5421.34
519.808	5422.7
520.175	5424.96
520.542	5447.78
520.909	5526.87
521.276	5550.6
521.643	5554.9
522.009	5618.62
522.376	5596.48
522.743	5629.7
523.11	5681.22
523.477	5747.21
523.843	5746.76
524.21	5816.58
524.577	5840.09
524.943	5836.02
525.31	5848
525.676	5909.01
526.043	5970.03
526.409	5939.29
526.776	6042.34
527.142	6045.05
527.508	6073.75
527.874	6169.57
528.241	6141.32
528.607	6131.6
528.973	6223.81
529.339	6194.2
529.705	6262.9
530.071	6313.07
530.437	6299.28
530.803	6404.59
531.169	6372.95
531.535	6386.96
531.901	6436
532.267	6436.68
532.632	6493.63
532.998	6471.03
533.364	6603
533.73	6574.53
534.095	6604.36
534.461	6640.29
534.826	6652.95
535.192	6639.39
535.557	6719.61
535.923	6753.06
536.288	6770.91
536.653	6758.25
537.019	6804.81
537.384	6806.16
537.749	6880.51
538.114	6911.24
538.479	6908.99
538.845	6921.64
539.21	6892.71
539.575	6968.87
539.94	6965.03
540.305	7080.51
540.67	7032.15
541.034	7080.28
541.399	7105.82
541.764	7112.6
542.129	7190.79
542.494	7163.89
542.858	7221.75
543.223	7214.97
543.587	7262.42
543.952	7244.34
544.316	7333.61
544.681	7352.82
545.045	7351.46
545.41	7351.23
545.774	7443.21
546.138	7386.71
546.503	7492.92
546.867	7455.64
547.231	7534.73
547.595	7588.74
547.959	7597.55
548.324	7655.18
548.688	7655.86
549.052	7651.79
549.416	7660.83
549.779	7666.71
550.143	7735.63
550.507	7819.24
550.871	7802.52
551.235	7829.19
551.599	7931.11
551.962	7903.08
552.326	7892.46
552.689	7974.04
553.053	7886.36
553.417	7950.54
553.78	8042.74
554.143	7995.28
554.507	8106.69
554.87	8097.65
555.234	8164.09
555.597	8139.01
555.96	8224.88
556.323	8185.79
556.686	8252.68
557.05	8287.71
557.413	8291.55
557.776	8379.91
558.139	8367.93
558.502	8422.62
558.865	8382.39
559.228	8467.59
559.59	8487.7
559.953	8468.72
560.316	8579.22
560.679	8590.52
561.041	8622.16
561.404	8619.67
561.767	8656.51
562.129	8597.75
562.492	8719.56
562.854	8774.25
563.217	8739.45
563.579	8756.62
563.941	8857.86
564.304	8944.86
564.666	8985.77
565.028	8913.23
565.39	8955.71
565.753	9038.19
566.115	9098.76
566.477	9029.38
566.839	9121.81
567.201	9149.83
567.563	9127.01
567.925	9185.31
568.287	9212.43
568.648	9257.85
569.01	9236.61
569.372	9385.3
569.734	9280.67
570.095	9425.75
570.457	9433.89
570.819	9449.03
571.18	9437.73
571.542	9585.3
571.903	9592.08
572.265	9628.91
572.626	9696.48
572.987	9709.36
573.349	9768.34
573.71	9868.23
574.071	9856.25
574.432	9926.08
574.794	10015.12
575.155	10001.11
575.516	10090.14
575.877	10134.21
576.238	10200.2
576.599	10321.32
576.96	10426.63
577.32	10457.82
577.681	10529.23
578.042	10605.16
578.403	10635.89
578.763	10799.96
579.124	10820.75
579.485	10947.97
579.845	11177.8
580.206	11119.72
580.566	11292.37
580.927	11327.85
581.287	11471.58
581.648	11610.56
582.008	11719.93
582.368	11822.98
582.728	11956.76
583.089	12148.17
583.449	12227.04
583.809	12489.86
584.169	12645.78
584.529	12716.74
584.889	13053.68
585.249	13170.74
585.609	13283.73
585.969	13566.66
586.329	13727.11
586.688	13964.84
587.048	14137.5
587.408	14417.49
587.768	14596.69
588.127	14819.74
588.487	14961.43
588.846	15354.64
589.206	15405.94
589.565	15834.17
589.925	16040.04
590.284	16236.65
590.643	16583.08
591.003	16842.74
591.362	17199.56
591.721	17385.55
592.08	17630.29
592.44	17984.85
592.799	18215.81
593.158	18580.09
593.517	18789.35
593.876	19090.13
594.235	19389.79
594.593	19733.28
594.952	20022.09
595.311	20207.62
595.67	20670.66
596.029	21040.59
596.387	21246.24
596.746	21706.56
597.104	21908.14
597.463	22209.15
597.822	22541.12
598.18	22820.66
598.538	23065.17
598.897	23533.41
599.255	23641.2
599.613	24226.5
599.972	24483.66
600.33	24732.7
600.688	24925.46
601.046	25318.9
601.404	25767.92
601.762	25938.09
602.12	26318.64
602.478	26602.03
602.836	26806.54
603.194	27105.06
603.552	27486.75
603.91	27624.37
604.268	28106.85
604.625	28252.38
604.983	28633.16
605.341	28707.73
605.698	29160.15
606.056	29395.85
606.413	29662.96
606.771	30032.9
607.128	30257.52
607.485	30243.06
607.843	30723.05
608.2	31033.77
608.557	31390.6
608.914	31530.48
609.272	31792.85
609.629	32085.72
609.986	32290.24
610.343	32372.72
610.7	32881.64
611.057	32933.39
611.414	33072.36
611.771	33255.86
612.127	33748.51
612.484	33899.24
612.841	34103.98
613.198	34226.68
613.554	34360.92
613.911	34602.27
614.267	34802.04
614.624	34899.89
614.98	35176.26
615.337	35437.95
615.693	35562.02
616.05	35728.57
616.406	36066.41
616.762	36069.8
617.118	36228.44
617.475	36438.38
617.831	36606.06
618.187	36751.59
618.543	36947.29
618.899	37229.77
619.255	37277.68
619.611	37395.64
619.967	37653.49
620.323	37792.24
620.678	37715.41
621.034	37898.68
621.39	37901.16
621.746	37943.2
622.101	38565.33
622.457	38350.87
622.812	38577.53
623.168	38732.1
623.523	38743.4
623.879	38947.69
624.234	38729.62
624.589	39044.19
624.945	39036.73
625.3	39272.2
625.655	39310.84
626.01	39521.91
626.365	39456.15
626.72	39566.43
627.075	39521.69
627.43	39652.76
627.785	39609.59
628.14	39805.3
628.495	39751.51
628.85	39879.87
629.205	39763.04
629.559	40084.84
629.914	39875.58
630.269	40018.85
630.623	39962.13
630.978	40092.07
631.332	40264.04
631.687	40352.4
632.041	40162.35
632.396	40201.67
632.75	40175.68
633.104	40286.19
633.459	40096.13
633.813	40165.96
634.167	40309.46
634.521	40290.25
634.875	40298.84
635.229	40263.36
635.583	40192.63
635.937	40243.25
636.291	40376.58
636.645	40286.86
636.999	40062.92
637.352	40287.09
637.706	40189.01
638.06	40365.96
638.413	40351.27
638.767	40125.96
639.121	40210.71
639.474	40077.83
639.828	40142.46
640.181	40211.84
640.534	40256.13
640.888	40153.99
641.241	40052.07
641.594	40165.51
641.947	40315.11
642.301	40257.26
642.654	40243.02
643.007	40330.71
643.36	40144.5
643.713	40141.33
644.066	40268.56
644.419	39986.53
644.771	39896.37
645.124	39531.63
645.477	39524.17
645.83	39116.5
646.182	39183.62
646.535	38961.93
646.888	39181.13
647.24	38880.8
647.593	39166.22
647.945	39069.95
648.298	38872.89
648.65	38846.22
649.002	38679.45
649.355	38920.35
649.707	38822.72
650.059	39140.23
650.411	39468.58
650.763	39517.85
651.115	40001.45
651.467	39689.37
651.819	39899.76
652.171	39762.36
652.523	39718.74
652.875	39709.48
653.227	39552.42
653.578	39796.26
653.93	39680.33
654.282	39631.06
654.633	39443.5
654.985	39563.27
655.337	39636.94
655.688	39594.45
656.039	39833.32
656.391	39430.84
656.742	39486.89
657.094	39467.45
657.445	39680.33
657.796	39536.83
658.147	39306.55
658.498	39442.59
658.849	39638.52
659.2	39385.87
659.551	39387.45
659.902	39516.72
660.253	39479.65
660.604	39429.49
660.955	39324.86
661.306	39485.3
661.656	39377.74
662.007	39452.54
662.358	39438.3
662.708	39547.9
663.059	39400.56
663.409	39123.51
663.76	39535.02
664.11	39424.06
664.461	39377.06
664.811	39226.78
665.161	39543.38
665.511	39332.54
665.862	39250.96
666.212	39430.84
666.562	39456.6
666.912	39267
667.262	39264.52
667.612	39259.32
667.962	39422.48
668.312	39267.23
668.662	39409.37
669.011	39309.94
669.361	39245.76
669.711	39322.6
670.06	39232.43
670.41	39225.88
670.76	39069.27
671.109	39280.11
671.459	39166.67
671.808	39081.02
672.157	39239.21
672.507	38931.42
672.856	39067.46
673.205	39026.11
673.554	39212.77
673.904	39012.32
674.253	39287.34
674.602	39163.96
674.951	38593.8
675.3	38337.31
675.649	38866.34
675.998	38869.05
676.346	38850.07
676.695	38984.75
677.044	38707.92
677.393	38911.08
677.741	38967.35
678.09	38831.54
678.438	38690.75
678.787	38797.41
679.135	38907.01
679.484	38549.96
679.832	38682.61
680.181	38603.07
680.529	38572.56
680.877	38494.6
681.225	38372.56
681.573	38714.02
681.922	38338.89
682.27	38375.95
682.618	38280.14
682.966	38148.16
683.314	38296.63
683.661	38145
684.009	38046.25
684.357	37982.29
684.705	37911.11
685.053	37989.98
685.4	37835.63
685.748	37776.87
686.095	37827.04
686.443	37674.96
686.79	37522.19
687.138	37643.09
687.485	37547.05
687.832	37432.02
688.18	37500.05
688.527	37251.46
688.874	37185.48
689.221	37166.49
689.568	37105.25
689.915	36984.58
690.262	36960.4
690.609	36856.45
690.956	36774.87
691.303	36661.65
691.65	36533.52
691.997	36514.08
692.344	36422.79
692.69	36376.23
693.037	36309.79
693.383	36080.42
693.73	36176.46
694.077	36017.82
694.423	35958.16
694.769	35938.05
695.116	35817.83
695.462	35691.96
695.808	35716.36
696.155	35808.79
696.501	35239.54
696.847	35355.92
697.193	35130.16
697.539	35244.96
697.885	35089.26
698.231	35040.22
698.577	34950.51
698.923	34945.08
699.269	34741.47
699.614	34698.76
699.96	34564.76
700.306	34566.34
700.651	34472.78
700.997	34394.82
701.342	34198.89
701.688	34259
702.033	34083.86
702.379	34192.79
702.724	34007.03
703.069	34067.82
703.415	33768.84
703.76	33807.03
704.105	33780.37
704.45	33722.74
704.795	33475.07
705.14	33343.77
705.485	33287.27
705.83	33147.17
706.175	33281.62
706.52	33145.81
706.865	33106.04
707.209	33096.09
707.554	32826.04
707.899	33028.52
708.243	32819.49
708.588	32644.13
708.932	32481.42
709.277	32480.97
709.621	32515.32
709.966	32250.24
710.31	32426.51
710.654	32026.52
710.998	32270.35
711.342	32078.94
711.687	31982
712.031	32001.43
712.375	31754.43
712.719	31833.75
713.063	31810.93
713.407	31883.24
713.75	31608
714.094	31583.82
714.438	31428.79
714.782	31580.88
715.125	31408.68
715.469	31494.1
715.812	31274.22
716.156	31266.76
716.499	31215.69
716.843	31199.65
717.186	31025.19
717.53	31160.55
717.873	31019.54
718.216	31058.86
718.559	30876.26
718.902	30758.08
719.246	30681.02
719.589	30725.08
719.932	30529.83
720.275	30500.91
720.617	30396.73
720.96	30493.22
721.303	30390.85
721.646	30411.64
721.989	30312.21
722.331	30350.4
722.674	30196.96
723.016	30209.62
723.359	30124.19
723.701	30162.84
724.044	29985.21
724.386	29844.2
724.729	30101.6
725.071	29887.14
725.413	29887.82
725.755	29756.29
726.097	29570.31
726.439	29676.75
726.782	29582.06
727.124	29688.95
727.465	29542.74
727.807	29542.97
728.149	29468.84
728.491	29473.14
728.833	29478.79
729.175	29314.05
729.516	29194.05
729.858	29360.37
730.199	29346.59
730.541	29219.13
730.882	29072.02
731.224	29155.18
731.565	28931.46
731.906	29084.22
732.248	29055.75
732.589	28915.86
732.93	28848.3
733.271	28735.08
733.612	28867.96
733.953	28752.7
734.294	28658.02
734.635	28591.58
734.976	28738.02
735.317	28554.97
735.658	28642.42
735.999	28501.41
736.339	28518.59
736.68	28507.51
737.021	28534.18
737.361	28388.42
737.702	28394.3
738.042	28289.21
738.383	28369.44
738.723	28331.7
739.063	28153.17
739.404	28392.94
739.744	28088.32
740.084	28157.24
740.424	28177.8
740.764	28032.05
741.104	28088.32
741.444	28042.89
741.784	27891.48
742.124	27895.1
742.464	27817.81
742.804	27818.94
743.143	27743.69
743.483	27939.84
743.823	27707.53
744.162	27699.4
744.502	27695.78
744.841	27525.17
745.181	27641.1
745.52	27470.48
745.86	27557.71
746.199	27483.36
746.538	27474.09
746.877	27488.56
747.216	27479.29
747.556	27322.69
747.895	27378.28
748.234	27246.53
748.573	27224.84
748.911	27248.34
749.25	27231.84
749.589	27211.73
749.928	27123.37
750.267	27209.92
750.605	27106.65
750.944	27054.67
751.283	27091.05
751.621	27012.19
751.96	26851.74
752.298	26894.45
752.636	26736.49
752.975	26729.93
753.313	26623.95
753.651	26665.98
753.989	26509.15
754.327	26531.75
754.666	26562.93
755.004	26452.2
755.342	26508.7
755.679	26485.65
756.017	26163.62
756.355	26310.96
756.693	26173.11
757.031	26220.34
757.368	26000.46
757.706	25975.6
758.044	25880.69
758.381	26052.21
758.719	25848.83
759.056	25875.94
759.394	25822.16
759.731	25618.32
760.068	25670.75
760.405	25495.16
760.743	25445.9
761.08	25470.53
761.417	25345.56
761.754	25350.76
762.091	25383.3
762.428	25177.21
762.765	25086.36
763.102	25247.71
763.438	24972.24
763.775	24925.23
764.112	25037.32
764.449	24989.87
764.785	24861.28
765.122	24550.33
765.458	24527.5
765.795	24495.42
766.131	24488.64
766.467	24417.68
766.804	24253.39
767.14	24213.61
767.476	24151.24
767.812	24052.94
768.148	23990.12
768.485	23941.08
768.821	23798.71
769.157	23800.29
769.492	23762.1
769.828	23725.27
770.164	23394.2
770.5	23376.57
770.836	23485.72
771.171	23243.02
771.507	23226.75
771.842	23019.52
772.178	23058.62
772.513	22965.96
772.849	22957.15
773.184	22815.91
773.519	22838.06
773.855	22707.21
774.19	22695.24
774.525	22561.45
774.86	22582.7
775.195	22575.01
775.53	22402.36
775.865	22235.81
776.2	22205.76
776.535	22084.41
776.87	22140.45
777.205	21950.4
777.539	21848.71
777.874	21860.23
778.209	21623.85
778.543	21617.75
778.878	21559.45
779.212	21546.34
779.547	21338.66
779.881	21413.24
780.215	21218.44
780.55	21265.9
780.884	21162.85
781.218	21072
781.552	20963.08
781.886	20888.5
782.22	20729.64
782.554	20747.49
782.888	20617.33
783.222	20515.86
783.556	20502.53
783.889	20472.02
784.223	20223.21
784.557	20203.78
784.89	20231.57
785.224	20140.95
785.557	20068.41
785.891	19914.07
786.224	19928.76
786.558	19949.09
786.891	19761.08
787.224	19698.71
787.557	19522.89
787.891	19536.22
788.224	19524.92
788.557	19536.68
788.89	19412.84
789.223	19368.09
789.556	19200.19
789.888	19209.9
790.221	19121.32
790.554	18989.35
790.887	18968.1
791.219	18904.15
791.552	18848.56
791.884	18792.29
792.217	18682.01
792.549	18726.75
792.882	18505.06
793.214	18575.57
793.546	18594.55
793.879	18366.08
794.211	18387.55
794.543	18324.96
794.875	18183.04
795.207	18233.43
795.539	18155.69
795.871	18237.05
796.203	17961.12
796.535	17872.99
796.867	17804.97
797.198	17768.59
797.53	17797.96
797.862	17683.84
798.193	17701.24
798.525	17604.3
798.856	17559.1
799.188	17390.74
799.519	17368.82
799.85	17319.11
800.182	17306.45
800.513	17299.67
800.844	17094.93
801.175	17100.36
801.506	17041.37
801.837	17044.31
802.168	17003.86
802.499	17014.26
802.83	16859.91
803.161	16707.15
803.491	16853.58
803.822	16776.3
804.153	16722.74
804.483	16574.04
804.814	16508.96
805.145	16478.22
805.475	16440.71
805.805	16387.61
806.136	16388.74
806.466	16412.24
806.796	16355.29
807.126	16334.95
807.457	16197.78
807.787	16190.77
808.117	16092.25
808.447	16119.82
808.777	16161.17
809.107	16047.95
809.436	15979.48
809.766	15968.86
810.096	15861.29
810.426	15754.85
810.755	15892.7
811.085	15788.07
811.414	15743.55
811.744	15646.83
812.073	15635.08
812.403	15640.28
812.732	15510.11
813.061	15448.87
813.39	15385.37
813.719	15353.28
814.049	15485.48
814.378	15370.46
814.707	15293.4
815.036	15287.3
815.365	15135.89
815.693	15093.63
816.022	15074.65
816.351	15051.37
816.68	14949.45
817.008	15002.78
817.337	14852.96
817.665	14858.83
817.994	14789
818.322	14813.64
818.651	14753.52
818.979	14622.91
819.307	14826.97
819.636	14677.82
819.964	14584.72
820.292	14644.15
820.62	14647.31
820.948	14659.97
821.276	14573.19
821.604	14462.91
821.932	14625.39
822.259	14556.24
822.587	14593.53
822.915	14518.95
823.243	14567.09
823.57	14537.03
823.898	14456.58
824.225	14522.12
824.553	14501.78
824.88	14486.19
825.207	14476.92
825.535	14509.92
825.862	14521.67
826.189	14495.68
826.516	14504.72
826.843	14596.01
827.17	14637.14
827.497	14488.45
827.824	14471.27
828.151	14592.4
828.478	14514.43
828.805	14546.98
829.131	14501.55
829.458	14487.54
829.785	14416.81
830.111	14395.34
830.438	14526.64
830.764	14516.24
831.09	14518.05
831.417	14327.55
831.743	14480.09
832.069	14382.69
832.395	14329.13
832.722	14414.55
833.048	14379.07
833.374	14349.24
833.7	14361.44
834.026	14270.15
834.351	14357.6
834.677	14257.27
835.003	14281.67
835.329	14297.49
835.654	14297.72
835.98	14215.46
836.306	14149.7
836.631	14151.73
836.956	14239.64
837.282	14189.47
837.607	14148.57
837.932	14171.84
838.258	14068.57
838.583	14113.32
838.908	14091.85
839.233	14000.78
839.558	13997.61
839.883	13940.89
840.208	13946.31
840.533	13878.75
840.858	13914.9
841.182	13800.33
841.507	13843.04
841.832	13802.36
842.156	13764.4
842.481	13717.62
842.805	13757.62
843.13	13666.32
843.454	13669.71
843.778	13656.15
844.103	13588.58
844.427	13567.12
844.751	13530.51
845.075	13546.32
845.399	13448.47
845.723	13400.79
846.047	13382.71
846.371	13309.49
846.695	13322.6
847.019	13187.46
847.343	13150.63
847.666	13075.38
847.99	12959.45
848.313	13046.45
848.637	13031.08
848.96	12879.22
849.284	12880.81
849.607	12763.75
849.931	12728.72
850.254	12646.46
850.577	12647.37
850.9	12538.67
851.223	12574.15
851.546	12396.52
851.869	12446.69
852.192	12410.76
852.515	12387.71
852.838	12282.18
853.161	12271.33
853.483	12213.25
853.806	12142.52
854.129	12130.32
854.451	12112.92
854.774	11992.47
855.096	11962.41
855.419	11935.29
855.741	11993.82
856.063	11873.83
856.385	11822.3
856.708	11759.48
857.03	11782.3
857.352	11780.27
857.674	11662.31
857.996	11694.85
858.318	11534.17
858.64	11680.61
858.961	11533.5
859.283	11444.01
859.605	11428.19
859.926	11419.37
860.248	11376.21
860.57	11360.17
860.891	11378.25
861.212	11328.08
861.534	11187.97
861.855	11266.16
862.176	11227.52
862.498	11192.04
862.819	11229.55
863.14	11164.01
863.461	11182.09
863.782	11128.99
864.103	11115.43
864.424	11033.4
864.745	11104.35
865.065	11011.02
865.386	10990.69
865.707	11005.6
866.027	11022.1
866.348	11007.41
866.668	10987.52
866.989	10986.17
867.309	10845.38
867.63	10875.43
867.95	10880.63
868.27	10844.7
868.59	10832.72
868.91	10874.76
869.23	10753.86
869.55	10783.01
869.87	10806.51
870.19	10780.07
870.51	10746.4
870.83	10805.38
871.15	10698.72
871.469	10669.11
871.789	10700.98
872.109	10705.72
872.428	10625.5
872.748	10609.23
873.067	10671.6
873.386	10623.01
873.706	10619.4
874.025	10484.48
874.344	10479.06
874.663	10544.82
874.982	10460.98
875.301	10532.84
875.62	10426.63
875.939	10430.47
876.258	10511.83
876.577	10470.25
876.896	10379.85
877.214	10411.49
877.533	10356.35
877.852	10343.02
878.17	10335.56
878.489	10352.28
878.807	10275.45
879.125	10222.34
879.444	10261.21
879.762	10194.1
880.08	10191.16
880.398	10200.65
880.716	10176.24
881.034	10111.39
881.352	10198.84
881.67	10076.59
881.988	10173.76
882.306	10053.54
882.624	10015.34
882.941	9990.03
883.259	9930.83
883.577	9933.99
883.894	9914.33
884.212	9934.22
884.529	9903.03
884.846	9844.05
885.164	9812.19
885.481	9836.14
885.798	9812.41
886.115	9797.04
886.432	9821.9
886.75	9671.17
887.067	9698.74
887.383	9699.65
887.7	9727.89
888.017	9674.11
888.334	9660.33
888.651	9641.12
888.967	9573.55
889.284	9575.13
889.6	9541.68
889.917	9389.82
890.233	9489.71
890.55	9439.31
890.866	9463.49
891.182	9402.48
891.498	9341.01
891.815	9377.17
892.131	9387.79
892.447	9228.7
892.763	9232.77
893.079	9248.36
893.395	9154.8
893.71	9168.81
894.026	9224.4
894.342	9204.97
894.657	9040.91
894.973	9098.31
895.289	9075.48
895.604	9092.66
895.92	8975.37
896.235	8967.24
896.55	8969.27
896.865	8954.13
897.181	8901.47
897.496	8841.14
897.811	8801.14
898.126	8724.76
898.441	8763.85
898.756	8722.04
899.071	8638.21
899.386	8640.46
899.7	8576.74
900.015	8610.64
900.33	8558.21
900.644	8499
900.959	8536.29
901.273	8470.3
901.588	8409.74
901.902	8413.35
902.216	8381.04
902.531	8294.26
902.845	8364.09
903.159	8274.82
903.473	8202.74
903.787	8209.06
904.101	8156.86
904.415	8176.75
904.729	8198.44
905.042	8086.58
905.356	8117.77
905.67	8113.7
905.984	8070.99
906.297	8054.49
906.611	8025.79
906.924	7970.88
907.237	7943.76
907.551	7881.39
907.864	7842.29
908.177	7851.79
908.491	7792.13
908.804	7753.03
909.117	7731.56
909.43	7642.53
909.743	7636.88
910.056	7647.27
910.368	7532.7
910.681	7586.26
910.994	7548.74
911.307	7555.75
911.619	7483.43
911.932	7438.69
912.244	7373.61
912.557	7398.46
912.869	7376.32
913.181	7306.49
913.494	7297.68
913.806	7267.39
914.118	7219.26
914.43	7190.56
914.742	7203.67
915.054	7173.84
915.366	7102.43
915.678	7083.9
915.99	7041.18
916.302	6981.07
916.613	6987.4
916.925	6913.96
917.236	6958.93
917.548	6916.44
917.859	6925.93
918.171	6925.48
918.482	6782.89
918.794	6766.16
919.105	6825.6
919.416	6690.46
919.727	6726.62
920.038	6742.66
920.349	6631.25
920.66	6641.65
920.971	6649.78
921.282	6619.95
921.593	6542.21
921.903	6521.2
922.214	6513.74
922.525	6471.71
922.835	6461.99
923.146	6349
923.456	6356.68
923.767	6379.28
924.077	6299.96
924.387	6273.3
924.697	6241.43
925.008	6228.55
925.318	6169.57
925.628	6219.74
925.938	6150.36
926.248	6150.59
926.558	6150.13
926.867	6112.17
927.177	6056.8
927.487	6078.5
927.796	5987.88
928.106	5995.34
928.416	5962.34
928.725	5950.37
929.034	5957.37
929.344	5937.03
929.653	5898.16
929.962	5804.83
930.271	5814.78
930.581	5793.31
930.89	5752.86
931.199	5716.25
931.508	5693.88
931.817	5724.16
932.125	5690.49
932.434	5627.44
932.743	5562.35
933.051	5538.4
933.36	5556.93
933.669	5482.13
933.977	5501.56
934.286	5473.54
934.594	5463.37
934.902	5396.48
935.21	5416.82
935.519	5457.05
935.827	5391.51
936.135	5371.62
936.443	5294.56
936.751	5289.14
937.059	5260.67
937.367	5242.81
937.674	5240.1
937.982	5244.17
938.29	5248.24
938.597	5214.11
938.905	5142.93
939.213	5080.11
939.52	5071.52
939.827	5069.49
940.135	5017.74
940.442	5000.79
940.749	5005.31
941.056	5036.49
941.363	5005.31
941.67	4929.38
941.977	4920.34
942.284	4886.67
942.591	4866.33
942.898	4843.73
943.205	4838.08
943.511	4834.01
943.818	4848.47
944.125	4826.78
944.431	4762.6
944.738	4765.76
945.044	4746.1
945.35	4732.77
945.657	4653.9
945.963	4659.33
946.269	4617.07
946.575	4641.47
946.881	4619.55
947.187	4617.97
947.493	4571.19
947.799	4534.36
948.105	4525.54
948.41	4517.86
948.716	4542.72
949.022	4432.21
949.327	4484.64
949.633	4425.89
949.938	4400.58
950.244	4416.85
950.549	4334.14
950.854	4366.9
951.16	4289.62
951.465	4273.8
951.77	4243.74
952.075	4251.2
952.38	4228.38
952.685	4253.46
952.99	4225.44
953.294	4194.48
953.599	4164.88
953.904	4163.97
954.209	4121.26
954.513	4109.06
954.818	4123.52
955.122	4095.73
955.426	4053.01
955.731	4029.51
956.035	4023.19
956.339	3999.68
956.643	4015.28
956.948	3993.13
957.252	3939.35
957.556	3992
957.86	3929.63
958.163	3939.57
958.467	3884.43
958.771	3856.18
959.075	3861.38
959.378	3888.95
959.682	3820.03
959.985	3780.25
960.289	3841.72
960.592	3754.49
960.896	3775.73
961.199	3760.59
961.502	3742.97
961.805	3697.77
962.108	3713.36
962.411	3685.79
962.714	3648.96
963.017	3628.85
963.32	3647.15
963.623	3633.59
963.926	3592.91
964.228	3587.04
964.531	3565.8
964.833	3564.89
965.136	3537.1
965.438	3539.13
965.741	3476.98
966.043	3467.49
966.345	3490.54
966.648	3475.4
966.95	3443.77
967.252	3458.91
967.554	3443.09
967.856	3391.34
968.158	3396.31
968.46	3359.25
968.761	3371
969.063	3374.16
969.365	3321.06
969.666	3332.81
969.968	3300.04
970.269	3275.86
970.571	3291.9
970.872	3286.26
971.174	3230.21
971.475	3238.35
971.776	3215.07
972.077	3213.94
972.378	3198.35
972.679	3175.07
972.98	3199.7
973.281	3140.5
973.582	3114.73
973.883	3145.24
974.183	3069.99
974.484	3125.81
974.785	3116.54
975.085	3124.23
975.386	3077.9
975.686	3066.15
975.986	3027.51
976.287	3045.13
976.587	3003.32
976.887	2992.03
977.187	2990.44
977.487	2998.13
977.787	2962.2
978.087	2914.06
978.387	2936.21
978.687	2913.84
978.987	2890.11
979.286	2894.63
979.586	2877.9
979.885	2843.78
980.185	2873.84
980.484	2833.16
980.784	2845.14
981.083	2844.46
981.382	2791.58
981.682	2840.17
981.981	2778.25
982.28	2787.51
982.579	2718.13
982.878	2778.02
983.177	2749.32
983.475	2729.66
983.774	2683.33
984.073	2690.79
984.372	2694.63
984.67	2654.86
984.969	2666.61
985.267	2677.46
985.566	2630
985.864	2631.81
986.162	2596.33
986.461	2582.32
986.759	2584.8
987.057	2570.34
987.355	2570.79
987.653	2575.31
987.951	2535.54
988.249	2544.58
988.547	2497.35
988.844	2504.81
989.142	2460.97
989.44	2477.92
989.737	2471.14
990.035	2453.51
990.332	2457.58
990.63	2430.91
990.927	2421.42
991.224	2442.44
991.521	2367.64
991.819	2418.48
992.116	2369.67
992.413	2397.24
992.71	2347.75
993.006	2368.99
993.303	2363.79
993.6	2355.43
993.897	2331.03
994.193	2323.12
994.49	2275.66
994.787	2261.65
995.083	2230.69
995.379	2261.2
995.676	2261.65
995.972	2238.6
996.268	2237.02
996.565	2190.47
996.861	2187.53
997.157	2203.35
997.453	2164.48
997.749	2182.33
998.044	2130.13
998.34	2179.17
998.636	2139.17
998.932	2129.45
999.227	2144.36
999.523	2099.62
999.818	2103.01
1000.114	2065.95
1000.409	2102.11
1000.704	2075.44
1001	2067.53
1001.295	2030.92
1001.59	2045.38
1001.885	2049.23
1002.18	2017.59
1002.475	2053.52
1002.77	2016.46
1003.065	1976.23
1003.359	1937.14
1003.654	1951.83
1003.949	1954.54
1004.243	1953.18
1004.538	1951.15
1004.832	1948.21
1005.127	1927.87
1005.421	1913.86
1005.715	1877.48
1006.009	1895.33
1006.304	1870.02
1006.598	1857.82
1006.892	1854.65
1007.186	1820.08
1007.48	1832.96
1007.773	1842.9
1008.067	1807.2
1008.361	1836.58
1008.655	1790.02
1008.948	1777.14
1009.242	1771.04
1009.535	1752.96
1009.829	1750.7
1010.122	1722.91
1010.415	1741.89
1010.708	1744.83
1011.001	1702.34
1011.295	1702.57
1011.588	1682.68
1011.881	1680.65
1012.173	1675.22
1012.466	1663.25
1012.759	1675.9
1013.052	1676.58
1013.344	1629.35
1013.637	1625.06
1013.93	1612.18
1014.222	1627.54
1014.514	1569.92
1014.807	1609.01
1015.099	1559.75
1015.391	1576.7
1015.683	1554.32
1015.976	1549.8
1016.268	1564.49
1016.56	1523.82
1016.851	1525.62
1017.143	1481.11
1017.435	1502.12
1017.727	1500.54
1018.018	1462.35
1018.31	1476.59
1018.602	1442.46
1018.893	1469.35
1019.185	1449.24
1019.476	1455.8
1019.767	1438.62
1020.058	1432.07
1020.35	1397.27
1020.641	1394.33
1020.932	1378.51
1021.223	1409.69
1021.514	1372.18
1021.804	1354.55
1022.095	1341
1022.386	1350.94
1022.677	1361.33
1022.967	1342.58
1023.258	1342.13
1023.548	1313.65
1023.839	1326.98
1024.129	1323.6
1024.419	1298.74
1024.709	1310.04
1025	1303.26
1025.29	1264.84
1025.58	1268
1025.87	1253.09
1026.16	1228.91
1026.449	1262.35
1026.739	1195.24
1027.029	1212.19
1027.319	1213.77
1027.608	1220.55
1027.898	1204.95
1028.187	1197.27
1028.477	1182.36
1028.766	1179.19
1029.055	1163.83
1029.344	1169.02
1029.634	1156.37
1029.923	1156.82
1030.212	1117.05
1030.501	1132.64
1030.79	1125.86
1031.078	1126.99
1031.367	1102.81
1031.656	1108.23
1031.945	1064.84
1032.233	1102.81
1032.522	1064.62
1032.81	1065.52
1033.099	1060.78
1033.387	1077.05
1033.675	1043.38
1033.963	1058.97
1034.251	1036.82
1034.54	1040.21
1034.828	1026.65
1035.116	1025.52
1035.403	1003.38
1035.691	1002.7
1035.979	1018.07
1036.267	1002.25
1036.554	984.85
1036.842	969.71
1037.129	963.38
1037.417	973.55
1037.704	964.96
1037.992	944.62
1038.279	954.79
1038.566	950.05
1038.853	950.05
1039.14	950.05
