Data from hue_24_FLMS001491_00065.txt Node
Date: Tue Feb 07 17:12:36 GMT 2017
User: dcchb
Spectrometer: FLMS00149
Trigger mode: 0
Integration Time (sec): 2.000000E-2
Scans to average: 10
Electric dark correction enabled: true
Nonlinearity correction enabled: false
Boxcar width: 0
XAxis mode: Wavelengths
Number of Pixels in Spectrum: 2048
>>>>>Begin Spectral Data<<<<<
341.393	0.44
341.776	0.44
342.16	0.44
342.543	-70.29
342.927	-67.58
343.31	-58.32
343.693	-47.7
344.077	-81.82
344.46	-66.91
344.843	-58.09
345.226	-57.19
345.61	-15.83
345.993	-21.03
346.376	-12.22
346.759	15.35
347.142	10.16
347.525	62.81
347.908	52.64
348.291	75.24
348.674	106.88
349.057	96.03
349.44	112.3
349.823	139.64
350.206	174.9
350.588	191.62
350.971	215.8
351.354	242.92
351.737	263.26
352.119	244.95
352.502	271.39
352.884	277.49
353.267	287.44
353.65	296.7
354.032	305.51
354.414	303.71
354.797	328.34
355.179	328.11
355.562	324.05
355.944	320.43
356.326	317.04
356.709	337.15
357.091	338.28
357.473	341.22
357.855	339.86
358.238	353.2
358.62	359.52
359.002	347.77
359.384	352.74
359.766	328.79
360.148	351.39
360.53	339.19
360.912	347.1
361.294	355
361.676	356.59
362.057	344.84
362.439	329.47
362.821	338.51
363.203	329.47
363.584	327.66
363.966	345.29
364.348	319.75
364.729	324.72
365.111	337.15
365.493	344.16
365.874	324.72
366.256	313.2
366.637	317.72
367.019	328.34
367.4	327.89
367.781	308.68
368.163	321.33
368.544	323.59
368.925	347.55
369.306	328.79
369.688	300.54
370.069	312.07
370.45	337.6
370.831	329.24
371.212	335.34
371.593	318.17
371.974	321.33
372.355	308.23
372.736	327.43
373.117	331.5
373.498	331.73
373.879	325.4
374.26	327.66
374.641	324.5
375.021	330.15
375.402	317.72
375.783	332.86
376.163	356.59
376.544	331.95
376.925	345.06
377.305	336.7
377.686	354.55
378.066	330.37
378.447	340.09
378.827	357.26
379.208	326.08
379.588	350.03
379.968	377.38
380.349	338.28
380.729	357.04
381.109	330.15
381.489	347.77
381.87	364.27
382.25	346.87
382.63	355
383.01	361.11
383.39	340.09
383.77	357.49
384.15	356.36
384.53	359.07
384.91	366.3
385.29	375.12
385.67	357.94
386.049	373.31
386.429	366.76
386.809	358.62
387.189	372.41
387.568	362.24
387.948	391.39
388.328	377.6
388.707	355.68
389.087	377.6
389.466	386.64
389.846	362.01
390.225	410.37
390.605	394.1
390.984	386.87
391.363	402.24
391.743	394.1
392.122	376.7
392.501	414.21
392.881	387.32
393.26	388.45
393.639	393.42
394.018	408.34
394.397	423.7
394.776	410.6
395.155	408.34
395.534	390.03
395.913	418.96
396.292	409.24
396.671	421.9
397.05	421.9
397.429	416.02
397.808	393.2
398.186	438.39
398.565	430.93
398.944	417.83
399.323	427.09
399.701	428.45
400.08	419.41
400.458	416.92
400.837	434.1
401.215	437.49
401.594	423.93
401.972	468.22
402.351	438.62
402.729	423.93
403.107	441.56
403.486	462.8
403.864	447.21
404.242	450.82
404.62	462.35
404.999	462.57
405.377	445.85
405.755	473.65
406.133	486.53
406.511	471.61
406.889	469.58
407.267	479.75
407.645	471.84
408.023	491.05
408.401	474.78
408.779	473.42
409.156	490.14
409.534	485.4
409.912	499.18
410.29	498.28
410.667	519.07
411.045	508
411.422	509.8
411.8	515
412.178	518.16
412.555	537.15
412.933	515.23
413.31	545.51
413.687	537.37
414.065	537.82
414.442	551.38
414.819	535.11
415.197	565.39
415.574	558.62
415.951	581.44
416.328	583.25
416.705	561.33
417.082	578.28
417.46	557.26
417.837	595
418.214	602.91
418.591	565.85
418.967	587.77
419.344	615.34
419.721	610.82
420.098	589.8
420.475	606.3
420.852	611.72
421.228	632.06
421.605	628.44
421.982	629.35
422.358	612.4
422.735	651.27
423.111	642.68
423.488	621.44
423.864	617.82
424.241	677.71
424.617	658.73
424.994	655.79
425.37	668.89
425.746	662.34
426.123	691.27
426.499	685.39
426.875	673.41
427.251	695.56
427.627	704.83
428.003	725.16
428.379	716.58
428.756	713.64
429.132	729.01
429.507	730.14
429.883	733.07
430.259	744.83
430.635	759.06
431.011	754.54
431.387	731.49
431.763	766.52
432.138	771.04
432.514	795.22
432.89	821.43
433.265	795.9
433.641	800.19
434.016	829.34
434.392	797.03
434.767	829.12
435.143	825.05
435.518	845.84
435.894	841.55
436.269	850.81
436.644	839.51
437.02	867.08
437.395	905.95
437.77	888.1
438.145	892.17
438.52	912.05
438.895	922.45
439.271	917.25
439.646	943.01
440.021	938.94
440.395	924.48
440.77	948.66
441.145	945.72
441.52	952.73
441.895	963.58
442.27	966.97
442.645	984.14
443.019	998.38
443.394	966.06
443.769	1034.99
444.143	975.1
444.518	1010.58
444.892	1000.64
445.267	1024.37
445.641	1032.28
446.016	1026.63
446.39	1050.58
446.764	1024.37
447.139	1018.72
447.513	1025.27
447.887	1053.29
448.262	1068.66
448.636	1062.56
449.01	1080.41
449.384	1091.03
449.758	1123.35
450.132	1088.32
450.506	1098.26
450.88	1109.34
451.254	1113.18
451.628	1147.07
452.002	1129.67
452.376	1161.31
452.75	1135.1
453.123	1174.19
453.497	1178.71
453.871	1165.6
454.244	1204.7
454.618	1210.35
454.992	1226.39
455.365	1243.12
455.739	1274.08
456.112	1286.73
456.486	1288.31
456.859	1307.3
457.232	1314.3
457.606	1314.53
457.979	1332.15
458.352	1353.85
458.725	1370.8
459.099	1365.37
459.472	1411.47
459.845	1416.9
460.218	1448.99
460.591	1423.45
460.964	1465.94
461.337	1480.4
461.71	1483.56
462.083	1521.08
462.456	1517.46
462.829	1520.4
463.201	1556.78
463.574	1575.09
463.947	1590
464.32	1618.7
464.692	1615.31
465.065	1654.41
465.438	1670.9
465.81	1698.92
466.183	1691.69
466.555	1756.55
466.928	1747.06
467.3	1739.83
467.672	1799.94
468.045	1833.61
468.417	1836.77
468.789	1866.38
469.161	1871.8
469.534	1923.78
469.906	1914.96
470.278	1934.85
470.65	1980.5
471.022	1995.19
471.394	2018.01
471.766	2086.03
472.138	2093.49
472.51	2168.97
472.882	2164.45
473.253	2222.53
473.625	2237.89
473.997	2295.97
474.369	2280.38
474.74	2351.34
475.112	2368.51
475.484	2420.04
475.855	2491.67
476.227	2479.24
476.598	2588.17
476.97	2609.18
477.341	2667.26
477.713	2699.35
478.084	2730.54
478.455	2776.18
478.827	2838.1
479.198	2905.9
479.569	2919.68
479.94	3007.14
480.311	3048.27
480.682	3095.05
481.053	3206.46
481.424	3245.32
481.795	3265.21
482.166	3340.46
482.537	3387.47
482.908	3504.98
483.279	3525.54
483.65	3611.64
484.021	3718.53
484.391	3747.68
484.762	3765.76
485.133	3823.61
485.503	3903.61
485.874	3937.06
486.244	4040.33
486.615	4163.49
486.985	4165.3
487.356	4250.72
487.726	4327.33
488.097	4355.13
488.467	4437.84
488.837	4502.01
489.207	4625.4
489.578	4650.71
489.948	4706.53
490.318	4810.93
490.688	4871.5
491.058	4873.76
491.428	4973.64
491.798	5027.2
492.168	5132.73
492.538	5202.79
492.908	5271.71
493.278	5316.68
493.648	5349
494.017	5393.74
494.387	5500.63
494.757	5537.02
495.126	5560.97
495.496	5617.24
495.866	5699.95
496.235	5726.84
496.605	5853.39
496.974	5864.46
497.344	5917.57
497.713	5904.46
498.082	5986.95
498.452	6116.66
498.821	6061.97
499.19	6126.83
499.559	6190.56
499.928	6207.05
500.298	6261.97
500.667	6333.38
501.036	6411.57
501.405	6451.34
501.774	6435.3
502.143	6543.54
502.512	6508.29
502.88	6560.27
503.249	6617.21
503.618	6713.48
503.987	6690.66
504.356	6798.45
504.724	6806.81
505.093	6788.96
505.462	6862.18
505.83	6910.99
506.199	6963.87
506.567	7086.13
506.936	7079.35
507.304	7133.58
507.672	7126.8
508.041	7250.87
508.409	7191.21
508.777	7312.34
509.145	7377.64
509.514	7367.02
509.882	7416.97
510.25	7369.28
510.618	7498.09
510.986	7492.44
511.354	7588.03
511.722	7630.07
512.09	7670.97
512.458	7606.11
512.826	7729.73
513.193	7799.78
513.561	7800.01
513.929	7854.47
514.297	7913
514.664	8004.97
515.032	7961.13
515.4	8005.43
515.767	8050.4
516.135	8048.81
516.502	8007.68
516.869	8218.3
517.237	8178.08
517.604	8172.88
517.972	8293.78
518.339	8308.24
518.706	8358.18
519.073	8336.49
519.44	8418.75
519.808	8463.04
520.175	8519.99
520.542	8624.84
520.909	8675.24
521.276	8610.83
521.643	8688.12
522.009	8795.69
522.376	8785.07
522.743	8813.09
523.11	8899.64
523.477	8967.66
523.843	9068
524.21	9075.45
524.577	9175.34
524.943	9214.88
525.31	9287.43
525.676	9256.92
526.043	9320.42
526.409	9422.56
526.776	9501.66
527.142	9440.42
527.508	9611.71
527.874	9601.99
528.241	9702.33
528.607	9723.57
528.973	9764.02
529.339	9755.21
529.705	9874.53
530.071	9970.57
530.437	10008.99
530.803	10024.36
531.169	10076.56
531.535	10125.37
531.901	10129.89
532.267	10210.34
532.632	10265.7
532.998	10347.28
533.364	10332.82
533.73	10372.37
534.095	10449.2
534.461	10491.01
534.826	10556.77
535.192	10630.89
535.557	10639.48
535.923	10714.28
536.288	10734.84
536.653	10760.61
537.019	10776.43
537.384	10846.71
537.749	10918.57
538.114	10951.11
538.479	10950.43
538.845	11006.93
539.21	11028.62
539.575	11007.38
539.94	11156.53
540.305	11194.72
540.67	11151.56
541.034	11187.94
541.399	11303.64
541.764	11389.52
542.129	11297.09
542.494	11399.91
542.858	11379.57
543.223	11512.9
543.587	11562.85
543.952	11613.01
544.316	11677.42
544.681	11659.34
545.045	11715.61
545.41	11788.38
545.774	11778.43
546.138	11848.49
546.503	11905.44
546.867	11914.02
547.231	12005.77
547.595	11930.07
547.959	12051.19
548.324	12075.83
548.688	12196.28
549.052	12171.64
549.416	12273.11
549.779	12262.04
550.143	12239.44
550.507	12338.19
550.871	12322.37
551.235	12343.84
551.599	12439.66
551.962	12561.69
552.326	12565.98
552.689	12708.13
553.053	12543.84
553.417	12611.41
553.78	12769.14
554.143	12692.99
554.507	12774.34
554.87	12845.3
555.234	13015.24
555.597	12935.46
555.96	12977.05
556.323	13036.48
556.686	13053.2
557.05	13116.25
557.413	13082.35
557.776	13244.61
558.139	13259.3
558.502	13308.56
558.865	13390.14
559.228	13403.93
559.59	13393.31
559.953	13504.94
560.316	13598.95
560.679	13640.76
561.041	13697.93
561.404	13665.84
561.767	13751.94
562.129	13727.99
562.492	13964.59
562.854	13870.58
563.217	13885.72
563.579	14012.5
563.941	14045.94
564.304	14150.57
564.666	14120.97
565.028	14175.88
565.39	14265.6
565.753	14331.13
566.115	14363.68
566.477	14339.27
566.839	14397.8
567.201	14499.04
567.563	14549.89
567.925	14683.89
568.287	14621.3
568.648	14714.4
569.01	14754.4
569.372	14953.27
569.734	14764.34
570.095	15027.61
570.457	15039.14
570.819	15040.72
571.18	15176.08
571.542	15209.08
571.903	15326.59
572.265	15413.82
572.626	15380.82
572.987	15557.32
573.349	15543.31
573.71	15587.82
574.071	15680.7
574.432	15697.2
574.794	15884.54
575.155	15911.66
575.516	15896.97
575.877	15967.93
576.238	16059.9
576.599	16164.98
576.96	16324.08
577.32	16350.52
577.681	16543.05
578.042	16684.97
578.403	16708.7
578.763	16816.49
579.124	16976.94
579.485	17103.72
579.845	17363.82
580.206	17352.75
580.566	17457.61
580.927	17671.61
581.287	17823.02
581.648	17912.74
582.008	18183.46
582.368	18118.61
582.728	18491.48
583.089	18615.54
583.449	18866.83
583.809	18966.04
584.169	19240.16
584.529	19285.35
584.889	19698
585.249	19866.58
585.609	19915.17
585.969	20178.66
586.329	20455.72
586.688	20718.99
587.048	20956.27
587.408	21173.67
587.768	21527.56
588.127	21786.76
588.487	21871.05
588.846	22447.76
589.206	22474.65
589.565	22784.02
589.925	23288.19
590.284	23483.66
590.643	23783.54
591.003	24072.57
591.362	24442.51
591.721	24527.25
592.08	25024.86
592.44	25357.51
592.799	25671.85
593.158	25921.11
593.517	26290.59
593.876	26600.19
594.235	26847.87
594.593	27291.7
594.952	27505.48
595.311	27866.6
595.67	28237.89
596.029	28723.52
596.387	29015.27
596.746	29377.29
597.104	29579.32
597.463	29974.79
597.822	30362.35
598.18	30387.21
598.538	30913.75
598.897	31288.88
599.255	31570.46
599.613	32256.99
599.972	32388.29
600.33	32848.16
600.688	32948.5
601.046	33331.09
601.404	33796.84
601.762	33991.86
602.12	34491.06
602.478	34707.77
602.836	34938.73
603.194	35116.35
603.552	35489.45
603.91	35723.79
604.268	36220.28
604.625	36249.88
604.983	36798.79
605.341	36809.41
605.698	37435.16
606.056	37649.39
606.413	37848.71
606.771	38226.33
607.128	38597.84
607.485	38621.34
607.843	38890.94
608.2	39381.1
608.557	39636.01
608.914	39836.23
609.272	40316.67
609.629	40486.38
609.986	40736.77
610.343	40892.7
610.7	41203.42
611.057	41446.35
611.414	41620.36
611.771	41774.71
612.127	42096.28
612.484	42353
612.841	42539.66
613.198	42631.41
613.554	42781.01
613.911	43207.44
614.267	43347.32
614.624	43445.4
614.98	43662.34
615.337	44033.86
615.693	44027.08
616.05	44241.08
616.406	44643.33
616.762	44607.85
617.118	44806.04
617.475	44964.91
617.831	45273.6
618.187	45312.47
618.543	45440.37
618.899	45890.76
619.255	45769.18
619.611	45949.96
619.967	46227.02
620.323	46461.14
620.678	46269.28
621.034	46296.62
621.39	46527.58
621.746	46525.54
622.101	47044.62
622.457	46771.19
622.812	46942.71
623.168	47156.26
623.523	47205.52
623.879	47325.97
624.234	47150.61
624.589	47439.64
624.945	47563.93
625.3	47625.63
625.655	47685.51
626.01	47738.62
626.365	47920.53
626.72	47786.53
627.075	47842.12
627.43	47952.4
627.785	47967.54
628.14	48093.64
628.495	48205.95
628.85	48167.31
629.205	48022.23
629.559	48333.63
629.914	48186.74
630.269	48244.59
630.623	48272.16
630.978	48264.48
631.332	48447.53
631.687	48513.06
632.041	48246.17
632.396	48537.47
632.75	48454.98
633.104	48492.27
633.459	48312.84
633.813	48398.49
634.167	48439.62
634.521	48490.69
634.875	48555.09
635.229	48523.68
635.583	48466.28
635.937	48378.6
636.291	48405.94
636.645	48388.77
636.999	48477.81
637.352	48469.9
637.706	48314.2
638.06	48548.77
638.413	48472.84
638.767	48315.55
639.121	48431.25
639.474	48336.79
639.828	48412.95
640.181	48402.78
640.534	48451.37
640.888	48361.43
641.241	48095.44
641.594	48254.99
641.947	48421.54
642.301	48316.23
642.654	48275.1
643.007	48339.05
643.36	48296.12
643.713	48185.61
644.066	48297.25
644.419	48240.3
644.771	47854.77
645.124	47568.68
645.477	47532.75
645.83	47240.33
646.182	47174.56
646.535	47089.37
646.888	47131.85
647.24	47071.29
647.593	47284.39
647.945	47132.31
648.298	46978.41
648.65	46936.15
649.002	46896.38
649.355	47102.7
649.707	46910.39
650.059	47237.84
650.411	47608.45
650.763	47650.48
651.115	48033.75
651.467	47896.13
651.819	47932.51
652.171	47763.02
652.523	47733.87
652.875	47709.47
653.227	47577.27
653.578	47820.88
653.93	47718.51
654.282	47559.87
654.633	47516.02
654.985	47530.71
655.337	47647.32
655.688	47610.94
656.039	47831.27
656.391	47444.84
656.742	47500.66
657.094	47544.5
657.445	47691.84
657.796	47602.58
658.147	47563.03
658.498	47406.87
658.849	47570.26
659.2	47466.99
659.551	47469.02
659.902	47592.86
660.253	47401.68
660.604	47579.98
660.955	47355.12
661.306	47558.74
661.656	47514.67
662.007	47455.69
662.358	47554.22
662.708	47428.12
663.059	47377.05
663.409	47175.69
663.76	47555.8
664.11	47408.46
664.461	47485.74
664.811	47401.9
665.161	47318.74
665.511	47339.53
665.862	47460.43
666.212	47441.22
666.562	47530.71
666.912	47347.67
667.262	47273.09
667.612	47256.14
667.962	47370.27
668.312	47334.56
668.662	47421.11
669.011	47297.95
669.361	47324.62
669.711	47231.96
670.06	47156.71
670.41	47117.62
670.76	47122.36
671.109	47194.9
671.459	47125.3
671.808	47093.21
672.157	47224.96
672.507	46980.22
672.856	46910.16
673.205	47071.52
673.554	47261.34
673.904	47201
674.253	47182.02
674.602	47089.14
674.951	46534.81
675.3	46286
675.649	47017.96
675.998	46922.14
676.346	46962.82
676.695	47138.63
677.044	46717.85
677.393	46840.56
677.741	46985.64
678.09	46825.42
678.438	46758.3
678.787	46737.06
679.135	46737.29
679.484	46529.16
679.832	46629.04
680.181	46461.59
680.529	46551.98
680.877	46412.1
681.225	46287.58
681.573	46559.44
681.922	46319.9
682.27	46238.32
682.618	46382.5
682.966	46157.64
683.314	46247.13
683.661	46156.96
684.009	45945.22
684.357	45848.27
684.705	45820.7
685.053	45852.11
685.4	45785.67
685.748	45577.54
686.095	45502.97
686.443	45440.6
686.79	45432.46
687.138	45463.65
687.485	45465.01
687.832	45274.28
688.18	45297.55
688.527	45141.85
688.874	45087.61
689.221	45032.7
689.568	44964.68
689.915	44834.97
690.262	44895.75
690.609	44656.89
690.956	44632.26
691.303	44486.95
691.65	44343.68
691.997	44356.56
692.344	44187.75
692.69	44159.73
693.037	44138.26
693.383	43641.78
693.73	43841.77
694.077	43726.07
694.423	43731.72
694.769	43489.92
695.116	43451.5
695.462	43357.49
695.808	43243.37
696.155	43368.34
696.501	43013.54
696.847	43028.91
697.193	42603.61
697.539	42898.74
697.885	42633.44
698.231	42513.67
698.577	42653.1
698.923	42583.95
699.269	42242.49
699.614	42155.26
699.96	42180.12
700.306	42097.86
700.651	41907.58
700.997	41783.29
701.342	41912.33
701.688	41781.03
702.033	41634.6
702.379	41421.5
702.724	41398.9
703.069	41292.91
703.415	41054.95
703.76	41061.96
704.105	41067.38
704.45	41003.88
704.795	40704.9
705.14	40657
705.485	40661.52
705.83	40448.19
706.175	40621.06
706.52	40373.39
706.865	40223.11
707.209	40325.93
707.554	40053.85
707.899	40194.64
708.243	39905.83
708.588	39823.57
708.932	39624.48
709.277	39686.63
709.621	39728.66
709.966	39386.07
710.31	39646.63
710.654	39225.17
710.998	39339.06
711.342	39214.1
711.687	39204.83
712.031	38965.29
712.375	38946.31
712.719	39043.93
713.063	38871.51
713.407	38948.11
713.75	38820.89
714.094	38683.94
714.438	38555.36
714.782	38685.07
715.125	38408.92
715.469	38511.06
715.812	38260.45
716.156	38163.28
716.499	38036.27
716.843	38135.93
717.186	37925.32
717.53	38110.85
717.873	38153.78
718.216	37924.41
718.559	37797.41
718.902	37572.78
719.246	37580.01
719.589	37424.99
719.932	37286.01
720.275	37277.2
720.617	37229.06
720.96	37141.61
721.303	37196.97
721.646	37138.9
721.989	36918.34
722.331	37147.71
722.674	37002.18
723.016	36984.78
723.359	36999.01
723.701	36914.5
724.044	36704.33
724.386	36505.01
724.729	36800.15
725.071	36680.15
725.413	36581.4
725.755	36490.33
726.097	36358.13
726.439	36289.43
726.782	36161.75
727.124	36367.39
727.465	36099.15
727.807	36099.38
728.149	36039.04
728.491	35985.71
728.833	36051.24
729.175	35941.41
729.516	35734.64
729.858	35728.76
730.199	35823
730.541	35648.31
730.882	35659.16
731.224	35790.68
731.565	35370.13
731.906	35480.63
732.248	35467.53
732.589	35272.05
732.93	35334.65
733.271	35216.91
733.612	35169.46
733.953	35270.02
734.294	35117.25
734.635	35002.23
734.976	35117.71
735.317	34847.88
735.658	34953.87
735.999	34920.65
736.339	34835.91
736.68	34882.68
737.021	34769.02
737.361	34692.18
737.702	34806.75
738.042	34606.53
738.383	34630.94
738.723	34582.35
739.063	34537.16
739.404	34657.15
739.744	34505.29
740.084	34242.25
740.424	34338.97
740.764	34279.54
741.104	34417.61
741.444	34123.38
741.784	34148.01
742.124	34075.47
742.464	34093.1
742.804	34090.39
743.143	33942.6
743.483	33901.47
743.823	33815.37
744.162	33831.64
744.502	33781.02
744.841	33651.98
745.181	33825.09
745.52	33605.2
745.86	33685.65
746.199	33616.05
746.538	33607.92
746.877	33562.95
747.216	33546.45
747.556	33535.6
747.895	33538.54
748.234	33278.43
748.573	33275.5
748.911	33271.88
749.25	33265.1
749.589	33084.31
749.928	33253.8
750.267	33234.14
750.605	33023.75
750.944	32983.53
751.283	32889.74
751.621	33056.52
751.96	32696.75
752.298	32778.56
752.636	32774.04
752.975	32659.01
753.313	32546.7
753.651	32693.14
753.989	32482.3
754.327	32385.8
754.666	32398.68
755.004	32380.6
755.342	32289.76
755.679	32362.07
756.017	32025.58
756.355	32133.83
756.693	31910.79
757.031	32026.71
757.368	31760.51
757.706	31696.55
758.044	31548.99
758.381	31793.5
758.719	31574.75
759.056	31554.64
759.394	31474.64
759.731	31269.22
760.068	31232.61
760.405	31221.09
760.743	31101.54
761.08	31097.47
761.417	30961.43
761.754	30930.7
762.091	30763.7
762.428	30626.53
762.765	30693.64
763.102	30672.63
763.438	30498.39
763.775	30321.45
764.112	30400.77
764.449	30387.66
764.785	30230.15
765.122	29888.92
765.458	29847.79
765.795	29845.53
766.131	29802.37
766.467	29758.98
766.804	29546.55
767.14	29595.59
767.476	29567.34
767.812	29244.41
768.148	29255.71
768.485	29111.54
768.821	28978.88
769.157	28832.67
769.492	28946.8
769.828	28820.02
770.164	28666.58
770.5	28540.93
770.836	28525.11
771.171	28401.27
771.507	28267.49
771.842	28081.96
772.178	28083.32
772.513	28040.6
772.849	28005.8
773.184	27814.85
773.519	27727.39
773.855	27543.89
774.19	27575.53
774.525	27421.41
774.86	27531.01
775.195	27347.74
775.53	27265.26
775.865	27022.78
776.2	26907.07
776.535	26705.27
776.87	26707.31
777.205	26624.14
777.539	26680.64
777.874	26573.75
778.209	26333.98
778.543	26334.21
778.878	26128.11
779.212	26104.38
779.547	26028
779.881	25969.02
780.215	25929.47
780.55	25864.16
780.884	25583.04
781.218	25630.5
781.552	25631.18
781.886	25277.97
782.22	25342.82
782.554	25141.47
782.888	25077.52
783.222	24895.38
783.556	24851.31
783.889	24802.5
784.223	24618.1
784.557	24572.45
784.89	24546.91
785.224	24314.15
785.557	24253.81
785.891	24279.35
786.224	24239.35
786.558	24244.32
786.891	24024.44
787.224	23997.1
787.557	23889.98
787.891	23791.22
788.224	23773.37
788.557	23819.7
788.89	23700.83
789.223	23701.96
789.556	23427.84
789.888	23463.55
790.221	23230.79
790.554	23061.53
790.887	23093.62
791.219	23072.15
791.552	23000.74
791.884	22839.16
792.217	22750.35
792.549	22764.81
792.882	22556.23
793.214	22439.17
793.546	22509
793.879	22330.25
794.211	22396.69
794.543	22280.53
794.875	22249.8
795.207	22275.56
795.539	22094.32
795.871	22111.72
796.203	21909.01
796.535	21683.03
796.867	21744.95
797.198	21741.34
797.53	21728
797.862	21549.48
798.193	21572.98
798.525	21345.41
798.856	21412.98
799.188	21120.33
799.519	21059.77
799.85	21012.77
800.182	20968.93
800.513	21037.4
800.844	20809.38
801.175	20911.53
801.506	20930.96
801.837	20704.75
802.168	20743.4
802.499	20636.28
802.83	20432.89
803.161	20412.78
803.491	20394.03
803.822	20479.45
804.153	20329.17
804.483	20112.9
804.814	20022.74
805.145	20116.75
805.475	20039.01
805.805	19920.59
806.136	20009.4
806.466	19966.69
806.796	19816.41
807.126	19744.78
807.457	19679.92
807.787	19702.74
808.117	19696.64
808.447	19528.51
808.777	19599.7
809.107	19444.67
809.436	19431.79
809.766	19328.74
810.096	19291.91
810.426	19220.05
810.755	19221.63
811.085	19209.88
811.414	19175.53
811.744	18901.64
812.073	18953.84
812.403	18880.85
812.732	18797.91
813.061	18859.6
813.39	18743.22
813.719	18719.04
814.049	18792.94
814.378	18740.06
814.707	18598.59
815.036	18507.75
815.365	18428.65
815.693	18327.64
816.022	18348.88
816.351	18382.1
816.68	18229.56
817.008	18252.84
817.337	18178.49
817.665	18068.44
817.994	18063.69
818.322	18100.98
818.651	18019.63
818.979	17868.89
819.307	18027.31
819.636	17957.93
819.964	17859.63
820.292	17954.09
820.62	17866.86
820.948	17803.59
821.276	17743.93
821.604	17824.6
821.932	17847.43
822.259	17784.83
822.587	17746.41
822.915	17644.04
823.243	17794.09
823.57	17718.39
823.898	17759.07
824.225	17649.01
824.553	17678.84
824.88	17629.58
825.207	17734.89
825.535	17639.52
825.862	17626.19
826.189	17686.3
826.516	17696.24
826.843	17772.4
827.17	17718.16
827.497	17716.13
827.824	17626.42
828.151	17655.57
828.478	17698.96
828.805	17676.13
829.131	17658.28
829.458	17587.09
829.785	17528.56
830.111	17564.27
830.438	17667.09
830.764	17583.7
831.09	17564.5
831.417	17498.28
831.743	17536.02
832.069	17571.73
832.395	17477.94
832.722	17549.35
833.048	17522.91
833.374	17520.2
833.7	17342.13
834.026	17442.01
834.351	17461
834.677	17396.59
835.003	17470.71
835.329	17399.08
835.654	17383.48
835.98	17326.08
836.306	17361.79
836.631	17244.05
836.956	17367.44
837.282	17299.87
837.607	17279.98
837.932	17190.49
838.258	17206.54
838.583	17138.74
838.908	17079.54
839.233	17065.75
839.558	17044.51
839.883	16971.97
840.208	16920.22
840.533	16953.44
840.858	16917.73
841.182	16977.62
841.507	16978.97
841.832	16828.24
842.156	16819.66
842.481	16680.23
842.805	16739.43
843.13	16670.73
843.454	16644.75
843.778	16622.15
844.103	16502.38
844.427	16430.29
844.751	16416.5
845.075	16414.24
845.399	16374.47
845.723	16262.38
846.047	16340.57
846.371	16128.15
846.695	16207.7
847.019	15946.69
847.343	15965.22
847.666	15958.21
847.99	15786.69
848.313	15765.9
848.637	15797.31
848.96	15725.22
849.284	15603.87
849.607	15385.34
849.931	15486.36
850.254	15437.55
850.577	15362.52
850.9	15269.87
851.223	15209.76
851.546	15038.46
851.869	15008.4
852.192	15040.49
852.515	14986.48
852.838	14904.45
853.161	14900.84
853.483	14820.84
853.806	14699.26
854.129	14710.79
854.451	14612.71
854.774	14629.66
855.096	14538.81
855.419	14481.41
855.741	14497.23
856.063	14375.2
856.385	14398.93
856.708	14363.22
857.03	14339.27
857.352	14292.49
857.674	14255.66
857.996	14168.65
858.318	14098.6
858.64	14016.79
858.961	13945.61
859.283	14026.96
859.605	13923.69
859.926	14042.1
860.248	13943.12
860.57	13902.67
860.891	13883.01
861.212	13774.76
861.534	13751.26
861.855	13751.49
862.176	13698.38
862.498	13728.66
862.819	13764.14
863.14	13613.19
863.461	13537.93
863.782	13568.22
864.103	13580.42
864.424	13477.37
864.745	13472.63
865.065	13399.63
865.386	13388.56
865.707	13365.28
866.027	13391.05
866.348	13331.84
866.668	13295.46
866.989	13378.84
867.309	13330.48
867.63	13223.82
867.95	13278.28
868.27	13099.53
868.59	13197.83
868.91	13089.81
869.23	13106.08
869.55	13038.29
869.87	13106.53
870.19	13107.66
870.51	13099.75
870.83	13123.48
871.15	13009.14
871.469	13038.74
871.789	13113.09
872.109	12957.39
872.428	12889.36
872.748	12869.48
873.067	12876.94
873.386	12936.37
873.706	12878.97
874.025	12834.9
874.344	12733.66
874.663	12746.09
874.982	12681.01
875.301	12758.97
875.62	12752.87
875.939	12657.73
876.258	12752.42
876.577	12601.69
876.896	12636.94
877.214	12525.98
877.533	12584.51
877.852	12583.38
878.17	12506.32
878.489	12540.22
878.807	12474.69
879.125	12475.82
879.444	12462.71
879.762	12455.25
880.08	12434.01
880.398	12391.98
880.716	12386.1
881.034	12253.22
881.352	12378.64
881.67	12251.87
881.988	12336.16
882.306	12279.44
882.624	12142.94
882.941	12109.27
883.259	12102.04
883.577	12121.93
883.894	12085.09
884.212	12160.12
884.529	11951.31
884.846	12034.25
885.164	11908.6
885.481	11960.8
885.798	11935.72
886.115	11789.73
886.432	11848.04
886.75	11818.43
887.067	11836.74
887.383	11748.6
887.7	11760.13
888.017	11787.25
888.334	11757.19
888.651	11725.33
888.967	11675.84
889.284	11606.69
889.6	11624.54
889.917	11469.97
890.233	11462.51
890.55	11505.45
890.866	11452.57
891.182	11477.42
891.498	11375.73
891.815	11395.62
892.131	11336.86
892.447	11301.38
892.763	11210.09
893.079	11221.84
893.395	11151.56
893.71	11099.58
894.026	11140.94
894.342	11134.61
894.657	11008.51
894.973	11029.98
895.289	11010.77
895.604	10970.54
895.92	10826.14
896.235	10833.15
896.55	10904.11
896.865	10796.31
897.181	10743.21
897.496	10783.21
897.811	10704.11
898.126	10607.62
898.441	10644.23
898.756	10627.96
899.071	10502.31
899.386	10568.97
899.7	10404.46
900.015	10433.84
900.33	10317.68
900.644	10315.42
900.959	10318.81
901.273	10277.91
901.588	10247.17
901.902	10201.07
902.216	10121.75
902.531	10147.52
902.845	10103.22
903.159	10050.8
903.473	9935.09
903.787	9955.88
904.101	9893.06
904.415	9954.3
904.729	9814.42
905.042	9787.3
905.356	9801.99
905.67	9707.53
905.984	9788.66
906.297	9721.54
906.611	9679.05
906.924	9580.52
907.237	9595.67
907.551	9562.22
907.864	9527.19
908.177	9418.95
908.491	9409.91
908.804	9366.75
909.117	9257.82
909.43	9293.98
909.743	9244.26
910.056	9268.44
910.368	9212.4
910.681	9124.27
910.994	9149.12
911.307	9103.7
911.619	9000.43
911.932	9009.92
912.244	8994.1
912.557	9014.66
912.869	8928.11
913.181	8884.72
913.494	8783.03
913.806	8835.23
914.118	8786.87
914.43	8728.12
914.742	8744.61
915.054	8647.89
915.366	8648.8
915.678	8610.83
915.99	8533.32
916.302	8464.62
916.613	8484.28
916.925	8429.82
917.236	8423.49
917.548	8392.31
917.859	8370.39
918.171	8280.67
918.482	8337.39
918.794	8281.8
919.105	8211.52
919.416	8169.94
919.727	8166.1
920.038	8129.49
920.349	8070.96
920.66	8037.06
920.971	8065.99
921.282	7996.39
921.593	7917.29
921.903	7849.95
922.214	7943.51
922.525	7879.1
922.835	7777.63
923.146	7713.91
923.456	7742.61
923.767	7670.74
924.077	7687.02
924.387	7583.74
924.697	7612.22
925.008	7606.11
925.318	7500.58
925.628	7483.63
925.938	7500.35
926.248	7373.13
926.558	7348.95
926.867	7380.81
927.177	7292
927.487	7286.35
927.796	7246.57
928.106	7226.01
928.416	7165
928.725	7138.33
929.034	7127.03
929.344	7130.87
929.653	7124.77
929.962	7034.38
930.271	7017.2
930.581	6949.18
930.89	6900.37
931.199	6908.5
931.508	6849.75
931.817	6846.81
932.125	6850.43
932.434	6838.45
932.743	6748.73
933.051	6706.25
933.36	6681.39
933.669	6678.91
933.977	6630.09
934.286	6612.92
934.594	6632.13
934.902	6530.44
935.21	6553.26
935.519	6532.02
935.827	6505.58
936.135	6455.64
936.443	6402.08
936.751	6377.22
937.059	6331.34
937.367	6331.34
937.674	6357.56
937.982	6309.2
938.29	6275.98
938.597	6257.22
938.905	6189.88
939.213	6162.08
939.52	6127.28
939.827	6180.16
940.135	6100.39
940.442	6074.18
940.749	6079.15
941.056	6108.53
941.363	5981.52
941.67	5984.69
941.977	5913.95
942.284	5903.79
942.591	5939.72
942.898	5859.27
943.205	5877.57
943.511	5782.88
943.818	5781.98
944.125	5748.31
944.431	5727.52
944.738	5704.24
945.044	5659.72
945.35	5621.98
945.657	5570.91
945.963	5645.94
946.269	5581.99
946.575	5577.92
946.881	5504.7
947.187	5498.37
947.493	5522.33
947.799	5442.1
948.105	5476.45
948.41	5375.21
948.716	5410.69
949.022	5347.64
949.327	5389
949.633	5290.69
949.938	5275.33
950.244	5310.13
950.549	5228.32
950.854	5182.67
951.16	5241.66
951.465	5192.62
951.77	5163.24
952.075	5098.83
952.38	5113.52
952.685	5118.27
952.99	5050.93
953.294	5070.36
953.599	5023.36
953.904	4980.19
954.209	4924.15
954.513	4928.9
954.818	4891.38
955.122	4914.43
955.426	4884.6
955.731	4869.01
956.035	4873.76
956.339	4827.66
956.643	4849.12
956.948	4772.97
957.252	4746.98
957.556	4734.78
957.86	4703.37
958.163	4704.04
958.467	4636.7
958.771	4649.36
959.075	4629.47
959.378	4658.17
959.682	4591.96
959.985	4642.8
960.289	4553.54
960.592	4555.57
960.896	4500.43
961.199	4464.95
961.502	4455.24
961.805	4422.24
962.108	4436.03
962.411	4392.41
962.714	4392.19
963.017	4357.39
963.32	4374.56
963.623	4330.27
963.926	4357.61
964.228	4298.63
964.531	4274.22
964.833	4262.02
965.136	4246.65
965.438	4195.81
965.741	4193.77
966.043	4188.12
966.345	4141.8
966.648	4178.18
966.95	4137.96
967.252	4088.69
967.554	4119.2
967.856	4092.53
968.158	4053.21
968.46	4034.68
968.761	4012.54
969.063	4005.3
969.365	4001.01
969.666	3990.84
969.968	3941.8
970.269	3950.16
970.571	3961.69
970.872	3909.49
971.174	3922.14
971.475	3857.29
971.776	3848.92
972.077	3831.07
972.378	3799.21
972.679	3796.72
972.98	3827.46
973.281	3802.6
973.582	3777.97
973.883	3720.79
974.183	3737.06
974.484	3675.6
974.785	3662.49
975.085	3674.01
975.386	3683.5
975.686	3579.55
975.986	3608.7
976.287	3624.3
976.587	3601.47
976.887	3582.04
977.187	3542.72
977.487	3557.63
977.787	3491.42
978.087	3503.17
978.387	3542.94
978.687	3510.63
978.987	3446.9
979.286	3464.08
979.586	3458.88
979.885	3427.01
980.185	3387.24
980.484	3354.47
980.784	3347.69
981.083	3349.73
981.382	3331.88
981.682	3329.84
981.981	3323.06
982.28	3303.63
982.579	3295.94
982.878	3276.74
983.177	3258.43
983.475	3213.46
983.774	3225.44
984.073	3213.01
984.372	3174.82
984.67	3193.35
984.969	3166.68
985.267	3146.34
985.566	3104.31
985.864	3101.6
986.162	3080.36
986.461	3077.87
986.759	3097.76
987.057	3027.25
987.355	3032.9
987.653	3039.45
987.951	2998.78
988.249	3053.69
988.547	3033.58
988.844	2987.25
989.142	2975.27
989.44	2947.03
989.737	2936.41
990.035	2917.65
990.332	2886.01
990.63	2917.2
990.927	2885.11
991.224	2860.48
991.521	2859.8
991.819	2836.52
992.116	2855.5
992.413	2817.09
992.71	2786.35
993.006	2811.89
993.303	2751.78
993.6	2734.15
993.897	2759.01
994.193	2749.29
994.49	2763.3
994.787	2748.39
995.083	2700.48
995.379	2683.98
995.676	2656.87
995.972	2637.43
996.268	2667.26
996.565	2618.9
996.861	2615.06
997.157	2625.68
997.453	2585.68
997.749	2579.58
998.044	2566.7
998.34	2522.18
998.636	2521.95
998.932	2500.94
999.227	2473.59
999.523	2485.12
999.818	2454.38
1000.114	2456.64
1000.409	2433.82
1000.704	2407.38
1001	2448.96
1001.295	2415.52
1001.59	2442.86
1001.885	2441.73
1002.18	2401.5
1002.475	2354.95
1002.77	2379.58
1003.065	2351.11
1003.359	2324.67
1003.654	2315.86
1003.949	2305.69
1004.243	2317.89
1004.538	2299.36
1004.832	2255.52
1005.127	2252.36
1005.421	2225.24
1005.715	2244.22
1006.009	2165.58
1006.304	2184.34
1006.598	2168.74
1006.892	2188.18
1007.186	2154.05
1007.48	2165.8
1007.773	2132.59
1008.067	2134.39
1008.361	2120.16
1008.655	2123.32
1008.948	2099.59
1009.242	2078.8
1009.535	2075.19
1009.829	2044.23
1010.122	2013.49
1010.415	2029.09
1010.708	2035.64
1011.001	2017.79
1011.295	1980.05
1011.588	1980.5
1011.881	1944.79
1012.173	1958.8
1012.466	1924.46
1012.759	1934.17
1013.052	1912.7
1013.344	1907.73
1013.637	1875.64
1013.93	1875.42
1014.222	1889.65
1014.514	1863.67
1014.807	1852.59
1015.099	1835.19
1015.391	1830.45
1015.683	1812.14
1015.976	1824.8
1016.268	1797.68
1016.56	1784.12
1016.851	1788.87
1017.143	1773.05
1017.435	1764.69
1017.727	1758.36
1018.018	1754.06
1018.31	1719.04
1018.602	1730.11
1018.893	1684.01
1019.185	1715.87
1019.476	1667.74
1019.767	1668.64
1020.058	1672.48
1020.35	1659.83
1020.641	1636.1
1020.932	1624.58
1021.223	1605.14
1021.514	1595.2
1021.804	1600.17
1022.095	1594.75
1022.386	1573.28
1022.677	1562.2
1022.967	1568.31
1023.258	1546.39
1023.548	1555.88
1023.839	1510.91
1024.129	1507.52
1024.419	1494.18
1024.709	1500.06
1025	1486.27
1025.29	1463.9
1025.58	1453.06
1025.87	1453.96
1026.16	1438.14
1026.449	1422.32
1026.739	1424.36
1027.029	1412.83
1027.319	1395.66
1027.608	1380.74
1027.898	1368.76
1028.187	1373.06
1028.477	1392.94
1028.766	1355.2
1029.055	1359.95
1029.344	1347.97
1029.634	1333.06
1029.923	1309.33
1030.212	1322.44
1030.501	1291.7
1030.79	1281.53
1031.078	1270.46
1031.367	1245.15
1031.656	1269.11
1031.945	1241.54
1032.233	1243.12
1032.522	1212.61
1032.81	1246.96
1033.099	1219.61
1033.387	1247.41
1033.675	1216.23
1033.963	1187.53
1034.251	1197.02
1034.54	1188.66
1034.828	1180.07
1035.116	1129.9
1035.403	1156.11
1035.691	1118.37
1035.979	1133.06
1036.267	1166.51
1036.554	1117.02
1036.842	1090.8
1037.129	1103.91
1037.417	1112.72
1037.704	1094.65
1037.992	1067.3
1038.279	1067.98
1038.566	1059.62
1038.853	1059.62
1039.14	1059.62
