Data from hue_00_FLMS001491_4.txt Node
Date: Mon Feb 06 15:29:11 GMT 2017
User: dcchb
Spectrometer: FLMS00149
Trigger mode: 0
Integration Time (sec): 2.000000E-2
Scans to average: 10
Electric dark correction enabled: true
Nonlinearity correction enabled: false
Boxcar width: 0
XAxis mode: Wavelengths
Number of Pixels in Spectrum: 2048
>>>>>Begin Spectral Data<<<<<
341.393	-2.27
341.776	-2.27
342.16	-2.27
342.543	-61.71
342.927	-39.56
343.31	-71.2
343.693	-57.64
344.077	-48.37
344.46	-43.18
344.843	-51.76
345.226	-41.14
345.61	-35.95
345.993	-22.84
346.376	-11.09
346.759	8.35
347.142	22.58
347.525	44.05
347.908	66.2
348.291	54.22
348.674	72.75
349.057	115.01
349.44	138.74
349.823	164.05
350.206	170.15
350.588	189.81
350.971	212.41
351.354	227.1
351.737	243.37
352.119	235.69
352.502	259.41
352.884	269.58
353.267	286.31
353.65	298.96
354.032	287.21
354.414	298.96
354.797	318.17
355.179	327.43
355.562	321.33
355.944	315.68
356.326	348.23
356.709	329.24
357.091	346.19
357.473	333.76
357.855	321.56
358.238	348.68
358.62	340.99
359.002	342.35
359.384	343.71
359.766	354.1
360.148	352.07
360.53	338.06
360.912	338.51
361.294	351.39
361.676	329.69
362.057	343.93
362.439	332.86
362.821	316.14
363.203	316.81
363.584	328.34
363.966	321.33
364.348	330.37
364.729	335.57
365.111	305.97
365.493	322.24
365.874	333.76
366.256	299.86
366.637	323.14
367.019	326.53
367.4	331.95
367.781	315.23
368.163	300.77
368.544	312.75
368.925	304.16
369.306	318.62
369.688	332.18
370.069	301.9
370.45	332.86
370.831	322.92
371.212	318.85
371.593	317.04
371.974	317.49
372.355	320.43
372.736	322.92
373.117	315.68
373.498	324.27
373.879	308.45
374.26	305.74
374.641	318.17
375.021	310.26
375.402	327.89
375.783	298.96
376.163	322.24
376.544	321.11
376.925	348
377.305	342.12
377.686	338.51
378.066	317.94
378.447	333.31
378.827	335.8
379.208	344.84
379.588	331.73
379.968	337.83
380.349	339.19
380.729	338.96
381.109	344.16
381.489	331.95
381.87	338.06
382.25	330.15
382.63	345.97
383.01	336.25
383.39	345.06
383.77	335.57
384.15	343.03
384.53	336.7
384.91	330.15
385.29	366.98
385.67	333.31
386.049	331.28
386.429	333.54
386.809	369.24
387.189	355.46
387.568	338.06
387.948	355.68
388.328	359.3
388.707	360.2
389.087	323.37
389.466	358.62
389.846	359.52
390.225	352.29
390.605	352.29
390.984	343.71
391.363	367.21
391.743	355.46
392.122	365.85
392.501	367.21
392.881	387.32
393.26	373.99
393.639	360.88
394.018	381.44
394.397	374.67
394.776	367.66
395.155	383.7
395.534	366.08
395.913	373.54
396.292	371.73
396.671	395.91
397.05	373.08
397.429	376.47
397.808	374.21
398.186	382.8
398.565	373.99
398.944	371.28
399.323	383.03
399.701	399.75
400.08	401.56
400.458	374.44
400.837	388.9
401.215	382.35
401.594	405.62
401.972	380.77
402.351	411.5
402.729	409.01
403.107	378.96
403.486	414.21
403.864	400.65
404.242	402.46
404.62	427.55
404.999	411.05
405.377	408.34
405.755	410.82
406.133	420.09
406.511	411.73
406.889	423.93
407.267	435.68
407.645	418.96
408.023	438.62
408.401	438.62
408.779	470.71
409.156	453.99
409.534	456.92
409.912	423.7
410.29	448.56
410.667	448.79
411.045	460.09
411.422	452.18
411.8	463.02
412.178	486.3
412.555	462.57
412.933	486.3
413.31	466.19
413.687	476.13
414.065	478.39
414.442	492.85
414.819	478.17
415.197	489.69
415.574	493.08
415.951	492.4
416.328	490.37
416.705	498.05
417.082	496.24
417.46	479.75
417.837	495.34
418.214	493.76
418.591	497.83
418.967	490.14
419.344	530.59
419.721	498.73
420.098	522.01
420.475	515
420.852	528.11
421.228	505.28
421.605	520.2
421.982	538.05
422.358	508
422.735	550.25
423.111	536.02
423.488	541.21
423.864	551.38
424.241	561.78
424.617	542.34
424.994	575.11
425.37	568.56
425.746	558.16
426.123	572.85
426.499	581.21
426.875	577.37
427.251	566.3
427.627	567.65
428.003	586.86
428.379	578.5
428.756	609.24
429.132	608.56
429.507	634.32
429.883	606.98
430.259	620.31
430.635	633.42
431.011	639.97
431.387	644.04
431.763	640.87
432.138	630.03
432.514	658.27
432.89	627.77
433.265	658.95
433.641	677.26
434.016	664.15
434.392	671.83
434.767	689.01
435.143	680.19
435.518	682
435.894	693.53
436.269	704.37
436.644	677.71
437.02	725.62
437.395	706.63
437.77	700.08
438.145	723.81
438.52	696.69
438.895	750.47
439.271	750.02
439.646	708.67
440.021	728.55
440.395	767.2
440.77	747.54
441.145	761.32
441.52	751.38
441.895	766.75
442.27	752.51
442.645	773.3
443.019	773.07
443.394	762.9
443.769	812.17
444.143	788.89
444.518	799.96
444.892	798.16
445.267	787.54
445.641	830.02
446.016	800.87
446.39	811.94
446.764	823.69
447.139	830.7
447.513	828.21
447.887	823.02
448.262	816.24
448.636	839.96
449.01	863.01
449.384	845.16
449.758	840.87
450.132	866.86
450.506	874.99
450.88	851.94
451.254	870.7
451.628	882.9
452.002	866.63
452.376	872.51
452.75	892.84
453.123	902.79
453.497	906.85
453.871	906.63
454.244	927.65
454.618	926.74
454.992	914.54
455.365	924.48
455.739	973.29
456.112	968.55
456.486	970.58
456.859	959.28
457.232	970.36
457.606	1007.64
457.979	982.78
458.352	1008.77
458.725	1010.81
459.099	1026.85
459.472	1049
459.845	1053.52
460.218	1049.9
460.591	1092.16
460.964	1067.75
461.337	1126.96
461.71	1110.24
462.083	1137.58
462.456	1091.71
462.829	1119.28
463.201	1118.15
463.574	1121.09
463.947	1127.41
464.32	1162.89
464.692	1183.91
465.065	1202.89
465.438	1225.04
465.81	1221.87
466.183	1242.67
466.555	1245.38
466.928	1244.92
467.3	1279.5
467.672	1291.93
468.045	1307.97
468.417	1318.6
468.789	1334.19
469.161	1329.67
469.534	1355.43
469.906	1373.74
470.278	1362.66
470.65	1379.16
471.022	1427.52
471.394	1443.79
471.766	1481.3
472.138	1443.79
472.51	1529.21
472.882	1519.72
473.253	1546.39
473.625	1575.09
473.997	1606.95
474.369	1593.39
474.74	1597.01
475.112	1632.71
475.484	1670.45
475.855	1661.64
476.227	1707.51
476.598	1741.41
476.97	1771.24
477.341	1813.95
477.713	1836.32
478.084	1845.81
478.455	1908.86
478.827	1926.71
479.198	1953.61
479.569	1958.35
479.94	2045.36
480.311	2070.67
480.682	2093.26
481.053	2151.57
481.424	2185.47
481.795	2173.04
482.166	2245.12
482.537	2247.84
482.908	2304.56
483.279	2330.09
483.65	2351.56
484.021	2442.18
484.391	2436.53
484.762	2466.59
485.133	2515.17
485.503	2540.94
485.874	2589.07
486.244	2616.19
486.615	2669.97
486.985	2730.99
487.356	2746.13
487.726	2806.24
488.097	2829.74
488.467	2830.87
488.837	2908.38
489.207	2908.16
489.578	2952.9
489.948	2974.37
490.318	3037.42
490.688	3038.32
491.058	3121.03
491.428	3153.58
491.798	3177.3
492.168	3228.83
492.538	3267.7
492.908	3335.04
493.278	3341.82
493.648	3366.9
494.017	3411.2
494.387	3448.03
494.757	3436.73
495.126	3501.14
495.496	3528.48
495.866	3574.58
496.235	3624.3
496.605	3609.38
496.974	3676.95
497.344	3655.03
497.713	3695.93
498.082	3739.77
498.452	3781.36
498.821	3806.67
499.19	3799.21
499.559	3784.97
499.928	3847.12
500.298	3918.98
500.667	3901.8
501.036	3961.24
501.405	3957.17
501.774	3953.78
502.143	4004.4
502.512	4024.96
502.88	4057.28
503.249	4095.47
503.618	4070.61
503.987	4110.39
504.356	4167.56
504.724	4152.42
505.093	4179.76
505.462	4176.37
505.83	4236.26
506.199	4267.67
506.567	4272.87
506.936	4289.36
507.304	4336.14
507.672	4373.43
508.041	4418.4
508.409	4383.37
508.777	4456.37
509.145	4425.63
509.514	4453.65
509.882	4503.14
510.25	4511.05
510.618	4519.87
510.986	4518.96
511.354	4555.8
511.722	4600.77
512.09	4655.68
512.458	4629.02
512.826	4673.99
513.193	4692.29
513.561	4699.98
513.929	4697.72
514.297	4803.02
514.664	4770.03
515.032	4799.41
515.4	4791.27
515.767	4812.06
516.135	4832.85
516.502	4844.15
516.869	4903.36
517.237	4890.48
517.604	4898.39
517.972	4980.19
518.339	5000.76
518.706	4996.46
519.073	4993.98
519.44	5068.55
519.808	5060.87
520.175	5054.77
520.542	5143.13
520.909	5116.91
521.276	5120.98
521.643	5174.77
522.009	5203.01
522.376	5246.18
522.743	5234.88
523.11	5257.47
523.477	5298.15
523.843	5330.69
524.21	5349.22
524.577	5418.37
524.943	5488.88
525.31	5459.28
525.676	5525.49
526.043	5528.2
526.409	5527.3
526.776	5591.93
527.142	5603.45
527.508	5634.41
527.874	5675.77
528.241	5669.89
528.607	5652.04
528.973	5796.67
529.339	5731.81
529.705	5800.29
530.071	5883.67
530.437	5882.54
530.803	5933.62
531.169	5984.01
531.535	5970.22
531.901	6013.61
532.267	6023.1
532.632	6055.65
532.998	6093.61
533.364	6103.78
533.73	6103.55
534.095	6162.31
534.461	6197.79
534.826	6242.31
535.192	6257
535.557	6283.44
535.923	6299.48
536.288	6317.79
536.653	6330.89
537.019	6374.96
537.384	6425.81
537.749	6414.96
538.114	6386.26
538.479	6405.69
538.845	6505.35
539.21	6405.92
539.575	6492.24
539.94	6574.5
540.305	6572.47
540.67	6584.9
541.034	6561.85
541.399	6642.52
541.764	6641.39
542.129	6651.34
542.494	6678
542.858	6704.67
543.223	6739.24
543.587	6833.25
543.952	6762.29
544.316	6857.66
544.681	6813.59
545.045	6891.33
545.41	6910.31
545.774	6936.53
546.138	6896.3
546.503	7027.6
546.867	6992.57
547.231	7089.52
547.595	7058.33
547.959	7087.03
548.324	7105.79
548.688	7147.59
549.052	7180.59
549.416	7149.85
549.779	7172.45
550.143	7213.13
550.507	7287.03
550.871	7289.96
551.235	7315.95
551.599	7334.93
551.962	7343.07
552.326	7418.77
552.689	7433.01
553.053	7404.08
553.417	7428.04
553.78	7532.22
554.143	7463.07
554.507	7511.2
554.87	7566.11
555.234	7646.34
555.597	7520.01
555.96	7577.41
556.323	7658.32
556.686	7622.84
557.05	7721.59
557.413	7735.38
557.776	7729.27
558.139	7796.62
558.502	7799.55
558.865	7823.73
559.228	7836.62
559.59	7924.98
559.953	7888.59
560.316	8026.89
560.679	8010.85
561.041	8021.7
561.404	8133.56
561.767	8147.57
562.129	8118.64
562.492	8177.17
562.854	8217.85
563.217	8212.65
563.579	8133.56
563.941	8249.94
564.304	8227.11
564.666	8316.15
565.028	8354.34
565.39	8342.82
565.753	8410.16
566.115	8462.81
566.477	8451.06
566.839	8478.63
567.201	8496.03
567.563	8548.01
567.925	8596.82
568.287	8618.29
568.648	8674.33
569.01	8663.26
569.372	8798.17
569.734	8743.26
570.095	8827.78
570.457	8831.39
570.819	8821.9
571.18	8856.48
571.542	8920.88
571.903	8963.14
572.265	8987.09
572.626	9098.28
572.987	9091.95
573.349	9182.34
573.71	9226.18
574.071	9251.49
574.432	9255.79
574.794	9365.16
575.155	9345.28
575.516	9412.62
575.877	9536.46
576.238	9515.22
576.599	9624.59
576.96	9646.96
577.32	9752.27
577.681	9816.68
578.042	9865.72
578.403	9892.61
578.763	10037.91
579.124	10107.29
579.485	10197.46
579.845	10309.32
580.206	10230
580.566	10420.5
580.927	10571.69
581.287	10608.75
581.648	10648.07
582.008	10876.76
582.368	10965.12
582.728	11089.41
583.089	11156.3
583.449	11316.52
583.809	11537.99
584.169	11584.54
584.529	11779.34
584.889	12026.79
585.249	12086.45
585.609	12135.49
585.969	12441.92
586.329	12534.35
586.688	12682.14
587.048	12862.92
587.408	13092.52
587.768	13306.3
588.127	13478.95
588.487	13694.09
588.846	13854.08
589.206	14048.2
589.565	14146.96
589.925	14513.73
590.284	14692.48
590.643	14949.65
591.003	15159.36
591.362	15444.1
591.721	15708.5
592.08	15900.58
592.44	16096.51
592.799	16445.66
593.158	16548.7
593.517	16811.52
593.876	17049.03
594.235	17392.75
594.593	17613.08
594.952	17882
595.311	18109.57
595.67	18470.23
596.029	18786.61
596.387	19059.6
596.746	19270.21
597.104	19479.25
597.463	19653.93
597.822	19923.08
598.18	20178.89
598.538	20421.82
598.897	20815.71
599.255	20967.8
599.613	21460.44
599.972	21591.51
600.33	21918.96
600.688	22057.48
601.046	22396.46
601.404	22644.14
601.762	22777.47
602.12	23062.43
602.478	23405.47
602.836	23630.78
603.194	23669.19
603.552	24049.07
603.91	24132.23
604.268	24522.5
604.625	24672.11
604.983	24952.1
605.341	25178.31
605.698	25487.23
606.056	25599.99
606.413	25927.67
606.771	26276.13
607.128	26450.82
607.485	26553.19
607.843	26822.78
608.2	26987.75
608.557	27397.91
608.914	27319.72
609.272	27635.42
609.629	27942.53
609.986	28135.29
610.343	28159.7
610.7	28651.66
611.057	28690.76
611.414	28766.01
611.771	29066.34
612.127	29415.48
612.484	29439.66
612.841	29739.54
613.198	29733.22
613.554	29900.67
613.911	30297.95
614.267	30421.11
614.624	30497.72
614.98	30612.97
615.337	30852.28
615.693	31025.61
616.05	31063.35
616.406	31443
616.762	31341.99
617.118	31559.61
617.475	31604.35
617.831	31770.9
618.187	32013.38
618.543	32179.7
618.899	32576.08
619.255	32489.53
619.611	32553.25
619.967	32776.53
620.323	32886.35
620.678	32762.97
621.034	32925.9
621.39	33094.93
621.746	33066.24
622.101	33489.05
622.457	33274.37
622.812	33507.13
623.168	33603.85
623.523	33738.53
623.879	33837.29
624.234	33680.23
624.589	33943.27
624.945	34034.12
625.3	34199.99
625.655	34220.33
626.01	34172.42
626.365	34371.74
626.72	34333.55
627.075	34493.99
627.43	34513.43
627.785	34453.32
628.14	34546.65
628.495	34718.4
628.85	34697.38
629.205	34581.22
629.559	34913.64
629.914	34753.65
630.269	34841.33
630.623	34769.24
630.978	34808.34
631.332	35011.27
631.687	35062.57
632.041	34942.57
632.396	35088.55
632.75	34922.91
633.104	35036.13
633.459	34966.52
633.813	35002.23
634.167	34945.28
634.521	35008.33
634.875	35176.46
635.229	35147.99
635.583	34966.98
635.937	35097.37
636.291	35050.82
636.645	35136.92
636.999	35021.89
637.352	35219.62
637.706	34926.98
638.06	35171.49
638.413	35039.06
638.767	35070.02
639.121	35140.08
639.474	34873.42
639.828	34886.07
640.181	35058.73
640.534	34945.73
640.888	34984.6
641.241	34814.66
641.594	34841.56
641.947	35142.34
642.301	34901.22
642.654	34997.03
643.007	34944.6
643.36	34859.63
643.713	34840.88
644.066	34989.57
644.419	34888.79
644.771	34596.82
645.124	34308.69
645.477	34284.73
645.83	34045.87
646.182	33941.24
646.535	33885.65
646.888	33904.18
647.24	33905.08
647.593	34035.02
647.945	33976.27
648.298	33793.22
648.65	33671.64
649.002	33868.7
649.355	33843.62
649.707	33911.18
650.059	33979.66
650.411	34389.36
650.763	34312.76
651.115	34661.45
651.467	34599.3
651.819	34582.13
652.171	34556.82
652.523	34449.48
652.875	34578.96
653.227	34395.01
653.578	34527.21
653.93	34478.4
654.282	34373.55
654.633	34367.44
654.985	34401.57
655.337	34376.48
655.688	34331.29
656.039	34467.78
656.391	34160.67
656.742	34308.91
657.094	34295.58
657.445	34413.32
657.796	34278.41
658.147	34246.77
658.498	34340.78
658.849	34305.07
659.2	34379.65
659.551	34181.46
659.902	34304.17
660.253	34228.69
660.604	34289.93
660.955	34042.25
661.306	34283.6
661.656	34169.93
662.007	34214.23
662.358	34093.1
662.708	34119.09
663.059	34057.85
663.409	34036.83
663.76	34272.53
664.11	34136.49
664.461	34228.69
664.811	34132.2
665.161	34081.12
665.511	34045.64
665.862	34168.8
666.212	34245.87
666.562	34246.99
666.912	34073.89
667.262	34198.86
667.612	34034.12
667.962	34129.94
668.312	34014.23
668.662	34215.58
669.011	34131.97
669.361	34100.33
669.711	34032.54
670.06	33968.81
670.41	34071.41
670.76	33999.77
671.109	34056.94
671.459	34047.9
671.808	33820.79
672.157	34111.18
672.507	33802.94
672.856	33740.57
673.205	33765.2
673.554	33928.81
673.904	33850.4
674.253	34016.27
674.602	33824.86
674.951	33358.43
675.3	33368.83
675.649	33865.99
675.998	33731.08
676.346	33628.03
676.695	33882.03
677.044	33569.72
677.393	33656.28
677.741	33879.1
678.09	33685.65
678.438	33500.57
678.787	33626.45
679.135	33658.08
679.484	33353.01
679.832	33560.91
680.181	33279.79
680.529	33515.04
680.877	33462.16
681.225	33371.31
681.573	33663.96
681.922	33303.52
682.27	33106.23
682.618	33263.74
682.966	33179.23
683.314	33228.72
683.661	33043.18
684.009	32929.74
684.357	32863.3
684.705	32740.59
685.053	32981.27
685.4	32828.5
685.748	32692.46
686.095	32616.98
686.443	32584.67
686.79	32513.71
687.138	32632.35
687.485	32570.2
687.832	32463.09
688.18	32474.16
688.527	32264
688.874	32205.69
689.221	32193.49
689.568	32226.26
689.915	32093.15
690.262	32109.42
690.609	31898.13
690.956	31759.38
691.303	31787.85
691.65	31696.55
691.997	31739.26
692.344	31391.25
692.69	31511.7
693.037	31518.03
693.383	31200.07
693.73	31371.14
694.077	31205.04
694.423	31215.89
694.769	31035.33
695.116	30961.66
695.462	31034.42
695.808	30790.81
696.155	30884.6
696.501	30773.87
696.847	30727.54
697.193	30424.04
697.539	30562.57
697.885	30345.18
698.231	30320.32
698.577	30322.35
698.923	30330.49
699.269	30073.09
699.614	29947.67
699.96	29915.13
700.306	29938.41
700.651	29887.11
700.997	29752.65
701.342	29684.86
701.688	29690.96
702.033	29476.5
702.379	29530.73
702.724	29412.55
703.069	29408.93
703.415	29205.32
703.76	29108.37
704.105	29119.22
704.45	29048.94
704.795	28975.27
705.14	28851.66
705.485	28876.74
705.83	28854.37
706.175	28654.6
706.52	28648.72
706.865	28512.91
707.209	28596.07
707.554	28397.66
707.899	28536.41
708.243	28351.1
708.588	28387.49
708.932	28179.81
709.277	28142.75
709.621	28034.28
709.966	27978.23
710.31	28146.36
710.654	27739.82
710.998	27902.3
711.342	27756.32
711.687	27777.11
712.031	27674.51
712.375	27509.77
712.719	27571.01
713.063	27518.13
713.407	27569.88
713.75	27342.32
714.094	27427.51
714.438	27263
714.782	27386.84
715.125	27173.96
715.469	27274.07
715.812	27096
716.156	26933.06
716.499	27070.23
716.843	27035.43
717.186	26825.04
717.53	26821.65
717.873	26890.8
718.216	26783.46
718.559	26738.04
718.902	26483.58
719.246	26575.56
719.589	26517.48
719.932	26350.48
720.275	26368.78
720.617	26467.76
720.96	26380.08
721.303	26193.87
721.646	26330.14
721.989	26174.44
722.331	26248.34
722.674	26143.25
723.016	26086.53
723.359	26072.52
723.701	26098.51
724.044	25936.25
724.386	25831.85
724.729	25996.36
725.071	25833.2
725.413	25816.93
725.755	25826.88
726.097	25746.88
726.439	25630.72
726.782	25680.89
727.124	25733.77
727.465	25585.75
727.807	25653.55
728.149	25455.81
728.491	25458.75
728.833	25576.04
729.175	25294.69
729.516	25329.26
729.858	25313.22
730.199	25351.18
730.541	25239.55
730.882	25178.76
731.224	25294.46
731.565	25073.68
731.906	25160
732.248	25114.13
732.589	25066.22
732.93	24852.44
733.271	24972.66
733.612	24889.5
733.953	24920.23
734.294	24819.9
734.635	24795.04
734.976	24870.74
735.317	24763.18
735.658	24753.01
735.999	24708.26
736.339	24586.46
736.68	24687.7
737.021	24590.07
737.361	24370.42
737.702	24544.2
738.042	24470.75
738.383	24438.67
738.723	24371.32
739.063	24425.33
739.404	24366.8
739.744	24308.73
740.084	24230.31
740.424	24178.79
740.764	24253.13
741.104	24216.07
741.444	24213.36
741.784	23964.78
742.124	24124.32
742.464	24061.27
742.804	23958.68
743.143	24005.91
743.483	23973.59
743.823	23886.14
744.162	23910.77
744.502	23882.75
744.841	23788.06
745.181	23801.39
745.52	23809.76
745.86	23735.63
746.199	23755.29
746.538	23606.14
746.877	23792.58
747.216	23662.64
747.556	23509.42
747.895	23621.74
748.234	23510.1
748.573	23405.47
748.911	23495.87
749.25	23417
749.589	23260.17
749.928	23309.66
750.267	23300.16
750.605	23224.46
750.944	23153.95
751.283	23061.53
751.621	23207.06
751.96	22979.04
752.298	23147.17
752.636	23136.78
752.975	22905.15
753.313	22824.02
753.651	22885.94
753.989	22828.31
754.327	22861.53
754.666	22687.07
755.004	22746.73
755.342	22800.97
755.679	22620.86
756.017	22516.23
756.355	22530.01
756.693	22485.95
757.031	22585.15
757.368	22358.95
757.706	22302.68
758.044	22310.59
758.381	22268.33
758.719	22213.87
759.056	22259.29
759.394	22071.5
759.731	22067.2
760.068	22004.38
760.405	21937.49
760.743	21813.88
761.08	21925.51
761.417	21731.17
761.754	21699.08
762.091	21647.55
762.428	21607.1
762.765	21475.81
763.102	21437.61
763.438	21360.55
763.775	21274
764.112	21309.26
764.449	21252.76
764.785	21092.76
765.122	21059.77
765.458	20987
765.795	21029.94
766.131	20869.04
766.467	20836.5
766.804	20719.44
767.14	20658.43
767.476	20597.64
767.812	20607.35
768.148	20580.24
768.485	20476.28
768.821	20281.94
769.157	20351.77
769.492	20283.07
769.828	20232.22
770.164	20088.27
770.5	20025.67
770.836	20022.51
771.171	19938.44
771.507	19926.92
771.842	19634.72
772.178	19760.6
772.513	19669.3
772.849	19546.82
773.184	19591.56
773.519	19489.87
773.855	19351.57
774.19	19247.62
774.525	19241.29
774.86	19314.28
775.195	19110.67
775.53	19130.56
775.865	18939.15
776.2	18846.27
776.535	18708.65
776.87	18845.14
777.205	18690.34
777.539	18581.87
777.874	18622.32
778.209	18430.91
778.543	18425.72
778.878	18310.46
779.212	18211.71
779.547	18226.4
779.881	18286.74
780.215	18136.01
780.55	18064.37
780.884	17944.15
781.218	17916.12
781.552	17997.93
781.886	17782.8
782.22	17799.29
782.554	17614.66
782.888	17601.56
783.222	17513.42
783.556	17378.74
783.889	17425.06
784.223	17333.99
784.557	17225.07
784.89	17266.88
785.224	17102.14
785.557	17095.36
785.891	17068.46
786.224	16937.17
786.558	16924.06
786.891	16722.48
787.224	16771.07
787.557	16740.34
787.891	16683.84
788.224	16565.65
788.557	16598.42
788.89	16563.84
789.223	16542.6
789.556	16409.95
789.888	16391.65
790.221	16210.86
790.554	16157.75
790.887	16196.85
791.219	16092.22
791.552	16053.58
791.884	15995.27
792.217	15916.18
792.549	15859.23
792.882	15770.19
793.214	15819
793.546	15720.93
793.879	15648.61
794.211	15637.54
794.543	15560.71
794.875	15555.74
795.207	15577.43
795.539	15424.67
795.871	15485.91
796.203	15334.27
796.535	15231.9
796.867	15254.05
797.198	15125.69
797.53	15121.17
797.862	15064.22
798.193	15051.57
798.525	14980.83
798.856	14896.32
799.188	14857.22
799.519	14813.16
799.85	14694.97
800.182	14723.89
800.513	14677.34
800.844	14586.04
801.175	14630.79
801.506	14612.48
801.837	14549.21
802.168	14434.86
802.499	14443.67
802.83	14364.58
803.161	14386.05
803.491	14327.07
803.822	14374.75
804.153	14257.01
804.483	14171.82
804.814	14054.53
805.145	14092.95
805.475	14069.45
805.805	14041.2
806.136	13921.88
806.466	13956.91
806.796	13949.22
807.126	13791.71
807.457	13786.52
807.787	13827.42
808.117	13732.73
808.447	13623.36
808.777	13686.41
809.107	13570.7
809.436	13616.35
809.766	13618.16
810.096	13429.24
810.426	13489.12
810.755	13446.19
811.085	13440.08
811.414	13400.31
811.744	13297.72
812.073	13320.77
812.403	13270.37
812.732	13279.18
813.061	13231.73
813.39	13119.64
813.719	13076.03
814.049	13198.28
814.378	13062.02
814.707	13035.8
815.036	13052.3
815.365	12950.15
815.693	12859.53
816.022	12823.83
816.351	12848.91
816.68	12716.94
817.008	12775.02
817.337	12685.98
817.665	12647.79
817.994	12671.29
818.322	12599.65
818.651	12597.62
818.979	12597.62
819.307	12624.06
819.636	12615.25
819.964	12422.03
820.292	12517.85
820.62	12523.5
820.948	12491.41
821.276	12442.37
821.604	12421.81
821.932	12458.19
822.259	12432.43
822.587	12421.35
822.915	12337.97
823.243	12518.98
823.57	12360.56
823.898	12366.67
824.225	12334.35
824.553	12413.67
824.88	12408.47
825.207	12440.34
825.535	12403.05
825.862	12402.6
826.189	12302.26
826.516	12389.94
826.843	12468.58
827.17	12400.56
827.497	12349.27
827.824	12451.86
828.151	12401.47
828.478	12352.88
828.805	12465.87
829.131	12311.07
829.458	12313.11
829.785	12266.1
830.111	12295.93
830.438	12331.41
830.764	12325.09
831.09	12318.76
831.417	12229.72
831.743	12326.44
832.069	12290.74
832.395	12203.96
832.722	12282.6
833.048	12264.75
833.374	12315.14
833.7	12127.35
834.026	12193.79
834.351	12331.87
834.677	12144.98
835.003	12234.92
835.329	12144.53
835.654	12165.77
835.98	12053.23
836.306	12086.67
836.631	12093.91
836.956	12164.86
837.282	12133.9
837.607	12030.86
837.932	11983.4
838.258	12043.06
838.583	11980.91
838.908	11989.05
839.233	11880.58
839.558	11950.63
839.883	11932.1
840.208	11817.98
840.533	11846.68
840.858	11859.56
841.182	11806.46
841.507	11857.98
841.832	11710.64
842.156	11730.07
842.481	11747.93
842.805	11629.74
843.13	11642.84
843.454	11646.01
843.778	11586.8
844.103	11556.52
844.427	11481.72
844.751	11504.77
845.075	11493.02
845.399	11600.36
845.723	11406.24
846.047	11449.18
846.371	11367.82
846.695	11344.55
847.019	11250.54
847.343	11173.93
847.666	11118.11
847.99	11117.89
848.313	11105.23
848.637	11001.05
848.96	11002.18
849.284	10964.44
849.607	10847.16
849.931	10862.75
850.254	10761.06
850.577	10760.83
850.9	10711.34
851.223	10689.65
851.546	10592.25
851.869	10545.7
852.192	10591.35
852.515	10500.95
852.838	10511.12
853.161	10473.61
853.483	10367.62
853.806	10398.81
854.129	10351.35
854.451	10267.96
854.774	10266.61
855.096	10195.88
855.419	10195.65
855.741	10150.45
856.063	10196.1
856.385	10085.14
856.708	10086.95
857.03	9974.86
857.352	10075.43
857.674	10026.16
857.996	9985.94
858.318	9884.7
858.64	9956.56
858.961	9931.93
859.283	9852.83
859.605	9834.98
859.926	9810.35
860.248	9854.19
860.57	9718.83
860.891	9704.14
861.212	9684.7
861.534	9675.21
861.855	9644.03
862.176	9664.14
862.498	9669.56
862.819	9623.46
863.14	9525.61
863.461	9502.56
863.782	9483.58
864.103	9516.12
864.424	9453.3
864.745	9586.17
865.065	9400.42
865.386	9449
865.707	9398.38
866.027	9460.98
866.348	9327.65
866.668	9451.26
866.989	9382.11
867.309	9316.13
867.63	9335.11
867.95	9370.36
868.27	9219.4
868.59	9307.76
868.91	9212.62
869.23	9291.49
869.55	9179.41
869.87	9250.36
870.19	9222.79
870.51	9235.45
870.83	9187.99
871.15	9113.19
871.469	9166.98
871.789	9174.66
872.109	9108.22
872.428	9023.03
872.748	9100.76
873.067	9049.92
873.386	9089.46
873.706	9090.59
874.025	9023.03
874.344	8976.92
874.663	8967.66
874.982	8984.38
875.301	9006.53
875.62	8941.22
875.939	8904.84
876.258	8883.37
876.577	8868.68
876.896	8879.3
877.214	8883.59
877.533	8819.41
877.852	8863.71
878.17	8883.37
878.489	8862.58
878.807	8745.07
879.125	8875.01
879.444	8742.81
879.762	8798.4
880.08	8778.29
880.398	8682.47
880.716	8747.78
881.034	8685.86
881.352	8744.39
881.67	8691.06
881.988	8694.45
882.306	8620.32
882.624	8647.89
882.941	8597.05
883.259	8566.54
883.577	8524.96
883.894	8533.09
884.212	8468.01
884.529	8442.48
884.846	8460.33
885.164	8407
885.481	8411.06
885.798	8351.4
886.115	8372.65
886.432	8359.77
886.75	8335.81
887.067	8305.08
887.383	8330.61
887.7	8295.59
888.017	8275.93
888.334	8250.84
888.651	8262.37
888.967	8233.22
889.284	8127.68
889.6	8115.03
889.917	8129.04
890.233	8113.44
890.55	8079.55
890.866	8040
891.182	8070.51
891.498	8025.09
891.815	7982.37
892.131	8047.91
892.447	7911.64
892.763	7919.1
893.079	7888.37
893.395	7888.14
893.71	7842.94
894.026	7853.79
894.342	7834.36
894.657	7752.78
894.973	7782.83
895.289	7778.31
895.604	7668.48
895.92	7632.33
896.235	7593.91
896.55	7626.68
896.865	7579.45
897.181	7540.58
897.496	7589.84
897.811	7573.35
898.126	7503.29
898.441	7548.71
898.756	7419
899.071	7404.31
899.386	7486.57
899.7	7309.85
900.015	7325.67
900.33	7318.89
900.644	7318.21
900.959	7257.65
901.273	7257.87
901.588	7242.28
901.902	7179.68
902.216	7157.54
902.531	7142.4
902.845	7121.83
903.159	7122.74
903.473	7009.52
903.787	6956.41
904.101	6987.15
904.415	6992.8
904.729	7005.9
905.042	6941.72
905.356	6907.15
905.67	6866.25
905.984	6857.43
906.297	6835.96
906.611	6789.86
906.924	6790.54
907.237	6777.89
907.551	6727.04
907.864	6699.47
908.177	6704.22
908.491	6729.53
908.804	6663.31
909.117	6645.01
909.43	6617.44
909.743	6607.04
910.056	6546.03
910.368	6532.92
910.681	6459.25
910.994	6476.43
911.307	6381.51
911.619	6403.43
911.932	6407.5
912.244	6374.51
912.557	6346.71
912.869	6302.19
913.181	6273.72
913.494	6264.91
913.806	6263.55
914.118	6248.41
914.43	6173.61
914.742	6227.17
915.054	6165.02
915.366	6098.81
915.678	6084.12
915.99	6018.13
916.302	6061.52
916.613	5968.19
916.925	6009.09
917.236	5965.7
917.548	5916.89
917.859	5964.35
918.171	5862.66
918.482	5836.67
918.794	5850.68
919.105	5857.01
919.416	5767.07
919.727	5759.16
920.038	5721.64
920.349	5686.84
920.66	5704.24
920.971	5679.16
921.282	5618.14
921.593	5631.02
921.903	5547.86
922.214	5535.21
922.525	5551.93
922.835	5516
923.146	5468.32
923.456	5503.57
923.767	5477.13
924.077	5439.16
924.387	5415.89
924.697	5355.55
925.008	5357.81
925.318	5320.98
925.628	5301.09
925.938	5265.84
926.248	5215.44
926.558	5273.52
926.867	5242.33
927.177	5163.24
927.487	5223.8
927.796	5148.55
928.106	5136.8
928.416	5130.92
928.725	5141.55
929.034	5118.5
929.344	5143.58
929.653	5065.62
929.962	5026.52
930.271	5003.02
930.581	4993.07
930.89	4937.71
931.199	4891.38
931.508	4911.72
931.817	4885.06
932.125	4899.52
932.434	4902.91
932.743	4909.24
933.051	4821.1
933.36	4805.51
933.669	4758.05
933.977	4747.88
934.286	4651.84
934.594	4737.94
934.902	4670.6
935.21	4725.29
935.519	4664.72
935.827	4676.93
936.135	4630.6
936.443	4594.89
936.751	4535.91
937.059	4556.48
937.367	4501.56
937.674	4507.44
937.982	4511.73
938.29	4477.83
938.597	4495.69
938.905	4457.5
939.213	4408.46
939.52	4444.16
939.827	4421.11
940.135	4367.78
940.442	4346.09
940.749	4381.57
941.056	4331.4
941.363	4294.11
941.67	4287.1
941.977	4235.35
942.284	4274.45
942.591	4238.29
942.898	4212.76
943.205	4212.3
943.511	4198.97
943.818	4133.89
944.125	4123.72
944.431	4128.01
944.738	4135.7
945.044	4080.33
945.35	4067.45
945.657	4025.42
945.963	4016.6
946.269	3999.65
946.575	3998.07
946.881	3989.71
947.187	3963.95
947.493	3905.42
947.799	3956.94
948.105	3922.82
948.41	3895.7
948.716	3885.08
949.022	3843.95
949.327	3887.12
949.633	3813.9
949.938	3805.54
950.244	3803.95
950.549	3796.95
950.854	3770.06
951.16	3711.75
951.465	3715.82
951.77	3765.08
952.075	3707.68
952.38	3702.71
952.685	3720.34
952.99	3635.37
953.294	3664.52
953.599	3612.09
953.904	3634.01
954.209	3587.01
954.513	3565.99
954.818	3553.11
955.122	3565.99
955.426	3558.08
955.731	3512.66
956.035	3511.08
956.339	3468.37
956.643	3488.03
956.948	3441.03
957.252	3417.3
957.556	3429.5
957.86	3425.66
958.163	3409.61
958.467	3386.34
958.771	3393.57
959.075	3402.16
959.378	3338.88
959.682	3312.22
959.985	3300.69
960.289	3318.77
960.592	3308.15
960.896	3275.38
961.199	3295.49
961.502	3260.69
961.805	3222.95
962.108	3223.4
962.411	3180.92
962.714	3208.49
963.017	3169.17
963.32	3207.13
963.623	3165.78
963.926	3149.06
964.228	3122.16
964.531	3114.71
964.833	3122.84
965.136	3085.55
965.438	3093.92
965.741	3050.75
966.043	3102.05
966.345	3060.92
966.648	2989.74
966.95	3012.79
967.252	3027.02
967.554	2980.02
967.856	2968.04
968.158	2983.18
968.46	2966.46
968.761	2918.33
969.063	2894.37
969.365	2909.06
969.666	2854.37
969.968	2853.92
970.269	2873.13
970.571	2873.58
970.872	2857.99
971.174	2821.38
971.475	2825.9
971.776	2823.19
972.077	2771.21
972.378	2834.26
972.679	2775.05
972.98	2763.53
973.281	2780.7
973.582	2734.38
973.883	2730.99
974.183	2720.37
974.484	2707.49
974.785	2703.42
975.085	2714.72
975.386	2683.08
975.686	2647.6
975.986	2638.33
976.287	2664.77
976.587	2642.18
976.887	2608.73
977.187	2593.36
977.487	2599.01
977.787	2588.39
978.087	2550.88
978.387	2548.39
978.687	2585.45
978.987	2511.56
979.286	2529.64
979.586	2497.32
979.885	2497.55
980.185	2492.8
980.484	2472.92
980.784	2436.98
981.083	2475.4
981.382	2445.35
981.682	2480.82
981.981	2403.31
982.28	2407.15
982.579	2384.33
982.878	2388.62
983.177	2435.85
983.475	2409.41
983.774	2368.96
984.073	2356.53
984.372	2336.87
984.67	2359.02
984.969	2329.64
985.267	2288.29
985.566	2288.97
985.864	2305.91
986.162	2293.03
986.461	2279.47
986.759	2267.04
987.057	2269.98
987.355	2230.21
987.653	2253.94
987.951	2240.15
988.249	2225.69
988.547	2194.73
988.844	2187.95
989.142	2203.32
989.44	2204.67
989.737	2164.9
990.035	2149.99
990.332	2146.37
990.63	2144.11
990.927	2144.56
991.224	2147.05
991.521	2106.6
991.819	2095.75
992.116	2099.59
992.413	2073.15
992.71	2080.38
993.006	2058.46
993.303	2057.11
993.6	2055.75
993.897	2033.6
994.193	2044.9
994.49	1995.19
994.787	2009.65
995.083	2005.58
995.379	1990.44
995.676	1982.76
995.972	1964.45
996.268	1978.92
996.565	1952.25
996.861	1955.41
997.157	1945.92
997.453	1915.64
997.749	1919.03
998.044	1931.01
998.34	1885.36
998.636	1895.76
998.932	1860.5
999.227	1883.55
999.523	1850.11
999.818	1850.78
1000.114	1841.29
1000.409	1840.62
1000.704	1838.36
1001	1800.84
1001.295	1800.84
1001.59	1790
1001.885	1816.89
1002.18	1786.61
1002.475	1773.27
1002.77	1789.77
1003.065	1761.75
1003.359	1718.58
1003.654	1737.57
1003.949	1734.86
1004.243	1720.62
1004.538	1700.51
1004.832	1711.81
1005.127	1710.22
1005.421	1688.3
1005.715	1693.27
1006.009	1683.78
1006.304	1648.3
1006.598	1649.66
1006.892	1657.57
1007.186	1655.54
1007.48	1642.88
1007.773	1598.81
1008.067	1620.06
1008.361	1599.04
1008.655	1613.95
1008.948	1585.25
1009.242	1592.03
1009.535	1554.52
1009.829	1564.01
1010.122	1522.66
1010.415	1529.89
1010.708	1512.71
1011.001	1501.64
1011.295	1501.19
1011.588	1497.57
1011.881	1459.61
1012.173	1453.28
1012.466	1481.53
1012.759	1458.48
1013.052	1476.56
1013.344	1442.89
1013.637	1423.9
1013.93	1410.34
1014.222	1425.26
1014.514	1418.71
1014.807	1407.18
1015.099	1414.64
1015.391	1394.98
1015.683	1397.01
1015.976	1364.47
1016.268	1375.99
1016.56	1364.92
1016.851	1368.09
1017.143	1345.49
1017.435	1363.57
1017.727	1323.79
1018.018	1289.44
1018.31	1304.58
1018.602	1326.28
1018.893	1323.34
1019.185	1320.63
1019.476	1290.8
1019.767	1293.51
1020.058	1256.9
1020.35	1246.05
1020.641	1253.96
1020.932	1254.19
1021.223	1253.51
1021.514	1216.68
1021.804	1208.54
1022.095	1224.36
1022.386	1191.14
1022.677	1193.85
1022.967	1193.85
1023.258	1174.42
1023.548	1169.67
1023.839	1165.83
1024.129	1159.96
1024.419	1161.76
1024.709	1155.21
1025	1159.73
1025.29	1132.84
1025.58	1138.49
1025.87	1129.9
1026.16	1098.94
1026.449	1110.24
1026.739	1095.32
1027.029	1091.48
1027.319	1082.67
1027.608	1053.97
1027.898	1073.86
1028.187	1060.07
1028.477	1058.49
1028.766	1028.66
1029.055	1069.34
1029.344	1039.96
1029.634	1032.05
1029.923	1025.5
1030.212	1023.46
1030.501	1002.22
1030.79	1014.2
1031.078	992.95
1031.367	992.05
1031.656	992.73
1031.945	988.66
1032.233	994.54
1032.522	969.68
1032.81	974.42
1033.099	940.53
1033.387	971.71
1033.675	937.14
1033.963	964.03
1034.251	948.44
1034.54	931.71
1034.828	937.14
1035.116	931.26
1035.403	914.76
1035.691	886.97
1035.979	893.07
1036.267	917.7
1036.554	883.58
1036.842	895.56
1037.129	887.42
1037.417	879.06
1037.704	891.26
1037.992	885.39
1038.279	856.01
1038.566	871.83
1038.853	871.83
1039.14	871.83
