Data from hue_330_FLMS001491_97.txt Node
Date: Mon Feb 06 15:46:11 GMT 2017
User: dcchb
Spectrometer: FLMS00149
Trigger mode: 0
Integration Time (sec): 2.000000E-2
Scans to average: 10
Electric dark correction enabled: true
Nonlinearity correction enabled: false
Boxcar width: 0
XAxis mode: Wavelengths
Number of Pixels in Spectrum: 2048
>>>>>Begin Spectral Data<<<<<
341.393	-6.88
341.776	-6.88
342.16	-6.88
342.543	-57.05
342.927	-53.2
343.31	-79.19
343.693	-81
344.077	-83.49
344.46	-71.28
344.843	-37.61
345.226	-22.92
345.61	-16.6
345.993	-19.31
346.376	8.26
346.759	6.91
347.142	30.41
347.525	30.41
347.908	67.24
348.291	65.44
348.674	89.16
349.057	113.57
349.44	119.22
349.823	156.51
350.206	196.96
350.588	200.8
350.971	196.05
351.354	231.08
351.737	235.15
352.119	257.07
352.502	259.33
352.884	274.92
353.267	304.98
353.65	304.53
354.032	304.98
354.414	322.38
354.797	324.41
355.179	326.22
355.562	328.03
355.944	323.51
356.326	335.49
356.709	331.42
357.091	334.81
357.473	349.04
357.855	358.31
358.238	342.49
358.62	341.36
359.002	346.33
359.384	352.21
359.766	336.39
360.148	341.14
360.53	327.58
360.912	330.06
361.294	355.15
361.676	362.38
362.057	348.82
362.439	330.06
362.821	323.28
363.203	330.29
363.584	348.37
363.966	321.93
364.348	310.85
364.729	332.32
365.111	342.27
365.493	315.37
365.874	309.95
366.256	317.41
366.637	309.05
367.019	337.52
367.4	319.67
367.781	325.99
368.163	340.68
368.544	308.37
368.925	328.25
369.306	331.64
369.688	347.46
370.069	316.28
370.45	324.19
370.831	335.94
371.212	307.46
371.593	316.28
371.974	320.57
372.355	308.14
372.736	314.92
373.117	327.35
373.498	322.6
373.879	329.84
374.26	318.76
374.641	326.22
375.021	301.36
375.402	319.89
375.783	310.85
376.163	344.98
376.544	342.94
376.925	328.03
377.305	318.08
377.686	326.67
378.066	325.09
378.447	328.25
378.827	347.69
379.208	334.13
379.588	338.2
379.968	334.13
380.349	324.86
380.729	321.02
381.109	363.28
381.489	334.81
381.87	357.86
382.25	313.57
382.63	342.49
383.01	332.1
383.39	333.45
383.77	331.87
384.15	367.35
384.53	356.28
384.91	348.37
385.29	350.63
385.67	339.55
386.049	362.38
386.429	366.22
386.809	343.17
387.189	346.78
387.568	359.67
387.948	356.5
388.328	348.82
388.707	378.87
389.087	372.77
389.466	354.92
389.846	366.45
390.225	355.82
390.605	384.98
390.984	363.73
391.363	360.12
391.743	385.88
392.122	358.08
392.501	362.38
392.881	387.01
393.26	365.32
393.639	372.32
394.018	383.62
394.397	392.66
394.776	410.51
395.155	365.09
395.534	395.6
395.913	390.63
396.292	360.34
396.671	383.85
397.05	391.08
397.429	389.95
397.808	387.01
398.186	393.79
398.565	404.18
398.944	400.12
399.323	380
399.701	405.99
400.08	398.99
400.458	417.74
400.837	402.15
401.215	391.98
401.594	389.95
401.972	413
402.351	406.44
402.729	408.7
403.107	423.17
403.486	425.2
403.864	418.2
404.242	420.23
404.62	428.59
404.999	432.88
405.377	438.31
405.755	425.43
406.133	439.66
406.511	436.05
406.889	445.77
407.267	478.98
407.645	468.36
408.023	462.26
408.401	476.95
408.779	444.86
409.156	466.1
409.534	465.2
409.912	450.74
410.29	489.83
410.667	480.79
411.045	476.95
411.422	497.74
411.8	497.29
412.178	493.9
412.555	514.46
412.933	514.92
413.31	523.05
413.687	508.36
414.065	539.1
414.442	533.22
414.819	536.38
415.197	523.73
415.574	547.68
415.951	554.69
416.328	550.62
416.705	563.28
417.082	561.24
417.46	582.71
417.837	615.93
418.214	579.77
418.591	600.34
418.967	619.77
419.344	596.95
419.721	606.66
420.098	617.06
420.475	617.96
420.852	637.17
421.228	638.53
421.605	640.56
421.982	673.56
422.358	630.62
422.735	650.05
423.111	656.16
423.488	673.78
423.864	654.8
424.241	683.95
424.617	659.54
424.994	677.17
425.37	693.44
425.746	698.19
426.123	711.97
426.499	707.23
426.875	704.97
427.251	720.11
427.627	718.07
428.003	757.85
428.379	761.01
428.756	763.04
429.132	753.1
429.507	768.92
429.883	783.16
430.259	769.37
430.635	781.58
431.011	796.72
431.387	820.44
431.763	806.43
432.138	823.16
432.514	857.51
432.89	827.68
433.265	860.22
433.641	847.34
434.016	883.72
434.392	890.73
434.767	882.82
435.143	888.47
435.518	902.93
435.894	901.12
436.269	916.94
436.644	938.41
437.02	957.84
437.395	954.68
437.77	955.13
438.145	994.45
438.52	967.11
438.895	975.69
439.271	964.85
439.646	999.2
440.021	973.43
440.395	1002.13
440.77	978.86
441.145	1027.22
441.52	1024.05
441.895	1042.36
442.27	1063.38
442.645	1048.24
443.019	1041
443.394	1061.34
443.769	1035.81
444.143	1047.33
444.518	1071.51
444.892	1069.48
445.267	1067.22
445.641	1061.79
446.016	1071.96
446.39	1098.18
446.764	1117.84
447.139	1078.97
447.513	1093.43
447.887	1100.44
448.262	1085.07
448.636	1106.99
449.01	1102.7
449.384	1098.63
449.758	1132.75
450.132	1129.14
450.506	1156.48
450.88	1131.85
451.254	1127.56
451.628	1139.98
452.002	1159.42
452.376	1157.38
452.75	1170.27
453.123	1175.24
453.497	1176.82
453.871	1193.77
454.244	1243.48
454.618	1210.04
454.992	1241.9
455.365	1228.12
455.739	1237.61
456.112	1249.81
456.486	1289.13
456.859	1253.65
457.232	1260.88
457.606	1293.43
457.979	1298.4
458.352	1337.49
458.725	1296.59
459.099	1306.53
459.472	1336.14
459.845	1323.03
460.218	1351.73
460.591	1360.32
460.964	1357.61
461.337	1398.73
461.71	1404.16
462.083	1419.52
462.456	1416.81
462.829	1421.56
463.201	1450.48
463.574	1424.95
463.947	1466.98
464.32	1490.71
464.692	1504.04
465.065	1486.64
465.438	1491.61
465.81	1548.56
466.183	1523.02
466.555	1601.44
466.928	1592.63
467.3	1583.59
467.672	1600.31
468.045	1611.38
468.417	1612.97
468.789	1632.17
469.161	1645.28
469.534	1675.79
469.906	1706.52
470.278	1703.36
470.65	1739.06
471.022	1737.03
471.394	1770.93
471.766	1769.35
472.138	1801.21
472.51	1820.87
472.882	1842.11
473.253	1852.28
473.625	1882.34
473.997	1925.95
474.369	1921.43
474.74	1940.19
475.112	1981.54
475.484	1967.76
475.855	2022.22
476.227	2014.99
476.598	2056.8
476.97	2097.7
477.341	2132.73
477.713	2130.92
478.084	2151.48
478.455	2201.2
478.827	2203.68
479.198	2256.79
479.569	2296.56
479.94	2324.36
480.311	2335.21
480.682	2358.03
481.053	2384.02
481.424	2435.54
481.795	2457.24
482.166	2498.14
482.537	2514.64
482.908	2596.89
483.279	2565.26
483.65	2658.59
484.021	2660.85
484.391	2675.99
484.762	2728.87
485.133	2706.27
485.503	2749.43
485.874	2774.52
486.244	2841.86
486.615	2848.41
486.985	2909.66
487.356	2950.78
487.726	2936.32
488.097	2998.24
488.467	3009.31
488.837	3095.86
489.207	3045.24
489.578	3105.81
489.948	3148.07
490.318	3224
490.688	3216.99
491.058	3247.73
491.428	3312.13
491.798	3322.07
492.168	3390.32
492.538	3371.56
492.908	3394.84
493.278	3437.78
493.648	3455.4
494.017	3486.36
494.387	3495.4
494.757	3535.63
495.126	3561.84
495.496	3583.54
495.866	3601.39
496.235	3640.48
496.605	3669.18
496.974	3697.43
497.344	3690.65
497.713	3706.24
498.082	3769.07
498.452	3790.31
498.821	3775.62
499.19	3761.38
499.559	3816.75
499.928	3858.1
500.298	3861.72
500.667	3871.66
501.036	3861.49
501.405	3923.87
501.774	3922.74
502.143	3914.6
502.512	3986.46
502.88	3992.34
503.249	3988.04
503.618	4018.78
503.987	4053.81
504.356	4024.2
504.724	4093.58
505.093	4093.58
505.462	4077.99
505.83	4101.49
506.199	4144.65
506.567	4164.54
506.936	4146.91
507.304	4195.05
507.672	4188.04
508.041	4227.81
508.409	4225.78
508.777	4215.16
509.145	4259.9
509.514	4236.4
509.882	4292.67
510.25	4290.18
510.618	4297.87
510.986	4269.62
511.354	4362.5
511.722	4408.15
512.09	4385.32
512.458	4376.28
512.826	4414.02
513.193	4442.27
513.561	4467.13
513.929	4444.76
514.297	4428.26
514.664	4494.02
515.032	4476.39
515.4	4480.91
515.767	4487.47
516.135	4564.75
516.502	4484.75
516.869	4596.39
517.237	4579.22
517.604	4583.51
517.972	4615.15
518.339	4639.33
518.706	4614.02
519.073	4659.21
519.44	4641.59
519.808	4634.36
520.175	4653.34
520.542	4726.78
520.909	4726.56
521.276	4717.52
521.643	4777.18
522.009	4777.63
522.376	4815.59
522.743	4779.21
523.11	4832.32
523.477	4883.16
523.843	4886.33
524.21	4891.75
524.577	4963.16
524.943	4955.7
525.31	4991.86
525.676	4990.73
526.043	5003.39
526.409	5002.26
526.776	5074.8
527.142	5085.19
527.508	5112.54
527.874	5158.18
528.241	5132.42
528.607	5210.39
528.973	5209.71
529.339	5184.4
529.705	5257.39
530.071	5261.68
530.437	5301.91
530.803	5336.03
531.169	5375.13
531.535	5342.36
531.901	5364.73
532.267	5379.42
532.632	5428.91
532.998	5454
533.364	5447.67
533.73	5467.33
534.095	5553.88
534.461	5614.22
534.826	5577.61
535.192	5598.85
535.557	5658.51
535.923	5669.13
536.288	5640.66
536.653	5692.18
537.019	5659.41
537.384	5715.91
537.749	5765.63
538.114	5764.27
538.479	5762.01
538.845	5771.5
539.21	5817.6
539.575	5855.34
539.94	5835.91
540.305	5877.03
540.67	5899.18
541.034	5921.33
541.399	5951.38
541.764	5998.84
542.129	5963.59
542.494	6025.28
542.858	6066.63
543.223	6047.43
543.587	6115.45
543.952	6114.32
544.316	6074.09
544.681	6124.71
545.045	6239.06
545.41	6248.55
545.774	6236.35
546.138	6264.6
546.503	6273.63
546.867	6291.71
547.231	6305.72
547.595	6335.33
547.959	6380.07
548.324	6383.24
548.688	6357.25
549.052	6482.89
549.416	6458.26
549.779	6475.89
550.143	6528.77
550.507	6546.85
550.871	6571.93
551.235	6561.31
551.599	6639.95
551.962	6667.52
552.326	6572.38
552.689	6666.17
553.053	6643.79
553.417	6646.96
553.78	6711.14
554.143	6727.63
554.507	6726.73
554.87	6743.9
555.234	6828.2
555.597	6816.67
555.96	6820.29
556.323	6847.4
556.686	6852.38
557.05	6889.89
557.413	6924.01
557.776	6884.01
558.139	6996.55
558.502	6966.95
558.865	6993.39
559.228	7077.68
559.59	7018.47
559.953	7083.33
560.316	7137.11
560.679	7148.19
561.041	7091.01
561.404	7140.96
561.767	7234.74
562.129	7242.87
562.492	7257.79
562.854	7200.39
563.217	7240.61
563.579	7308.64
563.941	7298.69
564.304	7312.48
564.666	7398.58
565.028	7359.26
565.39	7385.7
565.753	7374.17
566.115	7479.48
566.477	7551.34
566.839	7502.53
567.201	7554.73
567.563	7552.24
567.925	7611
568.287	7627.5
568.648	7606.48
569.01	7620.94
569.372	7751.79
569.734	7721.96
570.095	7774.61
570.457	7836.31
570.819	7832.01
571.18	7847.38
571.542	7881.05
571.903	7968.73
572.265	8009.18
572.626	8075.17
572.987	8122.17
573.349	8150.65
573.71	8172.79
574.071	8225.22
574.432	8192.45
574.794	8299.34
575.155	8394.03
575.516	8443.97
575.877	8458.89
576.238	8498.66
576.599	8636.51
576.96	8714.25
577.32	8757.18
577.681	8825.21
578.042	8916.28
578.403	8968.7
578.763	9053
579.124	9222.71
579.485	9328.47
579.845	9387.9
580.206	9535.92
580.566	9568.24
580.927	9735.92
581.287	9874.44
581.648	9992.41
582.008	10160.99
582.368	10268.78
582.728	10433.53
583.089	10535.44
583.449	10733.86
583.809	10903.12
584.169	11055.2
584.529	11230.79
584.889	11574.74
585.249	11632.14
585.609	11760.72
585.969	12077.78
586.329	12308.73
586.688	12445.22
587.048	12756.63
587.408	12928.37
587.768	13088.82
588.127	13350.51
588.487	13548.7
588.846	13939.42
589.206	14017.16
589.565	14257.38
589.925	14679.52
590.284	14831.38
590.643	15061.65
591.003	15370.57
591.362	15778.92
591.721	15976.88
592.08	16228.17
592.44	16619.35
592.799	16865.9
593.158	17126
593.517	17417.97
593.876	17738.19
594.235	17979.09
594.593	18285.3
594.952	18665.63
595.311	18897.03
595.67	19198.49
596.029	19636.9
596.387	19968.42
596.746	20228.07
597.104	20414.73
597.463	20808.85
597.822	21116.41
598.18	21305.33
598.538	21628.03
598.897	21990.28
599.255	22107.57
599.613	22673.66
599.972	22882.24
600.33	23220.31
600.688	23464.59
601.046	23820.97
601.404	24139.38
601.762	24420.95
602.12	24795.86
602.478	24983.2
602.836	25134.61
603.194	25364.66
603.552	25761.26
603.91	25974.36
604.268	26336.16
604.625	26395.59
604.983	26853.43
605.341	26999.19
605.698	27299.75
606.056	27586.75
606.413	27824.03
606.771	28144.47
607.128	28253.17
607.485	28445.93
607.843	28756.89
608.2	29143.99
608.557	29418.34
608.914	29471.67
609.272	29779.68
609.629	29979.68
609.986	30447.01
610.343	30476.39
610.7	30826.66
611.057	30984.17
611.414	31208.8
611.771	31386.19
612.127	31586.64
612.484	31731.72
612.841	32128.77
613.198	32051.49
613.554	32302.1
613.911	32637.01
614.267	32789.55
614.624	32861.41
614.98	33079.94
615.337	33441.73
615.693	33422.75
616.05	33482.86
616.406	33912.46
616.762	33907.03
617.118	33958.1
617.475	34069.97
617.831	34461.82
618.187	34591.76
618.543	34712.66
618.899	35005.31
619.255	35071.3
619.611	35077.4
619.967	35375.69
620.323	35577.72
620.678	35400.1
621.034	35526.88
621.39	35728.68
621.746	35727.1
622.101	36235.78
622.457	36027.65
622.812	36245.73
623.168	36378.15
623.523	36448.66
623.879	36565.49
624.234	36405.05
624.589	36630.12
624.945	36760.74
625.3	36885.94
625.655	36830.8
626.01	36986.95
626.365	36989.21
626.72	36907.18
627.075	37180.84
627.43	37178.13
627.785	37228.98
628.14	37322.99
628.495	37433.49
628.85	37386.71
629.205	37364.34
629.559	37690.44
629.914	37598.23
630.269	37589.65
630.623	37597.33
630.978	37588.07
631.332	37683.2
631.687	37931.33
632.041	37728.4
632.396	37975.63
632.75	37755.29
633.104	38009.3
633.459	37835.74
633.813	37790.77
634.167	37817.89
634.521	37767.95
634.875	38021.95
635.229	37920.26
635.583	37726.37
635.937	37827.83
636.291	37776.99
636.645	37833.93
636.999	37760.04
637.352	37911.9
637.706	37758.46
638.06	37878.91
638.413	37913.93
638.767	37804.78
639.121	37928.4
639.474	37784.67
639.828	37785.35
640.181	37778.79
640.534	37863.54
640.888	37702.64
641.241	37610.89
641.594	37799.36
641.947	37877.55
642.301	37770.66
642.654	37695.41
643.007	37769.98
643.36	37765.69
643.713	37688.63
644.066	37894.5
644.419	37564.56
644.771	37362.53
645.124	37170.22
645.477	37118.02
645.83	36811.59
646.182	36753.51
646.535	36641.88
646.888	36761.65
647.24	36565.27
647.593	36824.24
647.945	36753.29
648.298	36525.72
648.65	36514.65
649.002	36350.36
649.355	36527.3
649.707	36478.94
650.059	36630.58
650.411	36993.73
650.763	37177.23
651.115	37573.15
651.467	37493.15
651.819	37438.69
652.171	37317.79
652.523	37257.9
652.875	37292.71
653.227	37121.64
653.578	37476.88
653.93	37315.98
654.282	37079.38
654.633	37068.08
654.985	37128.19
655.337	37255.64
655.688	37189.66
656.039	37237.11
656.391	36959.83
656.742	37164.8
657.094	37098.36
657.445	37271.24
657.796	37205.7
658.147	37042.54
658.498	36926.39
658.849	37205.48
659.2	37005.03
659.551	36876.45
659.902	37162.77
660.253	36917.57
660.604	37101.75
660.955	36865.82
661.306	37056.33
661.656	36972.26
662.007	36932.49
662.358	36810.01
662.708	37024.24
663.059	36932.26
663.409	36781.76
663.76	36919.61
664.11	36992.15
664.461	36993.73
664.811	37013.17
665.161	37039.83
665.511	36885.94
665.862	36885.94
666.212	36989.66
666.562	36939.27
666.912	36894.3
667.262	36797.8
667.612	36808.65
667.962	36782.44
668.312	36794.19
668.662	36985.14
669.011	36906.95
669.361	36772.04
669.711	36714.19
670.06	36730.23
670.41	36774.53
670.76	36701.53
671.109	36763
671.459	36730.46
671.808	36759.84
672.157	36813.4
672.507	36541.31
672.856	36712.83
673.205	36683.46
673.554	36759.39
673.904	36651.59
674.253	36975.2
674.602	36727.75
674.951	36185.84
675.3	36030.59
675.649	36693.4
675.998	36516.46
676.346	36565.04
676.695	36667.64
677.044	36337.48
677.393	36499.96
677.741	36552.16
678.09	36449.34
678.438	36378.15
678.787	36362.56
679.135	36397.36
679.484	36069.01
679.832	36348.55
680.181	36017.71
680.529	36162.11
680.877	36066.52
681.225	36066.07
681.573	36266.29
681.922	35973.42
682.27	35863.82
682.618	35918.73
682.966	35904.04
683.314	35848.45
683.661	35742.92
684.009	35615.46
684.357	35523.94
684.705	35520.32
685.053	35469.25
685.4	35550.38
685.748	35330.72
686.095	35362.81
686.443	35191.52
686.79	35189.94
687.138	35232.87
687.485	35322.81
687.832	35102.71
688.18	35270.84
688.527	34904.29
688.874	34880.79
689.221	35028.81
689.568	34655.71
689.915	34697.07
690.262	34694.13
690.609	34540.24
690.956	34545.43
691.303	34522.84
691.65	34370.3
691.997	34371.88
692.344	34122.17
692.69	34237.42
693.037	34020.93
693.383	33888.95
693.73	33836.07
694.077	33792.91
694.423	33819.8
694.769	33700.03
695.116	33574.84
695.462	33635.63
695.808	33383.43
696.155	33493.26
696.501	33221.63
696.847	33222.3
697.193	32967.17
697.539	33138.24
697.885	32898.25
698.231	32810.56
698.577	32902.76
698.923	32683.79
699.269	32596.56
699.614	32490.8
699.96	32464.81
700.306	32397.24
700.651	32265.04
700.997	32151.82
701.342	32152.28
701.688	32213.52
702.033	32057.82
702.379	32009.45
702.724	31843.81
703.069	31854.66
703.415	31520.65
703.76	31597.04
704.105	31599.07
704.45	31559.52
704.795	31279.98
705.14	31295.58
705.485	31256.93
705.83	30996.37
706.175	31165.18
706.52	31165.41
706.865	30971.06
707.209	30999.09
707.554	30688.13
707.899	30898.07
708.243	30720.68
708.588	30645.65
708.932	30443.39
709.277	30424.86
709.621	30388.25
709.966	30278.88
710.31	30373.79
710.654	30260.12
710.998	30111.43
711.342	30159.11
711.687	30055.83
712.031	29889.28
712.375	29727.71
712.719	29979.9
713.063	29757.08
713.407	29870.08
713.75	29738.1
714.094	29612
714.438	29590.08
714.782	29695.62
715.125	29439.13
715.469	29437.09
715.812	29309.41
716.156	29228.06
716.499	29228.96
716.843	29206.14
717.186	28953.04
717.53	29205.01
717.873	29155.29
718.216	29061.06
718.559	28954.85
718.902	28754.85
719.246	28770.22
719.589	28715.76
719.932	28634.4
720.275	28723.67
720.617	28647.06
720.96	28520.73
721.303	28541.98
721.646	28517.57
721.989	28343.79
722.331	28462.43
722.674	28370.45
723.016	28472.15
723.359	28314.41
723.701	28198.48
724.044	28051.82
724.386	27981.76
724.729	28110.57
725.071	28066.96
725.413	27990.35
725.755	27939.51
726.097	27864.71
726.439	27718.95
726.782	27751.26
727.124	27903.8
727.465	27697.03
727.807	27761.43
728.149	27646.63
728.491	27513.98
728.833	27595.56
729.175	27482.34
729.516	27482.34
729.858	27434.21
730.199	27545.17
730.541	27316.7
730.882	27276.7
731.224	27516.69
731.565	27160.32
731.906	27223.59
732.248	27101.34
732.589	27137.94
732.93	26895.92
733.271	27074.67
733.612	27117.15
733.953	26985.63
734.294	26897.95
734.635	26771.85
734.976	26930.04
735.317	26800.78
735.658	26821.79
735.999	26706.54
736.339	26718.75
736.68	26784.51
737.021	26628.81
737.361	26402.82
737.702	26606.66
738.042	26645.75
738.383	26361.47
738.723	26605.76
739.063	26364.86
739.404	26474.46
739.744	26302.49
740.084	26188.37
740.424	26179.55
740.764	26168.7
741.104	26294.8
741.444	26115.6
741.784	25918.77
742.124	26018.65
742.464	25903.4
742.804	25970.29
743.143	25898.2
743.483	25932.55
743.823	25698.89
744.162	25791.09
744.502	25735.27
744.841	25725.78
745.181	25709.28
745.52	25617.08
745.86	25646.01
746.199	25514.71
746.538	25455.73
746.877	25600.58
747.216	25534.14
747.556	25455.73
747.895	25387.93
748.234	25276.52
748.573	25240.14
748.911	25266.36
749.25	25215.06
749.589	25178.9
749.928	25063.87
750.267	25118.34
750.605	25077.43
750.944	24974.39
751.283	24930.55
751.621	24930.77
751.96	24803.09
752.298	24742.08
752.636	24814.62
752.975	24686.03
753.313	24622.3
753.651	24712.25
753.989	24547.05
754.327	24535.98
754.666	24425.02
755.004	24506.38
755.342	24409.43
755.679	24385.7
756.017	24237
756.355	24274.97
756.693	24146.61
757.031	24205.59
757.368	24023.22
757.706	23992.04
758.044	23923.11
758.381	23884.02
758.719	23896.9
759.056	23872.49
759.394	23794.08
759.731	23676.11
760.068	23515.67
760.405	23465.95
760.743	23403.13
761.08	23517.7
761.417	23326.07
761.754	23283.81
762.091	23287.65
762.428	23311.38
762.765	23046.53
763.102	23117.49
763.438	22994.1
763.775	22858.28
764.112	22819.19
764.449	22849.7
764.785	22738.29
765.122	22632.53
765.458	22493.77
765.795	22493.32
766.131	22537.84
766.467	22416.03
766.804	22188.7
767.14	22159.09
767.476	22193.89
767.812	22061.69
768.148	22106.44
768.485	21948.48
768.821	21891.53
769.157	21828.93
769.492	21720.91
769.828	21749.61
770.164	21463.29
770.5	21422.39
770.836	21400.92
771.171	21265.56
771.507	21235.5
771.842	21189.17
772.178	21084.32
772.513	21122.51
772.849	21021.5
773.184	20923.64
773.519	20970.42
773.855	20845.45
774.19	20704.89
774.525	20691.79
774.86	20674.39
775.195	20649.3
775.53	20418.12
775.865	20265.13
776.2	20208.41
776.535	20080.73
776.87	20181.29
777.205	20159.37
777.539	19948.76
777.874	19977
778.209	19805.71
778.543	19781.3
778.878	19629.89
779.212	19567.97
779.547	19555.55
779.881	19551.03
780.215	19384.25
780.55	19488.43
780.884	19286.85
781.218	19224.03
781.552	19223.8
781.886	19170.7
782.22	19061.77
782.554	18961.66
782.888	18871.5
783.222	18670.82
783.556	18681.22
783.889	18612.07
784.223	18537.94
784.557	18466.53
784.89	18514.67
785.224	18337.95
785.557	18272.64
785.891	18275.35
786.224	18221.34
786.558	18168.91
786.891	17996.49
787.224	17996.94
787.557	17908.36
787.891	17916.04
788.224	17791.75
788.557	17768.25
788.89	17827.91
789.223	17725.99
789.556	17589.04
789.888	17576.84
790.221	17429.95
790.554	17294.36
790.887	17308.6
791.219	17278.09
791.552	17196.74
791.884	17174.59
792.217	17112.9
792.549	17115.16
792.882	16883.07
793.214	16826.35
793.546	16889.85
793.879	16744.55
794.211	16679.69
794.543	16648.28
794.875	16543.42
795.207	16733.47
795.539	16511.11
795.871	16476.3
796.203	16316.31
796.535	16256.42
796.867	16227.05
797.198	16243.77
797.53	16190.66
797.862	16109.76
798.193	16162.41
798.525	16025.69
798.856	16052.81
799.188	15869.09
799.519	15860.05
799.85	15777.34
800.182	15793.38
800.513	15661.86
800.844	15620.96
801.175	15733.05
801.506	15579.83
801.837	15526.5
802.168	15479.27
802.499	15449.44
802.83	15334.87
803.161	15450.57
803.491	15285.83
803.822	15253.06
804.153	15216.45
804.483	15103.01
804.814	15083.57
805.145	15032.5
805.475	14977.13
805.805	15063.46
806.136	14967.19
806.466	15012.39
806.796	14938.49
807.126	14800.19
807.457	14827.31
807.787	14726.07
808.117	14635.9
808.447	14636.13
808.777	14674.09
809.107	14561.78
809.436	14551.16
809.766	14446.75
810.096	14458.28
810.426	14420.99
810.755	14436.13
811.085	14388.22
811.414	14279.3
811.744	14225.74
812.073	14274.33
812.403	14194.33
812.732	14151.62
813.061	14102.81
813.39	14016.48
813.719	14064.16
814.049	14044.5
814.378	14042.7
814.707	13884.51
815.036	13916.37
815.365	13837.5
815.693	13747.79
816.022	13767.67
816.351	13708.02
816.68	13604.52
817.008	13665.98
817.337	13577.85
817.665	13470.28
817.994	13613.33
818.322	13558.41
818.651	13451.07
818.979	13395.93
819.307	13519.55
819.636	13422.83
819.964	13283.62
820.292	13388.7
820.62	13304.18
820.948	13298.76
821.276	13329.72
821.604	13302.6
821.932	13329.49
822.259	13292.43
822.587	13233.9
822.915	13175.83
823.243	13265.99
823.57	13254.92
823.898	13271.42
824.225	13238.42
824.553	13213.56
824.88	13172.89
825.207	13301.47
825.535	13245.2
825.862	13283.85
826.189	13176.05
826.516	13242.94
826.843	13151.42
827.17	13239.1
827.497	13290.63
827.824	13175.83
828.151	13319.55
828.478	13134.7
828.805	13280.68
829.131	13253.34
829.458	13192.1
829.785	13088.82
830.111	13086.56
830.438	13210.63
830.764	13096.73
831.09	13183.51
831.417	13111.42
831.743	13195.71
832.069	13251.53
832.395	13089.95
832.722	13192.32
833.048	12985.55
833.374	13179.89
833.7	13071.65
834.026	13122.72
834.351	13029.39
834.677	13103.06
835.003	12964.53
835.329	12988.03
835.654	12933.8
835.98	12921.6
836.306	12949.84
836.631	12869.62
836.956	12876.17
837.282	13026
837.607	12854.7
837.932	12862.61
838.258	12854.93
838.583	12795.72
838.908	12739.45
839.233	12757.31
839.558	12767.7
839.883	12717.98
840.208	12671.43
840.533	12633.69
840.858	12657.2
841.182	12647.48
841.507	12656.29
841.832	12491.55
842.156	12588.95
842.481	12520.48
842.805	12499.69
843.13	12517.54
843.454	12478.9
843.778	12491.78
844.103	12378.56
844.427	12337.43
844.751	12400.03
845.075	12334.49
845.399	12300.82
845.723	12248.39
846.047	12246.58
846.371	12112.58
846.695	12116.64
847.019	12068.06
847.343	12036.19
847.666	11880.04
847.99	11858.8
848.313	11790.78
848.637	11798.91
848.96	11783.32
849.284	11722.3
849.607	11617
849.931	11688.18
850.254	11615.41
850.577	11468.53
850.9	11442.09
851.223	11404.12
851.546	11351.47
851.869	11242.09
852.192	11359.83
852.515	11248.87
852.838	11183.56
853.161	11224.69
853.483	11057.01
853.806	11043
854.129	11007.52
854.451	11006.62
854.774	10993.74
855.096	10811.37
855.419	10837.13
855.741	10896.56
856.063	10831.71
856.385	10802.1
856.708	10694.54
857.03	10742.9
857.352	10770.47
857.674	10651.15
857.996	10598.27
858.318	10586.06
858.64	10583.13
858.961	10551.71
859.283	10519.4
859.605	10400.08
859.926	10469
860.248	10415.9
860.57	10405.28
860.891	10436.69
861.212	10363.24
861.534	10359.63
861.855	10257.71
862.176	10367.09
862.498	10300.2
862.819	10310.14
863.14	10260.87
863.461	10264.72
863.782	10197.15
864.103	10187.88
864.424	10161.89
864.745	10181.33
865.065	10146.08
865.386	10022.24
865.707	10117.83
866.027	10085.96
866.348	10097.94
866.668	9991.5
866.989	10024.95
867.309	10013.2
867.63	9898.62
867.95	9944.72
868.27	9890.94
868.59	9923.26
868.91	9935.01
869.23	9837.61
869.55	9848
869.87	9855.91
870.19	9891.62
870.51	9851.17
870.83	9789.93
871.15	9828.57
871.469	9730.94
871.789	9811.17
872.109	9811.85
872.428	9699.99
872.748	9753.99
873.067	9719.42
873.386	9688.01
873.706	9712.41
874.025	9567.11
874.344	9576.37
874.663	9634.22
874.982	9592.64
875.301	9621.57
875.62	9569.14
875.939	9542.48
876.258	9504.28
876.577	9454.34
876.896	9491.18
877.214	9490.05
877.533	9426.55
877.852	9426.55
878.17	9534.34
878.489	9411.63
878.807	9375.47
879.125	9430.16
879.444	9442.59
879.762	9373.44
880.08	9323.27
880.398	9290.73
880.716	9277.4
881.034	9267.45
881.352	9285.53
881.67	9220.45
881.988	9238.75
882.306	9228.13
882.624	9167.12
882.941	9110.62
883.259	9100
883.577	9139.55
883.894	9108.59
884.212	9077.85
884.529	8999.66
884.846	8997.63
885.164	8997.18
885.481	9061.81
885.798	8967.35
886.115	8934.58
886.432	8909.27
886.75	8899.33
887.067	8874.47
887.383	8858.43
887.7	8882.61
888.017	8860.46
888.334	8862.72
888.651	8744.98
888.967	8809.84
889.284	8702.95
889.6	8715.6
889.917	8659.79
890.233	8680.12
890.55	8587.25
890.866	8609.62
891.182	8684.87
891.498	8559
891.815	8499.79
892.131	8507.47
892.447	8498.89
892.763	8466.57
893.079	8481.71
893.395	8472.22
893.71	8413.01
894.026	8353.58
894.342	8387.7
894.657	8248.72
894.973	8255.05
895.289	8225.9
895.604	8263.86
895.92	8210.76
896.235	8158.56
896.55	8196.3
896.865	8125.79
897.181	8134.15
897.496	8088.73
897.811	8032.23
898.126	8002.63
898.441	7962.4
898.756	8008.28
899.071	7908.62
899.386	7934.16
899.7	7881.5
900.015	7869.07
900.33	7744.78
900.644	7807.83
900.959	7735.97
901.273	7759.25
901.588	7702.52
901.902	7616.42
902.216	7637.21
902.531	7685.35
902.845	7589.31
903.159	7578.91
903.473	7551.12
903.787	7544.56
904.101	7507.05
904.415	7466.82
904.729	7461.85
905.042	7338.47
905.356	7377.56
905.67	7367.84
905.984	7337.11
906.297	7304.79
906.611	7307.05
906.924	7246.94
907.237	7204.68
907.551	7201.52
907.864	7144.35
908.177	7161.75
908.491	7116.1
908.804	7098.25
909.117	7046.04
909.43	7016.67
909.743	6964.24
910.056	6985.03
910.368	6924.46
910.681	6849.44
910.994	6804.24
911.307	6865.48
911.619	6898.7
911.932	6882.88
912.244	6786.84
912.557	6710.23
912.869	6691.7
913.181	6713.85
913.494	6637.69
913.806	6607.41
914.118	6652.61
914.43	6612.83
914.742	6528.09
915.054	6526.28
915.366	6535.32
915.678	6428.66
915.99	6444.93
916.302	6418.26
916.613	6397.7
916.925	6380.3
917.236	6335.55
917.548	6280.87
917.859	6307.08
918.171	6240.87
918.482	6252.84
918.794	6236.57
919.105	6238.83
919.416	6141.21
919.727	6176.46
920.038	6126.07
920.349	6092.62
920.66	6055.56
920.971	6112.06
921.282	5996.58
921.593	5983.25
921.903	5933.08
922.214	5920.88
922.525	5976.24
922.835	5873.64
923.146	5822.57
923.456	5802.01
923.767	5819.41
924.077	5791.84
924.387	5766.3
924.697	5799.97
925.008	5729.69
925.318	5708.68
925.628	5724.95
925.938	5634.33
926.248	5697.38
926.558	5594.78
926.867	5545.74
927.177	5564.27
927.487	5514.56
927.796	5479.08
928.106	5473.43
928.416	5481.34
928.725	5438.85
929.034	5455.8
929.344	5402.92
929.653	5398.86
929.962	5323.38
930.271	5320.21
930.581	5306.43
930.89	5261.68
931.199	5198.41
931.508	5209.26
931.817	5218.97
932.125	5200.44
932.434	5198.86
932.743	5164.06
933.051	5099.88
933.36	5106.66
933.669	5090.39
933.977	5076.15
934.286	5080.67
934.594	5003.39
934.902	4993.67
935.21	4943.27
935.519	4952.54
935.827	4900.11
936.135	4913.44
936.443	4833.45
936.751	4825.99
937.059	4807.01
937.367	4831.64
937.674	4785.54
937.982	4762.04
938.29	4759.55
938.597	4769.72
938.905	4685.2
939.213	4689.04
939.52	4707.8
939.827	4644.52
940.135	4603.17
940.442	4626.67
940.749	4573.11
941.056	4601.59
941.363	4552.32
941.67	4514.81
941.977	4497.41
942.284	4510.29
942.591	4493.79
942.898	4443.17
943.205	4417.64
943.511	4404.76
943.818	4376.51
944.125	4367.24
944.431	4346.68
944.738	4346.68
945.044	4346.23
945.35	4318.88
945.657	4283.18
945.963	4284.99
946.269	4239.79
946.575	4245.21
946.881	4238.89
947.187	4202.05
947.493	4200.47
947.799	4143.3
948.105	4154.14
948.41	4113.24
948.716	4139.23
949.022	4085.22
949.327	4106.23
949.633	4085.22
949.938	4058.1
950.244	4050.42
950.549	4009.51
950.854	3963.86
951.16	4000.93
951.465	3935.62
951.77	3945.33
952.075	3928.61
952.38	3930.42
952.685	3913.7
952.99	3901.27
953.294	3846.58
953.599	3821.27
953.904	3831.44
954.209	3829.86
954.513	3835.05
954.818	3763.42
955.122	3753.47
955.426	3749.41
955.731	3747.83
956.035	3711.22
956.339	3699.01
956.643	3619.69
956.948	3649.75
957.252	3643.87
957.556	3616.76
957.86	3630.77
958.163	3659.69
958.467	3585.8
958.771	3589.41
959.075	3610.43
959.378	3572.24
959.682	3570.65
959.985	3512.8
960.289	3500.6
960.592	3451.34
960.896	3470.54
961.199	3432.35
961.502	3459.02
961.805	3415.86
962.108	3407.04
962.411	3410.66
962.714	3322.07
963.017	3308.51
963.32	3363.2
963.623	3329.08
963.926	3354.39
964.228	3290.89
964.531	3279.36
964.833	3315.97
965.136	3253.83
965.438	3228.52
965.741	3235.97
966.043	3181.74
966.345	3200.49
966.648	3216.54
966.95	3207.73
967.252	3185.81
967.554	3162.08
967.856	3123.89
968.158	3128.86
968.46	3136.54
968.761	3119.37
969.063	3118.46
969.365	3064
969.666	3052.02
969.968	3089.99
970.269	3053.61
970.571	3012.03
970.872	2989.2
971.174	2993.27
971.475	2982.87
971.776	2995.08
972.077	2965.02
972.378	2947.17
972.679	2974.96
972.98	2944.91
973.281	2911.91
973.582	2892.25
973.883	2875.08
974.183	2857
974.484	2867.4
974.785	2807.96
975.085	2832.14
975.386	2822.43
975.686	2827.85
975.986	2807.28
976.287	2762.77
976.587	2735.2
976.887	2730.22
977.187	2790.56
977.487	2756.89
977.787	2756.21
978.087	2724.12
978.387	2686.84
978.687	2680.73
978.987	2668.31
979.286	2627.4
979.586	2629.66
979.885	2661.98
980.185	2628.53
980.484	2579.95
980.784	2608.87
981.083	2601.87
981.382	2597.57
981.682	2582.88
981.981	2598.48
982.28	2544.92
982.579	2584.69
982.878	2527.29
983.177	2504.69
983.475	2526.61
983.774	2522.09
984.073	2514.64
984.372	2504.47
984.67	2476.22
984.969	2462.66
985.267	2451.81
985.566	2429.44
985.864	2392.83
986.162	2401.19
986.461	2364.58
986.759	2408.2
987.057	2394.87
987.355	2366.62
987.653	2356.9
987.951	2351.48
988.249	2359.39
988.547	2355.32
988.844	2322.78
989.142	2300.86
989.44	2301.08
989.737	2305.38
990.035	2254.98
990.332	2226.96
990.63	2257.02
990.927	2279.16
991.224	2241.42
991.521	2201.43
991.819	2230.12
992.116	2213.85
992.413	2185.38
992.71	2188.77
993.006	2155.1
993.303	2161.65
993.6	2154.87
993.897	2113.52
994.193	2152.84
994.49	2131.82
994.787	2111.94
995.083	2089.11
995.379	2090.02
995.676	2090.02
995.972	2060.41
996.268	2062.9
996.565	2018.15
996.861	2047.76
997.157	2031.49
997.453	2001.88
997.749	2026.97
998.044	1979.96
998.34	1979.28
998.636	1991.26
998.932	1967.98
999.227	1977.93
999.523	1964.14
999.818	1939.06
1000.114	1939.29
1000.409	1928.89
1000.704	1959.85
1001	1904.48
1001.295	1906.97
1001.59	1885.05
1001.885	1894.31
1002.18	1883.92
1002.475	1875.78
1002.77	1862.9
1003.065	1845.73
1003.359	1832.17
1003.654	1829.23
1003.949	1814.54
1004.243	1819.97
1004.538	1785.62
1004.832	1773.41
1005.127	1764.83
1005.421	1767.76
1005.715	1759.85
1006.009	1786.97
1006.304	1746.75
1006.598	1716.69
1006.892	1716.92
1007.186	1702
1007.48	1696.13
1007.773	1717.6
1008.067	1657.48
1008.361	1687.31
1008.655	1667.2
1008.948	1652.97
1009.242	1633.53
1009.535	1633.08
1009.829	1617.26
1010.122	1618.62
1010.415	1616.13
1010.708	1597.6
1011.001	1586.98
1011.295	1578.62
1011.588	1558.28
1011.881	1561.67
1012.173	1557.37
1012.466	1530.71
1012.759	1534.1
1013.052	1530.93
1013.344	1526.19
1013.637	1518.05
1013.93	1502.46
1014.222	1490.26
1014.514	1479.86
1014.807	1502.91
1015.099	1477.15
1015.391	1478.73
1015.683	1437.6
1015.976	1473.08
1016.268	1444.38
1016.56	1424.95
1016.851	1403.48
1017.143	1416.59
1017.435	1409.13
1017.727	1400.54
1018.018	1405.97
1018.31	1391.5
1018.602	1387.89
1018.893	1382.01
1019.185	1378.4
1019.476	1347.44
1019.767	1359.41
1020.058	1342.92
1020.35	1313.31
1020.641	1299.53
1020.932	1295.91
1021.223	1289.36
1021.514	1278.51
1021.804	1292.75
1022.095	1283.71
1022.386	1264.05
1022.677	1261.79
1022.967	1251.85
1023.258	1232.41
1023.548	1241.22
1023.839	1233.77
1024.129	1228.12
1024.419	1209.13
1024.709	1214.33
1025	1170.04
1025.29	1207.55
1025.58	1191.28
1025.87	1177.05
1026.16	1161.45
1026.449	1173.43
1026.739	1140.89
1027.029	1144.05
1027.319	1138.85
1027.608	1149.25
1027.898	1106.54
1028.187	1108.12
1028.477	1114.67
1028.766	1073.32
1029.055	1130.94
1029.344	1084.39
1029.634	1071.96
1029.923	1064.05
1030.212	1081.91
1030.501	1084.39
1030.79	1042.59
1031.078	1058.86
1031.367	1027.44
1031.656	1025.64
1031.945	1035.81
1032.233	1035.58
1032.522	1009.14
1032.81	1008.01
1033.099	1012.3
1033.387	1008.01
1033.675	1003.04
1033.963	1003.94
1034.251	1021.34
1034.54	968.01
1034.828	965.07
1035.116	980.89
1035.403	949.25
1035.691	941.8
1035.979	939.09
1036.267	948.58
1036.554	946.99
1036.842	934.79
1037.129	937.96
1037.417	910.16
1037.704	907.9
1037.992	906.77
1038.279	885.75
1038.566	883.49
1038.853	883.49
1039.14	883.49
