Data from hue_26_FLMS001491_00050.txt Node
Date: Tue Feb 07 17:14:04 GMT 2017
User: dcchb
Spectrometer: FLMS00149
Trigger mode: 0
Integration Time (sec): 2.000000E-2
Scans to average: 10
Electric dark correction enabled: true
Nonlinearity correction enabled: false
Boxcar width: 0
XAxis mode: Wavelengths
Number of Pixels in Spectrum: 2048
>>>>>Begin Spectral Data<<<<<
341.393	-12.73
341.776	-12.73
342.16	-12.73
342.543	-59.73
342.927	-64.25
343.31	-72.16
343.693	-64.7
344.077	-45.95
344.46	-90.46
344.843	-40.52
345.226	-61.76
345.61	-29.22
345.993	-5.72
346.376	-2.1
346.759	25.47
347.142	27.05
347.525	41.96
347.908	37.22
348.291	79.93
348.674	80.61
349.057	120.38
349.44	130.32
349.823	130.77
350.206	170.32
350.588	182.3
350.971	212.13
351.354	220.04
351.737	233.14
352.119	238.34
352.502	265.23
352.884	279.24
353.267	268.85
353.65	281.28
354.032	293.26
354.414	282.18
354.797	311.11
355.179	328.73
355.562	319.92
355.944	321.28
356.326	332.8
356.709	329.64
357.091	349.75
357.473	331.9
357.855	364.21
358.238	345.91
358.62	340.71
359.002	338.23
359.384	332.8
359.766	350.43
360.148	342.97
360.53	323.76
360.912	319.24
361.294	330.54
361.676	341.16
362.057	322.63
362.439	340.49
362.821	331.22
363.203	319.69
363.584	325.34
363.966	319.47
364.348	330.32
364.729	310.2
365.111	340.26
365.493	319.24
365.874	345.91
366.256	316.76
366.637	319.47
367.019	313.14
367.4	309.07
367.781	312.46
368.163	315.4
368.544	304.1
368.925	321.95
369.306	308.85
369.688	309.53
370.069	299.13
370.45	319.02
370.831	317.44
371.212	327.38
371.593	307.72
371.974	325.34
372.355	300.71
372.736	318.57
373.117	305.46
373.498	335.97
373.879	327.6
374.26	302.97
374.641	319.24
375.021	322.63
375.402	342.52
375.783	316.08
376.163	311.33
376.544	319.69
376.925	316.98
377.305	324.67
377.686	330.77
378.066	334.61
378.447	323.08
378.827	307.27
379.208	327.6
379.588	333.93
379.968	340.49
380.349	333.93
380.729	330.99
381.109	346.81
381.489	362.63
381.87	332.35
382.25	338.23
382.63	325.8
383.01	356.3
383.39	329.19
383.77	330.77
384.15	358.11
384.53	329.19
384.91	340.71
385.29	334.61
385.67	347.94
386.049	370.54
386.429	346.81
386.809	369.64
387.189	363.99
387.568	357.43
387.948	342.75
388.328	374.61
388.707	344.1
389.087	358.34
389.466	377.09
389.846	360.15
390.225	376.19
390.605	370.77
390.984	368.73
391.363	355.85
391.743	363.54
392.122	361.73
392.501	396.98
392.881	368.06
393.26	383.42
393.639	373.48
394.018	363.31
394.397	369.41
394.776	363.99
395.155	391.11
395.534	369.64
395.913	399.47
396.292	401.73
396.671	405.79
397.05	385.91
397.429	369.64
397.808	377.32
398.186	371.45
398.565	371.9
398.944	392.01
399.323	402.4
399.701	401.5
400.08	417.77
400.458	403.53
400.837	397.89
401.215	387.94
401.594	391.56
401.972	398.79
402.351	397.66
402.729	384.33
403.107	414.61
403.486	406.7
403.864	403.53
404.242	373.7
404.62	408.05
404.999	422.29
405.377	414.16
405.755	407.38
406.133	410.09
406.511	412.35
406.889	409.18
407.267	441.5
407.645	424.33
408.023	436.98
408.401	441.27
408.779	429.75
409.156	442.18
409.534	432.23
409.912	423.42
410.29	446.7
410.667	457.77
411.045	456.19
411.422	456.19
411.8	456.19
412.178	462.29
412.555	450.09
412.933	455.28
413.31	457.77
413.687	473.14
414.065	483.53
414.442	471.1
414.819	451.22
415.197	472.46
415.574	498
415.951	467.26
416.328	501.16
416.705	485.79
417.082	473.36
417.46	506.58
417.837	514.94
418.214	490.54
418.591	512.68
418.967	506.58
419.344	515.17
419.721	527.6
420.098	498.9
420.475	512.91
420.852	516.98
421.228	524.44
421.605	525.79
421.982	529.86
422.358	544.55
422.735	535.51
423.111	526.47
423.488	540.93
423.864	537.77
424.241	527.83
424.617	528.28
424.994	537.99
425.37	539.58
425.746	556.52
426.123	570.31
426.499	578.67
426.875	547.71
427.251	567.15
427.627	550.88
428.003	572.8
428.379	582.74
428.756	575.06
429.132	601.04
429.507	587.03
429.883	621.83
430.259	591.1
430.635	601.5
431.011	600.59
431.387	618.67
431.763	635.62
432.138	617.09
432.514	624.77
432.89	610.76
433.265	638.1
433.641	641.49
434.016	639.91
434.392	662.51
434.767	662.06
435.143	665.22
435.518	657.31
435.894	699.12
436.269	664.77
436.644	685.11
437.02	683.75
437.395	675.17
437.77	695.96
438.145	711.32
438.52	707.03
438.895	722.85
439.271	721.04
439.646	717.42
440.021	725.79
440.395	720.36
440.77	728.95
441.145	727.82
441.52	766.46
441.895	751.77
442.27	740.7
442.645	741.83
443.019	762.4
443.394	762.62
443.769	768.27
444.143	755.39
444.518	758.1
444.892	735.28
445.267	776.18
445.641	791.1
446.016	785.67
446.39	819.57
446.764	797.2
447.139	800.81
447.513	808.5
447.887	796.07
448.262	797.65
448.636	795.39
449.01	836.07
449.384	837.42
449.758	820.47
450.132	853.24
450.506	799.91
450.88	847.82
451.254	840.59
451.628	850.98
452.002	856.86
452.376	859.12
452.75	871.54
453.123	867.03
453.497	888.72
453.871	855.27
454.244	915.16
454.618	900.02
454.992	886.69
455.365	898.44
455.739	937.31
456.112	946.35
456.486	950.64
456.859	973.69
457.232	966.23
457.606	956.51
457.979	981.6
458.352	997.64
458.725	1003.52
459.099	1000.58
459.472	1026.57
459.845	1033.35
460.218	1038.32
460.591	1034.7
460.964	1051.2
461.337	1048.94
461.71	1080.13
462.083	1115.15
462.456	1096.4
462.829	1129.17
463.201	1098.21
463.574	1129.17
463.947	1143.4
464.32	1173.01
464.692	1155.15
465.065	1169.62
465.438	1172.55
465.81	1208.26
466.183	1220.69
466.555	1252.78
466.928	1257.98
467.3	1246.68
467.672	1300.46
468.045	1300.01
468.417	1277.64
468.789	1313.57
469.161	1335.04
469.534	1308.37
469.906	1377.07
470.278	1399.21
470.65	1389.95
471.022	1401.93
471.394	1422.26
471.766	1434.92
472.138	1477.86
472.51	1507.69
472.882	1522.15
473.253	1538.19
473.625	1538.19
473.997	1582.71
474.369	1613.67
474.74	1624.29
475.112	1668.81
475.484	1693.9
475.855	1723.27
476.227	1732.99
476.598	1764.4
476.97	1795.81
477.341	1844.4
477.713	1870.39
478.084	1924.85
478.455	1939.09
478.827	1953.78
479.198	2048.01
479.569	2027.67
479.94	2063.15
480.311	2116.71
480.682	2162.36
481.053	2200.32
481.424	2279.19
481.795	2290.04
482.166	2314.22
482.537	2348.57
482.908	2424.72
483.279	2459.98
483.65	2513.31
484.021	2534.78
484.391	2626.08
484.762	2605.28
485.133	2644.38
485.503	2686.41
485.874	2789.46
486.244	2784.04
486.615	2848.67
486.985	2908.78
487.356	2979.74
487.726	2975.44
488.097	3065.84
488.467	3066.29
488.837	3170.24
489.207	3194.87
489.578	3236.45
489.948	3266.74
490.318	3348.77
490.688	3333.63
491.058	3461.76
491.428	3500.4
491.798	3541.98
492.168	3581.3
492.538	3593.06
492.908	3658.14
493.278	3736.33
493.648	3734.52
494.017	3790.11
494.387	3834.18
494.757	3866.27
495.126	3940.39
495.496	3929.09
495.866	3988.07
496.235	4083.44
496.605	4040.95
496.974	4081.4
497.344	4122.76
497.713	4134.96
498.082	4197.79
498.452	4228.52
498.821	4315.07
499.19	4324.34
499.559	4296.31
499.928	4365.24
500.298	4408.4
500.667	4452.92
501.036	4471.45
501.405	4509.87
501.774	4492.69
502.143	4534.73
502.512	4573.37
502.88	4561.17
503.249	4661.95
503.618	4678
503.987	4700.82
504.356	4727.04
504.724	4754.61
505.093	4743.76
505.462	4772.01
505.83	4810.42
506.199	4840.93
506.567	4896.75
506.936	4898.33
507.304	4978.56
507.672	4952.34
508.041	5019.23
508.409	4984.43
508.777	5033.92
509.145	5045.9
509.514	5079.57
509.882	5150.75
510.25	5111.43
510.618	5210.64
510.986	5180.36
511.354	5262.62
511.722	5259
512.09	5278.21
512.458	5271.88
512.826	5318.66
513.193	5360.92
513.561	5382.84
513.929	5385.1
514.297	5388.94
514.664	5500.12
515.032	5424.42
515.4	5524.3
515.767	5521.37
516.135	5502.61
516.502	5477.53
516.869	5544.19
517.237	5619.89
517.604	5579.44
517.972	5673
518.339	5710.74
518.706	5658.76
519.073	5722.72
519.44	5698.31
519.808	5807.91
520.175	5749.38
520.542	5856.95
520.909	5829.61
521.276	5840.45
521.643	5940.11
522.009	5923.62
522.376	5976.95
522.743	5955.03
523.11	6014.91
523.477	6017.85
523.843	6061.46
524.21	6127.9
524.577	6186.43
524.943	6180.56
525.31	6186.89
525.676	6237.51
526.043	6286.54
526.409	6296.49
526.776	6307.11
527.142	6409.48
527.508	6427.78
527.874	6432.08
528.241	6479.53
528.607	6504.39
528.973	6569.93
529.339	6556.59
529.705	6565.41
530.071	6647.21
530.437	6681.56
530.803	6706.87
531.169	6717.27
531.535	6755.91
531.901	6820.99
532.267	6791.84
532.632	6840.2
532.998	6869.81
533.364	6902.8
533.73	6940.09
534.095	7020.31
534.461	6995.45
534.826	7053.98
535.192	7047.2
535.557	7093.53
535.923	7132.4
536.288	7172.4
536.653	7138.72
537.019	7157.48
537.384	7191.15
537.749	7242.45
538.114	7230.7
538.479	7323.58
538.845	7320.64
539.21	7322.9
539.575	7384.14
539.94	7355.22
540.305	7441.77
540.67	7446.06
541.034	7507.75
541.399	7493.97
541.764	7544.36
542.129	7557.02
542.494	7550.69
542.858	7657.36
543.223	7656.23
543.587	7663.23
543.952	7699.61
544.316	7740.06
544.681	7763.57
545.045	7837.01
545.41	7877.24
545.774	7832.04
546.138	7928.53
546.503	8019.83
546.867	8004.46
547.231	8046.95
547.595	8114.74
547.959	8075.2
548.324	8110.68
548.688	8155.42
549.052	8118.59
549.416	8141.18
549.779	8137.12
550.143	8252.59
550.507	8282.2
550.871	8253.95
551.235	8339.15
551.599	8315.42
551.962	8383.89
552.326	8372.14
552.689	8442.42
553.053	8434.28
553.417	8450.78
553.78	8524
554.143	8492.36
554.507	8560.16
554.87	8596.77
555.234	8703.66
555.597	8641.28
555.96	8621.62
556.323	8660.27
556.686	8661.62
557.05	8766.93
557.413	8779.36
557.776	8788.85
558.139	8808.29
558.502	8750.66
558.865	8867.49
559.228	8957.89
559.59	8941.62
559.953	9046.92
560.316	9088.28
560.679	9094.15
561.041	9096.19
561.404	9086.02
561.767	9083.98
562.129	9156.3
562.492	9215.73
562.854	9186.81
563.217	9263.87
563.579	9271.1
563.941	9354.94
564.304	9409.17
564.666	9457.08
565.028	9468.61
565.39	9389.06
565.753	9460.02
566.115	9503.86
566.477	9582.05
566.839	9613.46
567.201	9674.93
567.563	9647.13
567.925	9698.88
568.287	9696.85
568.648	9762.38
569.01	9890.52
569.372	9890.06
569.734	9848.71
570.095	10010.74
570.457	9956.96
570.819	10001.47
571.18	10100.23
571.542	10118.99
571.903	10196.5
572.265	10173.67
572.626	10234.24
572.987	10248.25
573.349	10315.14
573.71	10401.46
574.071	10464.96
574.432	10509.71
574.794	10595.36
575.155	10635.13
575.516	10631.74
575.877	10694.11
576.238	10813.66
576.599	10889.81
576.96	10945.86
577.32	10997.15
577.681	11097.72
578.042	11241.89
578.403	11319.18
578.763	11443.47
579.124	11378.39
579.485	11628.1
579.845	11729.79
580.206	11803.46
580.566	11931.59
580.927	12055.21
581.287	12170.23
581.648	12314.86
582.008	12518.92
582.368	12520.73
582.728	12778.58
583.089	12922.98
583.449	13033.48
583.809	13199.13
584.169	13386.02
584.529	13583.08
584.889	13840.24
585.249	13870.98
585.609	14084.3
585.969	14344.64
586.329	14542.82
586.688	14774.91
587.048	15014
587.408	15194.11
587.768	15271.84
588.127	15675.45
588.487	15778.05
588.846	16155.21
589.206	16361.08
589.565	16640.17
589.925	16961.97
590.284	17140.27
590.643	17471.79
591.003	17662.52
591.362	18074.93
591.721	18311.76
592.08	18448.71
592.44	18829.94
592.799	19074.68
593.158	19384.05
593.517	19697.72
593.876	20046.63
594.235	20281.88
594.593	20572.72
594.952	20910.34
595.311	21125.93
595.67	21594.84
596.029	21932.01
596.387	22224.66
596.746	22473.01
597.104	22651.31
597.463	22958.87
597.822	23441.8
598.18	23584.62
598.538	23881.11
598.897	24300.08
599.255	24470.47
599.613	24959.27
599.972	25092.6
600.33	25454.18
600.688	25584.57
601.046	26156.08
601.404	26407.14
601.762	26647.36
602.12	27074.47
602.478	27344.07
602.836	27549.71
603.194	27806.2
603.552	28119.42
603.91	28135.69
604.268	28579.74
604.625	28859.51
604.983	29127.75
605.341	29314.86
605.698	29821.97
606.056	29997.11
606.413	30194.39
606.771	30519.58
607.128	30793.92
607.485	30786.01
607.843	31177.87
608.2	31451.31
608.557	31764.52
608.914	31763.39
609.272	32288.8
609.629	32401.79
609.986	32722.46
610.343	32805.62
610.7	33224.37
611.057	33400.86
611.414	33441.76
611.771	33709.78
612.127	34008.07
612.484	34199.26
612.841	34489.64
613.198	34462.75
613.554	34792.69
613.911	35088.72
614.267	35172.56
614.624	35264.99
614.98	35597.86
615.337	35864.07
615.693	35937.97
616.05	36074.91
616.406	36467.9
616.762	36433.32
617.118	36538.4
617.475	36798.28
617.831	36955.12
618.187	37092.29
618.543	37302.68
618.899	37523.24
619.255	37695.66
619.611	37661.54
619.967	37812.27
620.323	38075.99
620.678	37958.71
621.034	38040.74
621.39	38145.59
621.746	38219.04
622.101	38662.42
622.457	38483.66
622.812	38721.17
623.168	38901.73
623.523	38979.92
623.879	39202.97
624.234	38918.91
624.589	39159.35
624.945	39379.68
625.3	39400.7
625.655	39457.87
626.01	39502.17
626.365	39682.28
626.72	39647.02
627.075	39801.59
627.43	39767.7
627.785	39772.44
628.14	39988.93
628.495	39957.75
628.85	39943.74
629.205	40043.4
629.559	40344.41
629.914	40100.12
630.269	40218.76
630.623	40200.23
630.978	40096.05
631.332	40455.59
631.687	40476.38
632.041	40355.7
632.396	40472.31
632.75	40256.72
633.104	40356.16
633.459	40199.55
633.813	40278.87
634.167	40401.8
634.521	40347.8
634.875	40456.27
635.229	40388.7
635.583	40362.26
635.937	40375.36
636.291	40343.28
636.645	40467.79
636.999	40294.46
637.352	40405.19
637.706	40340.34
638.06	40510.28
638.413	40411.3
638.767	40303.73
639.121	40361.58
639.474	40166.33
639.828	40302.6
640.181	40225.54
640.534	40401.35
640.888	40367
641.241	40133.56
641.594	40269.38
641.947	40461.01
642.301	40334.01
642.654	40337.4
643.007	40336.27
643.36	40345.76
643.713	40308.25
644.066	40320.68
644.419	40251.98
644.771	39904.64
645.124	39556.18
645.477	39377.2
645.83	39194.38
646.182	39176.3
646.535	39142.18
646.888	39290.87
647.24	38964.1
647.593	39220.14
647.945	39095.62
648.298	39126.36
648.65	38892.01
649.002	38826.03
649.355	38946.02
649.707	39011.56
650.059	39102.18
650.411	39575.39
650.763	39605.44
651.115	40098.99
651.467	39879.11
651.819	39862.84
652.171	39778.77
652.523	39757.3
652.875	39783.29
653.227	39442.96
653.578	39814.93
653.93	39839.33
654.282	39597.76
654.633	39625.55
654.985	39666.68
655.337	39696.06
655.688	39617.64
656.039	39841.82
656.391	39601.83
656.742	39640.92
657.094	39567.93
657.445	39734.93
657.796	39688.6
658.147	39526.57
658.498	39613.13
658.849	39691.09
659.2	39481.15
659.551	39533.35
659.902	39585.33
660.253	39450.19
660.604	39533.58
660.955	39466.69
661.306	39489.51
661.656	39487.48
662.007	39468.27
662.358	39376.3
662.708	39438.21
663.059	39398.67
663.409	39156.87
663.76	39409.97
664.11	39494.94
664.461	39430.31
664.811	39419.68
665.161	39401.83
665.511	39321.83
665.862	39376.07
666.212	39457.87
666.562	39413.58
666.912	39366.13
667.262	39262.63
667.612	39359.12
667.962	39428.5
668.312	39370.19
668.662	39604.76
669.011	39335.17
669.361	39419.23
669.711	39365.67
670.06	39187.6
670.41	39223.08
670.76	39170.2
671.109	39250.87
671.459	39254.04
671.808	39223.98
672.157	39143.08
672.507	38999.13
672.856	38955.97
673.205	39262.4
673.554	39166.81
673.904	39147.6
674.253	39351.89
674.602	39118.22
674.951	38698.35
675.3	38448.18
675.649	39143.98
675.998	38966.36
676.346	39017.66
676.695	39105.79
677.044	38862.64
677.393	38993.48
677.741	38934.95
678.09	38814.95
678.438	38800.27
678.787	38817.21
679.135	38816.99
679.484	38571.8
679.832	38763.66
680.181	38446.6
680.529	38696.09
680.877	38635.07
681.225	38417.68
681.573	38676.2
681.922	38430.78
682.27	38236.66
682.618	38367.06
682.966	38223.11
683.314	38328.64
683.661	38138.81
684.009	37935.43
684.357	38054.07
684.705	37937.91
685.053	38050.91
685.4	37964.35
685.748	37721.42
686.095	37800.07
686.443	37728.65
686.79	37604.82
687.138	37710.58
687.485	37676.23
687.832	37574.99
688.18	37593.74
688.527	37375.67
688.874	37325.28
689.221	37308.55
689.568	37088.45
689.915	36992.4
690.262	37064.49
690.609	36953.08
690.956	36830.6
691.303	36855.68
691.65	36746.53
691.997	36625.41
692.344	36359.65
692.69	36519.2
693.037	36482.59
693.383	36180.9
693.73	36251.41
694.077	36080.34
694.423	36067.46
694.769	35908.36
695.116	35889.38
695.462	35867.23
695.808	35654.13
696.155	35779.1
696.501	35464.31
696.847	35596.51
697.193	35189.06
697.539	35316.51
697.885	35141.38
698.231	34988.39
698.577	35078.1
698.923	35022.51
699.269	34865.68
699.614	34662.29
699.96	34760.6
700.306	34579.59
700.651	34410.1
700.997	34425.24
701.342	34302.76
701.688	34240.16
702.033	34215.3
702.379	34109.09
702.724	33972.37
703.069	34046.27
703.415	33683.11
703.76	33803.56
704.105	33825.03
704.45	33684.92
704.795	33527.18
705.14	33437.02
705.485	33344.36
705.83	33319.05
706.175	33288.55
706.52	33201.09
706.865	33130.36
707.209	33105.73
707.554	33000.64
707.899	33049.68
708.243	32867.99
708.588	32756.81
708.932	32574.89
709.277	32487.89
709.621	32545.97
709.966	32431.17
710.31	32521.11
710.654	32183.26
710.998	32095.36
711.342	32232.75
711.687	32088.58
712.031	31960.44
712.375	31778.08
712.719	31871.18
713.063	31750.06
713.407	31816.49
713.75	31781.69
714.094	31724.97
714.438	31709.38
714.782	31595.93
715.125	31441.81
715.469	31409.72
715.812	31208.83
716.156	31271.42
716.499	31237.07
716.843	31254.47
717.186	31036.4
717.53	31109.39
717.873	31063.07
718.216	31126.34
718.559	30921.38
718.902	30666.02
719.246	30745.79
719.589	30628.73
719.932	30507.38
720.275	30499.69
720.617	30522.97
720.96	30420.15
721.303	30427.83
721.646	30566.36
721.989	30238.46
722.331	30397.1
722.674	30315.97
723.016	30245.24
723.359	30235.52
723.701	30176.99
724.044	30082.98
724.386	29954.62
724.729	30054.51
725.071	29914.62
725.413	29940.84
725.755	30033.26
726.097	29875.98
726.439	29633.05
726.782	29768.41
727.124	29804.8
727.465	29646.38
727.807	29674.18
728.149	29475.54
728.491	29523.45
728.833	29488.65
729.175	29377.01
729.516	29278.93
729.858	29276.67
730.199	29346.73
730.541	29270.8
730.882	29127.75
731.224	29156.22
731.565	29031.26
731.906	28985.83
732.248	29108.54
732.589	28894.08
732.93	28905.38
733.271	28732.06
733.612	28845.27
733.953	28868.55
734.294	28718.95
734.635	28673.98
734.976	28689.34
735.317	28540.65
735.658	28705.62
735.999	28633.07
736.339	28522.12
736.68	28643.92
737.021	28450.48
737.361	28457.71
737.702	28467.66
738.042	28375
738.383	28337.72
738.723	28339.52
739.063	28381.78
739.404	28321.67
739.744	28172.3
740.084	28177.72
740.424	28141.79
740.764	28124.61
741.104	28200.54
741.444	28063.37
741.784	27842.14
742.124	28039.64
742.464	27814.34
742.804	27951.74
743.143	27747.22
743.483	27769.59
743.823	27616.15
744.162	27637.62
744.502	27757.17
744.841	27394.92
745.181	27695.25
745.52	27514.46
745.86	27470.85
746.199	27407.12
746.538	27362.15
746.877	27553.56
747.216	27535.25
747.556	27321.7
747.895	27363.05
748.234	27330.74
748.573	27224.98
748.911	27182.94
749.25	27227.91
749.589	27121.25
749.928	27209.84
750.267	27201.47
750.605	27050.29
750.944	27006
751.283	27008.03
751.621	27058.2
751.96	26876.96
752.298	26854.36
752.636	26858.43
752.975	26724.42
753.313	26636.74
753.651	26765.78
753.989	26646.69
754.327	26581.15
754.666	26443.53
755.004	26487.37
755.342	26456.18
755.679	26379.8
756.017	26408.5
756.355	26413.7
756.693	26261.84
757.031	26246.92
757.368	26119.47
757.706	26081.5
758.044	25947.5
758.381	25975.07
758.719	25881.96
759.056	26051.22
759.394	25812.58
759.731	25628.86
760.068	25622.53
760.405	25635.87
760.743	25619.14
761.08	25550.67
761.417	25413.72
761.754	25380.73
762.091	25232.03
762.428	25240.4
762.765	24964.24
763.102	25210.34
763.438	25080.85
763.775	24913.85
764.112	24904.36
764.449	24888.31
764.785	24656.23
765.122	24686.51
765.458	24484.71
765.795	24547.53
766.131	24539.4
766.467	24472.51
766.804	24319.29
767.14	24107.54
767.476	24038.17
767.812	24089.92
768.148	23958.17
768.485	23913.65
768.821	23796.82
769.157	23736.25
769.492	23676.82
769.828	23656.71
770.164	23497.16
770.5	23441.35
770.836	23413.33
771.171	23272.09
771.507	23303.05
771.842	23065.31
772.178	22996.16
772.513	22987.57
772.849	22894.47
773.184	22885.66
773.519	22833.68
773.855	22688.37
774.19	22550.07
774.525	22541.26
774.86	22626.45
775.195	22447.7
775.53	22335.16
775.865	22208.61
776.2	22115.51
776.535	21922.29
776.87	21968.39
777.205	21890.2
777.539	21859.02
777.874	21860.82
778.209	21642.3
778.543	21703.54
778.878	21568.85
779.212	21477.56
779.547	21259.03
779.881	21308.07
780.215	21361.4
780.55	21278.92
780.884	21064.69
781.218	21026.04
781.552	21033.05
781.886	20918.48
782.22	20824.01
782.554	20746.05
782.888	20523.01
783.222	20536.34
783.556	20422.67
783.889	20311.26
784.223	20234.88
784.557	20242.56
784.89	20163.24
785.224	20046.63
785.557	20001.21
785.891	19896.13
786.224	19919.18
786.558	19840.76
786.891	19704.27
787.224	19629.02
787.557	19553.09
787.891	19532.3
788.224	19466.08
788.557	19513.77
788.89	19322.13
789.223	19368.01
789.556	19227.67
789.888	19163.04
790.221	19041.01
790.554	18976.61
790.887	18897.51
791.219	18898.87
791.552	18779.32
791.884	18708.59
792.217	18657.97
792.549	18590.63
792.882	18503.17
793.214	18527.58
793.546	18490.52
793.879	18384.3
794.211	18275.16
794.543	18272.67
794.875	18209.62
795.207	18243.97
795.539	18116.06
795.871	18107.25
796.203	18015.05
796.535	17858.67
796.867	17820.25
797.198	17798.11
797.53	17745.9
797.862	17640.14
798.193	17669.52
798.525	17571.44
798.856	17619.35
799.188	17450.09
799.519	17356.54
799.85	17168.74
800.182	17331
800.513	17267.27
800.844	17098.69
801.175	17233.15
801.506	17085.13
801.837	17096.65
802.168	16995.64
802.499	16908.19
802.83	16943.21
803.161	16740.73
803.491	16822.54
803.822	16627.29
804.153	16624.35
804.483	16553.84
804.814	16470.91
805.145	16408.09
805.475	16510.23
805.805	16410.12
806.136	16374.41
806.466	16352.95
806.796	16274.76
807.126	16139.84
807.457	16148.66
807.787	16147.75
808.117	16093.74
808.447	16050.13
808.777	16030.02
809.107	15945.27
809.436	15896.46
809.766	15919.51
810.096	15915.9
810.426	15668.9
810.755	15783.92
811.085	15658.5
811.414	15702.57
811.744	15531.72
812.073	15584.38
812.403	15553.42
812.732	15445.85
813.061	15373.99
813.39	15289.47
813.719	15307.32
814.049	15411.95
814.378	15256.25
814.707	15190.72
815.036	15200.66
815.365	15120.21
815.693	15038.86
816.022	15077.95
816.351	15016.03
816.68	14998.63
817.008	14931.97
817.337	14852.65
817.665	14785.08
817.994	14887.45
818.322	14857.39
818.651	14706.89
818.979	14702.14
819.307	14769.94
819.636	14716.15
819.964	14584.18
820.292	14630.05
820.62	14637.51
820.948	14533.78
821.276	14598.64
821.604	14559.09
821.932	14607.23
822.259	14570.85
822.587	14487.01
822.915	14500.57
823.243	14609.71
823.57	14523.39
823.898	14482.94
824.225	14518.19
824.553	14492.2
824.88	14483.16
825.207	14530.17
825.535	14379.66
825.862	14485.65
826.189	14425.54
826.516	14516.16
826.843	14547.34
827.17	14519.55
827.497	14508.02
827.824	14571.07
828.151	14493.56
828.478	14468.25
828.805	14566.78
829.131	14437.06
829.458	14399.55
829.785	14419.89
830.111	14455.37
830.438	14547.12
830.764	14496.72
831.09	14550.73
831.417	14362.04
831.743	14440.45
832.069	14470.96
832.395	14334.47
832.722	14396.61
833.048	14346.67
833.374	14441.58
833.7	14261.02
834.026	14247.69
834.351	14338.76
834.677	14253.34
835.003	14339.44
835.329	14258.54
835.654	14217.63
835.98	14150.52
836.306	14218.09
836.631	14055.38
836.956	14200.01
837.282	14229.61
837.607	14058.32
837.932	14055.83
838.258	14071.2
838.583	14129.28
838.908	13969.73
839.233	14018.54
839.558	13946.91
839.883	13947.81
840.208	13822.62
840.533	13896.74
840.858	13836.18
841.182	13941.03
841.507	13879.79
841.832	13812.67
842.156	13701.04
842.481	13755.05
842.805	13670.3
843.13	13641.38
843.454	13706.24
843.778	13571.32
844.103	13626.69
844.427	13580.59
844.751	13578.33
845.075	13540.59
845.399	13434.6
845.723	13422.63
846.047	13461.27
846.371	13247.94
846.695	13288.62
847.019	13240.71
847.343	13087.95
847.666	13073.71
847.99	13028.97
848.313	12994.16
848.637	12885.92
848.96	12961.62
849.284	12868.97
849.607	12732.02
849.931	12757.79
850.254	12677.79
850.577	12614.96
850.9	12548.98
851.223	12523.89
851.546	12428.76
851.869	12359.83
852.192	12346.72
852.515	12346.5
852.838	12227.4
853.161	12187.63
853.483	12127.29
853.806	12119.84
854.129	12086.62
854.451	12131.36
854.774	11963.91
855.096	11923.68
855.419	11915.55
855.741	11931.82
856.063	11822.22
856.385	11794.65
856.708	11773.63
857.03	11741.32
857.352	11737.7
857.674	11747.64
857.996	11675.78
858.318	11618.15
858.64	11602.56
858.961	11555.78
859.283	11536.58
859.605	11409.57
859.926	11447.09
860.248	11457.93
860.57	11366.64
860.891	11378.39
861.212	11313.53
861.534	11339.52
861.855	11258.62
862.176	11256.13
862.498	11223.14
862.819	11266.3
863.14	11219.97
863.461	11261.1
863.782	11126.19
864.103	11185.85
864.424	11181.78
864.745	11138.17
865.065	11049.36
865.386	11019.3
865.707	10987.44
866.027	11089.36
866.348	10924.39
866.668	11042.58
866.989	10875.58
867.309	10856.82
867.63	10950.38
867.95	10913.31
868.27	10849.36
868.59	10840.55
868.91	10782.7
869.23	10770.95
869.55	10747.67
869.87	10717.16
870.19	10760.55
870.51	10751.51
870.83	10705.41
871.15	10688.46
871.469	10651.4
871.789	10754.45
872.109	10697.28
872.428	10615.24
872.748	10631.51
873.067	10595.81
873.386	10565.3
873.706	10599.2
874.025	10560.33
874.344	10482.37
874.663	10499.31
874.982	10453.89
875.301	10468.35
875.62	10494.34
875.939	10400.33
876.258	10433.1
876.577	10418.19
876.896	10431.07
877.214	10335.25
877.533	10357.62
877.852	10356.49
878.17	10430.39
878.489	10331.86
878.807	10266.78
879.125	10321.47
879.444	10251.64
879.762	10168.02
880.08	10161.02
880.398	10240.56
880.716	10240.56
881.034	10094.58
881.352	10154.24
881.67	10104.3
881.988	10124.41
882.306	10123.28
882.624	10081.25
882.941	9994.24
883.259	9999.89
883.577	9959.89
883.894	9956.05
884.212	9887.58
884.529	9919.89
884.846	9853
885.164	9862.27
885.481	9837.18
885.798	9876.28
886.115	9763.97
886.432	9754.7
886.75	9704.08
887.067	9728.26
887.383	9668.38
887.7	9683.29
888.017	9734.14
888.334	9691.2
888.651	9614.14
888.967	9636.96
889.284	9543.63
889.6	9557.87
889.917	9397.42
890.233	9505.89
890.55	9450.53
890.866	9505.67
891.182	9473.58
891.498	9438.78
891.815	9345.45
892.131	9297.09
892.447	9278.56
892.763	9265.67
893.079	9272.45
893.395	9206.92
893.71	9169.63
894.026	9207.6
894.342	9133.02
894.657	9042.63
894.973	9055.74
895.289	9033.36
895.604	9007.83
895.92	8913.37
896.235	8950.2
896.55	8937.55
896.865	8885.8
897.181	8863.88
897.496	8866.14
897.811	8793.37
898.126	8776.65
898.441	8766.48
898.756	8718.34
899.071	8674.5
899.386	8738.23
899.7	8592.25
900.015	8555.64
900.33	8557.9
900.644	8517.22
900.959	8513.6
901.273	8438.58
901.588	8442.42
901.902	8402.19
902.216	8420.95
902.531	8349.31
902.845	8338.47
903.159	8274.29
903.473	8248.3
903.787	8182.54
904.101	8201.97
904.415	8169.88
904.729	8148.87
905.042	8067.29
905.356	8033.16
905.67	8129.21
905.984	8070.45
906.297	8000.17
906.611	7970.12
906.924	7954.75
907.237	7917.24
907.551	7867.97
907.864	7825.49
908.177	7809.67
908.491	7797.24
908.804	7760.18
909.117	7740.97
909.43	7633.4
909.743	7591.37
910.056	7670.24
910.368	7554.08
910.681	7632.95
910.994	7569.22
911.307	7529.22
911.619	7474.08
911.932	7468.89
912.244	7403.58
912.557	7380.53
912.869	7352.73
913.181	7290.36
913.494	7300.75
913.806	7201.77
914.118	7242.68
914.43	7129.01
914.742	7173.3
915.054	7074.32
915.366	7076.35
915.678	7035.22
915.99	6962.23
916.302	6983.25
916.613	6910.93
916.925	6951.61
917.236	6939.86
917.548	6802.69
917.859	6891.5
918.171	6766.53
918.482	6839.98
918.794	6788.23
919.105	6792.75
919.416	6737.61
919.727	6740.77
920.038	6689.47
920.349	6638.4
920.66	6624.61
920.971	6563.82
921.282	6551.85
921.593	6532.41
921.903	6499.19
922.214	6464.39
922.525	6435.01
922.835	6436.6
923.146	6417.16
923.456	6356.6
923.767	6359.54
924.077	6285.64
924.387	6270.5
924.697	6194.79
925.008	6237.96
925.318	6232.08
925.628	6195.92
925.938	6218.3
926.248	6094.23
926.558	6111.18
926.867	6082.03
927.177	6014.69
927.487	6022.14
927.796	6038.87
928.106	5955.48
928.416	5956.16
928.725	5918.19
929.034	5903.95
929.344	5895.82
929.653	5865.54
929.962	5830.28
930.271	5785.99
930.581	5758.42
930.89	5768.14
931.199	5691.98
931.508	5653.57
931.817	5643.17
932.125	5651.08
932.434	5621.93
932.743	5578.54
933.051	5574.7
933.36	5504.42
933.669	5510.29
933.977	5501.48
934.286	5481.14
934.594	5513.46
934.902	5459.9
935.21	5411.09
935.519	5402.95
935.827	5397.08
936.135	5375.61
936.443	5305.55
936.751	5309.39
937.059	5283.63
937.367	5240.7
937.674	5236.4
937.982	5244.31
938.29	5200.02
938.597	5143.3
938.905	5151.88
939.213	5128.16
939.52	5057.65
939.827	5068.04
940.135	5049.06
940.442	5007.03
940.749	5028.27
941.056	4985.56
941.363	4988.5
941.67	4948.27
941.977	4963.19
942.284	4877.54
942.591	4882.29
942.898	4894.26
943.205	4841.84
943.511	4766.13
943.818	4793.02
944.125	4803.42
944.431	4744.21
944.738	4769.75
945.044	4748.96
945.35	4701.05
945.657	4653.82
945.963	4589.87
946.269	4651.11
946.575	4599.13
946.881	4575.85
947.187	4605.23
947.493	4561.84
947.799	4510.09
948.105	4484.11
948.41	4509.87
948.716	4498.79
949.022	4414.28
949.327	4455.18
949.633	4394.39
949.938	4429.87
950.244	4391.45
950.549	4355.3
950.854	4333.15
951.16	4315.3
951.465	4316.65
951.77	4232.13
952.075	4299.48
952.38	4280.04
952.685	4254.05
952.99	4158.46
953.294	4231.46
953.599	4126.6
953.904	4167.05
954.209	4111.91
954.513	4137.67
954.818	4137.45
955.122	4071.46
955.426	4081.4
955.731	4064.91
956.035	4059.71
956.339	4028.07
956.643	4041.86
956.948	3991.91
957.252	3981.29
957.556	3941.75
957.86	3930.67
958.163	3934.74
958.467	3921.18
958.771	3891.58
959.075	3882.54
959.378	3875.53
959.682	3858.13
959.985	3804.12
960.289	3774.97
960.592	3848.64
960.896	3799.15
961.199	3738.59
961.502	3709.66
961.805	3718.7
962.108	3645.94
962.411	3693.84
962.714	3661.98
963.017	3665.6
963.32	3646.16
963.623	3624.92
963.926	3617.91
964.228	3593.06
964.531	3608.87
964.833	3591.93
965.136	3541.98
965.438	3538.82
965.741	3499.5
966.043	3500.18
966.345	3497.46
966.648	3474.19
966.95	3453.4
967.252	3397.13
967.554	3446.84
967.856	3415.88
968.158	3379.73
968.46	3382.21
968.761	3374.98
969.063	3346.51
969.365	3347.64
969.666	3290.24
969.968	3287.53
970.269	3331.14
970.571	3284.36
970.872	3264.93
971.174	3241.43
971.475	3241.43
971.776	3211.82
972.077	3235.32
972.378	3185.38
972.679	3171.82
972.98	3138.83
973.281	3152.61
973.582	3167.76
973.883	3139.51
974.183	3100.86
974.484	3079.4
974.785	3057.48
975.085	3100.64
975.386	3118.94
975.686	3029.91
975.986	3027.19
976.287	3009.57
976.587	3028.55
976.887	3015.44
977.187	2979.06
977.487	2945.61
977.787	2967.53
978.087	2919.4
978.387	2925.5
978.687	2913.3
978.987	2912.17
979.286	2890.7
979.586	2882.11
979.885	2878.5
980.185	2864.71
980.484	2825.17
980.784	2815.67
981.083	2781.78
981.382	2792.17
981.682	2776.81
981.981	2770.48
982.28	2764.38
982.579	2741.1
982.878	2743.13
983.177	2731.38
983.475	2716.47
983.774	2712.63
984.073	2688.22
984.372	2668.56
984.67	2674.89
984.969	2670.59
985.267	2621.1
985.566	2621.56
985.864	2610.26
986.162	2623.36
986.461	2592.86
986.759	2578.84
987.057	2590.37
987.355	2538.85
987.653	2560.77
987.951	2558.28
988.249	2501.33
988.547	2519.41
988.844	2492.97
989.142	2500.88
989.44	2512.86
989.737	2506.3
990.035	2469.47
990.332	2426.98
990.63	2432.86
990.927	2390.6
991.224	2433.31
991.521	2412.3
991.819	2386.99
992.116	2367.55
992.413	2373.65
992.71	2358.06
993.006	2323.48
993.303	2344.27
993.6	2292.07
993.897	2327.1
994.193	2282.13
994.49	2293.88
994.787	2251.85
995.083	2271.06
995.379	2291.39
995.676	2267.21
995.972	2229.02
996.268	2235.35
996.565	2222.7
996.861	2203.94
997.157	2207.78
997.453	2162.13
997.749	2155.13
998.044	2150.38
998.34	2172.75
998.636	2141.79
998.932	2127.78
999.227	2101.8
999.523	2097.95
999.818	2100.89
1000.114	2111.74
1000.409	2103.6
1000.704	2083.04
1001	2093.21
1001.295	2022.02
1001.59	2009.82
1001.885	2045.98
1002.18	2000.1
1002.475	2015.02
1002.77	1976.15
1003.065	1972.31
1003.359	1972.31
1003.654	1958.52
1003.949	1940.44
1004.243	1932.31
1004.538	1916.49
1004.832	1907.22
1005.127	1905.42
1005.421	1880.78
1005.715	1864.97
1006.009	1871.74
1006.304	1852.99
1006.598	1850.5
1006.892	1852.54
1007.186	1834.01
1007.48	1824.74
1007.773	1774.35
1008.067	1781.35
1008.361	1769.83
1008.655	1766.21
1008.948	1787.9
1009.242	1737.28
1009.535	1766.21
1009.829	1736.38
1010.122	1746.55
1010.415	1730.51
1010.708	1717.85
1011.001	1698.19
1011.295	1693.9
1011.588	1678.08
1011.881	1684.18
1012.173	1647.34
1012.466	1643.28
1012.759	1636.5
1013.052	1660.22
1013.344	1640.11
1013.637	1621.81
1013.93	1591.07
1014.222	1614.58
1014.514	1590.85
1014.807	1572.77
1015.099	1566.22
1015.391	1559.66
1015.683	1568.02
1015.976	1560.34
1016.268	1546.33
1016.56	1540.23
1016.851	1533.67
1017.143	1505.65
1017.435	1510.17
1017.727	1478.53
1018.018	1484.86
1018.31	1480.79
1018.602	1461.36
1018.893	1432.89
1019.185	1449.83
1019.476	1444.41
1019.767	1406.22
1020.058	1419.55
1020.35	1424.3
1020.641	1415.94
1020.932	1383.4
1021.223	1394.24
1021.514	1359.67
1021.804	1348.82
1022.095	1339.56
1022.386	1337.97
1022.677	1363.51
1022.967	1332.32
1023.258	1314.02
1023.548	1307.24
1023.839	1282.16
1024.129	1283.74
1024.419	1286.45
1024.709	1270.18
1025	1286.9
1025.29	1244.42
1025.58	1263.17
1025.87	1242.38
1026.16	1224.08
1026.449	1245.32
1026.739	1217.52
1027.029	1220.69
1027.319	1194.25
1027.608	1193.57
1027.898	1208.03
1028.187	1179.56
1028.477	1191.99
1028.766	1174.81
1029.055	1166.9
1029.344	1183.4
1029.634	1140.46
1029.923	1151.99
1030.212	1138.2
1030.501	1121.93
1030.79	1115.15
1031.078	1107.24
1031.367	1100.24
1031.656	1095.72
1031.945	1090.07
1032.233	1079.68
1032.522	1075.83
1032.81	1065.21
1033.099	1081.26
1033.387	1062.5
1033.675	1054.14
1033.963	1022.5
1034.251	1031.09
1034.54	1020.47
1034.828	1026.8
1035.116	1025.89
1035.403	1008.49
1035.691	991.77
1035.979	995.38
1036.267	982.28
1036.554	972.79
1036.842	986.34
1037.129	981.6
1037.417	959
1037.704	954.25
1037.992	941.15
1038.279	964.65
1038.566	982.05
1038.853	982.05
1039.14	982.05
