Data from hue_130_FLMS001491_00086.txt Node
Date: Tue Feb 07 16:58:13 GMT 2017
User: dcchb
Spectrometer: FLMS00149
Trigger mode: 0
Integration Time (sec): 2.000000E-2
Scans to average: 10
Electric dark correction enabled: true
Nonlinearity correction enabled: false
Boxcar width: 0
XAxis mode: Wavelengths
Number of Pixels in Spectrum: 2048
>>>>>Begin Spectral Data<<<<<
341.393	-20.45
341.776	-20.45
342.16	-20.45
342.543	-43.05
342.927	-61.35
343.31	-78.08
343.693	-79.88
344.077	-84.63
344.46	-61.81
344.843	-50.28
345.226	-25.42
345.61	-32.88
345.993	-24.07
346.376	-6.67
346.759	13.22
347.142	22.49
347.525	51.19
347.908	69.04
348.291	70.39
348.674	100.45
349.057	116.95
349.44	107.91
349.823	117.62
350.206	146.32
350.588	198.3
350.971	214.34
351.354	220.45
351.737	250.73
352.119	252.99
352.502	267
352.884	279.43
353.267	278.75
353.65	292.99
354.032	294.34
354.414	296.6
354.797	306.32
355.179	317.84
355.562	307.9
355.944	308.81
356.326	314.46
356.709	338.18
357.091	334.57
357.473	329.6
357.855	344.06
358.238	326.43
358.62	340.44
359.002	322.82
359.384	324.17
359.766	314.23
360.148	336.83
360.53	338.41
360.912	335.02
361.294	337.51
361.676	342.25
362.057	308.13
362.439	339.09
362.821	350.61
363.203	328.01
363.584	333.66
363.966	337.28
364.348	320.78
364.729	319.88
365.111	333.66
365.493	336.83
365.874	322.14
366.256	300.67
366.637	312.87
367.019	302.03
367.4	339.99
367.781	308.81
368.163	327.79
368.544	325.08
368.925	306.77
369.306	300.67
369.688	303.61
370.069	319.88
370.45	307.22
370.831	320.78
371.212	322.59
371.593	314.23
371.974	316.94
372.355	323.49
372.736	325.98
373.117	307.22
373.498	325.08
373.879	325.3
374.26	318.3
374.641	316.94
375.021	303.38
375.402	301.35
375.783	320.56
376.163	316.49
376.544	325.08
376.925	335.92
377.305	326.21
377.686	327.79
378.066	331.18
378.447	292.99
378.827	324.85
379.208	323.27
379.588	311.97
379.968	359.2
380.349	331.18
380.729	338.64
381.109	328.24
381.489	326.21
381.87	338.86
382.25	336.6
382.63	328.01
383.01	335.02
383.39	338.41
383.77	350.16
384.15	344.51
384.53	351.29
384.91	341.12
385.29	348.13
385.67	371.4
386.049	348.13
386.429	344.74
386.809	346.09
387.189	352.87
387.568	360.56
387.948	360.78
388.328	347.67
388.707	359.65
389.087	354
389.466	350.16
389.846	346.32
390.225	358.3
390.605	358.75
390.984	372.98
391.363	349.71
391.743	371.18
392.122	347.22
392.501	369.82
392.881	384.96
393.26	381.12
393.639	383.83
394.018	382.7
394.397	400.33
394.776	385.41
395.155	377.96
395.534	381.35
395.913	366.21
396.292	379.99
396.671	394.9
397.05	367.56
397.429	397.84
397.808	389.48
398.186	398.52
398.565	412.08
398.944	392.42
399.323	393.77
399.701	376.6
400.08	403.94
400.458	407.33
400.837	390.84
401.215	388.58
401.594	391.97
401.972	396.94
402.351	393.32
402.729	409.37
403.107	410.72
403.486	403.94
403.864	420.44
404.242	412.53
404.62	436.94
404.999	415.47
405.377	405.07
405.755	423.38
406.133	434.45
406.511	436.94
406.889	439.65
407.267	445.07
407.645	454.56
408.023	438.29
408.401	459.99
408.779	432.64
409.156	447.33
409.534	459.31
409.912	447.56
410.29	469.03
410.667	471.29
411.045	463.15
411.422	479.87
411.8	479.87
412.178	475.81
412.555	478.29
412.933	483.26
413.31	487.33
413.687	490.72
414.065	461.12
414.442	477.39
414.819	507.44
415.197	497.73
415.574	497.5
415.951	498.63
416.328	518.07
416.705	496.37
417.082	502.92
417.46	523.49
417.837	531.4
418.214	518.97
418.591	519.87
418.967	518.74
419.344	514.22
419.721	543.38
420.098	527.56
420.475	546.99
420.852	557.61
421.228	528.69
421.605	556.71
421.982	556.71
422.358	564.62
422.735	556.48
423.111	555.13
423.488	567.33
423.864	573.43
424.241	583.83
424.617	568.23
424.994	591.96
425.37	602.81
425.746	587.67
426.123	594.22
426.499	614.11
426.875	606.2
427.251	630.15
427.627	632.64
428.003	625.18
428.379	621.79
428.756	615.92
429.132	636.71
429.507	631.73
429.883	650.27
430.259	637.84
430.635	649.81
431.011	655.69
431.387	649.36
431.763	669.47
432.138	686.87
432.514	678.29
432.89	666.31
433.265	689.36
433.641	695.69
434.016	710.6
434.392	701.56
434.767	712.86
435.143	725.52
435.518	732.98
435.894	735.91
436.269	717.83
436.644	744.27
437.02	764.39
437.395	737.49
437.77	755.8
438.145	767.55
438.52	782.69
438.895	788.79
439.271	762.58
439.646	806.65
440.021	787.66
440.395	808.68
440.77	813.65
441.145	807.32
441.52	797.15
441.895	813.88
442.27	842.58
442.645	810.94
443.019	845.74
443.394	821.79
443.769	851.84
444.143	829.47
444.518	850.71
444.892	848
445.267	858.85
445.641	866.3
446.016	875.34
446.39	879.64
446.764	901.33
447.139	890.49
447.513	888.68
447.887	903.14
448.262	901.56
448.636	892.74
449.01	918.28
449.384	916.47
449.758	941.78
450.132	945.4
450.506	928.9
450.88	929.13
451.254	953.08
451.628	987.66
452.002	971.16
452.376	989.01
452.75	988.11
453.123	1007.77
453.497	985.4
453.871	1001.44
454.244	1030.37
454.618	1031.5
454.992	1073.76
455.365	1035.34
455.739	1094.77
456.112	1097.94
456.486	1099.97
456.859	1087.54
457.232	1116.69
457.606	1097.94
457.979	1127.99
458.352	1150.37
458.725	1182.23
459.099	1164.83
459.472	1210.02
459.845	1241.21
460.218	1219.52
460.591	1233.3
460.964	1234.88
461.337	1256.58
461.71	1304.49
462.083	1283.02
462.456	1356.91
462.829	1312.17
463.201	1324.37
463.574	1343.35
463.947	1365.5
464.32	1420.41
464.692	1425.61
465.065	1422
465.438	1432.62
465.81	1449.79
466.183	1503.12
466.555	1518.04
466.928	1518.94
467.3	1533.86
467.672	1576.12
468.045	1612.95
468.417	1619.96
468.789	1656.34
469.161	1699.5
469.534	1680.07
469.906	1728.66
470.278	1779.73
470.65	1784.92
471.022	1832.38
471.394	1879.61
471.766	1904.7
472.138	1930.46
472.51	2015.2
472.882	2007.74
473.253	2057.46
473.625	2093.62
473.997	2115.54
474.369	2145.37
474.74	2204.35
475.112	2253.16
475.484	2325.02
475.855	2374.51
476.227	2391.46
476.598	2484.79
476.97	2555.3
477.341	2592.81
477.713	2646.37
478.084	2691.12
478.455	2782.19
478.827	2818.12
479.198	2966.14
479.569	3013.37
479.94	3103.31
480.311	3172.01
480.682	3288.61
481.053	3331.1
481.424	3489.29
481.795	3501.26
482.166	3613.35
482.537	3700.58
482.908	3822.39
483.279	3909.84
483.65	4035.04
484.021	4147.12
484.391	4258.08
484.762	4293.56
485.133	4399.55
485.503	4534.91
485.874	4737.84
486.244	4783.04
486.615	4942.36
486.985	5006.54
487.356	5189.36
487.726	5274.32
488.097	5465.28
488.467	5567.2
488.837	5683.13
489.207	5839.51
489.578	5987.3
489.948	6073.4
490.318	6270
490.688	6338.25
491.058	6485.14
491.428	6668.86
491.798	6713.61
492.168	6948.86
492.538	7066.82
492.908	7212.13
493.278	7369.64
493.648	7378.22
494.017	7546.58
494.387	7734.82
494.757	7876.74
495.126	8015.95
495.496	8090.75
495.866	8175.94
496.235	8370.97
496.605	8457.29
496.974	8608.93
497.344	8717.17
497.713	8844.85
498.082	8967.33
498.452	9150.38
498.821	9208.23
499.19	9242.36
499.559	9387.21
499.928	9445.97
500.298	9581.78
500.667	9728.44
501.036	9796.47
501.405	9871.04
501.774	9996.69
502.143	10127.3
502.512	10168.43
502.88	10366.39
503.249	10277.13
503.618	10447.52
503.987	10550.34
504.356	10598.03
504.724	10695.88
505.093	10749.66
505.462	10868.53
505.83	10908.07
506.199	10997.79
506.567	11130.89
506.936	11193.94
507.304	11332.02
507.672	11398.23
508.041	11451.11
508.409	11531.56
508.777	11656.3
509.145	11679.13
509.514	11732.23
509.882	11794.83
510.25	11786.02
510.618	11971.32
510.986	12002.06
511.354	12023.98
511.722	12167.25
512.09	12262.84
512.458	12280.02
512.826	12281.15
513.193	12350.07
513.561	12400.01
513.929	12402.27
514.297	12553
514.664	12617.86
515.032	12657.18
515.4	12787.35
515.767	12682.04
516.135	12842.26
516.502	12689.72
516.869	12881.58
517.237	12847.91
517.604	12839.1
517.972	12986.21
518.339	13035.93
518.706	12964.29
519.073	13084.74
519.44	13091.52
519.808	13226.21
520.175	13159.99
520.542	13281.8
520.909	13303.72
521.276	13258.07
521.643	13382.59
522.009	13423.49
522.376	13482.7
522.743	13525.18
523.11	13553.2
523.477	13657.83
523.843	13697.38
524.21	13796.13
524.577	13851.5
524.943	13801.56
525.31	13790.71
525.676	13942.57
526.043	13873.42
526.409	13976.69
526.776	14001.1
527.142	14017.37
527.508	13966.75
527.874	14079.06
528.241	14096.69
528.607	14059.86
528.973	14113.87
529.339	14144.83
529.705	14236.12
530.071	14183.24
530.437	14134.88
530.803	14225.05
531.169	14242.45
531.535	14186.18
531.901	14199.97
532.267	14145.96
532.632	14182.11
532.998	14200.64
533.364	14155.67
533.73	14187.08
534.095	14258.72
534.461	14173.07
534.826	14178.5
535.192	14152.28
535.557	14224.37
535.923	14169.46
536.288	14188.89
536.653	14170.14
537.019	14124.04
537.384	14111.15
537.749	14021.44
538.114	14054.21
538.479	14008.78
538.845	14044.26
539.21	13808.11
539.575	13957.03
539.94	13880.2
540.305	13901.44
540.67	13868.67
541.034	13812.41
541.399	13923.14
541.764	13858.28
542.129	13768.56
542.494	13761.33
542.858	13744.38
543.223	13713.42
543.587	13718.4
543.952	13682.47
544.316	13644.5
544.681	13606.99
545.045	13636.14
545.41	13646.31
545.774	13626.42
546.138	13570.6
546.503	13552.53
546.867	13408.35
547.231	13460.32
547.595	13524.05
547.959	13418.97
548.324	13460.32
548.688	13328.35
549.052	13400.89
549.416	13335.81
549.779	13264.85
550.143	13279.31
550.507	13229.14
550.871	13217.84
551.235	13146.43
551.599	13140.56
551.962	13127.9
552.326	13100.56
552.689	13145.76
553.053	13086.55
553.417	13071.41
553.78	13161.35
554.143	13076.38
554.507	13028.25
554.87	12977.17
555.234	13117.51
555.597	12987.79
555.96	13005.19
556.323	12928.13
556.686	12927.68
557.05	12978.3
557.413	12915.71
557.776	12911.19
558.139	12931.75
558.502	12895.14
558.865	12897.4
559.228	12948.47
559.59	12989.6
559.953	12933.11
560.316	13027.79
560.679	12927.46
561.041	12904.41
561.404	12924.29
561.767	12972.2
562.129	12964.52
562.492	13020.11
562.854	12982.6
563.217	13009.04
563.579	12953.22
563.941	13046.55
564.304	13027.57
564.666	13023.05
565.028	13095.14
565.39	13091.97
565.753	13113.21
566.115	13114.8
566.477	13127.23
566.839	13145.76
567.201	13141.91
567.563	13184.4
567.925	13285.19
568.287	13173.33
568.648	13207.22
569.01	13219.88
569.372	13287.9
569.734	13167.22
570.095	13332.19
570.457	13357.5
570.819	13314.11
571.18	13267.79
571.542	13359.31
571.903	13378.52
572.265	13384.62
572.626	13374.9
572.987	13324.73
573.349	13447.67
573.71	13379.42
574.071	13436.82
574.432	13426.2
574.794	13445.18
575.155	13443.38
575.516	13329.71
575.877	13398.4
576.238	13419.2
576.599	13510.49
576.96	13498.29
577.32	13456.71
577.681	13479.31
578.042	13499.19
578.403	13553.65
578.763	13522.47
579.124	13543.03
579.485	13607.89
579.845	13534.45
580.206	13453.54
580.566	13547.1
580.927	13508.91
581.287	13590.04
581.648	13480.89
582.008	13603.82
582.368	13522.7
582.728	13532.64
583.089	13480.21
583.449	13497.84
583.809	13456.71
584.169	13526.31
584.529	13426.65
584.889	13538.74
585.249	13446.09
585.609	13388.24
585.969	13504.39
586.329	13486.54
586.688	13446.31
587.048	13476.37
587.408	13431.62
587.768	13453.54
588.127	13405.86
588.487	13362.7
588.846	13455.35
589.206	13308.24
589.565	13319.31
589.925	13399.08
590.284	13348.01
590.643	13374.9
591.003	13384.39
591.362	13405.86
591.721	13338.97
592.08	13307.79
592.44	13387.11
592.799	13394.34
593.158	13323.38
593.517	13376.03
593.876	13237.73
594.235	13328.35
594.593	13298.97
594.952	13255.36
595.311	13280.44
595.67	13283.83
596.029	13357.5
596.387	13371.74
596.746	13338.97
597.104	13187.11
597.463	13262.14
597.822	13225.3
598.18	13179.43
598.538	13200.22
598.897	13232.08
599.255	13223.72
599.613	13406.99
599.972	13208.58
600.33	13304.4
600.688	13118.19
601.046	13246.54
601.404	13253.32
601.762	13189.14
602.12	13381
602.478	13284.06
602.836	13378.74
603.194	13232.76
603.552	13300.33
603.91	13247.22
604.268	13295.58
604.625	13214.23
604.983	13216.94
605.341	13169.26
605.698	13258.3
606.056	13321.8
606.413	13350.72
606.771	13301.46
607.128	13282.93
607.485	13215.36
607.843	13213.32
608.2	13308.46
608.557	13305.98
608.914	13282.02
609.272	13356.6
609.629	13291.51
609.986	13325.19
610.343	13382.36
610.7	13438.63
611.057	13381
611.414	13391.85
611.771	13345.3
612.127	13400.89
612.484	13433.66
612.841	13407.67
613.198	13402.92
613.554	13408.8
613.911	13512.98
614.267	13444.05
614.624	13476.14
614.98	13485.86
615.337	13559.3
615.693	13522.92
616.05	13512.3
616.406	13541.23
616.762	13558.17
617.118	13517.72
617.475	13471.85
617.831	13637.49
618.187	13555.91
618.543	13636.14
618.899	13646.99
619.255	13635.91
619.611	13639.3
619.967	13658.96
620.323	13701.22
620.678	13664.84
621.034	13638.4
621.39	13586.65
621.746	13571.28
622.101	13749.36
622.457	13630.94
622.812	13707.32
623.168	13651.73
623.523	13666.87
623.879	13733.76
624.234	13664.39
624.589	13673.43
624.945	13762.91
625.3	13703.48
625.655	13627.55
626.01	13656.93
626.365	13637.49
626.72	13628.68
627.075	13636.36
627.43	13597.04
627.785	13620.77
628.14	13642.92
628.495	13674.56
628.85	13587.78
629.205	13486.99
629.559	13545.07
629.914	13567.44
630.269	13588.46
630.623	13507.1
630.978	13501.68
631.332	13647.89
631.687	13597.27
632.041	13479.08
632.396	13570.6
632.75	13466.2
633.104	13507.33
633.459	13395.24
633.813	13481.11
634.167	13434.79
634.521	13458.52
634.875	13458.52
635.229	13430.49
635.583	13358.18
635.937	13319.76
636.291	13303.94
636.645	13279.76
636.999	13313.21
637.352	13394.79
637.706	13213.32
638.06	13281.8
638.413	13230.5
638.767	13236.15
639.121	13218.07
639.474	13143.04
639.828	13155.02
640.181	13290.16
640.534	13191.63
640.888	13149.82
641.241	13060.56
641.594	13119.77
641.947	13177.85
642.301	13068.7
642.654	13147.34
643.007	13088.81
643.36	13077.74
643.713	13019.88
644.066	13133.78
644.419	13056.72
644.771	12968.59
645.124	12771.75
645.477	12796.61
645.83	12751.19
646.182	12661.25
646.535	12704.19
646.888	12633.45
647.24	12658.99
647.593	12702.83
647.945	12662.15
648.298	12632.32
648.65	12588.03
649.002	12598.2
649.355	12629.84
649.707	12570.18
650.059	12676.39
650.411	12823.73
650.763	12748.25
651.115	12971.98
651.467	12858.53
651.819	12864.63
652.171	12978.08
652.523	12911.64
652.875	12772.21
653.227	12840.68
653.578	12943.95
653.93	12943.73
654.282	12912.09
654.633	12819.89
654.985	12744.18
655.337	12872.09
655.688	12896.72
656.039	12948.02
656.391	12854.92
656.742	12832.09
657.094	12807.23
657.445	12938.76
657.796	12915.03
658.147	12809.27
658.498	12920
658.849	12870.74
659.2	12862.15
659.551	12864.18
659.902	12825.31
660.253	12894.46
660.604	12862.37
660.955	12804.75
661.306	12883.62
661.656	12920.68
662.007	12928.59
662.358	12907.57
662.708	12960
663.059	12905.76
663.409	12930.85
663.76	12916.84
664.11	12975.14
664.461	12957.06
664.811	12894.01
665.161	12926.55
665.511	12888.59
665.862	12912.99
666.212	12938.76
666.562	13022.6
666.912	12943.95
667.262	12888.14
667.612	12960
667.962	12885.42
668.312	13019.43
668.662	12983.05
669.011	12901.02
669.361	12958.87
669.711	12869.83
670.06	12874.35
670.41	12887.46
670.76	12791.87
671.109	12941.47
671.459	12823.05
671.808	12851.98
672.157	12810.17
672.507	12688.37
672.856	12746.22
673.205	12728.14
673.554	12772.21
673.904	12766.33
674.253	12777.86
674.602	12840.68
674.951	12581.48
675.3	12569.5
675.649	12729.95
675.998	12781.02
676.346	12666.9
676.695	12741.25
677.044	12675.03
677.393	12634.13
677.741	12739.21
678.09	12619.89
678.438	12618.31
678.787	12668.03
679.135	12634.13
679.484	12610.4
679.832	12620.12
680.181	12516.39
680.529	12639.33
680.877	12508.48
681.225	12561.36
681.573	12553.68
681.922	12411.54
682.27	12450.63
682.618	12434.14
682.966	12349.62
683.314	12358.66
683.661	12451.99
684.009	12347.13
684.357	12293.12
684.705	12310.52
685.053	12269.85
685.4	12232.79
685.748	12116.4
686.095	12154.37
686.443	12048.84
686.79	12079.12
687.138	12122.05
687.485	12089.29
687.832	12113.47
688.18	12073.02
688.527	11942.85
688.874	12005.9
689.221	11930.42
689.568	11880.25
689.915	11876.41
690.262	11858.56
690.609	11750.31
690.956	11853.13
691.303	11779.92
691.65	11644.33
691.997	11677.55
692.344	11567.27
692.69	11489.53
693.037	11508.74
693.383	11474.39
693.73	11463.99
694.077	11472.81
694.423	11431
694.769	11355.52
695.116	11313.49
695.462	11302.41
695.808	11294.05
696.155	11273.04
696.501	11107.17
696.847	11106.94
697.193	11029.65
697.539	11068.07
697.885	11005.02
698.231	11008.41
698.577	10871.01
698.923	10873.95
699.269	10888.19
699.614	10811.35
699.96	10791.47
700.306	10824.91
700.651	10770.23
700.997	10658.59
701.342	10634.64
701.688	10672.15
702.033	10656.1
702.379	10570.68
702.724	10493.62
703.069	10622.88
703.415	10373.63
703.76	10418.14
704.105	10454.53
704.45	10431.93
704.795	10336.79
705.14	10251.82
705.485	10201.65
705.83	10217.7
706.175	10231.26
706.52	10108.32
706.865	10120.07
707.209	10069
707.554	10099.06
707.899	10072.16
708.243	10007.53
708.588	10006.63
708.932	9925.73
709.277	9896.8
709.621	9923.69
709.966	9874.88
710.31	9827.2
710.654	9836.92
710.998	9756.69
711.342	9821.32
711.687	9723.02
712.031	9727.31
712.375	9723.7
712.719	9719.86
713.063	9624.04
713.407	9697.26
713.75	9611.84
714.094	9622.68
714.438	9563.25
714.782	9598.5
715.125	9557.15
715.469	9574.55
715.812	9525.74
716.156	9464.04
716.499	9481.45
716.843	9447.1
717.186	9430.15
717.53	9481.22
717.873	9468.79
718.216	9432.18
718.559	9473.08
718.902	9288.91
719.246	9345.86
719.589	9309.25
719.932	9312.86
720.275	9297.04
720.617	9289.59
720.96	9337.95
721.303	9265.41
721.646	9350.83
721.989	9265.18
722.331	9266.54
722.674	9243.26
723.016	9280.77
723.359	9253.65
723.701	9228.8
724.044	9177.27
724.386	9142.92
724.729	9269.47
725.071	9143.6
725.413	9127.56
725.755	9167.56
726.097	9063.83
726.439	9064.73
726.782	9060.21
727.124	9133.66
727.465	9067.9
727.807	9062.02
728.149	9088.01
728.491	8998.52
728.833	9095.02
729.175	9024.28
729.516	9078.29
729.858	9057.28
730.199	9129.82
730.541	9068.12
730.882	9020.21
731.224	9088.24
731.565	8998.29
731.906	9048.46
732.248	8991.06
732.589	9024.73
732.93	9057.95
733.271	8979.09
733.612	9003.49
733.953	9062.02
734.294	8951.97
734.635	8972.31
734.976	9056.15
735.317	9005.53
735.658	8933.21
735.999	9017.5
736.339	9023.6
736.68	9075.13
737.021	8995.36
737.361	8970.5
737.702	9104.73
738.042	9004.85
738.383	9014.57
738.723	8987.9
739.063	9036.94
739.404	9099.31
739.744	9120.33
740.084	8998.97
740.424	9072.42
740.764	9090.27
741.104	9189.48
741.444	9137.5
741.784	9126.2
742.124	9168.23
742.464	9152.87
742.804	9139.99
743.143	9154
743.483	9227.22
743.823	9191.28
744.162	9287.1
744.502	9333.65
744.841	9301.34
745.181	9341.11
745.52	9356.25
745.86	9356.93
746.199	9377.72
746.538	9413.65
746.877	9531.84
747.216	9590.82
747.556	9563.25
747.895	9577.94
748.234	9659.75
748.573	9735.68
748.911	9711.04
749.25	9860.42
749.589	9855.22
749.928	9942.9
750.267	10002.34
750.605	10066.51
750.944	10211.14
751.283	10197.58
751.621	10271.26
751.96	10323.68
752.298	10463.79
752.636	10605.26
752.975	10636.67
753.313	10665.6
753.651	10873.5
753.989	10886.61
754.327	11036.21
754.666	11083.44
755.004	11231.46
755.342	11392.81
755.679	11530.88
756.017	11607.72
756.355	11772.68
756.693	11849.29
757.031	12000.93
757.368	12060.36
757.706	12217.64
758.044	12372.44
758.381	12580.8
758.719	12679.55
759.056	12873.9
759.394	13035.25
759.731	13049.26
760.068	13290.16
760.405	13434.11
760.743	13518.18
761.08	13689.47
761.417	13814.44
761.754	14028.67
762.091	14173.53
762.428	14274.99
762.765	14435.44
763.102	14726.05
763.438	14809.89
763.775	14903.9
764.112	15157.45
764.449	15370.56
764.785	15349.09
765.122	15472.7
765.458	15652.58
765.795	15899.58
766.131	16022.74
766.467	16149.97
766.804	16162.63
767.14	16238.78
767.476	16445.33
767.812	16545.89
768.148	16721.71
768.485	16801.25
768.821	16937.75
769.157	17073.79
769.492	17110.62
769.828	17341.58
770.164	17202.37
770.5	17429.94
770.836	17432.65
771.171	17515.81
771.507	17633.77
771.842	17714.22
772.178	17791.74
772.513	17937.04
772.849	17993.31
773.184	18057.04
773.519	18136.13
773.855	18069.47
774.19	18205.74
774.525	18292.06
774.86	18381.32
775.195	18386.97
775.53	18359.63
775.865	18369.12
776.2	18388.78
776.535	18363.02
776.87	18457.25
777.205	18549
777.539	18487.08
777.874	18710.36
778.209	18547.65
778.543	18681.88
778.878	18631.94
779.212	18723.69
779.547	18699.06
779.881	18752.61
780.215	18685.95
780.55	18744.03
780.884	18678.27
781.218	18763.69
781.552	18823.12
781.886	18733.63
782.22	18703.8
782.554	18740.41
782.888	18551.72
783.222	18620.64
783.556	18523.92
783.889	18541.77
784.223	18564.6
784.557	18584.71
784.89	18530.93
785.224	18456.58
785.557	18509.46
785.891	18468.78
786.224	18517.82
786.558	18371.83
786.891	18376.58
787.224	18279.86
787.557	18315.34
787.891	18346.98
788.224	18290.93
788.557	18341.33
788.89	18318.73
789.223	18355.56
789.556	18226.3
789.888	18193.08
790.221	18091.61
790.554	18082.8
790.887	18091.39
791.219	18042.12
791.552	17971.62
791.884	17924.84
792.217	18021.33
792.549	17838.29
792.882	17812.3
793.214	17805.97
793.546	17872.86
793.879	17704.28
794.211	17641.23
794.543	17700.21
794.875	17687.78
795.207	17708.8
795.539	17568.69
795.871	17623.38
796.203	17367.57
796.535	17413.89
796.867	17364.85
797.198	17357.4
797.53	17295.03
797.862	17239.21
798.193	17290.51
798.525	17118.53
798.856	17164.41
799.188	17000.12
799.519	16980.91
799.85	16951.08
800.182	16946.56
800.513	16933.68
800.844	16756.51
801.175	16941.14
801.506	16832.89
801.837	16810.52
802.168	16766
802.499	16731.65
802.83	16708.37
803.161	16605.55
803.491	16641.03
803.822	16606.46
804.153	16445.33
804.483	16348.38
804.814	16344.09
805.145	16388.38
805.475	16371.66
805.805	16294.6
806.136	16288.72
806.466	16343.41
806.796	16274.71
807.126	16109.97
807.457	16130.54
807.787	16145.45
808.117	16039.69
808.447	15996.98
808.777	16099.12
809.107	15901.39
809.436	15920.37
809.766	15964.44
810.096	15902.97
810.426	15862.75
810.755	15817.78
811.085	15732.81
811.414	15768.51
811.744	15663.66
812.073	15610.78
812.403	15708.17
812.732	15563.32
813.061	15541.63
813.39	15465.24
813.719	15468.86
814.049	15453.27
814.378	15483.77
814.707	15345.25
815.036	15370.1
815.365	15277.68
815.693	15170.11
816.022	15154.29
816.351	15183.89
816.68	15104.57
817.008	15219.6
817.337	15063.9
817.665	14996.1
817.994	14992.04
818.322	15103.22
818.651	15010.11
818.979	14887.41
819.307	15033.84
819.636	14864.58
819.964	14930.34
820.292	14914.98
820.62	14892.6
820.948	14853.51
821.276	14840.17
821.604	14830.46
821.932	14804.47
822.259	14877.91
822.587	14772.15
822.915	14700.52
823.243	14766.5
823.57	14870.46
823.898	14790.68
824.225	14775.54
824.553	14702.78
824.88	14797.46
825.207	14790.46
825.535	14718.82
825.862	14810.57
826.189	14735.32
826.516	14839.72
826.843	14860.29
827.17	14817.8
827.497	14867.07
827.824	14909.1
828.151	14894.18
828.478	14786.84
828.805	14849.21
829.131	14863.68
829.458	14750.23
829.785	14741.42
830.111	14721.99
830.438	14798.59
830.764	14716.79
831.09	14862.77
831.417	14758.59
831.743	14811.93
832.069	14804.24
832.395	14807.86
832.722	14856.45
833.048	14721.53
833.374	14745.49
833.7	14691.03
834.026	14650.58
834.351	14644.02
834.677	14752.49
835.003	14661.42
835.329	14644.25
835.654	14678.82
835.98	14593.4
836.306	14723.57
836.631	14548.43
836.956	14624.14
837.282	14636.34
837.607	14541.65
837.932	14513.4
838.258	14592.5
838.583	14519.73
838.908	14345.72
839.233	14381.43
839.558	14432.73
839.883	14320.87
840.208	14265.05
840.533	14312.05
840.858	14375.33
841.182	14344.59
841.507	14283.35
841.832	14154.77
842.156	14204.03
842.481	14184.37
842.805	14101.44
843.13	14108.44
843.454	14089.46
843.778	14010.82
844.103	13983.47
844.427	13926.98
844.751	14038.16
845.075	13912.97
845.399	13845.17
845.723	13833.2
846.047	13804.04
846.371	13649.92
846.695	13686.76
847.019	13603.82
847.343	13583.71
847.666	13520.21
847.99	13397.05
848.313	13363.83
848.637	13289.93
848.96	13389.14
849.284	13244.06
849.607	13132.88
849.931	13246.77
850.254	13129.94
850.577	12951.64
850.9	12957.29
851.223	12886.78
851.546	12840.68
851.869	12842.04
852.192	12796.16
852.515	12723.85
852.838	12714.13
853.161	12641.59
853.483	12601.82
853.806	12579.67
854.129	12496.96
854.451	12461.48
854.774	12328.15
855.096	12370.18
855.419	12391.43
855.741	12362.05
856.063	12207.02
856.385	12157.53
856.708	12178.55
857.03	12174.71
857.352	12120.25
857.674	12096.52
857.996	12017.2
858.318	11970.87
858.64	12018.1
858.961	11917.99
859.283	11898.33
859.605	11865.79
859.926	11867.37
860.248	11816.75
860.57	11762.97
860.891	11826.92
861.212	11760.26
861.534	11708.05
861.855	11634.38
862.176	11654.72
862.498	11665.34
862.819	11618.34
863.14	11564.55
863.461	11588.73
863.782	11508.96
864.103	11490.21
864.424	11457.21
864.745	11482.07
865.065	11454.05
865.386	11333.83
865.707	11447.27
866.027	11386.71
866.348	11340.61
866.668	11360.72
866.989	11322.3
867.309	11208.18
867.63	11290.89
867.95	11209.54
868.27	11151.01
868.59	11194.62
868.91	11182.64
869.23	11149.42
869.55	11105.58
869.87	11228.97
870.19	11123.66
870.51	11119.14
870.83	11121.18
871.15	11040.5
871.469	11063.78
871.789	11073.95
872.109	11108.52
872.428	11023.55
872.748	10918.7
873.067	10943.1
873.386	10962.99
873.706	10963.67
874.025	10875.08
874.344	10875.76
874.663	10957.79
874.982	10807.74
875.301	10896.32
875.62	10813.84
875.939	10840.28
876.258	10806.38
876.577	10786.27
876.896	10776.55
877.214	10697.68
877.533	10765.48
877.852	10724.12
878.17	10730.68
878.489	10782.88
878.807	10692.94
879.125	10636.9
879.444	10639.83
879.762	10636.44
880.08	10610.46
880.398	10539.95
880.716	10520.29
881.034	10463.79
881.352	10443.68
881.67	10445.49
881.988	10446.39
882.306	10420.86
882.624	10360.74
882.941	10355.55
883.259	10308.09
883.577	10318.49
883.894	10264.25
884.212	10275.78
884.529	10274.65
884.846	10267.87
885.164	10207.3
885.481	10206.17
885.798	10204.59
886.115	10134.76
886.432	10125.27
886.75	10089.34
887.067	10110.81
887.383	10078.04
887.7	10064.93
888.017	9997.82
888.334	9955.11
888.651	9914.65
888.967	9957.14
889.284	9904.71
889.6	9844.6
889.917	9868.78
890.233	9854.54
890.55	9796.69
890.866	9740.87
891.182	9716.24
891.498	9673.53
891.815	9679.86
892.131	9607.77
892.447	9640.31
892.763	9591.73
893.079	9544.49
893.395	9550.6
893.71	9508.11
894.026	9467.89
894.342	9482.12
894.657	9358.06
894.973	9388.34
895.289	9428.11
895.604	9317.16
895.92	9246.88
896.235	9254.78
896.55	9231.96
896.865	9155.35
897.181	9166.88
897.496	9146.09
897.811	9123.04
898.126	9112.64
898.441	9014.79
898.756	9029.03
899.071	9019.08
899.386	8926.21
899.7	8940.44
900.015	8827.45
900.33	8819.54
900.644	8785.42
900.959	8830.39
901.273	8734.57
901.588	8678.3
901.902	8647.12
902.216	8637.4
902.531	8670.85
902.845	8577.97
903.159	8584.97
903.473	8552.43
903.787	8497.29
904.101	8526.22
904.415	8460.46
904.729	8353.57
905.042	8380.91
905.356	8368.93
905.67	8304.53
905.984	8306.79
906.297	8299.1
906.611	8206.45
906.924	8175.72
907.237	8217.3
907.551	8136.4
907.864	8113.12
908.177	8068.6
908.491	8046.91
908.804	7993.8
909.117	7957.87
909.43	7897.08
909.743	7890.08
910.056	7890.98
910.368	7784.77
910.681	7803.52
910.994	7725.56
911.307	7787.7
911.619	7692.11
911.932	7632.68
912.244	7573.47
912.557	7560.37
912.869	7582.29
913.181	7521.05
913.494	7443.08
913.806	7474.27
914.118	7406.47
914.43	7374.38
914.742	7325.8
915.054	7362.63
915.366	7352.69
915.678	7324.21
915.99	7228.85
916.302	7151.34
916.613	7187.04
916.925	7173.26
917.236	7173.94
917.548	7113.37
917.859	7106.82
918.171	7044.67
918.482	7008.06
918.794	7019.82
919.105	6994.28
919.416	6971.46
919.727	6917.22
920.038	6895.75
920.349	6836.32
920.66	6815.75
920.971	6779.82
921.282	6813.04
921.593	6764
921.903	6721.74
922.214	6672.03
922.525	6604.91
922.835	6626.83
923.146	6615.76
923.456	6574.63
923.767	6555.87
924.077	6519.72
924.387	6505.25
924.697	6413.5
925.008	6444.24
925.318	6396.33
925.628	6411.47
925.938	6368.08
926.248	6291.92
926.558	6288.31
926.867	6289.21
927.177	6232.27
927.487	6225.71
927.796	6133.06
928.106	6217.12
928.416	6115.88
928.725	6176.45
929.034	6060.07
929.344	6030.24
929.653	6099.84
929.962	5974.42
930.271	5999.05
930.581	5988.2
930.89	5962.22
931.199	5912.95
931.508	5906.85
931.817	5896.46
932.125	5891.48
932.434	5868.21
932.743	5808.1
933.051	5753.63
933.36	5782.33
933.669	5732.62
933.977	5702.11
934.286	5691.94
934.594	5701.43
934.902	5628.21
935.21	5616.24
935.519	5591.38
935.827	5576.69
936.135	5566.29
936.443	5474.09
936.751	5512.96
937.059	5482
937.367	5490.59
937.674	5498.27
937.982	5442.46
938.29	5343.25
938.597	5368.79
938.905	5371.95
939.213	5277.49
939.52	5295.57
939.827	5275
940.135	5228.9
940.442	5233.87
940.749	5214.89
941.056	5185.51
941.363	5166.08
941.67	5117.94
941.977	5110.71
942.284	5059.64
942.591	5074.78
942.898	5087.21
943.205	4970.15
943.511	4987.55
943.818	5036.59
944.125	4953.88
944.431	4942.58
944.738	4929.47
945.044	4900.78
945.35	4883.83
945.657	4892.64
945.963	4836.37
946.269	4838.86
946.575	4825.97
946.881	4819.65
947.187	4767.67
947.493	4748.01
947.799	4782.81
948.105	4685.64
948.41	4662.82
948.716	4637.51
949.022	4622.59
949.327	4684.96
949.633	4571.74
949.938	4613.78
950.244	4607.9
950.549	4571.74
950.854	4525.64
951.16	4546.66
951.465	4494.91
951.77	4473.89
952.075	4448.81
952.38	4411.52
952.685	4443.16
952.99	4394.35
953.294	4336.95
953.599	4352.99
953.904	4320.68
954.209	4289.49
954.513	4306.21
954.818	4247.01
955.122	4255.59
955.426	4217.63
955.731	4194.58
956.035	4165.43
956.339	4168.82
956.643	4188.7
956.948	4092.89
957.252	4143.73
957.556	4126.11
957.86	4070.74
958.163	4104.41
958.467	4066.22
958.771	4049.5
959.075	4056.28
959.378	4020.35
959.682	4003.4
959.985	3958.88
960.289	3928.82
960.592	3904.19
960.896	3911.42
961.199	3899.9
961.502	3882.5
961.805	3872.1
962.108	3822.39
962.411	3861.25
962.714	3820.8
963.017	3786.68
963.32	3822.84
963.623	3778.32
963.926	3795.49
964.228	3718.21
964.531	3710.75
964.833	3742.39
965.136	3689.28
965.438	3691.32
965.741	3681.6
966.043	3643.63
966.345	3646.57
966.648	3636.85
966.95	3561.38
967.252	3554.6
967.554	3505.56
967.856	3563.86
968.158	3534.03
968.46	3532.22
968.761	3500.81
969.063	3492
969.365	3464.65
969.666	3472.11
969.968	3457.2
970.269	3408.84
970.571	3420.36
970.872	3417.2
971.174	3367.48
971.475	3372
971.776	3357.76
972.077	3317.09
972.378	3338.56
972.679	3324.77
972.98	3286.35
973.281	3299.01
973.582	3275.51
973.883	3237.32
974.183	3225.11
974.484	3207.94
974.785	3209.75
975.085	3230.31
975.386	3240.03
975.686	3191.44
975.986	3188.5
976.287	3178.11
976.587	3113.7
976.887	3092.24
977.187	3096.75
977.487	3086.36
977.787	3069.18
978.087	3036.42
978.387	3059.24
978.687	3016.76
978.987	3025.12
979.286	3012.01
979.586	3009.3
979.885	2953.93
980.185	2949.19
980.484	2952.13
980.784	2920.94
981.083	2958
981.382	2888.62
981.682	2878.91
981.981	2865.12
982.28	2879.36
982.579	2866.7
982.878	2877.33
983.177	2813.6
983.475	2852.47
983.774	2844.33
984.073	2780.83
984.372	2800.49
984.67	2811.11
984.969	2751.68
985.267	2748.52
985.566	2749.87
985.864	2730.66
986.162	2684.11
986.461	2704
986.759	2709.19
987.057	2630.33
987.355	2647.28
987.653	2644.34
987.951	2634.39
988.249	2642.76
988.547	2622.64
988.844	2635.3
989.142	2611.57
989.44	2558.69
989.737	2550.78
990.035	2537.67
990.332	2560.05
990.63	2542.19
990.927	2510.78
991.224	2484.79
991.521	2504.68
991.819	2465.13
992.116	2482.99
992.413	2470.33
992.71	2464
993.006	2455.87
993.303	2401.18
993.6	2438.92
993.897	2402.54
994.193	2416.09
994.49	2433.04
994.787	2350.33
995.083	2335.42
995.379	2363.44
995.676	2359.82
995.972	2321.63
996.268	2296.1
996.565	2297.23
996.861	2297.91
997.157	2278.47
997.453	2265.59
997.749	2261.97
998.044	2251.35
998.34	2232.82
998.636	2227.85
998.932	2186.72
999.227	2172.94
999.523	2209.77
999.818	2191.69
1000.114	2150.34
1000.409	2126.61
1000.704	2120.28
1001	2118.48
1001.295	2114.63
1001.59	2078.93
1001.885	2092.71
1002.18	2080.51
1002.475	2082.54
1002.77	2054.3
1003.065	2022.88
1003.359	2031.47
1003.654	2039.83
1003.949	2014.98
1004.243	2019.27
1004.538	1996.9
1004.832	1990.8
1005.127	1987.18
1005.421	1937.24
1005.715	1946.05
1006.009	1953.06
1006.304	1913.73
1006.598	1920.06
1006.892	1915.99
1007.186	1853.62
1007.48	1908.54
1007.773	1891.81
1008.067	1868.31
1008.361	1853.62
1008.655	1865.15
1008.948	1889.78
1009.242	1840.06
1009.535	1811.82
1009.829	1812.04
1010.122	1767.3
1010.415	1773.85
1010.708	1784.92
1011.001	1769.56
1011.295	1748.54
1011.588	1728.43
1011.881	1709.45
1012.173	1708.99
1012.466	1719.16
1012.759	1712.16
1013.052	1706.51
1013.344	1683.68
1013.637	1693.63
1013.93	1675.78
1014.222	1675.32
1014.514	1636.91
1014.807	1645.04
1015.099	1612.73
1015.391	1624.7
1015.683	1582.44
1015.976	1606.85
1016.268	1575.21
1016.56	1586.06
1016.851	1540.41
1017.143	1574.31
1017.435	1530.02
1017.727	1543.58
1018.018	1490.7
1018.31	1500.64
1018.602	1490.92
1018.893	1500.86
1019.185	1509.23
1019.476	1451.15
1019.767	1474.65
1020.058	1464.48
1020.35	1458.15
1020.641	1455.22
1020.932	1466.52
1021.223	1445.5
1021.514	1412.28
1021.804	1421.54
1022.095	1409.57
1022.386	1388.55
1022.677	1350.81
1022.967	1360.98
1023.258	1337.03
1023.548	1346.07
1023.839	1318.5
1024.129	1327.99
1024.419	1337.48
1024.709	1307.2
1025	1316.46
1025.29	1274.88
1025.58	1289.57
1025.87	1267.42
1026.16	1285.05
1026.449	1280.08
1026.739	1267.65
1027.029	1256.13
1027.319	1259.06
1027.608	1225.39
1027.898	1245.73
1028.187	1235.11
1028.477	1180.87
1028.766	1227.88
1029.055	1200.31
1029.344	1169.12
1029.634	1184.26
1029.923	1144.26
1030.212	1160.31
1030.501	1153.98
1030.79	1152.63
1031.078	1144.49
1031.367	1137.48
1031.656	1140.2
1031.945	1122.8
1032.233	1108.11
1032.522	1110.82
1032.81	1119.18
1033.099	1078.73
1033.387	1050.48
1033.675	1084.6
1033.963	1062.46
1034.251	1072.63
1034.54	1067.2
1034.828	1039.86
1035.116	1037.15
1035.403	1039.63
1035.691	1010.26
1035.979	1023.14
1036.267	1034.66
1036.554	1002.35
1036.842	1022.01
1037.129	1001.89
1037.417	996.24
1037.704	977.04
1037.992	976.13
1038.279	954.21
1038.566	938.39
1038.853	938.39
1039.14	938.39
