Data from hue_330_FLMS001491_33.txt Node
Date: Mon Feb 06 15:45:18 GMT 2017
User: dcchb
Spectrometer: FLMS00149
Trigger mode: 0
Integration Time (sec): 2.000000E-2
Scans to average: 10
Electric dark correction enabled: true
Nonlinearity correction enabled: false
Boxcar width: 0
XAxis mode: Wavelengths
Number of Pixels in Spectrum: 2048
>>>>>Begin Spectral Data<<<<<
341.393	-19.32
341.776	-19.32
342.16	-19.32
342.543	-59.32
342.927	-63.84
343.31	-78.75
343.693	-79.21
344.077	-48.7
344.46	-79.21
344.843	-41.92
345.226	-30.17
345.61	-15.25
345.993	-15.25
346.376	-9.83
346.759	4.63
347.142	20.45
347.525	43.05
347.908	57.96
348.291	77.85
348.674	82.14
349.057	112.2
349.44	115.59
349.823	163.95
350.206	180.67
350.588	189.26
350.971	202.14
351.354	230.84
351.737	229.94
352.119	245.3
352.502	270.84
352.884	283.72
353.267	282.59
353.65	276.49
354.032	281.69
354.414	290.95
354.797	313.1
355.179	311.74
355.562	309.94
355.944	302.7
356.326	323.95
356.709	328.92
357.091	325.08
357.473	342.02
357.855	350.39
358.238	340.67
358.62	338.64
359.002	317.17
359.384	328.69
359.766	334.34
360.148	333.89
360.53	328.24
360.912	333.66
361.294	316.71
361.676	326.43
362.057	324.17
362.439	335.47
362.821	321.01
363.203	316.26
363.584	330.5
363.966	314
364.348	307.68
364.729	314
365.111	322.14
365.493	310.61
365.874	315.36
366.256	331.4
366.637	304.29
367.019	315.13
367.4	298.86
367.781	318.3
368.163	300.67
368.544	299.09
368.925	298.64
369.306	307
369.688	298.64
370.069	319.43
370.45	306.32
370.831	297.96
371.212	312.65
371.593	325.08
371.974	294.12
372.355	306.09
372.736	301.35
373.117	314.23
373.498	301.8
373.879	287.56
374.26	310.84
374.641	307
375.021	291.4
375.402	338.64
375.783	304.51
376.163	318.52
376.544	299.99
376.925	307.9
377.305	308.81
377.686	318.52
378.066	319.88
378.447	337.51
378.827	305.64
379.208	318.75
379.588	316.26
379.968	329.14
380.349	322.82
380.729	348.13
381.109	339.99
381.489	344.06
381.87	335.02
382.25	337.73
382.63	341.35
383.01	343.61
383.39	332.76
383.77	342.7
384.15	348.58
384.53	330.27
384.91	342.7
385.29	354.91
385.67	340.89
386.049	325.3
386.429	328.24
386.809	360.78
387.189	354.45
387.568	365.75
387.948	333.89
388.328	348.8
388.707	356.49
389.087	362.59
389.466	348.8
389.846	340.67
390.225	367.33
390.605	344.28
390.984	368.24
391.363	371.4
391.743	378.63
392.122	360.56
392.501	364.17
392.881	376.15
393.26	356.04
393.639	376.83
394.018	349.93
394.397	368.01
394.776	379.54
395.155	385.87
395.534	354.45
395.913	371.4
396.292	376.6
396.671	368.46
397.05	362.14
397.429	378.41
397.808	397.16
398.186	377.73
398.565	368.01
398.944	371.85
399.323	380.44
399.701	372.76
400.08	377.73
400.458	403.04
400.837	402.59
401.215	387.45
401.594	365.53
401.972	370.05
402.351	391.29
402.729	384.74
403.107	406.66
403.486	402.36
403.864	378.18
404.242	375.02
404.62	415.02
404.999	417.5
405.377	435.81
405.755	401.68
406.133	430.38
406.511	415.02
406.889	410.27
407.267	403.94
407.645	432.87
408.023	442.14
408.401	419.31
408.779	435.13
409.156	456.82
409.534	457.5
409.912	453.21
410.29	439.2
410.667	455.24
411.045	457.5
411.422	451.85
411.8	465.19
412.178	478.29
412.555	481.68
412.933	507.44
413.31	515.58
413.687	485.07
414.065	507.67
414.442	511.29
414.819	500.66
415.197	489.82
415.574	519.87
415.951	539.76
416.328	515.81
416.705	531.85
417.082	538.63
417.46	551.06
417.837	569.14
418.214	554
418.591	565.75
418.967	593.77
419.344	575.47
419.721	583.37
420.098	594.22
420.475	580.21
420.852	608.23
421.228	582.24
421.605	619.76
421.982	618.4
422.358	641
422.735	628.35
423.111	654.11
423.488	631.96
423.864	646.2
424.241	648.23
424.617	631.96
424.994	651.85
425.37	683.48
425.746	674.22
426.123	680.32
426.499	669.7
426.875	697.5
427.251	702.92
427.627	687.1
428.003	709.92
428.379	715.35
428.756	730.04
429.132	753.77
429.507	739.08
429.883	753.99
430.259	752.64
430.635	753.77
431.011	757.38
431.387	768.23
431.763	802.13
432.138	787.44
432.514	808.91
432.89	800.77
433.265	815.01
433.641	804.39
434.016	801
434.392	851.84
434.767	857.49
435.143	840.32
435.518	851.84
435.894	866.08
436.269	868.79
436.644	875.57
437.02	876.25
437.395	891.16
437.77	911.28
438.145	917.38
438.52	900.43
438.895	936.13
439.271	936.13
439.646	956.02
440.021	961.22
440.395	963.7
440.77	961.67
441.145	939.07
441.52	969.81
441.895	987.43
442.27	978.62
442.645	991.27
443.019	993.99
443.394	977.49
443.769	964.83
444.143	1005.51
444.518	1009.13
444.892	1014.78
445.267	1008
445.641	1023.81
446.016	1034.89
446.39	1061.1
446.764	1008.45
447.139	1039.41
447.513	1045.96
447.887	1009.13
448.262	1024.72
448.636	1065.62
449.01	1063.59
449.384	1064.27
449.758	1098.84
450.132	1064.27
450.506	1078.05
450.88	1056.81
451.254	1095.68
451.628	1107.88
452.002	1091.16
452.376	1100.65
452.75	1112.63
453.123	1116.92
453.497	1120.54
453.871	1126.41
454.244	1139.52
454.618	1161.21
454.992	1145.62
455.365	1143.36
455.739	1180.65
456.112	1197.37
456.486	1178.84
456.859	1194.21
457.232	1228.1
457.606	1215.45
457.979	1197.82
458.352	1242.11
458.725	1252.96
459.099	1273.98
459.472	1258.38
459.845	1282.57
460.218	1259.97
460.591	1303.36
460.964	1318.95
461.337	1303.81
461.71	1322.79
462.083	1342.45
462.456	1340.87
462.829	1337.7
463.201	1334.77
463.574	1347.87
463.947	1366.18
464.32	1411.6
464.692	1403.92
465.065	1413.18
465.438	1404.6
465.81	1436.23
466.183	1431.26
466.555	1451.6
466.928	1474.2
467.3	1464.03
467.672	1489.57
468.045	1532.28
468.417	1522.11
468.789	1522.33
469.161	1535.89
469.534	1544.71
469.906	1586.29
470.278	1582.67
470.65	1602.1
471.022	1634.19
471.394	1636
471.766	1647.53
472.138	1650.01
472.51	1679.84
472.882	1709.22
473.253	1745.83
473.625	1754.64
473.997	1771.82
474.369	1790.12
474.74	1807.3
475.112	1813.17
475.484	1835.54
475.855	1899.5
476.227	1884.81
476.598	1937.24
476.97	1920.06
477.341	1965.03
477.713	1960.97
478.084	1986.5
478.455	2028.08
478.827	2055.88
479.198	2100.62
479.569	2098.36
479.94	2126.16
480.311	2137.23
480.682	2179.26
481.053	2231.47
481.424	2229.43
481.795	2256.32
482.166	2273.95
482.537	2346.94
482.908	2338.13
483.279	2338.58
483.65	2384.68
484.021	2408.86
484.391	2472.82
484.762	2479.37
485.133	2466.04
485.503	2507.17
485.874	2568.18
486.244	2595.98
486.615	2622.87
486.985	2614.51
487.356	2656.77
487.726	2702.87
488.097	2740.38
488.467	2793.03
488.837	2785.8
489.207	2798.46
489.578	2833.71
489.948	2826.71
490.318	2897.89
490.688	2898.79
491.058	2920.04
491.428	2960.26
491.798	3000.71
492.168	3078.9
492.538	3044.33
492.908	3040.94
493.278	3057.66
493.648	3102.18
494.017	3135.85
494.387	3173.81
494.757	3187.15
495.126	3220.82
495.496	3256.52
495.866	3229.63
496.235	3248.84
496.605	3277.31
496.974	3320.7
497.344	3329.74
497.713	3326.35
498.082	3339.69
498.452	3405.9
498.821	3378.78
499.19	3406.13
499.559	3434.82
499.928	3433.7
500.298	3437.76
500.667	3502.62
501.036	3476.41
501.405	3504.43
501.774	3478.21
502.143	3554.6
502.512	3572.67
502.88	3569.96
503.249	3554.14
503.618	3560.47
503.987	3586.69
504.356	3596.18
504.724	3635.05
505.093	3658.77
505.462	3622.39
505.83	3641.6
506.199	3635.95
506.567	3685.44
506.936	3693.8
507.304	3721.82
507.672	3708.26
508.041	3740.13
508.409	3796.85
508.777	3745.33
509.145	3813.8
509.514	3814.7
509.882	3791.43
510.25	3793.69
510.618	3844.76
510.986	3813.57
511.354	3909.84
511.722	3919.78
512.09	3875.04
512.458	3907.58
512.826	3887.69
513.193	3915.49
513.561	3942.83
513.929	3943.96
514.297	3966.11
514.664	3972.89
515.032	4005.43
515.4	3994.36
515.767	4002.27
516.135	4030.74
516.502	4014.7
516.869	4071.19
517.237	4029.61
517.604	4033
517.972	4060.35
518.339	4093.11
518.706	4091.3
519.073	4051.31
519.44	4105.54
519.808	4087.92
520.175	4116.84
520.542	4114.58
520.909	4186.44
521.276	4148.7
521.643	4143.05
522.009	4225.09
522.376	4234.35
522.743	4222.83
523.11	4225.76
523.477	4291.98
523.843	4281.81
524.21	4310.28
524.577	4324.75
524.943	4363.84
525.31	4369.72
525.676	4384.63
526.043	4409.71
526.409	4399.09
526.776	4457.62
527.142	4397.06
527.508	4472.31
527.874	4515.25
528.241	4554.34
528.607	4549.82
528.973	4538.52
529.339	4555.47
529.705	4607.68
530.071	4631.86
530.437	4618.75
530.803	4654.91
531.169	4663.95
531.535	4680.22
531.901	4718.18
532.267	4706.2
532.632	4774.22
532.998	4759.31
533.364	4745.75
533.73	4777.39
534.095	4824.84
534.461	4914.11
534.826	4857.39
535.192	4864.84
535.557	4905.07
535.923	4915.24
536.288	4901.91
536.653	4990.72
537.019	4979.87
537.384	4951.85
537.749	4988.23
538.114	5048.12
538.479	5009.02
538.845	5038.17
539.21	5053.77
539.575	5049.25
539.94	5103.03
540.305	5136.7
540.67	5133.76
541.034	5175.8
541.399	5186.42
541.764	5232.29
542.129	5240.88
542.494	5234.33
542.858	5281.1
543.223	5313.42
543.587	5333.98
543.952	5327.2
544.316	5352.51
544.681	5339.18
545.045	5393.64
545.41	5422.34
545.774	5449.01
546.138	5452.85
546.503	5496.92
546.867	5509.12
547.231	5543.47
547.595	5545.05
547.959	5582.79
548.324	5644.26
548.688	5626.86
549.052	5607.42
549.416	5614.2
549.779	5649.46
550.143	5639.96
550.507	5689.68
550.871	5728.55
551.235	5674.99
551.599	5761.77
551.962	5781.88
552.326	5763.13
552.689	5754.09
553.053	5765.16
553.417	5829.56
553.78	5864.14
554.143	5910.24
554.507	5873.18
554.87	5886.29
555.234	5966.51
555.597	5902.78
555.96	5901.65
556.323	5983.46
556.686	5995.21
557.05	6015.77
557.413	6035.21
557.776	6045.38
558.139	6060.74
558.502	6048.54
558.865	6039.95
559.228	6115.21
559.59	6182.55
559.953	6114.98
560.316	6205.37
560.679	6184.13
561.041	6188.65
561.404	6229.33
561.767	6251.7
562.129	6253.73
562.492	6284.69
562.854	6259.16
563.217	6300.06
563.579	6314.07
563.941	6375.31
564.304	6368.31
564.666	6408.08
565.028	6368.31
565.39	6401.3
565.753	6462.99
566.115	6489.89
566.477	6506.16
566.839	6495.08
567.201	6585.25
567.563	6520.17
567.925	6586.38
568.287	6628.64
568.648	6607.85
569.01	6666.83
569.372	6699.37
569.734	6666.6
570.095	6721.52
570.457	6803.1
570.819	6821.63
571.18	6832.02
571.542	6877.9
571.903	6801.52
572.265	6953.38
572.626	6942.08
572.987	7004.67
573.349	7050.1
573.71	7057.1
574.071	7067.72
574.432	7146.37
574.794	7226.36
575.155	7376.42
575.516	7316.3
575.877	7361.95
576.238	7429.3
576.599	7528.73
576.96	7564.43
577.32	7684.43
577.681	7712.68
578.042	7794.03
578.403	7841.71
578.763	7885.78
579.124	8041.48
579.485	8107.02
579.845	8220.91
580.206	8319.44
580.566	8441.25
580.927	8538.65
581.287	8710.17
581.648	8774.12
582.008	8901.12
582.368	9043.27
582.728	9161.45
583.089	9295.46
583.449	9466.76
583.809	9585.17
584.169	9790.82
584.529	9949.91
584.889	10195.33
585.249	10323.01
585.609	10502.66
585.969	10777
586.329	10937
586.688	11176.99
587.048	11350.77
587.408	11487.04
587.768	11727.71
588.127	11924.09
588.487	12217.19
588.846	12506.68
589.206	12699.44
589.565	12936.27
589.925	13203.16
590.284	13337.39
590.643	13676.36
591.003	13970.37
591.362	14246.29
591.721	14477.92
592.08	14808.99
592.44	15008.76
592.799	15400.61
593.158	15632.7
593.517	15928.06
593.876	16208.73
594.235	16421.83
594.593	16755.6
594.952	17100.68
595.311	17194.92
595.67	17661.12
596.029	18103.14
596.387	18246.86
596.746	18578.61
597.104	18736.34
597.463	19074.19
597.822	19424.01
598.18	19542.65
598.538	19935.86
598.897	20287.49
599.255	20365
599.613	21002.05
599.972	21116.39
600.33	21375.6
600.688	21730.62
601.046	22004.51
601.404	22324.27
601.762	22596.36
602.12	22923.58
602.478	23104.36
602.836	23374.41
603.194	23498.25
603.552	23856.66
603.91	24048.97
604.268	24287.38
604.625	24519.92
604.983	24956.07
605.341	25004.65
605.698	25350.41
606.056	25670.17
606.413	25811.86
606.771	26148.13
607.128	26424.28
607.485	26450.26
607.843	26705.17
608.2	27082.56
608.557	27375.44
608.914	27528.2
609.272	27836.44
609.629	28074.86
609.986	28459.93
610.343	28448.86
610.7	28727.04
611.057	28882.97
611.414	29098.56
611.771	29360.24
612.127	29500.13
612.484	29755.26
612.841	29965.2
613.198	30101.69
613.554	30147.12
613.911	30542.36
614.267	30617.39
614.624	30699.19
614.98	30991.84
615.337	31207.88
615.693	31341.21
616.05	31445.16
616.406	31757.24
616.762	31752.72
617.118	31958.37
617.475	31940.97
617.831	32341.41
618.187	32405.36
618.543	32580.27
618.899	32853.71
619.255	32985.46
619.611	32996.99
619.967	33243.08
620.323	33334.6
620.678	33420.25
621.034	33318.33
621.39	33406.47
621.746	33653.24
622.101	34002.16
622.457	33812.56
622.812	34097.3
623.168	34132.55
623.523	34203.06
623.879	34352.88
624.234	34227.46
624.589	34410.96
624.945	34566.44
625.3	34701.12
625.655	34681.69
626.01	34946.31
626.365	35029.7
626.72	34985.86
627.075	35059.98
627.43	35020.89
627.785	35085.29
628.14	35149.47
628.495	35269.24
628.85	35367.77
629.205	35176.36
629.559	35608.22
629.914	35403.25
630.269	35389.92
630.623	35519.63
630.978	35445.06
631.332	35695.22
631.687	35844.59
632.041	35662.23
632.396	35845.72
632.75	35633.53
633.104	35731.38
633.459	35584.49
633.813	35619.52
634.167	35720.53
634.521	35861.09
634.875	35798.95
635.229	35656.12
635.583	35645.05
635.937	35610.25
636.291	35591.95
636.645	35690.25
636.999	35678.27
637.352	35832.62
637.706	35695.9
638.06	35940.86
638.413	35726.41
638.767	35772.73
639.121	35905.16
639.474	35575
639.828	35694.99
640.181	35803.69
640.534	35664.03
640.888	35528.44
641.241	35490.93
641.594	35723.24
641.947	35756.69
642.301	35745.84
642.654	35654.09
643.007	35755.56
643.36	35773.86
643.713	35611.83
644.066	35880.53
644.419	35605.28
644.771	35373.19
645.124	35045.97
645.477	34914.45
645.83	34803.94
646.182	34714.45
646.535	34722.59
646.888	34696.38
647.24	34423.84
647.593	34634
647.945	34721.46
648.298	34542.71
648.65	34484.63
649.002	34428.36
649.355	34586.55
649.707	34474.46
650.059	34707.22
650.411	35051.17
650.763	35008.46
651.115	35419.07
651.467	35302.69
651.819	35383.59
652.171	35237.83
652.523	35279.41
652.875	35324.38
653.227	35100.66
653.578	35324.83
653.93	35234.89
654.282	35106.08
654.633	35012.3
654.985	35133.43
655.337	35252.29
655.688	35131.39
656.039	35193.99
656.391	35001.68
656.742	35043.71
657.094	35074.67
657.445	35070.83
657.796	34983.83
658.147	34963.94
658.498	35087.1
658.849	35056.14
659.2	35000.77
659.551	35058.4
659.902	35166.87
660.253	34924.84
660.604	35080.55
660.955	34972.3
661.306	35172.52
661.656	35050.72
662.007	34891.17
662.358	34961
662.708	34927.1
663.059	34953.32
663.409	34795.13
663.76	34994.67
664.11	34988.12
664.461	35057.04
664.811	34963.49
665.161	34974.79
665.511	34956.48
665.862	34909.7
666.212	35131.62
666.562	35099.08
666.912	34929.36
667.262	34930.72
667.612	34825.64
667.962	34932.75
668.312	34754.23
668.662	35030.6
669.011	34905.64
669.361	34813.43
669.711	34951.06
670.06	34834.68
670.41	34819.08
670.76	34802.81
671.109	34803.94
671.459	34867.44
671.808	34751.97
672.157	34834.9
672.507	34544.06
672.856	34632.42
673.205	34632.42
673.554	34739.31
673.904	34708.58
674.253	34881.46
674.602	34635.59
674.951	34241.92
675.3	34060.91
675.649	34598.07
675.998	34645.08
676.346	34714.23
676.695	34689.14
677.044	34473.1
677.393	34583.38
677.741	34549.49
678.09	34510.39
678.438	34468.59
678.787	34493.44
679.135	34416.61
679.484	34254.58
679.832	34403.73
680.181	34251.87
680.529	34224.75
680.877	34154.02
681.225	34291.41
681.573	34425.42
681.922	34146.33
682.27	34057.97
682.618	34055.26
682.966	33908.83
683.314	33993.12
683.661	33829.96
684.009	33725.33
684.357	33754.71
684.705	33647.59
685.053	33630.42
685.4	33604.88
685.748	33526.01
686.095	33493.7
686.443	33388.84
686.79	33390.87
687.138	33405.79
687.485	33428.39
687.832	33314.94
688.18	33316.98
688.527	33106.59
688.874	33156.3
689.221	33023.65
689.568	32971.22
689.915	32981.39
690.262	33006.02
690.609	32791.57
690.956	32674.96
691.303	32650.55
691.65	32517.9
691.997	32449.88
692.344	32358.58
692.69	32306.83
693.037	32422.31
693.383	31996.79
693.73	32275.42
694.077	31971.93
694.423	32101.64
694.769	31942.32
695.116	31767.87
695.462	31762.22
695.808	31735.32
696.155	31744.59
696.501	31517.7
696.847	31566.06
697.193	31240.42
697.539	31351.38
697.885	31266.86
698.231	31244.94
698.577	31082.91
698.923	31137.83
699.269	30978.73
699.614	30818.96
699.96	30760.66
700.306	30771.96
700.651	30628.23
700.997	30517.73
701.342	30576.94
701.688	30574.22
702.033	30384.62
702.379	30297.85
702.724	30276.38
703.069	30262.14
703.415	29811.08
703.76	29915.26
704.105	30148.25
704.45	29931.98
704.795	29611.09
705.14	29506.91
705.485	29679.11
705.83	29623.51
706.175	29581.93
706.52	29476.4
706.865	29294.48
707.209	29208.16
707.554	29265.78
707.899	29287.03
708.243	29104.21
708.588	29088.16
708.932	28858.56
709.277	28912.35
709.621	28893.82
709.966	28761.39
710.31	28840.71
710.654	28576.76
710.998	28593.03
711.342	28626.93
711.687	28436.2
712.031	28416.99
712.375	28301.52
712.719	28318.24
713.063	28306.26
713.407	28239.37
713.75	28136.55
714.094	28098.81
714.438	27958.02
714.782	28038.92
715.125	27953.5
715.469	27949.21
715.812	27878.93
716.156	27652.49
716.499	27660.18
716.843	27692.94
717.186	27478.03
717.53	27620.86
717.873	27641.87
718.216	27509.9
718.559	27340.41
718.902	27140.42
719.246	27368.21
719.589	27184.48
719.932	27070.36
720.275	27125.05
720.617	27083.02
720.96	27015.9
721.303	27078.95
721.646	26944.26
721.989	26878.5
722.331	27004.37
722.674	26827.43
723.016	26846.41
723.359	26818.62
723.701	26816.36
724.044	26618.62
724.386	26525.52
724.729	26598.06
725.071	26559.19
725.413	26597.61
725.755	26506.53
726.097	26492.52
726.439	26347.44
726.782	26359.65
727.124	26330.49
727.465	26246.88
727.807	26246.88
728.149	26181.12
728.491	26148.58
728.833	26138.41
729.175	26131.63
729.516	26015.02
729.858	25936.83
730.199	26043.27
730.541	25949.04
730.882	26027.68
731.224	26010.28
731.565	25689.61
731.906	25815.93
732.248	25838.76
732.589	25750.85
732.93	25621.59
733.271	25647.8
733.612	25594.02
733.953	25584.07
734.294	25435.6
734.635	25422.72
734.976	25418.2
735.317	25381.14
735.658	25393.34
735.999	25350.41
736.339	25238.55
736.68	25434.47
737.021	25219.79
737.361	25191.99
737.702	25281.71
738.042	25146.34
738.383	25154.48
738.723	25240.81
739.063	25076.74
739.404	24925.56
739.744	24941.38
740.084	24854.6
740.424	24897.31
740.764	24829.29
741.104	24900.02
741.444	24815.51
741.784	24670.65
742.124	24825.9
742.464	24835.39
742.804	24625.91
743.143	24548.85
743.483	24599.01
743.823	24424.78
744.162	24492.35
744.502	24454.39
744.841	24406.48
745.181	24500.03
745.52	24342.07
745.86	24481.5
746.199	24250.32
746.538	24276.31
746.877	24211.45
747.216	24281.06
747.556	24240.38
747.895	24121.06
748.234	24037.22
748.573	23957.45
748.911	23986.6
749.25	23903.44
749.589	23854.18
749.928	23794.06
750.267	23758.36
750.605	23816.66
750.944	23780.05
751.283	23682.88
751.621	23734.86
751.96	23607.4
752.298	23676.33
752.636	23644.46
752.975	23436.78
753.313	23446.05
753.651	23489.66
753.989	23302.55
754.327	23366.28
754.666	23210.12
755.004	23260.52
755.342	23295.09
755.679	23207.64
756.017	23068.21
756.355	23057.59
756.693	22946.18
757.031	22973.52
757.368	22902.34
757.706	22761.77
758.044	22683.58
758.381	22891.04
758.719	22760.87
759.056	22713.87
759.394	22557.03
759.731	22382.8
760.068	22523.14
760.405	22394.55
760.743	22286.98
761.08	22344.38
761.417	22188.23
761.754	22064.62
762.091	22188.46
762.428	21988.01
762.765	21924.96
763.102	21927.67
763.438	21737.39
763.775	21671.86
764.112	21738.3
764.449	21691.75
764.785	21594.12
765.122	21467.35
765.458	21424.18
765.795	21322.26
766.131	21338.99
766.467	21276.62
766.804	21124.3
767.14	21051.31
767.476	21055.15
767.812	20894.93
768.148	21004.53
768.485	20828.04
768.821	20805.44
769.157	20720.7
769.492	20688.16
769.828	20595.05
770.164	20387.6
770.5	20426.47
770.836	20414.94
771.171	20299.01
771.507	20217.21
771.842	20034.16
772.178	19984.45
772.513	20057.89
772.849	19969.08
773.184	19906.93
773.519	19836.65
773.855	19720.27
774.19	19637.79
774.525	19610.9
774.86	19575.87
775.195	19521.41
775.53	19450.9
775.865	19316.22
776.2	19249.55
776.535	19162.32
776.87	19080.29
777.205	19041.87
777.539	18978.37
777.874	18986.05
778.209	18767.98
778.543	18759.62
778.878	18589.23
779.212	18685.27
779.547	18624.48
779.881	18527.54
780.215	18351.04
780.55	18469.23
780.884	18280.31
781.218	18240.99
781.552	18226.07
781.886	18132.52
782.22	18121.67
782.554	18009.58
782.888	17807.33
783.222	17818.85
783.556	17683.26
783.889	17711.29
784.223	17542.48
784.557	17481.24
784.89	17548.35
785.224	17520.1
785.557	17340.45
785.891	17284.4
786.224	17289.38
786.558	17202.15
786.891	17083.73
787.224	17020.68
787.557	17079.89
787.891	17075.37
788.224	16998.76
788.557	16863.85
788.89	16789.5
789.223	16841.03
789.556	16682.39
789.888	16572.56
790.221	16660.47
790.554	16432
790.887	16404.88
791.219	16354.49
791.552	16274.94
791.884	16308.61
792.217	16257.31
792.549	16143.42
792.882	16028.62
793.214	16014.38
793.546	16033.59
793.879	15884.67
794.211	15809.64
794.543	15841.96
794.875	15774.16
795.207	15906.59
795.539	15668.4
795.871	15778.91
796.203	15534.17
796.535	15498.69
796.867	15446.03
797.198	15507.73
797.53	15425.24
797.862	15370.33
798.193	15334.17
798.525	15220.73
798.856	15314.96
799.188	15067.06
799.519	15086.5
799.85	14867.29
800.182	15000.85
800.513	15021.64
800.844	14832.49
801.175	14980.51
801.506	14856.45
801.837	14844.24
802.168	14734.19
802.499	14703
802.83	14611.03
803.161	14603.12
803.491	14588.88
803.822	14564.7
804.153	14463.01
804.483	14356.35
804.814	14331.49
805.145	14345.05
805.475	14325.84
805.805	14235.22
806.136	14288.1
806.466	14228.21
806.796	14175.79
807.126	14136.69
807.457	14052.17
807.787	14063.02
808.117	13976.02
808.447	13927.2
808.777	13877.26
809.107	13909.13
809.436	13827.77
809.766	13828.9
810.096	13783.48
810.426	13762.24
810.755	13679.3
811.085	13679.3
811.414	13702.58
811.744	13559.98
812.073	13456.26
812.403	13442.25
812.732	13405.86
813.061	13406.54
813.39	13294.45
813.719	13245.19
814.049	13323.15
814.378	13333.32
814.707	13280.22
815.036	13217.39
815.365	13180.78
815.693	13074.12
816.022	13078.41
816.351	13045.87
816.68	12885.42
817.008	12990.28
817.337	12931.98
817.665	12810.85
817.994	12801.81
818.322	12843.62
818.651	12739.89
818.979	12724.52
819.307	12843.17
819.636	12730.4
819.964	12678.88
820.292	12763.39
820.62	12669.38
820.948	12665.54
821.276	12637.52
821.604	12689.72
821.932	12616.73
822.259	12685.2
822.587	12613.57
822.915	12611.53
823.243	12608.6
823.57	12583.28
823.898	12610.85
824.225	12569.5
824.553	12519.78
824.88	12578.99
825.207	12548.26
825.535	12571.99
825.862	12582.16
826.189	12522.5
826.516	12668.48
826.843	12588.03
827.17	12542.38
827.497	12625.32
827.824	12587.58
828.151	12602.72
828.478	12548.48
828.805	12663.06
829.131	12567.69
829.458	12541.25
829.785	12469.39
830.111	12500.58
830.438	12550.74
830.764	12523.4
831.09	12556.17
831.417	12442.27
831.743	12516.39
832.069	12481.14
832.395	12464.19
832.722	12498.32
833.048	12504.87
833.374	12434.81
833.7	12459.9
834.026	12417.64
834.351	12429.84
834.677	12483.4
835.003	12448.83
835.329	12405.21
835.654	12442.05
835.98	12264.88
836.306	12377.19
836.631	12311.43
836.956	12400.24
837.282	12313.91
837.607	12310.98
837.932	12261.94
838.258	12305.55
838.583	12273.01
838.908	12110.53
839.233	12193.01
839.558	12152.11
839.883	12099.46
840.208	12013.81
840.533	12037.99
840.858	12066.46
841.182	12027.59
841.507	12038.89
841.832	11895.62
842.156	11908.73
842.481	12002.51
842.805	11896.75
843.13	11918.22
843.454	11871.67
843.778	11761.84
844.103	11752.57
844.427	11744.21
844.751	11752.8
845.075	11718.9
845.399	11598.9
845.723	11612.24
846.047	11606.81
846.371	11558.91
846.695	11585.8
847.019	11448.4
847.343	11416.31
847.666	11357.1
847.99	11269.65
848.313	11361.62
848.637	11205.92
848.96	11190.55
849.284	11159.37
849.607	11067.39
849.931	10996.43
850.254	10957.34
850.577	10896.1
850.9	10919.15
851.223	10850.45
851.546	10765.71
851.869	10687.52
852.192	10740.62
852.515	10698.14
852.838	10641.87
853.161	10668.53
853.483	10586.5
853.806	10554.41
854.129	10544.92
854.451	10433.28
854.774	10405.94
855.096	10313.51
855.419	10398.26
855.741	10392.16
856.063	10279.84
856.385	10209.11
856.708	10186.96
857.03	10175.66
857.352	10228.32
857.674	10174.53
857.996	10144.71
858.318	10152.16
858.64	10051.83
858.961	10001.66
859.283	9973.41
859.605	9942.9
859.926	9925.05
860.248	9886.86
860.57	9873.53
860.891	9914.43
861.212	9821.32
861.534	9776.81
861.855	9772.51
862.176	9818.84
862.498	9825.39
862.819	9783.36
863.14	9761.21
863.461	9675.79
863.782	9638.5
864.103	9673.98
864.424	9659.97
864.745	9635.57
865.065	9600.31
865.386	9569.58
865.707	9545.62
866.027	9591.27
866.348	9542.46
866.668	9539.98
866.989	9452.97
867.309	9448
867.63	9475.57
867.95	9393.76
868.27	9385.85
868.59	9381.34
868.91	9370.94
869.23	9403.71
869.55	9297.04
869.87	9359.64
870.19	9353.54
870.51	9327.55
870.83	9367.55
871.15	9313.54
871.469	9272.41
871.789	9260.43
872.109	9184.73
872.428	9196.93
872.748	9248.46
873.067	9272.86
873.386	9262.02
873.706	9193.09
874.025	9170.72
874.344	9074
874.663	9147.44
874.982	9145.86
875.301	9087.33
875.62	9058.41
875.939	9012.76
876.258	9034.9
876.577	8950.84
876.896	9083.04
877.214	8962.82
877.533	8981.57
877.852	8963.95
878.17	9001.46
878.489	8962.36
878.807	8986.32
879.125	8948.35
879.444	8838.98
879.762	8895.7
880.08	8918.97
880.398	8818.64
880.716	8862.7
881.034	8772.54
881.352	8844.4
881.67	8800.56
881.988	8780.67
882.306	8685.53
882.624	8721.01
882.941	8715.36
883.259	8625.65
883.577	8666.78
883.894	8611.86
884.212	8657.96
884.529	8576.38
884.846	8617.74
885.164	8506.56
885.481	8544.52
885.798	8552.2
886.115	8463.62
886.432	8507.23
886.75	8487.12
887.067	8473.79
887.383	8406.9
887.7	8431.76
888.017	8351.31
888.334	8363.51
888.651	8343.4
888.967	8349.5
889.284	8274.7
889.6	8241.93
889.917	8218.2
890.233	8247.13
890.55	8176.85
890.866	8139.79
891.182	8174.81
891.498	8154.25
891.815	8072.9
892.131	8107.24
892.447	8073.57
892.763	8035.83
893.079	8032.67
893.395	7962.84
893.71	7971.2
894.026	7965.55
894.342	7964.88
894.657	7887.82
894.973	7888.95
895.289	7875.84
895.604	7843.52
895.92	7790.42
896.235	7746.8
896.55	7787.93
896.865	7717.42
897.181	7752
897.496	7709.06
897.811	7695.73
898.126	7568.95
898.441	7572.12
898.756	7587.94
899.071	7495.96
899.386	7542.06
899.7	7540.03
900.015	7397.21
900.33	7398.11
900.644	7366.47
900.959	7393.82
901.273	7417.32
901.588	7315.17
901.902	7283.09
902.216	7285.57
902.531	7235.85
902.845	7209.19
903.159	7223.43
903.473	7146.82
903.787	7083.32
904.101	7142.52
904.415	7038.12
904.729	7069.98
905.042	7025.69
905.356	6997.22
905.67	6986.14
905.984	6947.27
906.297	6926.48
906.611	6923.55
906.924	6904.79
907.237	6902.98
907.551	6848.07
907.864	6775.08
908.177	6768.3
908.491	6762.87
908.804	6675.87
909.117	6675.64
909.43	6661.63
909.743	6637.23
910.056	6621.86
910.368	6603.1
910.681	6506.61
910.994	6517.68
911.307	6526.5
911.619	6399.04
911.932	6472.71
912.244	6440.62
912.557	6431.13
912.869	6378.7
913.181	6409.44
913.494	6318.59
913.806	6294.41
914.118	6329.66
914.43	6252.38
914.742	6234.75
915.054	6193.17
915.366	6175.32
915.678	6115.66
915.99	6118.6
916.302	6095.55
916.613	6078.15
916.925	6081.99
917.236	6011.71
917.548	6001.99
917.859	5995.44
918.171	5932.16
918.482	5962.67
918.794	5929.9
919.105	5897.59
919.416	5839.28
919.727	5840.64
920.038	5804.48
920.349	5744.82
920.66	5798.83
920.971	5703.92
921.282	5736.01
921.593	5658.95
921.903	5647.2
922.214	5631.6
922.525	5588.67
922.835	5602.9
923.146	5573.3
923.456	5581.66
923.767	5563.58
924.077	5507.31
924.387	5451.72
924.697	5448.56
925.008	5420.31
925.318	5436.58
925.628	5442
925.938	5343.7
926.248	5353.87
926.558	5310.26
926.867	5338.96
927.177	5287.88
927.487	5260.54
927.796	5238.39
928.106	5218.51
928.416	5178.73
928.725	5154.33
929.034	5144.16
929.344	5120.88
929.653	5091.28
929.962	5102.13
930.271	5085.63
930.581	5007.21
930.89	5004.5
931.199	4963.15
931.508	4969.47
931.817	4959.53
932.125	4941.9
932.434	4892.19
932.743	4922.47
933.051	4844.51
933.36	4856.03
933.669	4818.97
933.977	4808.8
934.286	4821
934.594	4783.72
934.902	4768.35
935.21	4726.09
935.519	4742.36
935.827	4684.28
936.135	4652.87
936.443	4605.64
936.751	4621.23
937.059	4643.38
937.367	4573.78
937.674	4573.78
937.982	4572.87
938.29	4491.29
938.597	4512.99
938.905	4462.14
939.213	4460.79
939.52	4443.16
939.827	4440.22
940.135	4460.33
940.442	4388.47
940.749	4435.48
941.056	4406.32
941.363	4319.77
941.67	4395.93
941.977	4314.35
942.284	4274.35
942.591	4267.35
942.898	4268.25
943.205	4214.69
943.511	4207.91
943.818	4208.59
944.125	4178.53
944.431	4184.18
944.738	4157.07
945.044	4113
945.35	4069.61
945.657	4101.47
945.963	4084.98
946.269	4063.28
946.575	4061.93
946.881	4016.5
947.187	4047.69
947.493	4014.92
947.799	3951.2
948.105	3946
948.41	3928.15
948.716	3919.11
949.022	3938.09
949.327	3905.1
949.633	3864.19
949.938	3862.38
950.244	3836.4
950.549	3843.4
950.854	3823.06
951.16	3790.75
951.465	3786.91
951.77	3747.13
952.075	3735.61
952.38	3724.08
952.685	3705.55
952.99	3699.22
953.294	3712.11
953.599	3635.72
953.904	3650.19
954.209	3597.98
954.513	3623.52
954.818	3607.93
955.122	3562.73
955.426	3565.89
955.731	3566.57
956.035	3532.9
956.339	3509.63
956.643	3534.03
956.948	3481.83
957.252	3537.42
957.556	3462.39
957.86	3478.21
958.163	3418.55
958.467	3453.36
958.771	3415.39
959.075	3411.32
959.378	3393.7
959.682	3376.3
959.985	3309.86
960.289	3313.47
960.592	3283.64
960.896	3289.07
961.199	3300.59
961.502	3250.65
961.805	3266.69
962.108	3250.2
962.411	3217.2
962.714	3210.65
963.017	3144.89
963.32	3209.29
963.623	3169.97
963.926	3135.4
964.228	3161.61
964.531	3162.74
964.833	3174.04
965.136	3090.43
965.438	3088.17
965.741	3087.72
966.043	3082.29
966.345	3040.49
966.648	3054.5
966.95	3054.95
967.252	2992.35
967.554	3004.1
967.856	2985.35
968.158	2958.91
968.46	2982.18
968.761	2946.48
969.063	2931.34
969.365	2911.9
969.666	2952.58
969.968	2912.13
970.269	2886.59
970.571	2910.09
970.872	2856.54
971.174	2847.27
971.475	2846.59
971.776	2820.83
972.077	2820.6
972.378	2788.06
972.679	2763.2
972.98	2800.04
973.281	2769.76
973.582	2748.97
973.883	2750.78
974.183	2728.18
974.484	2711.68
974.785	2736.09
975.085	2688.86
975.386	2667.39
975.686	2675.52
975.986	2683.43
976.287	2694.28
976.587	2651.79
976.887	2658.8
977.187	2611.8
977.487	2599.59
977.787	2581.51
978.087	2610.21
978.387	2569.76
978.687	2577.9
978.987	2527.05
979.286	2534.74
979.586	2528.41
979.885	2542.87
980.185	2513.95
980.484	2484.79
980.784	2478.92
981.083	2489.99
981.382	2508.97
981.682	2488.86
981.981	2474.4
982.28	2438.69
982.579	2434.63
982.878	2417.68
983.177	2408.64
983.475	2396.43
983.774	2382.88
984.073	2358.47
984.372	2379.49
984.67	2366.15
984.969	2353.27
985.267	2333.84
985.566	2319.83
985.864	2301.52
986.162	2292.03
986.461	2274.18
986.759	2281.41
987.057	2254.52
987.355	2284.35
987.653	2271.47
987.951	2234.18
988.249	2239.83
988.547	2243.22
988.844	2208.87
989.142	2222.2
989.44	2184.01
989.737	2180.85
990.035	2165.93
990.332	2173.84
990.63	2144.01
990.927	2141.98
991.224	2143.56
991.521	2108.98
991.819	2102.43
992.116	2099.49
992.413	2110.34
992.71	2092.26
993.006	2100.17
993.303	2088.65
993.6	2060.4
993.897	2037.12
994.193	2040.06
994.49	2019.27
994.787	2033.96
995.083	2038.48
995.379	1973.62
995.676	1975.88
995.972	1991.7
996.268	1983.11
996.565	1927.29
996.861	2003.22
997.157	1931.81
997.453	1934.3
997.749	1943.34
998.044	1920.51
998.34	1920.97
998.636	1918.71
998.932	1931.14
999.227	1883
999.523	1856.79
999.818	1862.44
1000.114	1853.62
1000.409	1856.79
1000.704	1815.66
1001	1833.51
1001.295	1818.14
1001.59	1796.68
1001.885	1816.79
1002.18	1762.78
1002.475	1798.94
1002.77	1787.86
1003.065	1748.77
1003.359	1750.12
1003.654	1767.3
1003.949	1734.76
1004.243	1738.37
1004.538	1722.78
1004.832	1708.09
1005.127	1703.57
1005.421	1693.18
1005.715	1666.28
1006.009	1680.75
1006.304	1654.08
1006.598	1631.93
1006.892	1652.27
1007.186	1610.92
1007.48	1608.21
1007.773	1619.51
1008.067	1594.87
1008.361	1591.26
1008.655	1608.21
1008.948	1582.22
1009.242	1559.62
1009.535	1556
1009.829	1556
1010.122	1559.85
1010.415	1539.28
1010.708	1527.98
1011.001	1524.14
1011.295	1523.46
1011.588	1506.29
1011.881	1507.42
1012.173	1494.31
1012.466	1484.82
1012.759	1462.22
1013.052	1482.33
1013.344	1469.23
1013.637	1468.55
1013.93	1436.91
1014.222	1438.27
1014.514	1454.54
1014.807	1417.93
1015.099	1392.84
1015.391	1414.54
1015.683	1368.89
1015.976	1385.84
1016.268	1387.42
1016.56	1354.2
1016.851	1386.07
1017.143	1362.11
1017.435	1359.85
1017.727	1348.1
1018.018	1327.76
1018.31	1327.76
1018.602	1317.14
1018.893	1283.24
1019.185	1305.62
1019.476	1277.37
1019.767	1278.72
1020.058	1273.98
1020.35	1267.88
1020.641	1270.14
1020.932	1256.8
1021.223	1257.26
1021.514	1243.02
1021.804	1208.22
1022.095	1224.49
1022.386	1204.6
1022.677	1179.52
1022.967	1210.02
1023.258	1200.08
1023.548	1186.75
1023.839	1165.73
1024.129	1141.1
1024.419	1161.44
1024.709	1149.24
1025	1139.52
1025.29	1142.68
1025.58	1123.02
1025.87	1128.9
1026.16	1111.27
1026.449	1098.16
1026.739	1110.37
1027.029	1110.37
1027.319	1079.63
1027.608	1070.37
1027.898	1089.58
1028.187	1073.53
1028.477	1068.56
1028.766	1085.06
1029.055	1053.64
1029.344	1034.44
1029.634	1033.53
1029.923	1044.38
1030.212	1016.81
1030.501	1039.63
1030.79	1005.96
1031.078	1011.16
1031.367	1019.3
1031.656	1010.71
1031.945	992.4
1032.233	989.92
1032.522	984.95
1032.81	983.36
1033.099	967.55
1033.387	973.42
1033.675	954.89
1033.963	921.22
1034.251	953.53
1034.54	951.95
1034.828	898.85
1035.116	930.03
1035.403	930.48
1035.691	902.24
1035.979	921.9
1036.267	900.88
1036.554	885.74
1036.842	874.21
1037.129	882.12
1037.417	885.51
1037.704	869.47
1037.992	838.06
1038.279	851.16
1038.566	853.2
1038.853	853.2
1039.14	853.2
