Data from hue_30_FLMS001491_60.txt Node
Date: Mon Feb 06 15:05:36 GMT 2017
User: dcchb
Spectrometer: FLMS00149
Trigger mode: 0
Integration Time (sec): 2.000000E-2
Scans to average: 10
Electric dark correction enabled: true
Nonlinearity correction enabled: false
Boxcar width: 0
XAxis mode: Wavelengths
Number of Pixels in Spectrum: 2048
>>>>>Begin Spectral Data<<<<<
341.393	-15.9
341.776	-15.9
342.16	-15.9
342.543	-46.41
342.927	-80.76
343.31	-72.85
343.693	-74.89
344.077	-66.98
344.46	-69.01
344.843	-56.13
345.226	-26.75
345.61	-41.89
345.993	-12.97
346.376	2.63
346.759	0.59
347.142	30.42
347.525	43.53
347.908	63.19
348.291	73.13
348.674	101.38
349.057	106.58
349.44	127.14
349.823	142.74
350.206	162.4
350.588	178.89
350.971	215.73
351.354	227.03
351.737	244.65
352.119	250.76
352.502	256.86
352.884	275.39
353.267	284.88
353.65	286.01
354.032	295.05
354.414	299.34
354.797	304.99
355.179	321.71
355.562	307.25
355.944	319.23
356.326	298.89
356.709	326.01
357.091	350.19
357.473	319.45
357.855	319.23
358.238	333.24
358.62	324.2
359.002	332.79
359.384	327.82
359.766	322.62
360.148	329.17
360.53	343.64
360.912	332.11
361.294	346.12
361.676	312.9
362.057	317.42
362.439	342.28
362.821	327.59
363.203	306.8
363.584	323.97
363.966	325.1
364.348	322.39
364.729	322.84
365.111	308.83
365.493	315.61
365.874	324.2
366.256	299.12
366.637	326.46
367.019	310.64
367.4	316.74
367.781	314.94
368.163	319.68
368.544	333.47
368.925	313.13
369.306	318.1
369.688	312.45
370.069	323.52
370.45	313.35
370.831	294.37
371.212	306.57
371.593	299.79
371.974	304.31
372.355	299.79
372.736	311.09
373.117	300.7
373.498	310.42
373.879	306.35
374.26	304.99
374.641	309.74
375.021	316.74
375.402	320.36
375.783	328.49
376.163	342.28
376.544	331.66
376.925	332.11
377.305	318.55
377.686	316.07
378.066	324.2
378.447	338.44
378.827	333.69
379.208	331.21
379.588	341.38
379.968	342.96
380.349	329.4
380.729	343.41
381.109	322.17
381.489	346.57
381.87	335.05
382.25	348.15
382.63	351.77
383.01	346.8
383.39	329.85
383.77	359.23
384.15	326.91
384.53	350.41
384.91	327.59
385.29	338.44
385.67	348.61
386.049	335.5
386.429	337.31
386.809	347.02
387.189	353.8
387.568	349.51
387.948	362.62
388.328	366.69
388.707	366.01
389.087	338.66
389.466	349.74
389.846	329.85
390.225	368.49
390.605	341.38
390.984	357.65
391.363	348.38
391.743	364.88
392.122	368.49
392.501	382.28
392.881	376.63
393.26	378.66
393.639	382.5
394.018	363.3
394.397	379.34
394.776	363.97
395.155	405.1
395.534	380.24
395.913	368.72
396.292	398.32
396.671	376.63
397.05	371.2
397.429	368.72
397.808	391.09
398.186	378.66
398.565	380.92
398.944	380.24
399.323	402.39
399.701	391.54
400.08	370.53
400.458	400.36
400.837	390.41
401.215	389.51
401.594	400.13
401.972	403.75
402.351	389.74
402.729	414.59
403.107	400.36
403.486	406.01
403.864	380.92
404.242	421.83
404.62	412.11
404.999	421.6
405.377	413.24
405.755	394.71
406.133	427.93
406.511	427.25
406.889	402.16
407.267	435.61
407.645	406.46
408.023	422.73
408.401	418.21
408.779	426.8
409.156	445.33
409.534	436.06
409.912	447.14
410.29	438.1
410.667	440.81
411.045	418.89
411.422	439
411.8	457.76
412.178	471.99
412.555	439.45
412.933	435.38
413.31	465.89
413.687	463.18
414.065	489.62
414.442	468.15
414.819	489.85
415.197	484.2
415.574	474.03
415.951	483.07
416.328	468.83
416.705	493.24
417.082	477.64
417.46	478.55
417.837	485.55
418.214	474.93
418.591	499.34
418.967	486
419.344	503.63
419.721	497.08
420.098	501.37
420.475	504.08
420.852	509.28
421.228	526.23
421.605	542.5
421.982	509.96
422.358	529.62
422.735	517.42
423.111	526.46
423.488	545.89
423.864	554.02
424.241	539.11
424.617	539.11
424.994	547.02
425.37	556.74
425.746	573.23
426.123	546.34
426.499	538.21
426.875	563.97
427.251	551.31
427.627	564.19
428.003	573.46
428.379	574.82
428.756	581.59
429.132	584.31
429.507	607.81
429.883	599.67
430.259	585.89
430.635	603.52
431.011	608.49
431.387	613.46
431.763	620.92
432.138	636.28
432.514	635.83
432.89	638.09
433.265	630.18
433.641	625.89
434.016	667.69
434.392	650.52
434.767	657.53
435.143	651.42
435.518	655.27
435.894	667.24
436.269	664.76
436.644	669.73
437.02	682.16
437.395	679.67
437.77	685.09
438.145	704.53
438.52	683.51
438.895	702.04
439.271	704.76
439.646	718.09
440.021	707.02
440.395	719.67
440.77	728.26
441.145	708.6
441.52	748.6
441.895	739.33
442.27	748.6
442.645	764.64
443.019	748.82
443.394	741.59
443.769	753.57
444.143	771.19
444.518	764.41
444.892	750.18
445.267	752.89
445.641	766.45
446.016	793.11
446.39	789.27
446.764	794.7
447.139	782.95
447.513	797.86
447.887	796.5
448.262	812.1
448.636	824.3
449.01	811.87
449.384	812.78
449.758	811.19
450.132	816.39
450.506	815.49
450.88	859.78
451.254	830.18
451.628	833.57
452.002	857.07
452.376	839.44
452.75	876.05
453.123	872.89
453.497	858.88
453.871	870.63
454.244	874.92
454.618	916.28
454.992	916.73
455.365	915.82
455.739	941.81
456.112	923.73
456.486	952.43
456.859	957.4
457.232	991.98
457.606	962.38
457.979	964.41
458.352	990.17
458.725	1015.93
459.099	1002.15
459.472	1038.76
459.845	1024.07
460.218	1043.5
460.591	1048.7
460.964	1057.97
461.337	1073.33
461.71	1080.56
462.083	1091.41
462.456	1096.61
462.829	1128.93
463.201	1127.57
463.574	1135.93
463.947	1132.77
464.32	1164.4
464.692	1185.42
465.065	1166.21
465.438	1172.31
465.81	1189.94
466.183	1242.59
466.555	1255.48
466.928	1255.25
467.3	1256.15
467.672	1292.31
468.045	1291.63
468.417	1299.99
468.789	1310.16
469.161	1305.64
469.534	1364.85
469.906	1379.54
470.278	1388.35
470.65	1408.92
471.022	1446.66
471.394	1475.13
471.766	1474.68
472.138	1485.75
472.51	1531.4
472.882	1563.94
473.253	1588.57
473.625	1593.77
473.997	1623.38
474.369	1647.33
474.74	1649.59
475.112	1715.8
475.484	1727.78
475.855	1754.67
476.227	1783.6
476.598	1846.19
476.97	1836.93
477.341	1911.28
477.713	1944.04
478.084	1937.27
478.455	1963.71
478.827	2023.14
479.198	2086.87
479.569	2080.76
479.94	2163.7
480.311	2214.32
480.682	2242.79
481.053	2289.35
481.424	2334.09
481.795	2365.5
482.166	2413.19
482.537	2433.3
482.908	2524.82
483.279	2569.11
483.65	2642.11
484.021	2697.92
484.391	2752.84
484.762	2754.19
485.133	2823.34
485.503	2890.46
485.874	2944.24
486.244	2995.54
486.615	3039.84
486.985	3119.38
487.356	3169.55
487.726	3235.08
488.097	3296.55
488.467	3317.79
488.837	3389.43
489.207	3448.86
489.578	3486.38
489.948	3574.28
490.318	3650.44
490.688	3682.76
491.058	3740.61
491.428	3806.37
491.798	3843.43
492.168	3969.98
492.538	4007.72
492.908	4063.54
493.278	4118.9
493.648	4148.73
494.017	4249.97
494.387	4254.27
494.757	4340.82
495.126	4386.01
495.496	4442.28
495.866	4452.68
496.235	4528.61
496.605	4599.12
496.974	4653.13
497.344	4693.58
497.713	4758.66
498.082	4780.35
498.452	4840.01
498.821	4891.76
499.19	4902.84
499.559	5000.46
499.928	5072.55
500.298	5066.22
500.667	5078.43
501.036	5131.98
501.405	5167.91
501.774	5206.11
502.143	5247.01
502.512	5311.64
502.88	5339.44
503.249	5362.49
503.618	5392.32
503.987	5433.22
504.356	5492.88
504.724	5508.02
505.093	5551.63
505.462	5560.9
505.83	5595.25
506.199	5700.78
506.567	5741.69
506.936	5744.17
507.304	5794.11
507.672	5806.32
508.041	5898.52
508.409	5857.16
508.777	5970.15
509.145	5967.44
509.514	5988.46
509.882	6035.69
510.25	6002.24
510.618	6108.23
510.986	6059.87
511.354	6182.13
511.722	6220.54
512.09	6266.64
512.458	6233.2
512.826	6357.71
513.193	6431.38
513.561	6427.09
513.929	6489.24
514.297	6391.16
514.664	6464.83
515.032	6507.99
515.4	6575.79
515.767	6550.7
516.135	6613.75
516.502	6500.76
516.869	6691.49
517.237	6672.96
517.604	6703.69
517.972	6725.16
518.339	6773.52
518.706	6778.49
519.073	6839.74
519.44	6849.9
519.808	6883.12
520.175	6938.26
520.542	6984.14
520.909	6963.12
521.276	6974.87
521.643	7065.04
522.009	7088.09
522.376	7152.72
522.743	7163.79
523.11	7227.07
523.477	7312.04
523.843	7310.01
524.21	7385.94
524.577	7454.18
524.943	7406.05
525.31	7498.02
525.676	7587.51
526.043	7638.36
526.409	7665.02
526.776	7714.74
527.142	7722.88
527.508	7735.31
527.874	7797.9
528.241	7837.45
528.607	7886.71
528.973	7911.12
529.339	7930.55
529.705	8044.9
530.071	8046.94
530.437	8120.15
530.803	8195.18
531.169	8182.52
531.535	8200.15
531.901	8166.25
532.267	8247.16
532.632	8338
532.998	8353.82
533.364	8394.27
533.73	8438.56
534.095	8473.82
534.461	8552.68
534.826	8528.73
535.192	8542.97
535.557	8643.98
535.923	8679.46
536.288	8650.31
536.653	8743.64
537.019	8707.26
537.384	8748.16
537.749	8801.04
538.114	8880.36
538.479	8900.7
538.845	8926.01
539.21	8932.11
539.575	8988.15
539.94	9029.28
540.305	9098.89
540.67	9017.08
541.034	9083.97
541.399	9125.33
541.764	9167.81
542.129	9226.11
542.494	9181.37
542.858	9251.88
543.223	9264.76
543.587	9398.09
543.952	9349.95
544.316	9401.48
544.681	9444.86
545.045	9480.12
545.41	9537.52
545.774	9563.05
546.138	9571.19
546.503	9666.33
546.867	9645.09
547.231	9721.92
547.595	9695.71
547.959	9770.73
548.324	9778.19
548.688	9850.05
549.052	9832.43
549.416	9927.56
549.779	9951.52
550.143	9990.84
550.507	10012.31
550.871	10060.22
551.235	10053.66
551.599	10150.83
551.962	10174.11
552.326	10219.08
552.689	10283.71
553.053	10231.96
553.417	10264.5
553.78	10420.66
554.143	10284.62
554.507	10436.25
554.87	10402.13
555.234	10499.75
555.597	10475.57
555.96	10578.17
556.323	10555.34
556.686	10512.86
557.05	10617.26
557.413	10623.59
557.776	10746.53
558.139	10740.65
558.502	10740.2
558.865	10721.22
559.228	10918.05
559.59	10912.4
559.953	10887.76
560.316	10937.93
560.679	11020.19
561.041	10996.69
561.404	11152.39
561.767	11135.89
562.129	11113.97
562.492	11251.6
562.854	11196.91
563.217	11206.85
563.579	11257.92
563.941	11316.45
564.304	11417.47
564.666	11376.57
565.028	11427.64
565.39	11490.23
565.753	11552.15
566.115	11606.39
566.477	11587.41
566.839	11685.03
567.201	11838.47
567.563	11764.13
567.925	11749.89
568.287	11819.72
568.648	11903.56
569.01	11944.91
569.372	11989.43
569.734	11943.1
570.095	12034.18
570.457	12096.55
570.819	12119.82
571.18	12213.61
571.542	12242.31
571.903	12343.32
572.265	12339.48
572.626	12380.83
572.987	12409.08
573.349	12494.95
573.71	12619.02
574.071	12598.23
574.432	12660.83
574.794	12840.71
575.155	12859.92
575.516	12930.2
575.877	12968.84
576.238	13061.04
576.599	13135.62
576.96	13232.34
577.32	13258.55
577.681	13456.06
578.042	13573.12
578.403	13586
578.763	13766.78
579.124	13765.43
579.485	13896.27
579.845	14039.55
580.206	14115.48
580.566	14292.19
580.927	14377.62
581.287	14610.15
581.648	14711.84
582.008	14862.12
582.368	15028.22
582.728	15192.06
583.089	15281.32
583.449	15448.1
583.809	15673.4
584.169	15842.21
584.529	16049.89
584.889	16260.28
585.249	16377.34
585.609	16552.7
585.969	16872.24
586.329	16991.33
586.688	17202.85
587.048	17410.3
587.408	17669.28
587.768	17822.95
588.127	18063.85
588.487	18222.26
588.846	18600.1
589.206	18802.81
589.565	18897.27
589.925	19269.92
590.284	19442.12
590.643	19752.84
591.003	19960.75
591.362	20349.21
591.721	20492.03
592.08	20628.07
592.44	20980.38
592.799	21204.1
593.158	21484.1
593.517	21754.15
593.876	22049.05
594.235	22230.52
594.593	22442.04
594.952	22792.31
595.311	22940.33
595.67	23215.58
596.029	23625.06
596.387	24005.84
596.746	24211.03
597.104	24345.94
597.463	24553.62
597.822	24916.77
598.18	25107.73
598.538	25343.43
598.897	25544.33
599.255	25626.81
599.613	26328.94
599.972	26339.34
600.33	26657.52
600.688	26747.91
601.046	27177.05
601.404	27442.81
601.762	27481.9
602.12	27846.19
602.478	28152.4
602.836	28299.51
603.194	28435.55
603.552	28721.19
603.91	28923.22
604.268	29259.03
604.625	29201.63
604.983	29636.65
605.341	29693.15
605.698	30050.42
606.056	30266.46
606.413	30385.33
606.771	30657.41
607.128	30837.3
607.485	30912.77
607.843	31103.28
608.2	31455.59
608.557	31646.09
608.914	31677.05
609.272	32027.77
609.629	32187.54
609.986	32490.59
610.343	32486.74
610.7	32696.46
611.057	32759.28
611.414	33049.22
611.771	33130.34
612.127	33312.03
612.484	33569.2
612.841	33746.15
613.198	33728.07
613.554	33923.54
613.911	34187.72
614.267	34382.51
614.624	34404.89
614.98	34601.04
615.337	34911.09
615.693	34889.62
616.05	35001.48
616.406	35267.91
616.762	35188.82
617.118	35376.16
617.475	35337.29
617.831	35560.11
618.187	35753.33
618.543	35875.13
618.899	36208.91
619.255	36218.4
619.611	36088.01
619.967	36383.59
620.323	36555.11
620.678	36502.23
621.034	36486.41
621.39	36595.56
621.746	36553.08
622.101	37138.37
622.457	36998.26
622.812	37093.4
623.168	37126.85
623.523	37134.98
623.879	37364.81
624.234	37181.54
624.589	37504.01
624.945	37496.33
625.3	37546.27
625.655	37465.37
626.01	37632.6
626.365	37735.42
626.72	37720.28
627.075	37713.27
627.43	37796.44
627.785	37822.88
628.14	37948.3
628.495	37963.89
628.85	38090.44
629.205	38029.88
629.559	38287.95
629.914	37856.32
630.269	38089.76
630.623	37996.43
630.978	38062.87
631.332	38157.78
631.687	38295.63
632.041	38158.01
632.396	38219.7
632.75	38025.13
633.104	38177.44
633.459	37977.9
633.813	38067.84
634.167	38085.02
634.521	38143.09
634.875	38267.61
635.229	38307.16
635.583	38063.1
635.937	38164.79
636.291	38081.4
636.645	38016.09
636.999	37948.07
637.352	38187.39
637.706	38059.93
638.06	38133.38
638.413	38086.15
638.767	38059.48
639.121	37931.8
639.474	37860.61
639.828	37950.78
640.181	37894.96
640.534	37962.53
640.888	37869.2
641.241	37832.59
641.594	37913.27
641.947	38041.63
642.301	37827.4
642.654	37874.17
643.007	38044.79
643.36	37881.41
643.713	37857.22
644.066	38001.85
644.419	37624.24
644.771	37553.05
645.124	37197.81
645.477	37118.04
645.83	36844.6
646.182	36818.83
646.535	36702.23
646.888	36880.3
647.24	36549.01
647.593	36839.4
647.945	36758.04
648.298	36551.04
648.65	36514.89
649.002	36696.8
649.355	36610.48
649.707	36513.98
650.059	36743.58
650.411	37086.17
650.763	37261.76
651.115	37486.16
651.467	37484.35
651.819	37483.22
652.171	37333.17
652.523	37238.71
652.875	37253.17
653.227	37139.28
653.578	37346.96
653.93	37257.47
654.282	37049.79
654.633	37183.12
654.985	37146.96
655.337	37243.91
655.688	37027.42
656.039	37327.07
656.391	36883.47
656.742	36920.3
657.094	37078.04
657.445	37262.66
657.796	37184.25
658.147	37076.23
658.498	36929.79
658.849	37148.77
659.2	36971.6
659.551	37004.14
659.902	37066.74
660.253	36953.75
660.604	37026.29
660.955	36888.89
661.306	36970.02
661.656	36948.32
662.007	36914.2
662.358	36969.56
662.708	36852.51
663.059	36811.38
663.409	36599.86
663.76	37005.27
664.11	36937.02
664.461	36852.28
664.811	36828.33
665.161	36929.11
665.511	36777.25
665.862	36690.02
666.212	36967.3
666.562	36923.92
666.912	36819.06
667.262	36801.43
667.612	36768.89
667.962	36820.87
668.312	36841.43
668.662	36952.39
669.011	36852.73
669.361	36752.62
669.711	36682.79
670.06	36671.49
670.41	36661.55
670.76	36548.78
671.109	36710.81
671.459	36658.39
671.808	36673.3
672.157	36678.95
672.507	36430.37
672.856	36458.84
673.205	36526.86
673.554	36641.21
673.904	36584.49
674.253	36546.98
674.602	36683.47
674.951	35984.05
675.3	35882.36
675.649	36455.91
675.998	36420.43
676.346	36508.79
676.695	36526.19
677.044	36264.95
677.393	36433.53
677.741	36472.18
678.09	36355.8
678.438	36206.19
678.787	36342.91
679.135	36307.21
679.484	36064.73
679.832	36264.05
680.181	35985.64
680.529	36136.14
680.877	36011.85
681.225	35977.05
681.573	36213.2
681.922	35900.21
682.27	35797.62
682.618	35848.69
682.966	35836.49
683.314	35980.66
683.661	35814.34
684.009	35528.47
684.357	35560.79
684.705	35426.78
685.053	35518.3
685.4	35512.88
685.748	35316.05
686.095	35348.59
686.443	35079.67
686.79	35112.44
687.138	35203.06
687.485	35044.19
687.832	34820.47
688.18	34996.51
688.527	34818.89
688.874	34771.43
689.221	34685.33
689.568	34645.33
689.915	34568.05
690.262	34552.91
690.609	34466.35
690.956	34331.67
691.303	34345.23
691.65	34132.13
691.997	34162.18
692.344	34009.64
692.69	33921.06
693.037	33901.4
693.383	33646.94
693.73	33728.07
694.077	33640.39
694.423	33678.35
694.769	33534.85
695.116	33429.77
695.462	33308.42
695.808	33301.19
696.155	33367.4
696.501	33038.37
696.847	33118.37
697.193	32904.36
697.539	32947.75
697.885	32731.26
698.231	32743.01
698.577	32702.78
698.923	32638.83
699.269	32473.86
699.614	32264.38
699.96	32343.25
700.306	32350.25
700.651	32144.15
700.997	32139.86
701.342	32079.52
701.688	31977.15
702.033	31870.04
702.379	31864.61
702.724	31677.27
703.069	31831.62
703.415	31462.59
703.76	31526.77
704.105	31503.49
704.45	31381.46
704.795	31195.71
705.14	31122.03
705.485	31048.82
705.83	30999.78
706.175	31005.65
706.52	30936.73
706.865	30782.61
707.209	30883.62
707.554	30755.26
707.899	30676.4
708.243	30528.83
708.588	30556.85
708.932	30202.51
709.277	30336.52
709.621	30180.36
709.966	30180.59
710.31	30201.38
710.654	30009.52
710.998	30074.38
711.342	29917.32
711.687	29933.59
712.031	29729.53
712.375	29524.34
712.719	29644.79
713.063	29580.15
713.407	29698.8
713.75	29469.65
714.094	29391.23
714.438	29352.59
714.782	29314.85
715.125	29147.4
715.469	29322.99
715.812	29211.8
716.156	29043.67
716.499	29046.16
716.843	28992.37
717.186	28852.94
717.53	29037.12
717.873	28990.34
718.216	28840.74
718.559	28788.31
718.902	28633.51
719.246	28700.18
719.589	28494.99
719.932	28436.46
720.275	28500.86
720.617	28410.24
720.96	28354.42
721.303	28319.85
721.646	28362.56
721.989	28160.53
722.331	28325.72
722.674	28220.42
723.016	28197.37
723.359	28108.55
723.701	27986.75
724.044	27989.91
724.386	27913.53
724.729	27954.43
725.071	27798.51
725.413	27904.04
725.755	27812.97
726.097	27726.42
726.439	27647.78
726.782	27563.48
727.124	27730.71
727.465	27571.62
727.807	27634.89
728.149	27391.96
728.491	27411.85
728.833	27528.46
729.175	27227
729.516	27348.35
729.858	27324.85
730.199	27350.83
730.541	27151.52
730.882	27174.57
731.224	27195.58
731.565	27066.32
731.906	26983.39
732.248	26961.69
732.589	26817.06
732.93	26683.96
733.271	26733.22
733.612	26780
733.953	26838.53
734.294	26754.01
734.635	26601.93
734.976	26712.66
735.317	26669.95
735.658	26515.15
735.999	26559.89
736.339	26424.76
736.68	26729.61
737.021	26485.77
737.361	26279.68
737.702	26445.32
738.042	26353.35
738.383	26247.59
738.723	26385.89
739.063	26222.28
739.404	26334.59
739.744	26098.89
740.084	26065.9
740.424	26166.68
740.764	26036.52
741.104	26118.1
741.444	25871.78
741.784	25912
742.124	25813.93
742.464	25850.76
742.804	25805.79
743.143	25791.33
743.483	25723.08
743.823	25542.52
744.162	25630.2
744.502	25722.63
744.841	25615.96
745.181	25723.98
745.52	25579.81
745.86	25586.59
746.199	25502.75
746.538	25522.86
746.877	25565.12
747.216	25420.72
747.556	25375.52
747.895	25324.67
748.234	25280.15
748.573	25161.97
748.911	25281.74
749.25	25142.98
749.589	25029.77
749.928	25128.97
750.267	25036.55
750.605	25088.07
750.944	24997.45
751.283	25008.75
751.621	25081.97
751.96	24848.08
752.298	24867.28
752.636	24775.08
752.975	24782.54
753.313	24679.94
753.651	24719.94
753.989	24624.8
754.327	24598.82
754.666	24362.89
755.004	24507.75
755.342	24500.97
755.679	24345.94
756.017	24326.73
756.355	24401.08
756.693	24171.71
757.031	24253.51
757.368	24073.41
757.706	24091.26
758.044	23898.5
758.381	23986.63
758.719	23922.22
759.056	23957.48
759.394	23728.33
759.731	23733.53
760.068	23721.78
760.405	23602.91
760.743	23468.45
761.08	23564.95
761.417	23390.49
761.754	23309.81
762.091	23306.42
762.428	23183.49
762.765	22974
763.102	23195.01
763.438	22902.14
763.775	22882.48
764.112	23022.81
764.449	22950.27
764.785	22830.05
765.122	22651.52
765.458	22648.59
765.795	22632.54
766.131	22614.91
766.467	22441.59
766.804	22442.49
767.14	22245.43
767.476	22344.41
767.812	22190.29
768.148	22170.41
768.485	22046.34
768.821	21943.29
769.157	21970.86
769.492	21827.14
769.828	21845.22
770.164	21610.65
770.5	21589.18
770.836	21498.78
771.171	21521.38
771.507	21327.26
771.842	21282.75
772.178	21195.74
772.513	21090.66
772.849	21021.96
773.184	21047.5
773.519	20915.07
773.855	20810.67
774.19	20820.84
774.525	20725.02
774.86	20713.49
775.195	20718.01
775.53	20597.79
775.865	20503.1
776.2	20274.41
776.535	20221.98
776.87	20226.73
777.205	20167.52
777.539	19905.83
777.874	20115.32
778.209	19913.74
778.543	19810.24
778.878	19770.02
779.212	19601.21
779.547	19614.54
779.881	19669.23
780.215	19561.43
780.55	19460.19
780.884	19325.28
781.218	19288.22
781.552	19303.59
781.886	19143.59
782.22	19150.6
782.554	19049.58
782.888	18972.75
783.222	18834
783.556	18701.12
783.889	18702.47
784.223	18471.52
784.557	18627.45
784.89	18572.31
785.224	18474.68
785.557	18378.42
785.891	18336.38
786.224	18252.99
786.558	18281.69
786.891	18100.68
787.224	18059.1
787.557	18006.67
787.891	17944.08
788.224	17971.42
788.557	17772.33
788.89	17805.77
789.223	17787.47
789.556	17592.45
789.888	17605.78
790.221	17615.72
790.554	17375.96
790.887	17427.25
791.219	17348.16
791.552	17289.86
791.884	17247.37
792.217	17217.99
792.549	17178.67
792.882	17026.81
793.214	16940.49
793.546	17036.08
793.879	16874.5
794.211	16721.51
794.543	16903.88
794.875	16684.45
795.207	16769.42
795.539	16676.54
795.871	16628.4
796.203	16463.21
796.535	16460.5
796.867	16379.15
797.198	16275.42
797.53	16364.68
797.862	16244.91
798.193	16245.36
798.525	16076.33
798.856	16159.72
799.188	16039.27
799.519	15939.84
799.85	15794.75
800.182	15944.35
800.513	15820.06
800.844	15686.96
801.175	15828.2
801.506	15695.55
801.837	15659.84
802.168	15580.3
802.499	15569.22
802.83	15488.32
803.161	15388.89
803.491	15471.82
803.822	15401.54
804.153	15358.38
804.483	15203.81
804.814	15186.41
805.145	15157.03
805.475	15093.98
805.805	15017.83
806.136	15027.09
806.466	15006.07
806.796	15003.36
807.126	14891.05
807.457	14847.43
807.787	14833.42
808.117	14704.39
808.447	14701.9
808.777	14736.93
809.107	14645.86
809.436	14578.29
809.766	14599.08
810.096	14512.3
810.426	14451.74
810.755	14478.86
811.085	14404.96
811.414	14345.98
811.744	14260.78
812.073	14185.3
812.403	14222.59
812.732	14216.49
813.061	14231.86
813.39	14123.16
813.719	14082.93
814.049	14145.08
814.378	14073.22
814.707	14024.86
815.036	13980.11
815.365	13957.06
815.693	13825.09
816.022	13762.94
816.351	13785.54
816.68	13749.84
817.008	13730.18
817.337	13601.14
817.665	13663.28
817.994	13645.21
818.322	13613.79
818.651	13506.9
818.979	13572.67
819.307	13604.08
819.636	13543.97
819.964	13416.51
820.292	13428.26
820.62	13411.09
820.948	13354.37
821.276	13464.87
821.604	13326.8
821.932	13337.64
822.259	13444.08
822.587	13277.31
822.915	13313.46
823.243	13365.21
823.57	13229.62
823.898	13358.43
824.225	13247.25
824.553	13223.97
824.88	13193.47
825.207	13285.89
825.535	13232.11
825.862	13314.82
826.189	13194.82
826.516	13201.6
826.843	13327.93
827.17	13329.06
827.497	13354.59
827.824	13323.86
828.151	13357.08
828.478	13305.78
828.805	13390.52
829.131	13208.61
829.458	13181.94
829.785	13226.01
830.111	13238.21
830.438	13281.6
830.764	13226.46
831.09	13298.77
831.417	13176.97
831.743	13233.69
832.069	13226.69
832.395	13162.73
832.722	13214.94
833.048	13146.46
833.374	13176.29
833.7	13150.53
834.026	13138.55
834.351	13163.41
834.677	13174.03
835.003	13120.02
835.329	13070.31
835.654	13084.32
835.98	12968.39
836.306	12992.79
836.631	13038.22
836.956	13083.87
837.282	12983.75
837.607	12924.55
837.932	12877.77
838.258	12908.5
838.583	12912.34
838.908	12750.31
839.233	12794.83
839.558	12837.32
839.883	12768.17
840.208	12842.29
840.533	12774.72
840.858	12762.74
841.182	12714.84
841.507	12656.98
841.832	12663.99
842.156	12612.01
842.481	12597.55
842.805	12512.81
843.13	12471.68
843.454	12511.9
843.778	12399.59
844.103	12463.09
844.427	12372.47
844.751	12457.67
845.075	12393.26
845.399	12324.79
845.723	12263.1
846.047	12284.34
846.371	12194.17
846.695	12204.79
847.019	12047.73
847.343	12036.21
847.666	11952.82
847.99	11892.03
848.313	11869.89
848.637	11838.47
848.96	11839.38
849.284	11789.66
849.607	11691.59
849.931	11699.27
850.254	11586.73
850.577	11543.79
850.9	11464.7
851.223	11421.99
851.546	11404.14
851.869	11307.41
852.192	11373.4
852.515	11243.69
852.838	11261.77
853.161	11243.91
853.483	11098.83
853.806	11081.21
854.129	11017.7
854.451	11040.75
854.774	11049.34
855.096	10979.74
855.419	10927.09
855.741	10962.34
856.063	10811.61
856.385	10851.83
856.708	10792.4
857.03	10742.23
857.352	10701.55
857.674	10744.49
857.996	10620.65
858.318	10621.78
858.64	10603.48
858.961	10552.86
859.283	10541.78
859.605	10536.59
859.926	10454.78
860.248	10450.49
860.57	10428.79
860.891	10480.32
861.212	10346.99
861.534	10294.56
861.855	10328.01
862.176	10334.56
862.498	10371.39
862.819	10370.49
863.14	10254.56
863.461	10286.88
863.782	10209.82
864.103	10235.35
864.424	10240.32
864.745	10163.26
865.065	10174.56
865.386	10181.12
865.707	10115.36
866.027	10126.65
866.348	9996.49
866.668	10078.29
866.989	10019.09
867.309	9908.81
867.63	9975.92
867.95	10033.78
868.27	9950.84
868.59	9932.31
868.91	9931.86
869.23	9914
869.55	9873.55
869.87	9895.7
870.19	9862.71
870.51	9833.78
870.83	9894.12
871.15	9761.69
871.469	9756.49
871.789	9869.94
872.109	9798.3
872.428	9689.15
872.748	9728.02
873.067	9720.79
873.386	9694.8
873.706	9735.7
874.025	9671.98
874.344	9617.74
874.663	9632.88
874.982	9598.08
875.301	9582.04
875.62	9576.39
875.939	9549.27
876.258	9603.05
876.577	9492.55
876.896	9534.13
877.214	9448.48
877.533	9512.89
877.852	9424.07
878.17	9446.22
878.489	9451.87
878.807	9426.79
879.125	9415.71
879.444	9393.11
879.762	9386.34
880.08	9308.37
880.398	9355.83
880.716	9328.48
881.034	9249.84
881.352	9283.51
881.67	9266.34
881.988	9264.08
882.306	9222.72
882.624	9199.67
882.941	9186.11
883.259	9141.6
883.577	9139.79
883.894	9105.44
884.212	9022.5
884.529	9053.69
884.846	9077.42
885.164	9025.67
885.481	8965.1
885.798	9036.06
886.115	8941.38
886.432	8973.69
886.75	8970.3
887.067	8901.6
887.383	8888.95
887.7	8953.8
888.017	8885.33
888.334	8855.28
888.651	8772.34
888.967	8832
889.284	8789.06
889.6	8827.93
889.917	8752.91
890.233	8672
890.55	8692.79
890.866	8688.27
891.182	8594.72
891.498	8629.07
891.815	8566.92
892.131	8528.05
892.447	8536.19
892.763	8493.03
893.079	8508.39
893.395	8454.38
893.71	8404.44
894.026	8452.57
894.342	8384.1
894.657	8313.14
894.973	8345.01
895.289	8271.56
895.604	8261.62
895.92	8202.64
896.235	8220.94
896.55	8197.67
896.865	8102.75
897.181	8138.01
897.496	8124.9
897.811	8090.1
898.126	8062.98
898.441	8003.77
898.756	7999.03
899.071	7935.75
899.386	7931.23
899.7	7891.46
900.015	7850.78
900.33	7838.35
900.644	7855.08
900.959	7797.9
901.273	7755.42
901.588	7736.66
901.902	7691.01
902.216	7652.6
902.531	7623.67
902.845	7604.69
903.159	7578.93
903.473	7575.08
903.787	7527.85
904.101	7488.31
904.415	7496.22
904.729	7437.01
905.042	7432.04
905.356	7349.33
905.67	7369.44
905.984	7391.13
906.297	7400.17
906.611	7264.81
906.924	7273.4
907.237	7272.72
907.551	7199.5
907.864	7218.71
908.177	7186.84
908.491	7154.98
908.804	7122.21
909.117	7059.39
909.43	6982.33
909.743	7032.5
910.056	6974.65
910.368	6990.24
910.681	6913.63
910.994	6869.57
911.307	6838.38
911.619	6878.38
911.932	6845.16
912.244	6740.53
912.557	6780.53
912.869	6763.81
913.181	6671.15
913.494	6722.22
913.806	6638.61
914.118	6611.72
914.43	6542.79
914.742	6627.99
915.054	6529.01
915.366	6517.94
915.678	6504.38
915.99	6466.19
916.302	6404.27
916.613	6378.73
916.925	6324.04
917.236	6384.61
917.548	6349.13
917.859	6356.13
918.171	6276.81
918.482	6265.97
918.794	6260.54
919.105	6210.6
919.416	6162.69
919.727	6175.57
920.038	6170.37
920.349	6095.57
920.66	6063.94
920.971	6067.33
921.282	6104.61
921.593	6052.41
921.903	5995.69
922.214	6006.09
922.525	5971.06
922.835	5921.57
923.146	5869.37
923.456	5837.5
923.767	5852.64
924.077	5778.97
924.387	5774
924.697	5728.58
925.008	5701.23
925.318	5729.48
925.628	5703.95
925.938	5696.26
926.248	5629.82
926.558	5592.54
926.867	5640.9
927.177	5562.48
927.487	5538.3
927.796	5518.41
928.106	5505.76
928.416	5488.36
928.725	5450.39
929.034	5421.69
929.344	5477.74
929.653	5398.64
929.962	5402.03
930.271	5379.43
930.581	5345.09
930.89	5305.54
931.199	5275.93
931.508	5280
931.817	5256.27
932.125	5265.54
932.434	5181.93
932.743	5114.81
933.051	5138.99
933.36	5087.47
933.669	5076.17
933.977	5063.74
934.286	4990.52
934.594	5021.7
934.902	4981.71
935.21	4950.97
935.519	4928.83
935.827	4943.97
936.135	4926.11
936.443	4871.88
936.751	4870.97
937.059	4872.78
937.367	4856.06
937.674	4837.08
937.982	4814.25
938.29	4793.46
938.597	4782.16
938.905	4691.32
939.213	4672.33
939.52	4666.91
939.827	4731.99
940.135	4689.96
940.442	4624.65
940.749	4616.52
941.056	4607.48
941.363	4582.17
941.67	4574.94
941.977	4520.25
942.284	4491.77
942.591	4452.45
942.898	4467.59
943.205	4454.04
943.511	4479.12
943.818	4469.85
944.125	4349.63
944.431	4419.23
944.738	4332.68
945.044	4345.34
945.35	4343.53
945.657	4333.81
945.963	4264.21
946.269	4313.02
946.575	4253.36
946.881	4232.57
947.187	4183.53
947.493	4181.73
947.799	4190.31
948.105	4142.63
948.41	4198.67
948.716	4104.67
949.022	4164.33
949.327	4120.03
949.633	4052.01
949.938	4094.04
950.244	4055.85
950.549	3990.77
950.854	4049.07
951.16	3997.32
951.465	3959.81
951.77	3958
952.075	3899.25
952.38	3960.26
952.685	3944.44
952.99	3920.04
953.294	3861.51
953.599	3899.47
953.904	3854.5
954.209	3817.44
954.513	3797.1
954.818	3805.24
955.122	3772.25
955.426	3754.62
955.731	3769.76
956.035	3698.35
956.339	3714.39
956.643	3694.51
956.948	3665.36
957.252	3692.7
957.556	3674.17
957.86	3625.81
958.163	3616.32
958.467	3580.61
958.771	3550.56
959.075	3588.52
959.378	3580.39
959.682	3533.38
959.985	3544.45
960.289	3514.17
960.592	3519.37
960.896	3499.71
961.199	3484.8
961.502	3461.97
961.805	3466.94
962.108	3410.9
962.411	3400.73
962.714	3371.35
963.017	3398.24
963.32	3384.91
963.623	3359.83
963.926	3333.16
964.228	3328.19
964.531	3298.59
964.833	3316.89
965.136	3245.48
965.438	3251.13
965.741	3217.23
966.043	3204.58
966.345	3227.85
966.648	3211.36
966.95	3192.37
967.252	3185.37
967.554	3161.41
967.856	3138.36
968.158	3175.42
968.46	3102.88
968.761	3130
969.063	3127.29
969.365	3049.1
969.666	3073.73
969.968	3056.56
970.269	3061.3
970.571	3055.2
970.872	3039.61
971.174	3002.1
971.475	2995.99
971.776	2957.58
972.077	2981.08
972.378	2983.11
972.679	2934.3
972.98	2944.24
973.281	2921.42
973.582	2885.72
973.883	2859.05
974.183	2878.26
974.484	2926.17
974.785	2838.26
975.085	2893.62
975.386	2812.27
975.686	2801.42
975.986	2802.1
976.287	2821.31
976.587	2789.67
976.887	2754.19
977.187	2763.68
977.487	2757.13
977.787	2709.9
978.087	2720.75
978.387	2687.08
978.687	2706.96
978.987	2661.77
979.286	2683.91
979.586	2620.64
979.885	2643.24
980.185	2640.98
980.484	2617.02
980.784	2622.9
981.083	2578.6
981.382	2594.65
981.682	2547.64
981.981	2558.49
982.28	2530.24
982.579	2534.31
982.878	2515.1
983.177	2530.02
983.475	2534.54
983.774	2509
984.073	2476.69
984.372	2469
984.67	2456.35
984.969	2474.88
985.267	2445.73
985.566	2411.83
985.864	2398.5
986.162	2410.25
986.461	2403.02
986.759	2362.79
987.057	2373.19
987.355	2361.89
987.653	2364.6
987.951	2391.94
988.249	2323.24
988.547	2323.24
988.844	2326.86
989.142	2336.35
989.44	2266.52
989.737	2251.38
990.035	2258.16
990.332	2246.86
990.63	2265.62
990.927	2262.91
991.224	2249.12
991.521	2218.61
991.819	2216.58
992.116	2200.31
992.413	2204.6
992.71	2175.45
993.006	2186.75
993.303	2185.17
993.6	2172.06
993.897	2161.21
994.193	2149.01
994.49	2137.49
994.787	2150.59
995.083	2115.34
995.379	2085.74
995.676	2101.1
995.972	2086.41
996.268	2064.04
996.565	2064.49
996.861	2066.53
997.157	2028.56
997.453	2064.27
997.749	2021.11
998.044	1990.37
998.34	2008.68
998.636	1979.52
998.932	1980.88
999.227	1955.12
999.523	1983.14
999.818	1964.16
1000.114	1915.12
1000.409	1921.45
1000.704	1903.14
1001	1909.7
1001.295	1916.48
1001.59	1904.72
1001.885	1887.55
1002.18	1857.72
1002.475	1864.72
1002.77	1810.94
1003.065	1829.47
1003.359	1815.01
1003.654	1845.52
1003.949	1823.37
1004.243	1795.8
1004.538	1779.08
1004.832	1785.63
1005.127	1751.28
1005.421	1769.36
1005.715	1743.82
1006.009	1763.94
1006.304	1740.43
1006.598	1723.49
1006.892	1735.24
1007.186	1699.76
1007.48	1707.44
1007.773	1683.03
1008.067	1663.37
1008.361	1679.87
1008.655	1658.18
1008.948	1660.21
1009.242	1663.37
1009.535	1627.22
1009.829	1632.41
1010.122	1629.48
1010.415	1576.6
1010.708	1582.92
1011.001	1564.17
1011.295	1585.18
1011.588	1565.75
1011.881	1584.73
1012.173	1522.81
1012.466	1532.08
1012.759	1551.06
1013.052	1526.65
1013.344	1530.04
1013.637	1499.54
1013.93	1475.36
1014.222	1521.91
1014.514	1480.33
1014.807	1462.48
1015.099	1439.43
1015.391	1423.15
1015.683	1432.87
1015.976	1456.83
1016.268	1414.34
1016.56	1434.91
1016.851	1415.47
1017.143	1420.22
1017.435	1394
1017.727	1400.56
1018.018	1416.38
1018.31	1355.59
1018.602	1360.33
1018.893	1364.63
1019.185	1364.63
1019.476	1310.39
1019.767	1311.29
1020.058	1307.9
1020.35	1305.42
1020.641	1318.75
1020.932	1307.23
1021.223	1287.79
1021.514	1284.63
1021.804	1273.33
1022.095	1244.85
1022.386	1274.23
1022.677	1268.81
1022.967	1262.93
1023.258	1252.54
1023.548	1229.26
1023.839	1211.86
1024.129	1226.1
1024.419	1205.99
1024.709	1208.47
1025	1190.39
1025.29	1185.19
1025.58	1192.2
1025.87	1170.28
1026.16	1165.99
1026.449	1150.39
1026.739	1151.52
1027.029	1131.41
1027.319	1114.69
1027.608	1132.09
1027.898	1102.94
1028.187	1106.33
1028.477	1125.31
1028.766	1097.29
1029.055	1093.22
1029.344	1112.2
1029.634	1097.74
1029.923	1068.14
1030.212	1061.58
1030.501	1045.54
1030.79	1048.7
1031.078	1033.79
1031.367	1048.02
1031.656	1022.26
1031.945	1022.71
1032.233	1016.16
1032.522	994.92
1032.81	990.85
1033.099	1010.74
1033.387	1005.76
1033.675	988.36
1033.963	981.58
1034.251	940
1034.54	956.05
1034.828	957.18
1035.116	972.32
1035.403	926.44
1035.691	958.99
1035.979	943.62
1036.267	921.7
1036.554	936.39
1036.842	915.82
1037.129	910.17
1037.417	916.28
1037.704	916.28
1037.992	888.25
1038.279	898.65
1038.566	884.64
1038.853	884.64
1039.14	884.64
