Data from hue_300_FLMS001491_00001.txt Node
Date: Tue Feb 07 15:49:37 GMT 2017
User: dcchb
Spectrometer: FLMS00149
Trigger mode: 0
Integration Time (sec): 2.000000E-2
Scans to average: 10
Electric dark correction enabled: true
Nonlinearity correction enabled: false
Boxcar width: 0
XAxis mode: Wavelengths
Number of Pixels in Spectrum: 2048
>>>>>Begin Spectral Data<<<<<
341.393	-21.55
341.776	-21.55
342.16	-21.55
342.543	-63.36
342.927	-75.79
343.31	-79.86
343.693	-62.46
344.077	-83.25
344.46	-62
344.843	-43.47
345.226	-35.34
345.61	-27.43
345.993	-4.6
346.376	15.96
346.759	10.54
347.142	30.87
347.525	46.24
347.908	40.37
348.291	64.77
348.674	82.62
349.057	107.03
349.44	112.91
349.823	148.39
350.206	155.39
350.588	187.25
350.971	192
351.354	212.79
351.737	227.93
352.119	228.38
352.502	253.02
352.884	272.45
353.267	274.48
353.65	300.25
354.032	286.91
354.414	275.39
354.797	319
355.179	297.08
355.562	288.72
355.944	358.1
356.326	321.04
356.709	321.94
357.091	342.96
357.473	313.58
357.855	327.14
358.238	342.51
358.62	335.5
359.002	302.28
359.384	321.26
359.766	324.2
360.148	326.01
360.53	333.92
360.912	344.54
361.294	315.84
361.676	331.43
362.057	312.22
362.439	307.03
362.821	315.16
363.203	323.97
363.584	324.88
363.966	330.75
364.348	327.14
364.729	304.77
365.111	312.22
365.493	304.09
365.874	307.7
366.256	323.52
366.637	327.36
367.019	330.3
367.4	302.51
367.781	312.9
368.163	296.18
368.544	296.4
368.925	318.32
369.306	311.55
369.688	323.97
370.069	305.9
370.45	318.1
370.831	304.99
371.212	312.45
371.593	298.44
371.974	314.03
372.355	307.25
372.736	295.73
373.117	302.28
373.498	319.23
373.879	325.1
374.26	302.28
374.641	311.55
375.021	305.44
375.402	328.72
375.783	322.17
376.163	322.84
376.544	322.17
376.925	323.52
377.305	328.27
377.686	316.07
378.066	308.38
378.447	310.87
378.827	331.66
379.208	327.82
379.588	309.06
379.968	326.69
380.349	345.89
380.729	328.95
381.109	317.42
381.489	326.01
381.87	338.89
382.25	342.28
382.63	337.31
383.01	331.88
383.39	347.93
383.77	344.76
384.15	352
384.53	321.26
384.91	309.51
385.29	335.05
385.67	345.89
386.049	345.22
386.429	356.06
386.809	350.64
387.189	338.89
387.568	368.49
387.948	359
388.328	350.87
388.707	355.39
389.087	329.62
389.466	363.75
389.846	367.59
390.225	369.4
390.605	347.7
390.984	351.77
391.363	379.57
391.743	368.72
392.122	363.75
392.501	381.37
392.881	366.23
393.26	355.39
393.639	367.82
394.018	379.11
394.397	367.14
394.776	368.27
395.155	365.1
395.534	368.04
395.913	369.62
396.292	396.29
396.671	390.87
397.05	377.08
397.429	381.15
397.808	393.13
398.186	380.24
398.565	402.84
398.944	407.59
399.323	393.8
399.701	408.04
400.08	405.33
400.458	389.06
400.837	396.97
401.215	397.19
401.594	421.6
401.972	413.24
402.351	413.92
402.729	412.33
403.107	411.43
403.486	420.02
403.864	420.47
404.242	421.37
404.62	463.41
404.999	424.76
405.377	436.06
405.755	473.12
406.133	446.23
406.511	453.01
406.889	445.78
407.267	434.03
407.645	476.06
408.023	452.78
408.401	480.13
408.779	468.15
409.156	484.87
409.534	475.61
409.912	502.73
410.29	505.44
410.667	503.18
411.045	503.86
411.422	538.88
411.8	543.18
412.178	541.14
412.555	557.87
412.933	555.61
413.31	549.05
413.687	561.26
414.065	550.41
414.442	582.95
414.819	587.02
415.197	583.85
415.574	636.96
415.951	622.05
416.328	643.06
416.705	635.15
417.082	645.77
417.46	654.14
417.837	662.27
418.214	643.97
418.591	650.29
418.967	685.77
419.344	690.07
419.721	694.81
420.098	700.91
420.475	708.6
420.852	716.51
421.228	733
421.605	734.36
421.982	744.3
422.358	775.94
422.735	745.88
423.111	762.16
423.488	787.92
423.864	776.39
424.241	798.54
424.617	808.71
424.994	806
425.37	820.23
425.746	811.65
426.123	849.38
426.499	851.64
426.875	851.87
427.251	859.78
427.627	872.89
428.003	868.59
428.379	914.69
428.756	924.86
429.132	910.4
429.507	950.62
429.883	947.91
430.259	970.74
430.635	939.78
431.011	973.45
431.387	967.12
431.763	990.17
432.138	1006.44
432.514	991.53
432.89	993.56
433.265	1052.54
433.641	1061.81
434.016	1061.58
434.392	1061.36
434.767	1074.24
435.143	1077.18
435.518	1088.02
435.894	1124.63
436.269	1136.83
436.644	1156.95
437.02	1167.57
437.395	1139.32
437.77	1183.61
438.145	1190.17
438.52	1195.36
438.895	1187
439.271	1209.83
439.646	1228.58
440.021	1245.08
440.395	1226.78
440.77	1212.76
441.145	1250.96
441.52	1277.85
441.895	1268.58
442.27	1256.38
442.645	1258.64
443.019	1287.57
443.394	1305.64
443.769	1285.98
444.143	1305.19
444.518	1298.19
444.892	1305.19
445.267	1321.24
445.641	1303.38
446.016	1314.91
446.39	1341.12
446.764	1337.51
447.139	1329.15
447.513	1335.02
447.887	1386.09
448.262	1355.81
448.636	1359.43
449.01	1373.66
449.384	1393.1
449.758	1397.17
450.132	1377.51
450.506	1407.11
450.88	1387.45
451.254	1407.11
451.628	1405.3
452.002	1408.69
452.376	1426.54
452.75	1441.69
453.123	1434.91
453.497	1437.62
453.871	1442.59
454.244	1476.94
454.618	1477.62
454.992	1481.01
455.365	1487.79
455.739	1526.2
456.112	1529.37
456.486	1544.51
456.859	1556.71
457.232	1562.81
457.606	1558.74
457.979	1546.99
458.352	1582.7
458.725	1629.02
459.099	1603.94
459.472	1612.53
459.845	1664.28
460.218	1631.28
460.591	1624.51
460.964	1670.38
461.337	1690.49
461.71	1702.02
462.083	1710.38
462.456	1731.17
462.829	1739.53
463.201	1730.27
463.574	1734.33
463.947	1756.71
464.32	1784.95
464.692	1801
465.065	1802.35
465.438	1834.67
465.81	1836.25
466.183	1829.47
466.555	1858.62
466.928	1885.97
467.3	1869.02
467.672	1884.84
468.045	1936.36
468.417	1923.48
468.789	1916.7
469.161	1955.12
469.534	1953.54
469.906	2021.56
470.278	2022.01
470.65	2036.25
471.022	2035.34
471.394	2070.14
471.766	2083.7
472.138	2098.17
472.51	2109.92
472.882	2145.85
473.253	2167.32
473.625	2190.82
473.997	2226.07
474.369	2200.76
474.74	2227.88
475.112	2256.35
475.484	2285.96
475.855	2297.93
476.227	2329.35
476.598	2391.26
476.97	2360.53
477.341	2407.08
477.713	2415.22
478.084	2441.66
478.455	2486.86
478.827	2509
479.198	2534.99
479.569	2540.87
479.94	2605.72
480.311	2625.61
480.682	2617.02
481.053	2707.64
481.424	2731.37
481.795	2731.37
482.166	2747.87
482.537	2777.02
482.908	2817.69
483.279	2801.88
483.65	2863.12
484.021	2903.12
484.391	2940.85
484.762	2984.92
485.133	2959.84
485.503	2980.4
485.874	3033.73
486.244	2981.08
486.615	3113.51
486.985	3130.23
487.356	3169.1
487.726	3159.61
488.097	3197.8
488.467	3202.54
488.837	3266.72
489.207	3285.25
489.578	3318.02
489.948	3326.16
490.318	3370.45
490.688	3361.86
491.058	3380.84
491.428	3457.9
491.798	3448.86
492.168	3525.47
492.538	3537
492.908	3536.09
493.278	3591.23
493.648	3550.1
494.017	3568.41
494.387	3619.03
494.757	3646.37
495.126	3678.01
495.496	3680.5
495.866	3668.29
496.235	3723.66
496.605	3745.58
496.974	3727.05
497.344	3766.6
497.713	3812.7
498.082	3816.76
498.452	3846.14
498.821	3814.28
499.19	3829.19
499.559	3837.1
499.928	3909.42
500.298	3856.31
500.667	3958.91
501.036	3896.08
501.405	3960.94
501.774	4009.98
502.143	3958.68
502.512	4011.56
502.88	4016.31
503.249	4006.14
503.618	4014.95
503.987	4028.28
504.356	4055.63
504.724	4083.2
505.093	4071.9
505.462	4078.68
505.83	4103.31
506.199	4113.71
506.567	4165
506.936	4120.94
507.304	4160.26
507.672	4208.84
508.041	4224.44
508.409	4203.42
508.777	4265.11
509.145	4267.37
509.514	4279.58
509.882	4257.2
510.25	4250.2
510.618	4297.88
510.986	4295.17
511.354	4385.56
511.722	4395.28
512.09	4371.78
512.458	4368.16
512.826	4391.89
513.193	4367.26
513.561	4428.95
513.929	4430.08
514.297	4461.72
514.664	4437.54
515.032	4470.53
515.4	4467.82
515.767	4476.41
516.135	4497.2
516.502	4474.83
516.869	4564.32
517.237	4550.98
517.604	4531.77
517.972	4529.51
518.339	4614.71
518.706	4553.47
519.073	4560.02
519.44	4567.93
519.808	4612.68
520.175	4624.43
520.542	4670.53
520.909	4670.53
521.276	4661.26
521.643	4683.18
522.009	4702.62
522.376	4739.45
522.743	4765.67
523.11	4787.13
523.477	4834.59
523.843	4806.34
524.21	4847.02
524.577	4873.91
524.943	4907.81
525.31	4865.55
525.676	4912.1
526.043	4921.59
526.409	4961.37
526.776	5002.95
527.142	5030.74
527.508	5029.39
527.874	5079.78
528.241	5121.59
528.607	5120.91
528.973	5089.27
529.339	5179.89
529.705	5173.34
530.071	5218.54
530.437	5182.83
530.803	5226.9
531.169	5287.23
531.535	5299.66
531.901	5335.59
532.267	5321.36
532.632	5321.58
532.998	5349.38
533.364	5370.4
533.73	5366.1
534.095	5466.89
534.461	5487.91
534.826	5500.11
535.192	5562.71
535.557	5532.88
535.923	5528.58
536.288	5552.09
536.653	5590.28
537.019	5538.53
537.384	5599.54
537.749	5604.97
538.114	5666.43
538.479	5628.24
538.845	5712.76
539.21	5659.2
539.575	5712.76
539.94	5744.4
540.305	5746.66
540.67	5724.96
541.034	5800.44
541.399	5818.07
541.764	5842.93
542.129	5876.14
542.494	5937.61
542.858	5934.67
543.223	5941.23
543.587	6026.42
543.952	5977.39
544.316	6004.28
544.681	6030.72
545.045	6062.81
545.41	6102.58
545.774	6167.89
546.138	6122.47
546.503	6121.79
546.867	6149.81
547.231	6152.75
547.595	6255.8
547.959	6166.76
548.324	6215.8
548.688	6208.79
549.052	6299.64
549.416	6306.87
549.779	6313.65
550.143	6302.12
550.507	6378.96
550.871	6336.7
551.235	6389.58
551.599	6468.45
551.962	6491.95
552.326	6439.07
552.689	6495.11
553.053	6480.87
553.417	6463.93
553.78	6550.25
554.143	6554.09
554.507	6574.21
554.87	6577.6
555.234	6641.32
555.597	6643.81
555.96	6655.11
556.323	6637.03
556.686	6634.54
557.05	6727.65
557.413	6756.8
557.776	6747.99
558.139	6761.77
558.502	6766.29
558.865	6793.63
559.228	6850.81
559.59	6864.59
559.953	6868.44
560.316	6985.49
560.679	6860.53
561.041	6929.9
561.404	7016.91
561.767	7010.13
562.129	6959.96
562.492	7047.64
562.854	7050.58
563.217	6977.58
563.579	7058.03
563.941	7078.6
564.304	7113.4
564.666	7142.33
565.028	7142.33
565.39	7179.16
565.753	7236.56
566.115	7229.1
566.477	7272.27
566.839	7315.2
567.201	7345.03
567.563	7321.76
567.925	7290.12
568.287	7430.91
568.648	7434.52
569.01	7520.4
569.372	7521.07
569.734	7491.92
570.095	7575.76
570.457	7631.58
570.819	7629.09
571.18	7674.97
571.542	7702.09
571.903	7716.1
572.265	7810.33
572.626	7804.46
572.987	7808.3
573.349	7873.61
573.71	7924.68
574.071	8061.85
574.432	7981.4
574.794	8070.89
575.155	8144.33
575.516	8138.01
575.877	8257.78
576.238	8375.06
576.599	8363.09
576.96	8439.47
577.32	8517.21
577.681	8616.41
578.042	8656.41
578.403	8723.75
578.763	8772.11
579.124	8878.78
579.485	9048.49
579.845	9144.08
580.206	9257.07
580.566	9298.2
580.927	9463.4
581.287	9559.66
581.648	9677.63
582.008	9898.19
582.368	9936.83
582.728	10120.33
583.089	10279.42
583.449	10432.64
583.809	10623.82
584.169	10772.51
584.529	10978.84
584.889	11212.05
585.249	11316.68
585.609	11516.9
585.969	11758.48
586.329	11871.92
586.688	12190.33
587.048	12349.2
587.408	12549.64
587.768	12788.51
588.127	13061.49
588.487	13237.99
588.846	13604.08
589.206	13714.36
589.565	13977.85
589.925	14377.16
590.284	14571.74
590.643	14832.97
591.003	15169.23
591.362	15533.29
591.721	15721.76
592.08	15899.38
592.44	16320.39
592.799	16601.96
593.158	16886.93
593.517	17081.95
593.876	17516.52
594.235	17672.67
594.593	18075.15
594.952	18317.4
595.311	18516.04
595.67	18991.05
596.029	19364.6
596.387	19586.07
596.746	19936.11
597.104	19989.9
597.463	20290.23
597.822	20842.76
598.18	21087.5
598.538	21296.76
598.897	21665.79
599.255	21772
599.613	22461.25
599.972	22612.65
600.33	22994.11
600.688	23034.79
601.046	23483.37
601.404	23897.37
601.762	24115.44
602.12	24444.02
602.478	24768.98
602.836	24940.05
603.194	25107.73
603.552	25394.05
603.91	25599.47
604.268	26040.36
604.625	26134.6
604.983	26481.03
605.341	26626.33
605.698	27168.24
606.056	27305.41
606.413	27394.22
606.771	27785.63
607.128	28102.23
607.485	28142.45
607.843	28310.81
608.2	28830.12
608.557	29067.4
608.914	29191.01
609.272	29529.08
609.629	29696.08
609.986	30022.63
610.343	29934.04
610.7	30454.71
611.057	30512.56
611.414	30657.87
611.771	30921.81
612.127	31336.49
612.484	31365.42
612.841	31612.64
613.198	31784.84
613.554	31837.95
613.911	32353.19
614.267	32374.88
614.624	32449.91
614.98	32760.86
615.337	33001.08
615.693	33112.04
616.05	33140.29
616.406	33250.57
616.762	33477
617.118	33598.58
617.475	33665.7
617.831	33943.66
618.187	34119.02
618.543	34228.17
618.899	34495.05
619.255	34586.12
619.611	34720.36
619.967	34825.44
620.323	35102.72
620.678	34960.8
621.034	35111.53
621.39	35161.02
621.746	35140.69
622.101	35731.41
622.457	35468.14
622.812	35690.95
623.168	35774.79
623.523	35890.27
623.879	36084.84
624.234	35859.54
624.589	36196.03
624.945	36193.09
625.3	36303.59
625.655	36408.9
626.01	36580.65
626.365	36696.35
626.72	36617.03
627.075	36706.75
627.43	36734.09
627.785	36693.41
628.14	36791.94
628.495	36940.64
628.85	36952.39
629.205	36795.56
629.559	37092.05
629.914	37098.6
630.269	37042.56
630.623	37066.51
630.978	37013.86
631.332	37221.31
631.687	37302.44
632.041	37091.82
632.396	37267.18
632.75	37255.88
633.104	37283.45
633.459	37200.07
633.813	37299.27
634.167	37342.44
634.521	37411.81
634.875	37484.35
635.229	37506.73
635.583	37089.34
635.937	37321.42
636.291	37385.37
636.645	37475.31
636.999	37367.75
637.352	37475.77
637.706	37336.33
638.06	37371.14
638.413	37338.59
638.767	37297.92
639.121	37361.19
639.474	37147.64
639.828	37151.03
640.181	37292.95
640.534	37344.7
640.888	37225.83
641.241	37160.52
641.594	37256.11
641.947	37284.81
642.301	37160.97
642.654	37400.51
643.007	37362.1
643.36	37375.66
643.713	37230.57
644.066	37354.41
644.419	37134.08
644.771	36939.96
645.124	36584.04
645.477	36543.59
645.83	36453.19
646.182	36275.12
646.535	36198.51
646.888	36233.31
647.24	36112.86
647.593	36332.75
647.945	36153.77
648.298	36143.82
648.65	36028.8
649.002	36024.96
649.355	36250.04
649.707	36142.69
650.059	36314.21
650.411	36776.35
650.763	36666.75
651.115	37109.22
651.467	36934.31
651.819	36877.82
652.171	36848.21
652.523	36784.26
652.875	36750.14
653.227	36765.95
653.578	36942.9
653.93	36867.19
654.282	36798.95
654.633	36701.32
654.985	36800.98
655.337	36720.53
655.688	36886.4
656.039	36884.37
656.391	36558.05
656.742	36734.09
657.094	36796.91
657.445	36904.93
657.796	36753.98
658.147	36778.61
658.498	36676.01
658.849	36758.04
659.2	36638.05
659.551	36697.03
659.902	36732.06
660.253	36721.44
660.604	36790.36
660.955	36529.8
661.306	36725.96
661.656	36752.17
662.007	36715.11
662.358	36643.47
662.708	36698.61
663.059	36678.72
663.409	36349.69
663.76	36600.53
664.11	36734.32
664.461	36712.4
664.811	36713.53
665.161	36623.59
665.511	36538.84
665.862	36534.1
666.212	36677.37
666.562	36645.51
666.912	36583.13
667.262	36421.1
667.612	36569.8
667.962	36560.76
668.312	36539.97
668.662	36608.22
669.011	36598.05
669.361	36606.86
669.711	36557.82
670.06	36489.8
670.41	36419.3
670.76	36478.96
671.109	36673.08
671.459	36458.84
671.808	36334.55
672.157	36627.65
672.507	36319.64
672.856	36373.42
673.205	36292.97
673.554	36392.4
673.904	36371.16
674.253	36487.32
674.602	36337.04
674.951	35899.76
675.3	35768.47
675.649	36262.92
675.998	36167.78
676.346	36130.72
676.695	36283.26
677.044	35980.21
677.393	36192.41
677.741	36205.06
678.09	36054.33
678.438	36046.88
678.787	36168.46
679.135	36140.43
679.484	35907.22
679.832	35963.26
680.181	35728.92
680.529	35785.87
680.877	35742.25
681.225	35720.33
681.573	35946.31
681.922	35597.85
682.27	35539.77
682.618	35582.93
682.966	35439.44
683.314	35538.19
683.661	35491.19
684.009	35263.17
684.357	35348.82
684.705	35154.92
685.053	35275.37
685.4	35134.58
685.748	35099.78
686.095	35118.77
686.443	34989.05
686.79	34891.65
687.138	34859.34
687.485	34937.08
687.832	34718.55
688.18	34872.22
688.527	34653.24
688.874	34720.58
689.221	34476.07
689.568	34370.08
689.915	34395.85
690.262	34434.04
690.609	34291.89
690.956	34126.93
691.303	34113.59
691.65	33819.36
691.997	33945.92
692.344	33879.02
692.69	33827.5
693.037	33886.71
693.383	33609.65
693.73	33635.64
694.077	33409.43
694.423	33404.69
694.769	33306.38
695.116	33138.25
695.462	33174.41
695.808	33071.59
696.155	33124.24
696.501	32994.3
696.847	32822.56
697.193	32800.41
697.539	32711.82
697.885	32568.78
698.231	32568.32
698.577	32562.9
698.923	32432.28
699.269	32273.87
699.614	32223.7
699.96	32197.71
700.306	32225.73
700.651	31903.48
700.997	31779.19
701.342	31776.71
701.688	31743.49
702.033	31618.97
702.379	31620.33
702.724	31537.84
703.069	31651.96
703.415	31210.85
703.76	31372.42
704.105	31350.5
704.45	31303.72
704.795	31008.37
705.14	30993.68
705.485	30991.64
705.83	30848.37
706.175	30887.24
706.52	30852.66
706.865	30641.37
707.209	30742.61
707.554	30511.88
707.899	30649.05
708.243	30479.57
708.588	30353.69
708.932	30147.82
709.277	30160.25
709.621	30176.75
709.966	29989.86
710.31	29935.63
710.654	29740.83
710.998	29872.35
711.342	29922.52
711.687	29709.19
712.031	29722.52
712.375	29523.66
712.719	29464
713.063	29495.64
713.407	29619.25
713.75	29319.37
714.094	29296.77
714.438	29203.89
714.782	29249.54
715.125	29115.76
715.469	29172.71
715.812	29067.85
716.156	28892.49
716.499	28814.75
716.843	29008.42
717.186	28658.14
717.53	28786.95
717.873	28759.61
718.216	28751.7
718.559	28542.67
718.902	28536.79
719.246	28562.55
719.589	28406.4
719.932	28248.66
720.275	28410.02
720.617	28375.44
720.96	28233.75
721.303	28286.4
721.646	28251.15
721.989	28177.48
722.331	28212.05
722.674	28011.83
723.016	28088.89
723.359	27971.38
723.701	28045.51
724.044	27856.58
724.386	27778.17
724.729	27825.62
725.071	27698.62
725.413	27690.49
725.755	27740.88
726.097	27633.09
726.439	27463.83
726.782	27519.19
727.124	27605.97
727.465	27395.81
727.807	27375.92
728.149	27354.22
728.491	27360.78
728.833	27245.75
729.175	27172.31
729.516	27211.4
729.858	27053.67
730.199	27085.76
730.541	27089.15
730.882	27079.88
731.224	27160.33
731.565	26957.62
731.906	26980
732.248	27000.79
732.589	26805.54
732.93	26808.02
733.271	26768.93
733.612	26733
733.953	26796.95
734.294	26829.94
734.635	26634.47
734.976	26803.28
735.317	26578.88
735.658	26518.77
735.999	26566.9
736.339	26538.65
736.68	26589.5
737.021	26474.25
737.361	26259.34
737.702	26458.88
738.042	26401.03
738.383	26383.18
738.723	26357.41
739.063	26257.53
739.404	26365.55
739.744	26240.36
740.084	26062.51
740.424	26137.53
740.764	26086.69
741.104	26219.34
741.444	25949.06
741.784	25936.18
742.124	25938.89
742.464	26006.69
742.804	25883.53
743.143	25867.48
743.483	25948.84
743.823	25739.58
744.162	25728.96
744.502	25768.05
744.841	25681.73
745.181	25769.41
745.52	25641.05
745.86	25685.34
746.199	25709.07
746.538	25588.85
746.877	25722.4
747.216	25609.41
747.556	25534.61
747.895	25604.21
748.234	25520.83
748.573	25379.36
748.911	25400.6
749.25	25422.75
749.589	25290.55
749.928	25297.78
750.267	25465.91
750.605	25263.66
750.944	25215.75
751.283	25153.6
751.621	25243.09
751.96	25085.58
752.298	25097.33
752.636	25104.34
752.975	25013.27
753.313	24847.4
753.651	24948.41
753.989	24923.1
754.327	24877.23
754.666	24729.21
755.004	24706.38
755.342	24931.69
755.679	24762.43
756.017	24597.23
756.355	24688.53
756.693	24720.4
757.031	24642.43
757.368	24526.28
757.706	24501.87
758.044	24467.97
758.381	24408.31
758.719	24368.31
759.056	24512.72
759.394	24249
759.731	24122.22
760.068	24137.81
760.405	24177.58
760.743	24134.2
761.08	24115.67
761.417	24072.5
761.754	23929.91
762.091	23872.06
762.428	23830.25
762.765	23728.56
763.102	23757.93
763.438	23691.5
763.775	23584.61
764.112	23579.18
764.449	23604.49
764.785	23450.37
765.122	23367.89
765.458	23224.39
765.795	23259.64
766.131	23216.03
766.467	23070.27
766.804	23040.21
767.14	22828.69
767.476	22930.39
767.812	22888.58
768.148	22738.75
768.485	22707.79
768.821	22663.27
769.157	22566.33
769.492	22461.47
769.828	22474.13
770.164	22388.03
770.5	22240.69
770.836	22368.82
771.171	22089.28
771.507	21979.9
771.842	21886.8
772.178	21919.11
772.513	21804.09
772.849	21816.97
773.184	21747.37
773.519	21772.68
773.855	21588.73
774.19	21469.63
774.525	21414.27
774.86	21431.67
775.195	21314.16
775.53	21222.18
775.865	21138.34
776.2	21025.8
776.535	20958.91
776.87	20877.33
777.205	20813.38
777.539	20875.75
777.874	20786.71
778.209	20551.47
778.543	20703.33
778.878	20429.89
779.212	20456.78
779.547	20245.71
779.881	20332.26
780.215	20093.85
780.55	20266.28
780.884	20158.48
781.218	20012.72
781.552	20008.43
781.886	19924.14
782.22	19827.64
782.554	19604.15
782.888	19666.52
783.222	19533.19
783.556	19440.53
783.889	19372.51
784.223	19167.77
784.557	19198.73
784.89	19281.89
785.224	19193.53
785.557	19085.52
785.891	18963.48
786.224	18922.81
786.558	18952.64
786.891	18782.7
787.224	18670.38
787.557	18603.49
787.891	18565.75
788.224	18567.56
788.557	18534.57
788.89	18502.03
789.223	18424.29
789.556	18292.77
789.888	18194.69
790.221	18180.45
790.554	18046.45
790.887	17961.7
791.219	18007.58
791.552	17914.47
791.884	17921.93
792.217	17826.79
792.549	17801.71
792.882	17673.12
793.214	17598.55
793.546	17707.7
793.879	17436.52
794.211	17401.27
794.543	17490.53
794.875	17373.02
795.207	17500.25
795.539	17291.21
795.871	17198.56
796.203	17130.99
796.535	16994.5
796.867	17005.34
797.198	16937.1
797.53	16959.47
797.862	16801.51
798.193	16848.74
798.525	16573.49
798.856	16719.7
799.188	16547.05
799.519	16483.32
799.85	16354.74
800.182	16461.4
800.513	16486.04
800.844	16220.73
801.175	16382.31
801.506	16321.29
801.837	16197
802.168	16186.61
802.499	16061.19
802.83	16116.33
803.161	15926.5
803.491	15976.22
803.822	15964.24
804.153	15938.93
804.483	15773.74
804.814	15709.33
805.145	15700.52
805.475	15687.19
805.805	15616.91
806.136	15632.72
806.466	15593.63
806.796	15539.85
807.126	15336.01
807.457	15358.16
807.787	15335.33
808.117	15279.51
808.447	15290.13
808.777	15246.97
809.107	15231.61
809.436	15168.56
809.766	15134.88
810.096	15096.02
810.426	15041.78
810.755	15041.1
811.085	14936.02
811.414	14962.23
811.744	14784.39
812.073	14851.28
812.403	14865.51
812.732	14759.3
813.061	14674.33
813.39	14581.9
813.719	14602.24
814.049	14749.81
814.378	14541.91
814.707	14511.85
815.036	14466.88
815.365	14411.06
815.693	14323.15
816.022	14362.48
816.351	14184.63
816.68	14214.46
817.008	14259.2
817.337	14129.04
817.665	14028.47
817.994	14078.19
818.322	14047.23
818.651	14070.73
818.979	14052.2
819.307	13997.74
819.636	14005.2
819.964	13896.05
820.292	13938.08
820.62	13913.67
820.948	13845.88
821.276	13942.83
821.604	13978.76
821.932	13851.53
822.259	13856.5
822.587	13856.27
822.915	13811.98
823.243	13819.89
823.57	13818.53
823.898	13767.24
824.225	13764.98
824.553	13715.49
824.88	13799.78
825.207	13829.16
825.535	13816.73
825.862	13823.28
826.189	13806.11
826.516	13841.81
826.843	13892.66
827.17	13917.74
827.497	13867.8
827.824	13836.84
828.151	13804.52
828.478	13780.8
828.805	13857.4
829.131	13741.02
829.458	13779.67
829.785	13695.15
830.111	13672.78
830.438	13735.83
830.764	13778.99
831.09	13823.05
831.417	13718.88
831.743	13828.48
832.069	13747.58
832.395	13715.03
832.722	13702.38
833.048	13719.55
833.374	13588.03
833.7	13709.39
834.026	13650.63
834.351	13665.32
834.677	13657.41
835.003	13641.14
835.329	13716.62
835.654	13563.85
835.98	13580.12
836.306	13549.84
836.631	13470.3
836.956	13469.62
837.282	13507.13
837.607	13465.55
837.932	13414.25
838.258	13421.94
838.583	13414.25
838.908	13336.51
839.233	13339.9
839.558	13350.52
839.883	13295.61
840.208	13193.92
840.533	13268.04
840.858	13203.64
841.182	13233.92
841.507	13226.91
841.832	13132.9
842.156	13059.23
842.481	13064.43
842.805	13040.7
843.13	12953.92
843.454	13011.78
843.778	12961.16
844.103	12968.16
844.427	12848.84
844.751	12859.69
845.075	12785.57
845.399	12749.41
845.723	12669.86
846.047	12748.28
846.371	12587.61
846.695	12574.27
847.019	12502.64
847.343	12442.3
847.666	12405.01
847.99	12334.96
848.313	12363.88
848.637	12210.89
848.96	12332.25
849.284	12171.8
849.607	12108.52
849.931	12060.39
850.254	12045.47
850.577	11944.01
850.9	11857.91
851.223	11859.49
851.546	11818.81
851.869	11691.81
852.192	11794.18
852.515	11697.01
852.838	11619.72
853.161	11650.68
853.483	11615.2
853.806	11500.63
854.129	11597.8
854.451	11524.58
854.774	11374.08
855.096	11405.49
855.419	11348.77
855.741	11408.43
856.063	11287.98
856.385	11205.72
856.708	11201.43
857.03	11110.58
857.352	11202.78
857.674	11206.17
857.996	11118.94
858.318	11045.05
858.64	11027.2
858.961	10967.31
859.283	10957.37
859.605	10960.98
859.926	10942.45
860.248	10986.29
860.57	10834.21
860.891	10925.28
861.212	10803.02
861.534	10706.53
861.855	10751.95
862.176	10791.95
862.498	10728.9
862.819	10737.03
863.14	10701.78
863.461	10644.61
863.782	10611.84
864.103	10692.97
864.424	10495.46
864.745	10567.32
865.065	10484.61
865.386	10445.06
865.707	10541.78
866.027	10471.05
866.348	10466.76
866.668	10442.13
866.989	10393.99
867.309	10345.18
867.63	10428.57
867.95	10327.1
868.27	10259.98
868.59	10270.83
868.91	10319.64
869.23	10323.26
869.55	10223.83
869.87	10260.66
870.19	10278.52
870.51	10258.18
870.83	10241.23
871.15	10178.63
871.469	10183.38
871.789	10187.67
872.109	10205.52
872.428	10144.28
872.748	10168.69
873.067	10151.29
873.386	10173.89
873.706	10059.76
874.025	10043.04
874.344	10040.1
874.663	10070.84
874.982	9970.5
875.301	9961.24
875.62	10028.35
875.939	9922.37
876.258	9906.77
876.577	9909.49
876.896	9908.81
877.214	9884.63
877.533	9885.98
877.852	9910.84
878.17	9777.06
878.489	9895.7
878.807	9753.78
879.125	9828.81
879.444	9811.18
879.762	9746.33
880.08	9724.63
880.398	9666.55
880.716	9677.17
881.034	9633.56
881.352	9618.42
881.67	9627.68
881.988	9634.92
882.306	9541.36
882.624	9630.62
882.941	9483.51
883.259	9516.5
883.577	9515.37
883.894	9455.26
884.212	9458.88
884.529	9510.4
884.846	9451.42
885.164	9383.4
885.481	9313.12
885.798	9383.62
886.115	9268.37
886.432	9278.54
886.75	9251.2
887.067	9275.6
887.383	9193.12
887.7	9219.79
888.017	9105.66
888.334	9166.68
888.651	9126.45
888.967	9140.69
889.284	9070.86
889.6	9087.59
889.917	8971.66
890.233	9052.56
890.55	8980.7
890.866	9010.3
891.182	8920.36
891.498	8884.88
891.815	8920.81
892.131	8893.01
892.447	8828.16
892.763	8734.83
893.079	8791.1
893.395	8815.05
893.71	8722.17
894.026	8693.25
894.342	8674.72
894.657	8597.66
894.973	8584.32
895.289	8567.83
895.604	8589.07
895.92	8559.69
896.235	8503.87
896.55	8446.92
896.865	8446.92
897.181	8409.19
897.496	8454.83
897.811	8396.08
898.126	8290.32
898.441	8315.4
898.756	8269.75
899.071	8221.17
899.386	8205.8
899.7	8169.64
900.015	8139.36
900.33	8025.69
900.644	8062.3
900.959	8084.22
901.273	8063.43
901.588	8001.06
901.902	8023.89
902.216	7928.75
902.531	7941.63
902.845	7894.4
903.159	7862.31
903.473	7887.62
903.787	7756.1
904.101	7762.42
904.415	7735.31
904.729	7710.45
905.042	7674.97
905.356	7699.15
905.67	7619.6
905.984	7613.05
906.297	7620.05
906.611	7614.63
906.924	7575.54
907.237	7514.75
907.551	7465.93
907.864	7444.01
908.177	7512.49
908.491	7333.96
908.804	7340.74
909.117	7358.59
909.43	7296.45
909.743	7292.38
910.056	7276.33
910.368	7218.26
910.681	7200.4
910.994	7162.89
911.307	7126.28
911.619	7035.44
911.932	7107.07
912.244	7036.34
912.557	6997.02
912.869	6982.1
913.181	6916.12
913.494	6890.81
913.806	6862.33
914.118	6812.62
914.43	6819.4
914.742	6853.29
915.054	6747.08
915.366	6767.87
915.678	6703.02
915.99	6720.64
916.302	6688.33
916.613	6608.78
916.925	6584.83
917.236	6588.89
917.548	6511.38
917.859	6536.01
918.171	6525.85
918.482	6454.21
918.794	6430.48
919.105	6484.49
919.416	6388.22
919.727	6350.03
920.038	6362.01
920.349	6280.2
920.66	6276.13
920.971	6247.21
921.282	6252.63
921.593	6241.33
921.903	6143.71
922.214	6148.23
922.525	6100.55
922.835	6099.64
923.146	6076.37
923.456	6060.77
923.767	6014.22
924.077	5977.39
924.387	5974.9
924.697	5937.16
925.008	5954.56
925.318	5866.88
925.628	5878.63
925.938	5870.5
926.248	5841.8
926.558	5764.51
926.867	5784.85
927.177	5755.02
927.487	5728.13
927.796	5637.96
928.106	5671.86
928.416	5623.95
928.725	5643.38
929.034	5623.95
929.344	5608.36
929.653	5562.71
929.962	5505.08
930.271	5464.4
930.581	5451.3
930.89	5441.35
931.199	5484.74
931.508	5369.27
931.817	5400.9
932.125	5397.97
932.434	5420.34
932.743	5283.17
933.051	5285.2
933.36	5300.11
933.669	5256.27
933.977	5195.03
934.286	5188.93
934.594	5157.07
934.902	5177.86
935.21	5141.02
935.519	5113.23
935.827	5132.21
936.135	5063.74
936.443	5065.09
936.751	5012.89
937.059	5020.8
937.367	5025.77
937.674	4968.15
937.982	4982.61
938.29	4947.58
938.597	4935.38
938.905	4882.27
939.213	4861.93
939.52	4860.8
939.827	4838.21
940.135	4809.05
940.442	4863.06
940.749	4738.77
941.056	4765.67
941.363	4719.79
941.67	4692.45
941.977	4704.2
942.284	4620.13
942.591	4668.49
942.898	4626.91
943.205	4615.84
943.511	4602.96
943.818	4560.02
944.125	4564.99
944.431	4523.86
944.738	4530.42
945.044	4475.05
945.35	4440.02
945.657	4445.22
945.963	4440.02
946.269	4418.1
946.575	4396.18
946.881	4381.95
947.187	4382.85
947.493	4347.6
947.799	4298.79
948.105	4259.46
948.41	4228.05
948.716	4295.17
949.022	4261.05
949.327	4219.69
949.633	4183.99
949.938	4145.34
950.244	4184.89
950.549	4136.98
950.854	4131.33
951.16	4110.32
951.465	4111.45
951.77	4094.04
952.075	4072.12
952.38	4027.38
952.685	4039.58
952.99	3967.27
953.294	4001.62
953.599	3979.92
953.904	3938.57
954.209	3976.76
954.513	3915.07
954.818	3892.02
955.122	3897.21
955.426	3836.88
955.731	3839.36
956.035	3856.99
956.339	3814.73
956.643	3802.08
956.948	3745.13
957.252	3757.78
957.556	3750.55
957.86	3748.74
958.163	3709.2
958.467	3730.89
958.771	3710.55
959.075	3684.56
959.378	3646.37
959.682	3666.94
959.985	3636.66
960.289	3628.07
960.592	3580.39
960.896	3555.75
961.199	3543.32
961.502	3567.96
961.805	3539.94
962.108	3511.46
962.411	3476.89
962.714	3483.44
963.017	3467.62
963.32	3474.63
963.623	3472.82
963.926	3401.18
964.228	3370.9
964.531	3402.99
964.833	3411.35
965.136	3348.98
965.438	3333.16
965.741	3313.73
966.043	3289.55
966.345	3303.33
966.648	3300.85
966.95	3299.26
967.252	3248.19
967.554	3253.39
967.856	3255.87
968.158	3189.44
968.46	3201.41
968.761	3182.66
969.063	3175.42
969.365	3185.59
969.666	3160.74
969.968	3103.34
970.269	3108.99
970.571	3111.47
970.872	3097.23
971.174	3067.41
971.475	3025.82
971.776	3042.55
972.077	3021.76
972.378	3066.73
972.679	3028.08
972.98	3011.59
973.281	2995.54
973.582	2987.86
973.883	2942.89
974.183	2968.2
974.484	2935.21
974.785	2936.11
975.085	2946.05
975.386	2915.77
975.686	2919.39
975.986	2837.13
976.287	2859.05
976.587	2838.26
976.887	2836.9
977.187	2802.78
977.487	2819.28
977.787	2804.14
978.087	2773.18
978.387	2759.84
978.687	2767.53
978.987	2760.52
979.286	2699.73
979.586	2740.18
979.885	2718.49
980.185	2685.72
980.484	2684.36
980.784	2672.39
981.083	2671.03
981.382	2640.07
981.682	2668.09
981.981	2628.32
982.28	2621.09
982.579	2641.43
982.878	2604.14
983.177	2633.07
983.475	2538.15
983.774	2557.59
984.073	2557.81
984.372	2526.85
984.67	2540.41
984.969	2540.41
985.267	2514.43
985.566	2479.17
985.864	2466.07
986.162	2484.82
986.461	2441.21
986.759	2452.51
987.057	2398.04
987.355	2398.27
987.653	2412.96
987.951	2391.94
988.249	2424.71
988.547	2383.58
988.844	2366.63
989.142	2356.69
989.44	2345.62
989.737	2343.81
990.035	2298.16
990.332	2321.89
990.63	2303.13
990.927	2273.53
991.224	2304.71
991.521	2292.28
991.819	2284.6
992.116	2256.13
992.413	2266.52
992.71	2254.32
993.006	2210.25
993.303	2243.25
993.6	2184.04
993.897	2165.51
994.193	2191.04
994.49	2187.88
994.787	2175.23
995.083	2148.33
995.379	2143.36
995.676	2110.59
995.972	2158.28
996.268	2083.93
996.565	2120.09
996.861	2063.59
997.157	2092.74
997.453	2058.62
997.749	2070.14
998.044	2061.1
998.34	2003.48
998.636	2027.43
998.932	2009.13
999.227	2027.66
999.523	2010.26
999.818	1996.25
1000.114	1968.68
1000.409	1967.55
1000.704	1948.79
1001	1964.16
1001.295	1922.58
1001.59	1943.82
1001.885	1941.56
1002.18	1879.41
1002.475	1895.68
1002.77	1874.67
1003.065	1888.45
1003.359	1868.79
1003.654	1867.89
1003.949	1847.32
1004.243	1819.98
1004.538	1823.82
1004.832	1826.99
1005.127	1799.64
1005.421	1798.51
1005.715	1809.59
1006.009	1764.61
1006.304	1730.49
1006.598	1739.53
1006.892	1748.12
1007.186	1765.97
1007.48	1735.24
1007.773	1702.47
1008.067	1716.71
1008.361	1690.49
1008.655	1701.57
1008.948	1668.57
1009.242	1677.39
1009.535	1676.48
1009.829	1656.37
1010.122	1698.63
1010.415	1668.35
1010.708	1617.27
1011.001	1603.94
1011.295	1583.38
1011.588	1627.22
1011.881	1596.03
1012.173	1579.53
1012.466	1598.97
1012.759	1556.48
1013.052	1545.86
1013.344	1537.95
1013.637	1515.36
1013.93	1514.9
1014.222	1509.25
1014.514	1506.54
1014.807	1506.99
1015.099	1474.45
1015.391	1505.86
1015.683	1448.24
1015.976	1489.14
1016.268	1454.57
1016.56	1450.95
1016.851	1448.69
1017.143	1436.26
1017.435	1420.44
1017.727	1398.07
1018.018	1396.26
1018.31	1396.94
1018.602	1384.29
1018.893	1384.74
1019.185	1352.2
1019.476	1338.19
1019.767	1361.01
1020.058	1343.38
1020.35	1348.13
1020.641	1325.98
1020.932	1304.74
1021.223	1303.38
1021.514	1289.15
1021.804	1281.69
1022.095	1263.38
1022.386	1284.85
1022.677	1258.64
1022.967	1259.77
1023.258	1265.87
1023.548	1223.84
1023.839	1225.65
1024.129	1222.71
1024.419	1211.63
1024.709	1194.69
1025	1188.58
1025.29	1204.86
1025.58	1190.62
1025.87	1201.47
1026.16	1182.26
1026.449	1177.74
1026.739	1163.5
1027.029	1148.36
1027.319	1137.06
1027.608	1131.86
1027.898	1157.85
1028.187	1129.15
1028.477	1106.78
1028.766	1113.56
1029.055	1106.55
1029.344	1107.91
1029.634	1105.2
1029.923	1078.08
1030.212	1090.51
1030.501	1096.84
1030.79	1054.58
1031.078	1055.25
1031.367	1045.76
1031.656	1003.96
1031.945	1022.49
1032.233	1033.56
1032.522	1036.5
1032.81	1023.62
1033.099	1011.64
1033.387	997.18
1033.675	998.08
1033.963	980
1034.251	1012.54
1034.54	980.23
1034.828	961.25
1035.116	951.53
1035.403	937.07
1035.691	964.86
1035.979	964.41
1036.267	947.46
1036.554	952.66
1036.842	921.02
1037.129	922.15
1037.417	918.08
1037.704	898.2
1037.992	927.12
1038.279	892.1
1038.566	882.38
1038.853	882.38
1039.14	882.38
