Data from hue_30_FLMS001491_72.txt Node
Date: Mon Feb 06 15:05:55 GMT 2017
User: dcchb
Spectrometer: FLMS00149
Trigger mode: 0
Integration Time (sec): 2.000000E-2
Scans to average: 10
Electric dark correction enabled: true
Nonlinearity correction enabled: false
Boxcar width: 0
XAxis mode: Wavelengths
Number of Pixels in Spectrum: 2048
>>>>>Begin Spectral Data<<<<<
341.393	-31.09
341.776	-31.09
342.16	-31.09
342.543	-39.67
342.927	-60.46
343.31	-67.24
343.693	-69.28
344.077	-70.86
344.46	-67.47
344.843	-48.04
345.226	-53.01
345.61	-26.57
345.993	-9.84
346.376	-0.58
346.759	22.92
347.142	15.01
347.525	36.26
347.908	49.14
348.291	95.92
348.674	79.19
349.057	114.45
349.44	108.12
349.823	140.21
350.206	133.43
350.588	186.31
350.971	210.94
351.354	229.25
351.737	226.99
352.119	216.59
352.502	246.65
352.884	255.01
353.267	281
353.65	280.32
354.032	283.03
354.414	340.43
354.797	309.47
355.179	310.15
355.562	332.97
355.944	312.86
356.326	329.36
356.709	339.3
357.091	346.08
357.473	349.02
357.855	348.79
358.238	343.37
358.62	346.98
359.002	327.55
359.384	328.23
359.766	344.72
360.148	331.16
360.53	326.42
360.912	326.42
361.294	311.73
361.676	335.01
362.057	335.46
362.439	311.28
362.821	336.36
363.203	331.39
363.584	310.83
363.966	317.83
364.348	320.09
364.729	313.76
365.111	323.48
365.493	305.18
365.874	299.3
366.256	320.32
366.637	314.44
367.019	305.63
367.4	321.67
367.781	304.72
368.163	323.48
368.544	310.83
368.925	330.26
369.306	322.35
369.688	319.41
370.069	304.95
370.45	316.25
370.831	300.88
371.212	310.83
371.593	300.43
371.974	297.72
372.355	321.22
372.736	311.73
373.117	316.93
373.498	306.53
373.879	316.25
374.26	315.8
374.641	313.08
375.021	307.44
375.402	330.71
375.783	322.12
376.163	334.55
376.544	316.47
376.925	328
377.305	321.45
377.686	320.09
378.066	321.67
378.447	331.62
378.827	340.43
379.208	331.62
379.588	320.77
379.968	329.36
380.349	337.04
380.729	348.79
381.109	342.01
381.489	339.07
381.87	339.07
382.25	320.77
382.63	335.91
383.01	323.25
383.39	338.62
383.77	344.27
384.15	338.85
384.53	346.08
384.91	325.97
385.29	342.91
385.67	358.28
386.049	354.67
386.429	346.53
386.809	336.36
387.189	352.41
387.568	353.76
387.948	355.57
388.328	376.13
388.707	346.08
389.087	354.67
389.466	361.45
389.846	360.32
390.225	358.96
390.605	374.55
390.984	344.72
391.363	359.19
391.743	358.96
392.122	368.9
392.501	373.87
392.881	364.84
393.26	356.7
393.639	360.54
394.018	382.69
394.397	359.86
394.776	393.99
395.155	385.17
395.534	390.82
395.913	373.65
396.292	381.56
396.671	382.01
397.05	372.74
397.429	372.29
397.808	384.27
398.186	383.82
398.565	404.61
398.944	400.77
399.323	368.45
399.701	398.73
400.08	392.4
400.458	401.9
400.837	389.24
401.215	401.67
401.594	401.22
401.972	405.96
402.351	406.87
402.729	421.56
403.107	402.12
403.486	404.61
403.864	393.76
404.242	433.76
404.62	428.79
404.999	425.85
405.377	419.3
405.755	419.97
406.133	407.09
406.511	410.03
406.889	418.62
407.267	443.03
407.645	426.08
408.023	431.05
408.401	445.28
408.779	438.73
409.156	416.59
409.534	441.67
409.912	442.12
410.29	457.71
410.667	451.16
411.045	464.49
411.422	469.24
411.8	478.05
412.178	484.61
412.555	469.01
412.933	478.28
413.31	454.1
413.687	477.15
414.065	489.13
414.442	480.54
414.819	492.74
415.197	486.64
415.574	478.73
415.951	483.7
416.328	505.4
416.705	501.55
417.082	493.87
417.46	506.07
417.837	491.16
418.214	504.04
418.591	508.79
418.967	508.79
419.344	517.15
419.721	507.2
420.098	525.73
420.475	538.39
420.852	521.67
421.228	535.23
421.605	526.19
421.982	545.4
422.358	525.06
422.735	528.45
423.111	532.51
423.488	555.11
423.864	560.31
424.241	563.93
424.617	568.67
424.994	565.06
425.37	571.38
425.746	599.86
426.123	563.93
426.499	591.27
426.875	600.08
427.251	580.65
427.627	587.43
428.003	616.13
428.379	600.31
428.756	619.07
429.132	617.26
429.507	613.19
429.883	598.28
430.259	620.65
430.635	629.69
431.011	610.48
431.387	624.72
431.763	662.68
432.138	651.83
432.514	653.64
432.89	647.99
433.265	658.16
433.641	677.6
434.016	683.7
434.392	690.25
434.767	694.09
435.143	684.83
435.518	709.01
435.894	719.63
436.269	722.34
436.644	731.83
437.02	705.39
437.395	709.23
437.77	743.13
438.145	732.06
438.52	737.71
438.895	759.4
439.271	740.64
439.646	748.33
440.021	760.98
440.395	769.8
440.77	766.41
441.145	768.89
441.52	784.49
441.895	791.72
442.27	808.44
442.645	798.95
443.019	805.95
443.394	793.3
443.769	796.91
444.143	793.3
444.518	789.46
444.892	831.26
445.267	842.56
445.641	823.81
446.016	826.52
446.39	848.66
446.764	826.07
447.139	818.83
447.513	833.75
447.887	830.81
448.262	854.31
448.636	863.8
449.01	882.11
449.384	873.3
449.758	863.8
450.132	869.45
450.506	909.91
450.88	888.89
451.254	894.54
451.628	899.96
452.002	918.04
452.376	932.73
452.75	932.5
453.123	920.07
453.497	937.25
453.871	960.3
454.244	990.36
454.618	959.17
454.992	977.02
455.365	986.51
455.739	997.81
456.112	1001.65
456.486	1036.46
456.859	1029.22
457.232	1009.34
457.606	1034.87
457.979	1047.08
458.352	1075.1
458.725	1079.17
459.099	1077.58
459.472	1101.09
459.845	1113.06
460.218	1142.22
460.591	1123.69
460.964	1128.43
461.337	1151.71
461.71	1188.99
462.083	1185.15
462.456	1153.06
462.829	1211.37
463.201	1202.55
463.574	1187.86
463.947	1224.47
464.32	1249.33
464.692	1252.5
465.065	1255.21
465.438	1297.92
465.81	1321.65
466.183	1316.67
466.555	1352.83
466.928	1370.68
467.3	1378.59
467.672	1391.25
468.045	1396.9
468.417	1425.82
468.789	1444.35
469.161	1433.96
469.534	1499.49
469.906	1487.07
470.278	1519.15
470.65	1556.44
471.022	1543.56
471.394	1599.6
471.766	1580.4
472.138	1640.06
472.51	1639.83
472.882	1710.56
473.253	1709.21
473.625	1732.93
473.997	1768.87
474.369	1781.07
474.74	1795.31
475.112	1841.41
475.484	1900.84
475.855	1937.9
476.227	1944.68
476.598	1992.36
476.97	2013.15
477.341	2073.94
477.713	2115.07
478.084	2120.72
478.455	2198.01
478.827	2219.02
479.198	2313.94
479.569	2296.76
479.94	2356.87
480.311	2405.01
480.682	2443.65
481.053	2503.31
481.424	2575.17
481.795	2618.56
482.166	2636.64
482.537	2727.03
482.908	2761.83
483.279	2800.48
483.65	2896.07
484.021	2927.03
484.391	2968.16
484.762	3022.84
485.133	3119.11
485.503	3181.26
485.874	3230.75
486.244	3225.55
486.615	3344.19
486.985	3418.99
487.356	3494.7
487.726	3548.03
488.097	3593.45
488.467	3661.02
488.837	3726.78
489.207	3841.13
489.578	3887.45
489.948	3936.49
490.318	4026.43
490.688	4047.68
491.058	4169.71
491.428	4225.98
491.798	4232.08
492.168	4351.62
492.538	4391.62
492.908	4438.4
493.278	4479.3
493.648	4582.58
494.017	4676.81
494.387	4686.98
494.757	4713.65
495.126	4831.16
495.496	4845.17
495.866	4854.89
496.235	5003.58
496.605	5015.79
496.974	5075.67
497.344	5117.93
497.713	5184.82
498.082	5263.01
498.452	5337.13
498.821	5330.58
499.19	5357.92
499.559	5464.36
499.928	5488.99
500.298	5490.58
500.667	5556.56
501.036	5575.55
501.405	5638.82
501.774	5652.83
502.143	5695.32
502.512	5782.09
502.88	5822.54
503.249	5812.38
503.618	5901.64
503.987	5948.42
504.356	5984.12
504.724	6027.06
505.093	6071.35
505.462	6071.13
505.83	6157.45
506.199	6187.96
506.567	6278.58
506.936	6274.74
507.304	6368.52
507.672	6383.21
508.041	6386.82
508.409	6440.16
508.777	6480.15
509.145	6507.05
509.514	6555.63
509.882	6600.83
510.25	6570.55
510.618	6663.65
510.986	6671.56
511.354	6712.92
511.722	6822.97
512.09	6855.96
512.458	6853.48
512.826	6884.89
513.193	6947.94
513.561	6927.83
513.929	6982.51
514.297	7050.53
514.664	7081.27
515.032	7077.43
515.4	7135.28
515.767	7122.17
516.135	7183.41
516.502	7208.5
516.869	7293.92
517.237	7344.76
517.604	7300.7
517.972	7329.4
518.339	7294.82
518.706	7382.28
519.073	7524.87
519.44	7485.33
519.808	7597.19
520.175	7541.37
520.542	7582.95
520.909	7611.42
521.276	7590.86
521.643	7698.43
522.009	7836.5
522.376	7808.93
522.743	7896.39
523.11	7911.08
523.477	7993.56
523.843	7995.37
524.21	8102.48
524.577	8152.43
524.943	8163.27
525.31	8204.85
525.676	8218.41
526.043	8270.16
526.409	8305.87
526.776	8383.61
527.142	8314.91
527.508	8474.9
527.874	8546.31
528.241	8558.07
528.607	8521.23
528.973	8624.96
529.339	8713.54
529.705	8732.98
530.071	8764.39
530.437	8808.91
530.803	8855.23
531.169	8928.9
531.535	8905.18
531.901	8946.08
532.267	8975.68
532.632	9046.64
532.998	9039.41
533.364	9160.54
533.73	9131.38
534.095	9244.6
534.461	9292.96
534.826	9344.03
535.192	9359.63
535.557	9432.39
535.923	9434.2
536.288	9423.35
536.653	9516.68
537.019	9495.67
537.384	9568.89
537.749	9579.06
538.114	9642.78
538.479	9700.86
538.845	9699.28
539.21	9674.19
539.575	9793.97
539.94	9811.59
540.305	9784.7
540.67	9806.62
541.034	9890.91
541.399	9967.97
541.764	9969.55
542.129	10084.58
542.494	10044.35
542.858	10049.1
543.223	10080.74
543.587	10137.69
543.952	10201.86
544.316	10244.12
544.681	10346.49
545.045	10287.51
545.41	10408.19
545.774	10407.73
546.138	10414.74
546.503	10551.46
546.867	10509.43
547.231	10568.86
547.595	10614.28
547.959	10646.6
548.324	10680.04
548.688	10678.01
549.052	10823.32
549.416	10819.7
549.779	10796.2
550.143	10865.35
550.507	10839.81
550.871	10906.25
551.235	10976.99
551.599	11018.11
551.962	11092.01
552.326	11085.01
552.689	11221.72
553.053	11025.35
553.417	11153.48
553.78	11287.49
554.143	11271.67
554.507	11331.55
554.87	11339.24
555.234	11448.61
555.597	11316.64
555.96	11399.57
556.323	11516.41
556.686	11504.2
557.05	11584.2
557.413	11583.75
557.776	11675.27
558.139	11657.42
558.502	11702.39
558.865	11682.5
559.228	11818.32
559.59	11839.34
559.953	11870.3
560.316	11961.14
560.679	11990.29
561.041	11972.67
561.404	12154.81
561.767	12096.05
562.129	12157.29
562.492	12262.15
562.854	12223.51
563.217	12168.37
563.579	12273.45
563.941	12341.47
564.304	12400.45
564.666	12360.23
565.028	12462.14
565.39	12530.16
565.753	12591.86
566.115	12622.82
566.477	12659.65
566.839	12665.3
567.201	12781.01
567.563	12863.72
567.925	12799.31
568.287	12818.07
568.648	12944.17
569.01	12967.44
569.372	13012.19
569.734	13052.19
570.095	13136.02
570.457	13182.13
570.819	13289.01
571.18	13286.53
571.542	13286.3
571.903	13387.54
572.265	13511.61
572.626	13578.27
572.987	13557.48
573.349	13614.43
573.71	13686.52
574.071	13773.3
574.432	13879.96
574.794	13947.75
575.155	13957.47
575.516	14014.19
575.877	14124.47
576.238	14254.87
576.599	14375.09
576.96	14483.56
577.32	14483.33
577.681	14665.7
578.042	14778.24
578.403	14847.84
578.763	14875.41
579.124	15024.56
579.485	15187.5
579.845	15361.73
580.206	15500.48
580.566	15514.04
580.927	15763.07
581.287	15889.4
581.648	15999.68
582.008	16194.48
582.368	16420.01
582.728	16666.55
583.089	16602.6
583.449	16878.98
583.809	17129.82
584.169	17376.59
584.529	17487.55
584.889	17864.49
585.249	18045.27
585.609	18133.63
585.969	18443.23
586.329	18553.28
586.688	18811.58
587.048	19051.58
587.408	19256.09
587.768	19559.58
588.127	19847.03
588.487	19908.73
588.846	20351.88
589.206	20422.16
589.565	20742.6
589.925	21061.24
590.284	21343.04
590.643	21560.66
591.003	21960.88
591.362	22126.97
591.721	22411.94
592.08	22751.14
592.44	22996.1
592.799	23345.93
593.158	23588.18
593.517	23778.91
593.876	24158.11
594.235	24458.44
594.593	24756.74
594.952	25057.29
595.311	25198.31
595.67	25577.05
596.029	25987.89
596.387	26349.01
596.746	26600.3
597.104	26779.96
597.463	27023.8
597.822	27345.82
598.18	27590.79
598.538	27861.74
598.897	28234.38
599.255	28411.56
599.613	29064.65
599.972	29033.01
600.33	29377.18
600.688	29517.97
601.046	29966.99
601.404	30350.71
601.762	30465.51
602.12	30832.28
602.478	31004.03
602.836	31223.68
603.194	31386.17
603.552	31817.79
603.91	31913.61
604.268	32151.34
604.625	32434.73
604.983	32707.94
605.341	32702.74
605.698	33187.02
606.056	33455.72
606.413	33526.67
606.771	33952.88
607.128	34118.3
607.485	34164.17
607.843	34399.42
608.2	34881.44
608.557	34998.73
608.914	34979.97
609.272	35367.98
609.629	35630.8
609.986	35957.12
610.343	35883.45
610.7	36370.22
611.057	36593.49
611.414	36588.97
611.771	36644.11
612.127	37003.19
612.484	37065.56
612.841	37331.09
613.198	37450.19
613.554	37486.57
613.911	37583.29
614.267	38019.66
614.624	37990.96
614.98	38068.48
615.337	38498.52
615.693	38701.68
616.05	38691.51
616.406	38968.11
616.762	38892.18
617.118	39125.85
617.475	39263.25
617.831	39369.23
618.187	39502.79
618.543	39589.34
618.899	39977.58
619.255	40110.46
619.611	40053.51
619.967	40332.15
620.323	40492.14
620.678	40282.66
621.034	40207.18
621.39	40519.71
621.746	40543.44
622.101	41183.87
622.457	40715.19
622.812	40921.96
623.168	41096.42
623.523	41147.49
623.879	41434.04
624.234	41093.48
624.589	41330.99
624.945	41383.64
625.3	41625.45
625.655	41476.52
626.01	41622.28
626.365	41652.34
626.72	41684.2
627.075	41696.63
627.43	41767.36
627.785	41725.56
628.14	41793.35
628.495	42024.98
628.85	41828.6
629.205	41818.89
629.559	42203.06
629.914	42001.03
630.269	42028.82
630.623	41974.59
630.978	41885.55
631.332	42173.91
631.687	42321.92
632.041	42144.98
632.396	42214.81
632.75	42068.15
633.104	42222.04
633.459	42006.45
633.813	42099.1
634.167	42160.8
634.521	42126.9
634.875	42174.81
635.229	42173
635.583	42054.59
635.937	42094.13
636.291	41986.11
636.645	42171.42
636.999	42020.24
637.352	42102.27
637.706	41989.5
638.06	42114.7
638.413	41862.05
638.767	41844.87
639.121	41886.23
639.474	41874.7
639.828	41866.34
640.181	41977.3
640.534	41877.87
640.888	41937.53
641.241	41696.4
641.594	41716.52
641.947	42010.29
642.301	41844.42
642.654	41882.84
643.007	41786.8
643.36	41744.76
643.713	41628.38
644.066	41842.16
644.419	41571.89
644.771	41270.88
645.124	40925.35
645.477	40954.5
645.83	40763.09
646.182	40647.62
646.535	40638.8
646.888	40752.47
647.24	40345.03
647.593	40698.69
647.945	40461.41
648.298	40356.78
648.65	40353.84
649.002	40362.43
649.355	40411.47
649.707	40400.62
650.059	40518.81
650.411	41014.39
650.763	40926.93
651.115	41456.18
651.467	41311.33
651.819	41170.54
652.171	41119.92
652.523	41088.51
652.875	41216.19
653.227	40900.04
653.578	41266.36
653.93	41102.75
654.282	40981.17
654.633	40865.47
654.985	40959.93
655.337	41091.9
655.688	40875.18
656.039	41006.25
656.391	40765.81
656.742	40799.25
657.094	40811.46
657.445	40908.85
657.796	40914.96
658.147	40777.11
658.498	40732.14
658.849	40889.65
659.2	40713.83
659.551	40769.87
659.902	40719.25
660.253	40705.7
660.604	40971.45
660.955	40619.14
661.306	40830.21
661.656	40667.28
662.007	40750.67
662.358	40745.47
662.708	40712.02
663.059	40693.04
663.409	40449.2
663.76	40773.72
664.11	40785.02
664.461	40704.34
664.811	40787.95
665.161	40669.76
665.511	40547.96
665.862	40597.68
666.212	40736.88
666.562	40695.75
666.912	40610.78
667.262	40629.09
667.612	40643.32
667.962	40684.45
668.312	40623.89
668.662	40759.71
669.011	40634.51
669.361	40495.53
669.711	40416.44
670.06	40361.98
670.41	40289.89
670.76	40418.92
671.109	40363.33
671.459	40514.74
671.808	40457.79
672.157	40445.14
672.507	40187.06
672.856	40153.85
673.205	40326.04
673.554	40412.37
673.904	40147.29
674.253	40395.19
674.602	40298.93
674.951	39699.39
675.3	39581.66
675.649	40217.12
675.998	40159.95
676.346	40174.86
676.695	40410.79
677.044	39898.03
677.393	40181.64
677.741	40188.65
678.09	40057.58
678.438	39914.98
678.787	39959.05
679.135	39886.96
679.484	39964.47
679.832	39964.02
680.181	39813.97
680.529	39842.67
680.877	39561.54
681.225	39645.16
681.573	39914.08
681.922	39456.91
682.27	39500.3
682.618	39487.65
682.966	39316.35
683.314	39398.16
683.661	39224.15
684.009	39176.92
684.357	39133.53
684.705	38968.11
685.053	39226.86
685.4	39056.7
685.748	38801.56
686.095	38946.19
686.443	38796.59
686.79	38740.32
687.138	38646.31
687.485	38790.27
687.832	38624.62
688.18	38655.81
688.527	38439.31
688.874	38350.28
689.221	38339.66
689.568	38144.63
689.915	38016.73
690.262	37967.46
690.609	38008.82
690.956	38044.52
691.303	37846.56
691.65	37545.78
691.997	37565.21
692.344	37477.53
692.69	37472.56
693.037	37416.74
693.383	37146.69
693.73	37419.45
694.077	37096.52
694.423	37161.16
694.769	36932.91
695.116	36856.76
695.462	36806.59
695.808	36733.37
696.155	36778.79
696.501	36470.33
696.847	36574.05
697.193	36191.46
697.539	36348.75
697.885	35975.65
698.231	36046.16
698.577	35956.22
698.923	35896.56
699.269	35820.17
699.614	35512.39
699.96	35523.68
700.306	35631.03
700.651	35379.96
700.997	35395.1
701.342	35299.51
701.688	35218.61
702.033	35133.86
702.379	35074.88
702.724	34978.61
703.069	35034.66
703.415	34617.95
703.76	34655.46
704.105	34683.25
704.45	34542.02
704.795	34388.35
705.14	34368.69
705.485	34285.07
705.83	34088.69
706.175	34256.83
706.52	34137.73
706.865	34119.65
707.209	33890.51
707.554	33819.55
707.899	33927.79
708.243	33781.58
708.588	33655.26
708.932	33410.75
709.277	33400.12
709.621	33367.58
709.966	33109.96
710.31	33281.71
710.654	33012.11
710.998	33100.92
711.342	33082.84
711.687	32992.23
712.031	32832.91
712.375	32765.57
712.719	32766.02
713.063	32640.14
713.407	32780.03
713.75	32512.69
714.094	32454.61
714.438	32445.8
714.782	32462.97
715.125	32192.47
715.469	32308.85
715.812	32117.45
716.156	32005.13
716.499	32068.18
716.843	32024.34
717.186	31787.74
717.53	31892.59
717.873	31942.54
718.216	31855.98
718.559	31739.15
718.902	31495.09
719.246	31461.64
719.589	31359.05
719.932	31345.49
720.275	31449.22
720.617	31399.05
720.96	31245.15
721.303	31285.6
721.646	31321.76
721.989	31098.94
722.331	31274.08
722.674	31166.96
723.016	31087.87
723.359	30939.85
723.701	30974.65
724.044	30855.78
724.386	30681.55
724.729	30854.2
725.071	30779.4
725.413	30575.34
725.755	30679.29
726.097	30440.43
726.439	30316.36
726.782	30388.45
727.124	30469.58
727.465	30366.98
727.807	30275.01
728.149	30303.48
728.491	30287.89
728.833	30154.56
729.175	30073.21
729.516	29962.25
729.858	30019.2
730.199	30118.63
730.541	29953.66
730.882	29935.58
731.224	29879.99
731.565	29805.42
731.906	29858.75
732.248	29683.39
732.589	29657.4
732.93	29588.25
733.271	29516.84
733.612	29524.07
733.953	29561.58
734.294	29400.46
734.635	29261.25
734.976	29401.59
735.317	29261.48
735.658	29338.99
735.999	29256.96
736.339	29195.26
736.68	29236.84
737.021	29256.73
737.361	29031.2
737.702	29165.43
738.042	29092.89
738.383	28989.85
738.723	28986.68
739.063	28931.09
739.404	28906.68
739.744	28800.47
740.084	28637.99
740.424	28647.48
740.764	28678.21
741.104	28795.05
741.444	28603.41
741.784	28566.13
742.124	28621.27
742.464	28583.53
742.804	28334.27
743.143	28370.65
743.483	28340.82
743.823	28249.75
744.162	28327.72
744.502	28280.49
744.841	28179.47
745.181	28210.66
745.52	28148.51
745.86	28068.06
746.199	28115.97
746.538	27959.82
746.877	28151.9
747.216	28164.56
747.556	27988.52
747.895	28001.17
748.234	27904
748.573	27710.1
748.911	27760.27
749.25	27672.82
749.589	27557.79
749.928	27644.8
750.267	27637.11
750.605	27626.49
750.944	27445.03
751.283	27407.51
751.621	27452.26
751.96	27358.02
752.298	27343.11
752.636	27279.61
752.975	27132.72
753.313	27037.13
753.651	27231.47
753.989	27019.95
754.327	27000.52
754.666	26886.62
755.004	26976.11
755.342	26976.56
755.679	26851.37
756.017	26808.66
756.355	26778.38
756.693	26671.49
757.031	26726.85
757.368	26549.01
757.706	26580.87
758.044	26391.5
758.381	26452.06
758.719	26293.87
759.056	26404.83
759.394	26225.85
759.731	25976.82
760.068	25955.35
760.405	25971.39
760.743	25882.13
761.08	25909.02
761.417	25748.57
761.754	25707.22
762.091	25617.73
762.428	25591.52
762.765	25451.41
763.102	25507
763.438	25382.48
763.775	25178.65
764.112	25298.64
764.449	25229.04
764.785	25110.4
765.122	24911.53
765.458	24822.72
765.795	24739.34
766.131	24799.22
766.467	24642.16
766.804	24547.25
767.14	24483.97
767.476	24394.49
767.812	24381.6
768.148	24367.37
768.485	24284.21
768.821	24115.4
769.157	24148.39
769.492	24003.99
769.828	24119.69
770.164	23708.18
770.5	23665.24
770.836	23787.5
771.171	23608.97
771.507	23533.27
771.842	23422.76
772.178	23377.34
772.513	23367.17
772.849	23209.66
773.184	23124.24
773.519	23106.84
773.855	22971.25
774.19	22959.27
774.525	22898.03
774.86	22905.49
775.195	22837.01
775.53	22723.34
775.865	22644.7
776.2	22430.02
776.535	22188.89
776.87	22219.85
777.205	22224.15
777.539	22004.72
777.874	22119.74
778.209	21893.99
778.543	21934.44
778.878	21730.83
779.212	21763.82
779.547	21606.31
779.881	21668.68
780.215	21426.43
780.55	21471.85
780.884	21304.62
781.218	21286.77
781.552	21345.75
781.886	21090.39
782.22	21016.5
782.554	20939.21
782.888	20776.95
783.222	20787.57
783.556	20696.96
783.889	20628.26
784.223	20459.45
784.557	20479.11
784.89	20474.59
785.224	20247.25
785.557	20227.36
785.891	20154.6
786.224	20103.53
786.558	20019.69
786.891	19976.3
787.224	19868.05
787.557	19745.12
787.891	19777.21
788.224	19733.37
788.557	19732.24
788.89	19599.81
789.223	19601.17
789.556	19373.37
789.888	19356.43
790.221	19294.05
790.554	19159.37
790.887	19156.88
791.219	19061.97
791.552	18978.36
791.884	18924.12
792.217	18877.57
792.549	18915.76
792.882	18708.08
793.214	18581.98
793.546	18597.8
793.879	18494.08
794.211	18417.24
794.543	18454.53
794.875	18422.21
795.207	18471.48
795.539	18266.06
795.871	18331.82
796.203	18195.78
796.535	18104.03
796.867	18056.35
797.198	17955.33
797.53	17937.71
797.862	17871.27
798.193	17860.87
798.525	17766.41
798.856	17719.41
799.188	17586.3
799.519	17475.57
799.85	17422.92
800.182	17501.33
800.513	17443.03
800.844	17343.82
801.175	17369.13
801.506	17362.35
801.837	17274.9
802.168	17170.95
802.499	17132.53
802.83	16999.2
803.161	17019.99
803.491	16938.18
803.822	16941.57
804.153	16786.1
804.483	16762.82
804.814	16733.44
805.145	16659.1
805.475	16653.9
805.805	16617.29
806.136	16533.22
806.466	16482.83
806.796	16535.26
807.126	16436.95
807.457	16281.93
807.787	16308.6
808.117	16254.36
808.447	16230.63
808.777	16290.74
809.107	16211.2
809.436	16067.02
809.766	16122.61
810.096	16062.73
810.426	15942.5
810.755	15989.51
811.085	15948.61
811.414	15928.27
811.744	15754.94
812.073	15766.46
812.403	15792
812.732	15549.29
813.061	15573.25
813.39	15522.4
813.719	15538.67
814.049	15545
814.378	15427.26
814.707	15385.01
815.036	15403.54
815.365	15295.74
815.693	15154.95
816.022	15232.24
816.351	15272.47
816.68	15036.77
817.008	15081.96
817.337	14989.08
817.665	14957.9
817.994	14895.98
818.322	14981.4
818.651	14827.28
818.979	14874.51
819.307	14908.86
819.636	14760.39
819.964	14705.02
820.292	14773.5
820.62	14858.47
820.948	14703.44
821.276	14706.6
821.604	14730.56
821.932	14762.42
822.259	14733.04
822.587	14725.81
822.915	14641.75
823.243	14715.87
823.57	14634.29
823.898	14681.29
824.225	14589.09
824.553	14590.68
824.88	14618.02
825.207	14585.03
825.535	14624.12
825.862	14703.22
826.189	14592.71
826.516	14681.29
826.843	14674.29
827.17	14576.21
827.497	14609.88
827.824	14603.78
828.151	14659.6
828.478	14570.79
828.805	14629.09
829.131	14566.5
829.458	14555.2
829.785	14530.79
830.111	14509.32
830.438	14645.82
830.764	14544.8
831.09	14598.13
831.417	14484.24
831.743	14562.43
832.069	14593.84
832.395	14494.86
832.722	14488.53
833.048	14461.64
833.374	14537.8
833.7	14432.26
834.026	14413.51
834.351	14491.02
834.677	14374.18
835.003	14391.36
835.329	14441.3
835.654	14479.72
835.98	14310.91
836.306	14299.61
836.631	14282.21
836.956	14330.57
837.282	14313.85
837.607	14223
837.932	14214.64
838.258	14259.16
838.583	14236.11
838.908	14113.85
839.233	14167.41
839.558	14114.53
839.883	14096.9
840.208	14016
840.533	13989.56
840.858	14016.45
841.182	14002.89
841.507	13992.95
841.832	13898.04
842.156	13870.69
842.481	13870.69
842.805	13856.46
843.13	13837.25
843.454	13799.96
843.778	13727.42
844.103	13680.19
844.427	13704.6
844.751	13607.2
845.075	13613.75
845.399	13567.43
845.723	13510.48
846.047	13605.39
846.371	13395.23
846.695	13415.57
847.019	13269.35
847.343	13222.58
847.666	13229.13
847.99	13049.02
848.313	13115.01
848.637	13056.03
848.96	12929.7
849.284	12933.54
849.607	12896.48
849.931	12849.7
850.254	12816.71
850.577	12756.83
850.9	12565.64
851.223	12606.77
851.546	12497.62
851.869	12457.85
852.192	12508.92
852.515	12440
852.838	12330.4
853.161	12344.63
853.483	12264.86
853.806	12198.87
854.129	12170.17
854.451	12127.01
854.774	12124.53
855.096	12093.79
855.419	12015.38
855.741	11976.96
856.063	11950.75
856.385	11951.42
856.708	11856.28
857.03	11849.5
857.352	11850.18
857.674	11762.28
857.996	11759.79
858.318	11659
858.64	11741.26
858.961	11670.75
859.283	11629.62
859.605	11592.56
859.926	11582.39
860.248	11574.48
860.57	11459.68
860.891	11496.97
861.212	11469.85
861.534	11423.3
861.855	11417.2
862.176	11391.21
862.498	11391.21
862.819	11313.7
863.14	11282.51
863.461	11333.59
863.782	11219.01
864.103	11211.33
864.424	11197.77
864.745	11126.36
865.065	11132.01
865.386	11042.29
865.707	11150.09
866.027	11105.12
866.348	11089.3
866.668	11068.51
866.989	11048.4
867.309	10951.9
867.63	11012.01
867.95	10935.18
868.27	10963.43
868.59	10952.13
868.91	10913.71
869.23	10967.72
869.55	10840.27
869.87	10879.59
870.19	10915.97
870.51	10920.04
870.83	10798.91
871.15	10759.59
871.469	10740.61
871.789	10786.48
872.109	10789.42
872.428	10743.09
872.748	10785.35
873.067	10728.86
873.386	10753.49
873.706	10594.62
874.025	10638.46
874.344	10621.51
874.663	10616.99
874.982	10632.59
875.301	10561.63
875.62	10495.19
875.939	10520.05
876.258	10467.62
876.577	10416.55
876.896	10409.32
877.214	10437.34
877.533	10442.76
877.852	10387.17
878.17	10384.68
878.489	10357.11
878.807	10375.42
879.125	10349.43
879.444	10360.05
879.762	10320.28
880.08	10330
880.398	10298.81
880.716	10238.25
881.034	10246.84
881.352	10210.68
881.67	10156.67
881.988	10256.78
882.306	10201.86
882.624	10117.8
882.941	10107.63
883.259	10054.75
883.577	10001.42
883.894	10067.86
884.212	10044.81
884.529	10023.56
884.846	10045.26
885.164	9881.42
885.481	9909.44
885.798	9813.4
886.115	9912.38
886.432	9901.76
886.75	9787.19
887.067	9790.35
887.383	9768.88
887.7	9782.89
888.017	9735.21
888.334	9715.78
888.651	9701.54
888.967	9645.27
889.284	9612.5
889.6	9618.6
889.917	9486.18
890.233	9528.44
890.55	9445.27
890.866	9572.5
891.182	9383.58
891.498	9438.72
891.815	9366.41
892.131	9362.11
892.447	9371.6
892.763	9299.97
893.079	9308.78
893.395	9251.16
893.71	9191.5
894.026	9176.58
894.342	9149.46
894.657	9103.14
894.973	9072.18
895.289	9098.16
895.604	9082.12
895.92	9040.99
896.235	8967.09
896.55	8970.71
896.865	8926.64
897.181	8900.43
897.496	8942.24
897.811	8907.66
898.126	8767.33
898.441	8812.97
898.756	8736.37
899.071	8717.16
899.386	8744.73
899.7	8689.36
900.015	8639.19
900.33	8525.52
900.644	8591.74
900.959	8607.78
901.273	8550.61
901.588	8496.15
901.902	8411.4
902.216	8387.22
902.531	8471.74
902.845	8391.97
903.159	8372.08
903.473	8318.52
903.787	8320.56
904.101	8243.05
904.415	8246.89
904.729	8184.97
905.042	8113.33
905.356	8078.3
905.67	8126.66
905.984	8092.32
906.297	8043.96
906.611	8007.8
906.924	8043.28
907.237	7990.62
907.551	7922.83
907.864	7917.63
908.177	7909.5
908.491	7857.07
908.804	7789.27
909.117	7833.11
909.43	7717.18
909.743	7727.13
910.056	7689.84
910.368	7604.64
910.681	7655.72
910.994	7546.57
911.307	7560.13
911.619	7488.94
911.932	7501.6
912.244	7449.17
912.557	7394.03
912.869	7416.4
913.181	7347.93
913.494	7283.75
913.806	7282.17
914.118	7242.17
914.43	7135.96
914.742	7196.97
915.054	7144.77
915.366	7119.46
915.678	7091.66
915.99	7092.57
916.302	7095.51
916.613	7012.34
916.925	6974.6
917.236	6936.64
917.548	6873.36
917.859	6976.86
918.171	6863.2
918.482	6834.5
918.794	6795.4
919.105	6823.42
919.416	6744.55
919.727	6692.35
920.038	6746.36
920.349	6666.82
920.66	6651.45
920.971	6645.57
921.282	6622.98
921.593	6555.41
921.903	6558.57
922.214	6564.45
922.525	6513.15
922.835	6450.1
923.146	6406.48
923.456	6401.74
923.767	6356.77
924.077	6347.05
924.387	6337.11
924.697	6312.93
925.008	6265.24
925.318	6302.08
925.628	6212.82
925.938	6195.87
926.248	6134.4
926.558	6153.84
926.867	6193.83
927.177	6082.88
927.487	6072.71
927.796	6049.43
928.106	6049.88
928.416	6004.01
928.725	5962.43
929.034	5975.53
929.344	5952.48
929.653	5908.87
929.962	5899.15
930.271	5875.65
930.581	5881.53
930.89	5767.18
931.199	5798.14
931.508	5815.31
931.817	5705.49
932.125	5744.13
932.434	5674.07
932.743	5611.7
933.051	5614.19
933.36	5618.48
933.669	5565.6
933.977	5541.87
934.286	5505.94
934.594	5510.91
934.902	5460.07
935.21	5484.47
935.519	5499.62
935.827	5453.51
936.135	5385.95
936.443	5343.24
936.751	5325.83
937.059	5278.83
937.367	5227.53
937.674	5255.33
937.982	5298.94
938.29	5209
938.597	5198.15
938.905	5140.3
939.213	5186.4
939.52	5114.99
939.827	5132.17
940.135	5079.97
940.442	5079.97
940.749	5035.22
941.056	5051.94
941.363	4987.31
941.67	4993.64
941.977	4971.27
942.284	4910.48
942.591	4897.6
942.898	4897.37
943.205	4870.25
943.511	4834.32
943.818	4826.41
944.125	4812.4
944.431	4778.05
944.738	4785.06
945.044	4746.41
945.35	4748.9
945.657	4727.88
945.963	4711.16
946.269	4649.69
946.575	4654.21
946.881	4632.29
947.187	4617.38
947.493	4572.63
947.799	4624.38
948.105	4518.62
948.41	4506.42
948.716	4533.31
949.022	4495.57
949.327	4483.14
949.633	4434.33
949.938	4444.5
950.244	4452.19
950.549	4426.88
950.854	4362.24
951.16	4333.54
951.465	4336.71
951.77	4356.37
952.075	4312.3
952.38	4273.43
952.685	4312.53
952.99	4219.65
953.294	4263.72
953.599	4216.03
953.904	4199.76
954.209	4107.56
954.513	4153.21
954.818	4111.63
955.122	4093.1
955.426	4112.99
955.731	4070.27
956.035	4038.86
956.339	4030.05
956.643	4021.01
956.948	4014
957.252	3966.55
957.556	3952.76
957.86	3943.5
958.163	3966.55
958.467	3929.26
958.771	3914.35
959.075	3901.24
959.378	3857.85
959.682	3851.52
959.985	3854.46
960.289	3868.92
960.592	3783.73
960.896	3779.89
961.199	3801.35
961.502	3758.87
961.805	3741.7
962.108	3736.27
962.411	3698.53
962.714	3688.82
963.017	3640.23
963.32	3692.43
963.623	3645.88
963.926	3628.93
964.228	3606.11
964.531	3605.65
964.833	3583.51
965.136	3547.8
965.438	3537.63
965.741	3529.05
966.043	3517.97
966.345	3470.06
966.648	3487.46
966.95	3510.52
967.252	3432.1
967.554	3427.58
967.856	3467.13
968.158	3416.73
968.46	3415.15
968.761	3361.14
969.063	3335.6
969.365	3343.51
969.666	3331.99
969.968	3330.18
970.269	3305.1
970.571	3268.49
970.872	3251.76
971.174	3245.89
971.475	3272.33
971.776	3253.12
972.077	3235.72
972.378	3202.27
972.679	3168.15
972.98	3157.53
973.281	3184.87
973.582	3164.76
973.883	3159.11
974.183	3108.72
974.484	3127.02
974.785	3101.26
975.085	3076.63
975.386	3101.94
975.686	3103.75
975.986	3076.18
976.287	3021.04
976.587	3018.1
976.887	3023.97
977.187	2964.09
977.487	2967.25
977.787	2956.18
978.087	2952.34
978.387	2937.65
978.687	2934.26
978.987	2878.44
979.286	2891.55
979.586	2919.12
979.885	2864.2
980.185	2842.51
980.484	2837.09
980.784	2824.43
981.083	2803.19
981.382	2792.12
981.682	2786.69
981.981	2774.72
982.28	2797.31
982.579	2760.48
982.878	2771.78
983.177	2725
983.475	2728.61
983.774	2692.68
984.073	2720.48
984.372	2666.47
984.67	2699.01
984.969	2673.93
985.267	2664.44
985.566	2619.24
985.864	2652.01
986.162	2658.56
986.461	2565.46
986.759	2593.48
987.057	2593.93
987.355	2577.88
987.653	2567.94
987.951	2544.21
988.249	2532.01
988.547	2532.69
988.844	2541.05
989.142	2510.99
989.44	2538.34
989.737	2492.91
990.035	2447.94
990.332	2451.33
990.63	2436.42
990.927	2452.01
991.224	2416.98
991.521	2395.29
991.819	2395.52
992.116	2385.12
992.413	2371.56
992.71	2368.62
993.006	2363.65
993.303	2339.47
993.6	2339.25
993.897	2319.13
994.193	2309.64
994.49	2336.99
994.787	2310.09
995.083	2283.2
995.379	2287.27
995.676	2280.26
995.972	2242.3
996.268	2242.75
996.565	2263.54
996.861	2227.84
997.157	2205.01
997.453	2190.55
997.749	2177.44
998.044	2161.62
998.34	2173.83
998.636	2175.86
998.932	2136.54
999.227	2139.25
999.523	2136.99
999.818	2131.34
1000.114	2110.1
1000.409	2088.18
1000.704	2093.83
1001	2086.6
1001.295	2026.49
1001.59	2039.82
1001.885	2021.51
1002.18	2030.1
1002.475	2007.28
1002.77	2033.04
1003.065	1985.81
1003.359	1980.39
1003.654	1958.47
1003.949	1972.93
1004.243	1938.13
1004.538	1928.86
1004.832	1917.56
1005.127	1907.85
1005.421	1908.3
1005.715	1901.97
1006.009	1890.9
1006.304	1861.29
1006.598	1840.95
1006.892	1855.64
1007.186	1852.48
1007.48	1809.09
1007.773	1838.24
1008.067	1803.44
1008.361	1814.06
1008.655	1791.46
1008.948	1773.84
1009.242	1772.26
1009.535	1774.74
1009.829	1764.12
1010.122	1742.2
1010.415	1747.4
1010.708	1713.05
1011.001	1689.55
1011.295	1716.21
1011.588	1688.42
1011.881	1677.34
1012.173	1668.76
1012.466	1672.37
1012.759	1677.12
1013.052	1645.93
1013.344	1630.56
1013.637	1634.41
1013.93	1614.97
1014.222	1600.51
1014.514	1585.14
1014.807	1588.08
1015.099	1560.28
1015.391	1565.71
1015.683	1567.06
1015.976	1537.01
1016.268	1548.98
1016.56	1532.26
1016.851	1532.26
1017.143	1521.64
1017.435	1491.59
1017.727	1504.01
1018.018	1468.53
1018.31	1495.88
1018.602	1465.6
1018.893	1468.08
1019.185	1473.96
1019.476	1431.02
1019.767	1448.2
1020.058	1450
1020.35	1417.46
1020.641	1394.41
1020.932	1373.4
1021.223	1375.43
1021.514	1405.49
1021.804	1351.25
1022.095	1348.31
1022.386	1350.12
1022.677	1339.95
1022.967	1338.14
1023.258	1329.33
1023.548	1281.87
1023.839	1329.1
1024.129	1299.95
1024.419	1283.68
1024.709	1294.53
1025	1300.18
1025.29	1290.69
1025.58	1255.66
1025.87	1248.88
1026.16	1229.22
1026.449	1241.42
1026.739	1205.72
1027.029	1237.81
1027.319	1206.85
1027.608	1193.51
1027.898	1195.55
1028.187	1205.72
1028.477	1189.9
1028.766	1178.82
1029.055	1161.42
1029.344	1141.76
1029.634	1152.84
1029.923	1163.01
1030.212	1132.95
1030.501	1109.9
1030.79	1115.32
1031.078	1124.14
1031.367	1074.42
1031.656	1115.1
1031.945	1066.96
1032.233	1078.49
1032.522	1080.07
1032.81	1093.4
1033.099	1059.05
1033.387	1071.94
1033.675	1021.54
1033.963	1032.61
1034.251	1049.11
1034.54	1029.68
1034.828	1030.35
1035.116	1019.51
1035.403	1001.43
1035.691	1004.37
1035.979	981.77
1036.267	993.52
1036.554	969.56
1036.842	984.25
1037.129	981.32
1037.417	1004.82
1037.704	983.12
1037.992	988.1
1038.279	938.83
1038.566	925.05
1038.853	925.05
1039.14	925.05
