Data from hue_90_FLMS001491_94.txt Node
Date: Mon Feb 06 15:25:56 GMT 2017
User: dcchb
Spectrometer: FLMS00149
Trigger mode: 0
Integration Time (sec): 2.000000E-2
Scans to average: 10
Electric dark correction enabled: true
Nonlinearity correction enabled: false
Boxcar width: 0
XAxis mode: Wavelengths
Number of Pixels in Spectrum: 2048
>>>>>Begin Spectral Data<<<<<
341.393	3.09
341.776	3.09
342.16	3.09
342.543	-64.02
342.927	-54.98
343.31	-76.23
343.693	-61.54
344.077	-63.35
344.46	-53.63
344.843	-60.18
345.226	-50.92
345.61	-19.51
345.993	-6.17
346.376	-10.24
346.759	8.74
347.142	16.2
347.525	27.95
347.908	78.8
348.291	71.11
348.674	84.67
349.057	114.28
349.44	131.45
349.823	159.47
350.206	183.2
350.588	194.95
350.971	206.93
351.354	235.4
351.737	222.97
352.119	242.63
352.502	256.65
352.884	277.66
353.267	274.5
353.65	306.36
354.032	300.03
354.414	289.19
354.797	306.14
355.179	283.76
355.562	318.11
355.944	333.03
356.326	335.97
356.709	320.82
357.091	337.55
357.473	340.26
357.855	364.67
358.238	349.75
358.62	328.06
359.002	329.41
359.384	322.86
359.766	308.62
360.148	333.25
360.53	335.06
360.912	333.71
361.294	336.42
361.676	335.74
362.057	327.83
362.439	330.32
362.821	325.8
363.203	321.73
363.584	317.44
363.966	329.19
364.348	310.43
364.729	322.18
365.111	336.87
365.493	314.72
365.874	322.63
366.256	314.72
366.637	313.37
367.019	318.79
367.4	324.21
367.781	323.54
368.163	306.59
368.544	309.98
368.925	308.85
369.306	326.7
369.688	303.42
370.069	323.99
370.45	316.98
370.831	308.62
371.212	319.24
371.593	323.54
371.974	309.98
372.355	334.38
372.736	326.02
373.117	314.95
373.498	307.04
373.879	313.59
374.26	297.55
374.641	308.4
375.021	295.74
375.402	302.75
375.783	325.12
376.163	341.16
376.544	323.31
376.925	314.95
377.305	327.6
377.686	330.77
378.066	308.62
378.447	322.63
378.827	319.47
379.208	330.77
379.588	310.88
379.968	331.22
380.349	328.73
380.729	344.33
381.109	340.71
381.489	323.76
381.87	345.68
382.25	323.08
382.63	352.46
383.01	349.07
383.39	350.65
383.77	359.24
384.15	357.21
384.53	334.84
384.91	354.27
385.29	362.86
385.67	351.33
386.049	375.96
386.429	354.5
386.809	363.54
387.189	345.91
387.568	359.92
387.948	350.43
388.328	357.21
388.707	363.76
389.087	374.83
389.466	370.32
389.846	353.14
390.225	387.94
390.605	353.59
390.984	344.78
391.363	361.05
391.743	359.47
392.122	378.45
392.501	366.25
392.881	372.12
393.26	374.83
393.639	368.73
394.018	390.88
394.397	351.78
394.776	380.94
395.155	377.09
395.534	350.65
395.913	389.75
396.292	380.71
396.671	380.26
397.05	369.64
397.429	404.66
397.808	378
398.186	375.06
398.565	396.08
398.944	383.87
399.323	385.46
399.701	386.81
400.08	417.32
400.458	403.08
400.837	408.96
401.215	412.35
401.594	433.14
401.972	408.96
402.351	399.92
402.729	404.66
403.107	435.85
403.486	413.93
403.864	416.19
404.242	430.65
404.62	409.18
404.999	426.13
405.377	431.1
405.755	429.52
406.133	422.74
406.511	423.2
406.889	436.75
407.267	448.05
407.645	418.22
408.023	435.17
408.401	434.49
408.779	451.22
409.156	447.15
409.534	423.65
409.912	462.74
410.29	463.42
410.667	465.45
411.045	450.76
411.422	470.88
411.8	455.28
412.178	471.78
412.555	462.29
412.933	481.27
413.31	456.64
413.687	492.8
414.065	499.58
414.442	495.74
414.819	493.48
415.197	513.14
415.574	499.13
415.951	498.22
416.328	516.53
416.705	485.57
417.082	487.83
417.46	488.96
417.837	499.58
418.214	513.81
418.591	502.29
418.967	521.95
419.344	529.18
419.721	532.34
420.098	518.79
420.475	538.67
420.852	538.9
421.228	529.63
421.605	541.84
421.982	552.23
422.358	537.77
422.735	559.46
423.111	565.79
423.488	529.86
423.864	549.97
424.241	531.44
424.617	564.43
424.994	561.95
425.37	556.07
425.746	577.77
426.123	598.56
426.499	574.83
426.875	573.02
427.251	591.1
427.627	594.04
428.003	589.29
428.379	601.27
428.756	609.86
429.132	610.08
429.507	606.24
429.883	617.99
430.259	608.73
430.635	637.88
431.011	624.32
431.387	649.63
431.763	663.41
432.138	662.28
432.514	639.69
432.89	656.64
433.265	649.4
433.641	668.84
434.016	654.83
434.392	672.23
434.767	677.43
435.143	684.21
435.518	727.59
435.894	702.28
436.269	706.58
436.644	722.62
437.02	705.22
437.395	742.73
437.77	759.91
438.145	717.42
438.52	749.51
438.895	757.2
439.271	742.28
439.646	740.7
440.021	748.38
440.395	777.99
440.77	761.72
441.145	751.77
441.52	796.29
441.895	798.55
442.27	778.89
442.645	796.29
443.019	799.23
443.394	808.27
443.769	799.46
444.143	806.01
444.518	796.29
444.892	842.62
445.267	827.03
445.641	833.13
446.016	848.27
446.39	842.17
446.764	834.94
447.139	839
447.513	854.37
447.887	840.13
448.262	873.58
448.636	855.73
449.01	889.4
449.384	868.16
449.758	880.81
450.132	894.82
450.506	909.96
450.88	928.49
451.254	919.68
451.628	902.28
452.002	925.78
452.376	930.3
452.75	940.92
453.123	958.1
453.497	942.73
453.871	970.75
454.244	982.95
454.618	1002.39
454.992	1005.78
455.365	1009.17
455.739	1039.22
456.112	1040.81
456.486	1053.91
456.859	1044.2
457.232	1059.56
457.606	1073.12
457.979	1085.55
458.352	1108.83
458.725	1124.42
459.099	1133.46
459.472	1154.93
459.845	1163.06
460.218	1163.06
460.591	1179.56
460.964	1187.69
461.337	1190.41
461.71	1220.24
462.083	1201.93
462.456	1245.77
462.829	1273.34
463.201	1235.6
463.574	1310.4
463.947	1323.74
464.32	1327.35
464.692	1323.51
465.065	1320.35
465.438	1362.15
465.81	1369.84
466.183	1398.76
466.555	1442.83
466.928	1440.34
467.3	1432.43
467.672	1457.74
468.045	1511.3
468.417	1505.43
468.789	1534.8
469.161	1555.59
469.534	1586.78
469.906	1619.1
470.278	1625.65
470.65	1664.07
471.022	1691.18
471.394	1709.26
471.766	1777.74
472.138	1788.81
472.51	1821.58
472.882	1892.08
473.253	1924.4
473.625	1948.13
473.997	1992.19
474.369	2002.59
474.74	2029.25
475.112	2103.6
475.484	2146.77
475.855	2181.34
476.227	2233.77
476.598	2348.34
476.97	2359.64
477.341	2428.11
477.713	2448.45
478.084	2496.59
478.455	2589.47
478.827	2666.75
479.198	2729.8
479.569	2766.64
479.94	2864.03
480.311	2923.02
480.682	3014.54
481.053	3091.6
481.424	3187.87
481.795	3252.5
482.166	3348.99
482.537	3399.84
482.908	3540.18
483.279	3594.41
483.65	3663.34
484.021	3810.45
484.391	3881.18
484.762	3964.34
485.133	4048.64
485.503	4164.57
485.874	4252.02
486.244	4370.21
486.615	4508.96
486.985	4597.1
487.356	4761.16
487.726	4836.64
488.097	4956.64
488.467	5033.92
488.837	5179.91
489.207	5288.83
489.578	5416.96
489.948	5544.64
490.318	5677.52
490.688	5785.77
491.058	5925.65
491.428	6029.83
491.798	6162.71
492.168	6296.94
492.538	6410.61
492.908	6578.97
493.278	6648.57
493.648	6693.31
494.017	6891.95
494.387	7032.96
494.757	7128.56
495.126	7237.71
495.496	7274.54
495.866	7445.84
496.235	7601.54
496.605	7722.21
496.974	7773.74
497.344	7951.13
497.713	8027.29
498.082	8154.97
498.452	8244.01
498.821	8317.22
499.19	8478.58
499.559	8552.92
499.928	8663.88
500.298	8702.07
500.667	8922.18
501.036	8945.46
501.405	9060.71
501.774	9066.81
502.143	9193.36
502.512	9244.88
502.88	9369.4
503.249	9414.6
503.618	9537.76
503.987	9643.74
504.356	9651.88
504.724	9754.25
505.093	9793.12
505.462	9811.65
505.83	9975.03
506.199	9979.33
506.567	10109.27
506.936	10202.15
507.304	10297.29
507.672	10365.76
508.041	10405.31
508.409	10516.26
508.777	10552.19
509.145	10581.57
509.514	10659.08
509.882	10711.74
510.25	10801.91
510.618	10839.42
510.986	10849.36
511.354	10947.44
511.722	11064.27
512.09	11160.99
512.458	11156.47
512.826	11261.33
513.193	11249.35
513.561	11293.19
513.929	11368.67
514.297	11450.25
514.664	11482.57
515.032	11512.4
515.4	11631.26
515.767	11534.99
516.135	11671.03
516.502	11575.67
516.869	11741.09
517.237	11792.84
517.604	11727.3
517.972	11811.37
518.339	11793.52
518.706	11931.14
519.073	11899.28
519.44	11935.66
519.808	12048.43
520.175	11963.91
520.542	12130.23
520.909	12138.59
521.276	12095.88
521.643	12156.9
522.009	12235.99
522.376	12312.37
522.743	12299.94
523.11	12335.65
523.477	12444.8
523.843	12487.96
524.21	12532.26
524.577	12606.83
524.943	12553.5
525.31	12566.38
525.676	12673.49
526.043	12795.53
526.409	12701.06
526.776	12870.78
527.142	12821.74
527.508	12767.05
527.874	12888.63
528.241	12848.63
528.607	12878.23
528.973	12908.06
529.339	12946.71
529.705	12937.22
530.071	13040.94
530.437	13069.64
530.803	13096.99
531.169	13072.13
531.535	12958.46
531.901	12952.13
532.267	13017.67
532.632	13026.48
532.998	13001.4
533.364	13001.62
533.73	13028.74
534.095	13053.6
534.461	13065.12
534.826	13118.23
535.192	13126.14
535.557	13089.08
535.923	13008.4
536.288	12986.71
536.653	12960.27
537.019	12932.24
537.384	12920.04
537.749	12931.57
538.114	13013.15
538.479	12878.01
538.845	12961.85
539.21	12830.55
539.575	12782.64
539.94	12834.39
540.305	12860.16
540.67	12743.55
541.034	12779.93
541.399	12808.18
541.764	12794.85
542.129	12701.52
542.494	12718.69
542.858	12730.22
543.223	12739.03
543.587	12671.01
543.952	12684.12
544.316	12536.55
544.681	12575.64
545.045	12651.35
545.41	12576.77
545.774	12555.98
546.138	12526.38
546.503	12487.51
546.867	12433.27
547.231	12499.71
547.595	12500.17
547.959	12468.08
548.324	12372.49
548.688	12403.22
549.052	12364.8
549.416	12299.04
549.779	12251.36
550.143	12299.72
550.507	12262.88
550.871	12295.43
551.235	12271.02
551.599	12254.07
551.962	12254.75
552.326	12246.61
552.689	12269.66
553.053	12188.08
553.417	12143.56
553.78	12255.43
554.143	12128.88
554.507	12163.23
554.87	12165.49
555.234	12234.86
555.597	12077.13
555.96	12083.91
556.323	12082.78
556.686	12050.23
557.05	12029.44
557.413	12040.74
557.776	12020.63
558.139	12091.59
558.502	12112.38
558.865	11996.9
559.228	12089.56
559.59	12125.71
559.953	12120.51
560.316	12167.97
560.679	12061.99
561.041	12133.4
561.404	12146.28
561.767	12127.07
562.129	12089.78
562.492	12217.01
562.854	12176.11
563.217	12208.42
563.579	12200.29
563.941	12243.22
564.304	12232.83
564.666	12344.01
565.028	12189.44
565.39	12225.37
565.753	12224.24
566.115	12275.76
566.477	12364.8
566.839	12177.69
567.201	12345.82
567.563	12388.76
567.925	12392.82
568.287	12405.93
568.648	12444.12
569.01	12399.6
569.372	12490.67
569.734	12331.58
570.095	12447.06
570.457	12527.51
570.819	12481.41
571.18	12575.87
571.542	12553.95
571.903	12558.24
572.265	12571.58
572.626	12619.94
572.987	12596.89
573.349	12560.05
573.71	12658.81
574.071	12664.23
574.432	12578.13
574.794	12661.97
575.155	12706.26
575.516	12621.29
575.877	12658.81
576.238	12647.05
576.599	12649.09
576.96	12638.92
577.32	12732.25
577.681	12733.38
578.042	12735.19
578.403	12685.25
578.763	12682.53
579.124	12703.55
579.485	12762.08
579.845	12763.21
580.206	12708.3
580.566	12682.31
580.927	12740.39
581.287	12810.44
581.648	12722.08
582.008	12804.79
582.368	12764.57
582.728	12788.07
583.089	12776.77
583.449	12703.78
583.809	12770.89
584.169	12741.52
584.529	12705.58
584.889	12870.78
585.249	12673.04
585.609	12605.7
585.969	12777.67
586.329	12601.86
586.688	12680.27
587.048	12653.38
587.408	12680.5
587.768	12669.43
588.127	12692.03
588.487	12612.48
588.846	12706.49
589.206	12539.03
589.565	12584.23
589.925	12660.84
590.284	12670.33
590.643	12562.99
591.003	12556.66
591.362	12593.04
591.721	12595.98
592.08	12557.57
592.44	12595.08
592.799	12567.06
593.158	12511.69
593.517	12531.8
593.876	12502.88
594.235	12581.75
594.593	12588.3
594.952	12505.14
595.311	12571.58
595.67	12570.22
596.029	12612.48
596.387	12593.5
596.746	12634.4
597.104	12516.66
597.463	12496.78
597.822	12589.2
598.18	12508.53
598.538	12509.66
598.897	12579.49
599.255	12505.14
599.613	12652.48
599.972	12562.08
600.33	12578.58
600.688	12467.62
601.046	12519.37
601.404	12587.85
601.762	12502.43
602.12	12596.43
602.478	12563.89
602.836	12535.42
603.194	12494.52
603.552	12546.72
603.91	12461.52
604.268	12546.94
604.625	12479.38
604.983	12509.66
605.341	12491.58
605.698	12560.73
606.056	12521.41
606.413	12470.11
606.771	12632.37
607.128	12601.18
607.485	12589.65
607.843	12572.71
608.2	12604.34
608.557	12637.56
608.914	12650.44
609.272	12696.09
609.629	12671.01
609.986	12659.03
610.343	12688.18
610.7	12747.39
611.057	12639.15
611.414	12718.92
611.771	12664
612.127	12792.14
612.484	12726.6
612.841	12741.74
613.198	12695.64
613.554	12669.65
613.911	12890.21
614.267	12778.35
614.624	12827.16
614.98	12853.38
615.337	12754.85
615.693	12865.35
616.05	12816.54
616.406	12868.52
616.762	12812.47
617.118	12805.24
617.475	12833.72
617.831	12838.69
618.187	12880.49
618.543	12912.81
618.899	13006.82
619.255	12929.98
619.611	12932.02
619.967	12972.24
620.323	12937.67
620.678	12916.43
621.034	12911.68
621.39	12920.04
621.746	12858.35
622.101	13025.35
622.457	12893.15
622.812	12946.48
623.168	12954.39
623.523	12968.63
623.879	13051.34
624.234	12931.11
624.589	12970.66
624.945	12978.8
625.3	12921.85
625.655	12968.85
626.01	13000.72
626.365	12955.29
626.72	12950.78
627.075	12948.29
627.43	12974.5
627.785	12930.21
628.14	12944.45
628.495	12904
628.85	12898.8
629.205	12822.42
629.559	12918.46
629.914	12906.26
630.269	12824.9
630.623	12841.4
630.978	12768.63
631.332	12866.26
631.687	12836.88
632.041	12806.82
632.396	12815.41
632.75	12744
633.104	12731.35
633.459	12632.14
633.813	12756.66
634.167	12648.86
634.521	12636.21
634.875	12617.22
635.229	12686.15
635.583	12516.21
635.937	12633.72
636.291	12591.46
636.645	12628.3
636.999	12648.86
637.352	12600.05
637.706	12536.55
638.06	12519.83
638.413	12535.64
638.767	12541.97
639.121	12508.53
639.474	12479.38
639.828	12465.14
640.181	12508.98
640.534	12474.18
640.888	12371.81
641.241	12412.26
641.594	12339.27
641.947	12384.24
642.301	12391.69
642.654	12407.29
643.007	12473.73
643.36	12393.28
643.713	12412.26
644.066	12376.55
644.419	12311.7
644.771	12259.04
645.124	12113.28
645.477	12122.77
645.83	12116.22
646.182	12010.91
646.535	12026.05
646.888	11985.83
647.24	11947.19
647.593	11998.94
647.945	11910.35
648.298	11920.07
648.65	11870.8
649.002	11947.86
649.355	11914.19
649.707	11958.94
650.059	11955.77
650.411	12142.43
650.763	12069.89
651.115	12256.78
651.467	12192.83
651.819	12207.29
652.171	12254.52
652.523	12205.48
652.875	12254.07
653.227	12160.74
653.578	12214.52
653.93	12243.68
654.282	12151.25
654.633	12148.76
654.985	12137.69
655.337	12134.07
655.688	12198.25
656.039	12267.4
656.391	12113.96
656.742	12137.69
657.094	12160.74
657.445	12246.61
657.796	12089.1
658.147	12130.91
658.498	12180.4
658.849	12205.03
659.2	12141.08
659.551	12103.34
659.902	12132.72
660.253	12083.45
660.604	12163.68
660.955	12164.13
661.306	12203.22
661.656	12141.31
662.007	12124.13
662.358	12206.16
662.708	12163.68
663.059	12134.98
663.409	12095.88
663.76	12195.09
664.11	12203
664.461	12221.75
664.811	12157.12
665.161	12188.54
665.511	12247.29
665.862	12173.85
666.212	12195.77
666.562	12226.05
666.912	12184.02
667.262	12158.25
667.612	12275.09
667.962	12211.13
668.312	12228.76
668.662	12292.49
669.011	12236.67
669.361	12145.15
669.711	12201.64
670.06	12125.26
670.41	12207.07
670.76	12171.59
671.109	12269.66
671.459	12207.52
671.808	12126.16
672.157	12182.66
672.507	12143.11
672.856	12198.7
673.205	12125.71
673.554	12109.22
673.904	12167.07
674.253	12184.24
674.602	12044.36
674.951	11942.89
675.3	11846.4
675.649	11983.12
675.998	12032.83
676.346	12019.05
676.695	12120.29
677.044	12007.07
677.393	11970.91
677.741	11997.35
678.09	11986.28
678.438	11981.54
678.787	12024.47
679.135	11976.79
679.484	11937.69
679.832	11962.1
680.181	11831.48
680.529	11931.82
680.877	11887.3
681.225	11854.31
681.573	11854.31
681.922	11784.48
682.27	11705.84
682.618	11755.33
682.966	11676.46
683.314	11708.1
683.661	11680.75
684.009	11703.8
684.357	11596.91
684.705	11563.24
685.053	11582.9
685.4	11546.52
685.748	11553.75
686.095	11479.4
686.443	11484.15
686.79	11437.59
687.138	11443.02
687.485	11377.94
687.832	11391.27
688.18	11382
688.527	11317.6
688.874	11291.38
689.221	11309.46
689.568	11215
689.915	11195.12
690.262	11227.43
690.609	11252.29
690.956	11145.17
691.303	11095.46
691.65	11036.48
691.997	11026.31
692.344	10920.55
692.69	10964.61
693.037	10921.68
693.383	10850.04
693.73	10859.53
694.077	10769.59
694.423	10839.64
694.769	10767.1
695.116	10752.42
695.462	10689.82
695.808	10649.82
696.155	10716.03
696.501	10562.14
696.847	10603.04
697.193	10516.49
697.539	10550.39
697.885	10423.61
698.231	10394.23
698.577	10384.74
698.923	10355.14
699.269	10310.62
699.614	10265.2
699.96	10230.39
700.306	10205.08
700.651	10174.13
700.997	10123.73
701.342	10112.66
701.688	10105.88
702.033	10041.93
702.379	10008.25
702.724	9938.88
703.069	9987.46
703.415	9851.42
703.76	9842.38
704.105	9882.61
704.45	9855.04
704.795	9746.57
705.14	9740.92
705.485	9748.6
705.83	9701.82
706.175	9693.23
706.52	9636.29
706.865	9597.64
707.209	9564.88
707.554	9577.3
707.899	9562.62
708.243	9532.33
708.588	9442.17
708.932	9436.97
709.277	9405.11
709.621	9466.12
709.966	9347.25
710.31	9405.78
710.654	9238.56
710.998	9320.14
711.342	9314.49
711.687	9273.13
712.031	9194.94
712.375	9139.8
712.719	9161.27
713.063	9188.39
713.407	9293.92
713.75	9204.66
714.094	9119.24
714.438	9187.03
714.782	9097.77
715.125	9071.33
715.469	9140.93
715.812	9021.39
716.156	8955.85
716.499	8926.02
716.843	8968.28
717.186	8933.25
717.53	8970.99
717.873	8947.49
718.216	8909.98
718.559	8941.84
718.902	8913.37
719.246	8876.53
719.589	8829.3
719.932	8831.34
720.275	8850.77
720.617	8798.34
720.96	8819.81
721.303	8811.68
721.646	8777.33
721.989	8698.01
722.331	8759.93
722.674	8714.95
723.016	8718.12
723.359	8767.83
723.701	8765.35
724.044	8708.85
724.386	8724.22
724.729	8686.03
725.071	8683.09
725.413	8714.95
725.755	8651.91
726.097	8651.45
726.439	8606.71
726.782	8569.87
727.124	8643.54
727.465	8588.18
727.807	8616.43
728.149	8613.04
728.491	8592.25
728.833	8574.17
729.175	8611.23
729.516	8524
729.858	8584.11
730.199	8531.46
730.541	8575.07
730.882	8524.9
731.224	8545.69
731.565	8509.54
731.906	8553.38
732.248	8507.28
732.589	8491.23
732.93	8497.79
733.271	8500.95
733.612	8543.21
733.953	8523.1
734.294	8546.6
734.635	8523.55
734.976	8537.78
735.317	8525.13
735.658	8497.33
735.999	8489.42
736.339	8512.25
736.68	8503.89
737.021	8470.44
737.361	8487.62
737.702	8591.79
738.042	8536.88
738.383	8506.6
738.723	8499.59
739.063	8506.15
739.404	8486.71
739.744	8620.04
740.084	8536.2
740.424	8548.18
740.764	8593.38
741.104	8586.6
741.444	8572.13
741.784	8525.13
742.124	8621.17
742.464	8594.51
742.804	8579.59
743.143	8607.39
743.483	8699.14
743.823	8663.2
744.162	8636.54
744.502	8754.28
744.841	8729.19
745.181	8829.98
745.52	8764.22
745.86	8856.87
746.199	8825.23
746.538	8910.2
746.877	8908.85
747.216	8954.72
747.556	8985.91
747.895	8996.53
748.234	9014.16
748.573	9098.9
748.911	9067.94
749.25	9180.93
749.589	9182.96
749.928	9207.82
750.267	9297.76
750.605	9377.76
750.944	9361.49
751.283	9458.44
751.621	9595.61
751.96	9570.53
752.298	9722.39
752.636	9735.49
752.975	9856.17
753.313	9885.77
753.651	9991.53
753.989	10082.15
754.327	10144.07
754.666	10284.4
755.004	10309.71
755.342	10488.47
755.679	10617.05
756.017	10672.87
756.355	10782.24
756.693	10814.33
757.031	11052.97
757.368	11132.29
757.706	11227.2
758.044	11317.37
758.381	11525.73
758.719	11577.93
759.056	11735.89
759.394	11851.82
759.731	11902.67
760.068	12062.89
760.405	12162.55
760.743	12294.75
761.08	12556.44
761.417	12551.24
761.754	12681.63
762.091	12840.5
762.428	12912.58
762.765	13027.16
763.102	13278
763.438	13398.9
763.775	13437.99
764.112	13635.73
764.449	13808.61
764.785	13863.07
765.122	13958.88
765.458	14060.8
765.795	14172.21
766.131	14296.73
766.467	14369.04
766.804	14510.73
767.14	14640.9
767.476	14831.63
767.812	14955.47
768.148	15033.21
768.485	15041.57
768.821	15171.28
769.157	15256.25
769.492	15371.73
769.828	15505.51
770.164	15533.08
770.5	15594.32
770.836	15707.31
771.171	15743.02
771.507	15804.26
771.842	15858.04
772.178	15954.76
772.513	16020.98
772.849	16110.01
773.184	16187.75
773.519	16243.12
773.855	16286.73
774.19	16300.74
774.525	16336.22
774.86	16418.03
775.195	16463
775.53	16530.34
775.865	16497.57
776.2	16434.75
776.535	16507.07
776.87	16540.06
777.205	16564.01
777.539	16566.73
777.874	16660.28
778.209	16606.05
778.543	16626.84
778.878	16669.77
779.212	16655.31
779.547	16589.78
779.881	16771.01
780.215	16696.44
780.55	16758.81
780.884	16656.21
781.218	16669.55
781.552	16738.7
781.886	16754.52
782.22	16709.55
782.554	16733.27
782.888	16555.88
783.222	16546.16
783.556	16551.36
783.889	16559.04
784.223	16475.65
784.557	16474.3
784.89	16524.01
785.224	16503.68
785.557	16445.82
785.891	16533.05
786.224	16486.5
786.558	16436.33
786.891	16317.92
787.224	16339.61
787.557	16376.22
787.891	16244.7
788.224	16396.56
788.557	16439.27
788.89	16332.61
789.223	16346.17
789.556	16262.55
789.888	16208.09
790.221	16221.42
790.554	16143.23
790.887	16068.21
791.219	16077.47
791.552	16090.13
791.884	16002.67
792.217	15956.57
792.549	15927.87
792.882	15876.35
793.214	15813.07
793.546	15896.23
793.879	15771.94
794.211	15693.75
794.543	15693.75
794.875	15673.42
795.207	15781.89
795.539	15644.04
795.871	15773.53
796.203	15566.07
796.535	15541.22
796.867	15510.71
797.198	15496.47
797.53	15532.4
797.862	15421.22
798.193	15465.74
798.525	15324.72
798.856	15306.19
799.188	15253.09
799.519	15215.8
799.85	15099.87
800.182	15106.42
800.513	15127.67
800.844	15025.3
801.175	15103.49
801.506	15078.63
801.837	15011.74
802.168	14916.83
802.499	14949.82
802.83	14840.9
803.161	14785.98
803.491	14859.65
803.822	14873.66
804.153	14685.64
804.483	14623.05
804.814	14549.6
805.145	14628.02
805.475	14628.02
805.805	14560.9
806.136	14562.26
806.466	14532.88
806.796	14469.83
807.126	14417.18
807.457	14372.43
807.787	14393.9
808.117	14324.3
808.447	14195.26
808.777	14301.02
809.107	14248.37
809.436	14185.09
809.766	14208.14
810.096	14134.92
810.426	14078.2
810.755	14121.59
811.085	14093.57
811.414	14090.18
811.744	14026.23
812.073	13920.24
812.403	13937.64
812.732	13924.31
813.061	13862.39
813.39	13832.79
813.719	13791.66
814.049	13770.41
814.378	13800.47
814.707	13679.34
815.036	13662.62
815.365	13586.92
815.693	13463.76
816.022	13512.34
816.351	13456.07
816.68	13499.24
817.008	13515.96
817.337	13385.57
817.665	13370.88
817.994	13488.84
818.322	13360.03
818.651	13258.34
818.979	13298.34
819.307	13327.94
819.636	13340.6
819.964	13158
820.292	13256.3
820.62	13179.92
820.948	13207.27
821.276	13167.04
821.604	13177.44
821.932	13214.05
822.259	13175.63
822.587	13210.88
822.915	13146.02
823.243	13252.01
823.57	13199.13
823.898	13203.2
824.225	13146.02
824.553	13132.01
824.88	13205.23
825.207	13148.28
825.535	13205.46
825.862	13224.67
826.189	13209.98
826.516	13171.33
826.843	13242.75
827.17	13216.76
827.497	13242.97
827.824	13243.42
828.151	13258.11
828.478	13265.57
828.805	13248.39
829.131	13253.59
829.458	13176.76
829.785	13164.55
830.111	13129.08
830.438	13241.84
830.764	13278
831.09	13237.55
831.417	13181.5
831.743	13143.54
832.069	13205.46
832.395	13140.6
832.722	13153.93
833.048	13148.28
833.374	13102.41
833.7	13132.24
834.026	13029.87
834.351	13044.33
834.677	13059.02
835.003	13134.05
835.329	13084.33
835.654	13073.26
835.98	12999.59
836.306	12993.26
836.631	12972.24
836.956	12952.81
837.282	12969.08
837.607	13036.2
837.932	12899.7
838.258	12922.3
838.583	12917.56
838.908	12819.03
839.233	12875.3
839.558	12861.96
839.883	12776.77
840.208	12748.97
840.533	12845.69
840.858	12778.58
841.182	12787.16
841.507	12675.3
841.832	12592.82
842.156	12655.87
842.481	12626.49
842.805	12545.14
843.13	12621.52
843.454	12531.13
843.778	12430.34
844.103	12399.6
844.427	12394.18
844.751	12438.92
845.075	12405.48
845.399	12391.92
845.723	12313.28
846.047	12307.85
846.371	12236.67
846.695	12214.07
847.019	12105.83
847.343	11986.96
847.666	12061.31
847.99	11980.86
848.313	11941.31
848.637	11860.18
848.96	11882.78
849.284	11870.8
849.607	11738.15
849.931	11707.19
850.254	11680.3
850.577	11589
850.9	11535.22
851.223	11482.34
851.546	11460.19
851.869	11409.12
852.192	11475.56
852.515	11383.81
852.838	11366.18
853.161	11311.04
853.483	11283.7
853.806	11184.27
854.129	11157.38
854.451	11096.13
854.774	11076.93
855.096	11009.81
855.419	11068.34
855.741	10959.87
856.063	10926.87
856.385	10914.22
856.708	10878.51
857.03	10845.29
857.352	10852.07
857.674	10762.36
857.996	10754
858.318	10695.47
858.64	10738.4
858.961	10681.46
859.283	10573.44
859.605	10585.64
859.926	10587.45
860.248	10502.03
860.57	10463.38
860.891	10478.75
861.212	10521.01
861.534	10415.7
861.855	10375.7
862.176	10454.8
862.498	10381.58
862.819	10448.69
863.14	10348.13
863.461	10293.22
863.782	10321.24
864.103	10267.68
864.424	10201.24
864.745	10253.45
865.065	10192.43
865.386	10164.63
865.707	10163.05
866.027	10190.4
866.348	10167.12
866.668	10130.06
866.989	10153.11
867.309	10003.96
867.63	10078.31
867.95	10104.52
868.27	9992.66
868.59	9985.66
868.91	10026.11
869.23	9966.22
869.55	9943.62
869.87	10029.95
870.19	9902.72
870.51	9933.23
870.83	9938.43
871.15	9874.25
871.469	9840.57
871.789	9907.24
872.109	9864.53
872.428	9825.43
872.748	9833.57
873.067	9784.98
873.386	9803.51
873.706	9823.63
874.025	9737.53
874.344	9740.92
874.663	9716.28
874.982	9691.43
875.301	9712.44
875.62	9691.2
875.939	9628.6
876.258	9674.25
876.577	9631.99
876.896	9579.79
877.214	9690.97
877.533	9627.02
877.852	9488.95
878.17	9581.82
878.489	9514.48
878.807	9503.18
879.125	9524.65
879.444	9488.49
879.762	9452.11
880.08	9436.74
880.398	9456.4
880.716	9475.16
881.034	9392.45
881.352	9444.2
881.67	9394.48
881.988	9471.54
882.306	9377.08
882.624	9291.44
882.941	9269.52
883.259	9217.77
883.577	9255.05
883.894	9229.29
884.212	9134.83
884.529	9227.48
884.846	9131.21
885.164	9133.7
885.481	9089.18
885.798	9138.22
886.115	9097.54
886.432	8990.43
886.75	9053.48
887.067	9006.7
887.383	8999.24
887.7	8987.04
888.017	8966.25
888.334	8927.38
888.651	8878.79
888.967	8853.71
889.284	8787.49
889.6	8811.68
889.917	8714.95
890.233	8771.68
890.55	8673.6
890.866	8685.12
891.182	8642.41
891.498	8658.91
891.815	8655.3
892.131	8636.99
892.447	8615.07
892.763	8487.39
893.079	8457.79
893.395	8497.79
893.71	8497.79
894.026	8481.29
894.342	8435.41
894.657	8410.78
894.973	8365.36
895.289	8371.46
895.604	8354.51
895.92	8256.21
896.235	8269.54
896.55	8277.23
896.865	8177.57
897.181	8141.86
897.496	8191.8
897.811	8153.16
898.126	8117
898.441	8051.7
898.756	8087.17
899.071	8004.01
899.386	8036.1
899.7	7986.61
900.015	7946.39
900.33	7873.62
900.644	7907.74
900.959	7913.62
901.273	7885.6
901.588	7846.5
901.902	7788.2
902.216	7710.91
902.531	7674.76
902.845	7701.87
903.159	7632.72
903.473	7665.04
903.787	7545.72
904.101	7560.41
904.415	7507.75
904.729	7513.63
905.042	7494.2
905.356	7416.91
905.67	7411.94
905.984	7496.46
906.297	7364.71
906.611	7326.74
906.924	7324.03
907.237	7237.25
907.551	7230.47
907.864	7211.49
908.177	7167.65
908.491	7107.54
908.804	7143.7
909.117	7107.99
909.43	7063.02
909.743	7054.89
910.056	7015.56
910.368	6947.54
910.681	6945.28
910.994	6941.89
911.307	6877.26
911.619	6817.15
911.932	6843.14
912.244	6794.1
912.557	6788.68
912.869	6722.69
913.181	6764.05
913.494	6707.1
913.806	6693.54
914.118	6634.11
914.43	6655.8
914.742	6602.02
915.054	6526.99
915.366	6548.23
915.678	6534.22
915.99	6498.06
916.302	6439.53
916.613	6413.32
916.925	6474.34
917.236	6345.98
917.548	6348.24
917.859	6356.15
918.171	6277.28
918.482	6296.71
918.794	6237.96
919.105	6230.95
919.416	6167.68
919.727	6192.31
920.038	6167.45
920.349	6140.33
920.66	6074.8
920.971	6138.07
921.282	6079.32
921.593	6031.41
921.903	5953.45
922.214	5967.46
922.525	5983.73
922.835	5925.88
923.146	5896.72
923.456	5937.4
923.767	5938.76
924.077	5858.08
924.387	5815.6
924.697	5797.74
925.008	5731.53
925.318	5735.6
925.628	5752.55
925.938	5710.51
926.248	5704.19
926.558	5632.1
926.867	5635.94
927.177	5578.99
927.487	5588.26
927.796	5590.52
928.106	5556.62
928.416	5489.73
928.725	5556.85
929.034	5433.91
929.344	5496.73
929.653	5520.46
929.962	5399.11
930.271	5445.66
930.581	5411.76
930.89	5362.95
931.199	5329.51
931.508	5346.46
931.817	5272.79
932.125	5261.03
932.434	5266.46
932.743	5202.05
933.051	5179
933.36	5180.81
933.669	5142.17
933.977	5123.18
934.286	5086.58
934.594	5131.55
934.902	5066.91
935.21	5035.96
935.519	5027.59
935.827	5022.62
936.135	5012.23
936.443	4917.31
936.751	4933.81
937.059	4920.7
937.367	4884.32
937.674	4914.38
937.982	4818.56
938.29	4812.91
938.597	4792.12
938.905	4765.91
939.213	4758.9
939.52	4750.99
939.827	4772.23
940.135	4707.15
940.442	4760.93
940.749	4709.41
941.056	4626.7
941.363	4600.49
941.67	4586.48
941.977	4585.35
942.284	4597.1
942.591	4637.77
942.898	4555.74
943.205	4487.72
943.511	4494.27
943.818	4477.55
944.125	4414.5
944.431	4451.56
944.738	4456.08
945.044	4390.1
945.35	4392.58
945.657	4376.31
945.963	4392.13
946.269	4306.48
946.575	4323.66
946.881	4316.2
947.187	4278.01
947.493	4234.62
947.799	4260.83
948.105	4235.52
948.41	4176.32
948.716	4231.68
949.022	4148.07
949.327	4176.99
949.633	4094.74
949.938	4143.32
950.244	4198.69
950.549	4059.71
950.854	4073.27
951.16	4031.46
951.465	4015.19
951.77	3986.94
952.075	4015.19
952.38	4041.86
952.685	3953.27
952.99	3938.81
953.294	3900.84
953.599	3925.02
953.904	3906.49
954.209	3895.65
954.513	3850.22
954.818	3837.34
955.122	3832.82
955.426	3811.81
955.731	3778.81
956.035	3817.68
956.339	3786.72
956.643	3785.59
956.948	3685.93
957.252	3743.56
957.556	3725.71
957.86	3703.11
958.163	3659.95
958.467	3641.64
958.771	3714.86
959.075	3682.32
959.378	3614.3
959.682	3610
959.985	3605.48
960.289	3584.92
960.592	3548.76
960.896	3534.3
961.199	3543.34
961.502	3490.69
961.805	3467.18
962.108	3448.2
962.411	3493.62
962.714	3408.2
963.017	3447.07
963.32	3424.7
963.623	3407.75
963.926	3419.05
964.228	3387.41
964.531	3395.77
964.833	3378.15
965.136	3331.14
965.438	3331.14
965.741	3284.36
966.043	3288.88
966.345	3279.17
966.648	3254.31
966.95	3226.74
967.252	3227.42
967.554	3225.61
967.856	3219.96
968.158	3175.89
968.46	3189.9
968.761	3150.13
969.063	3145.16
969.365	3084.14
969.666	3114.88
969.968	3086.85
970.269	3108.32
970.571	3086.18
970.872	3047.53
971.174	3015.44
971.475	3050.24
971.776	3052.05
972.077	3015.22
972.378	2995.1
972.679	3011.38
972.98	2984.94
973.281	2944.03
973.582	2963.92
973.883	2965.73
974.183	2914.2
974.484	2986.74
974.785	2870.59
975.085	2885.05
975.386	2909.23
975.686	2852.51
975.986	2868.33
976.287	2829.91
976.587	2830.36
976.887	2825.17
977.187	2808.9
977.487	2786.07
977.787	2797.14
978.087	2783.13
978.387	2770.25
978.687	2754.66
978.987	2726.41
979.286	2689.35
979.586	2705.62
979.885	2650.03
980.185	2686.19
980.484	2640.76
980.784	2610.26
981.083	2639.41
981.382	2642.12
981.682	2657.49
981.981	2614.55
982.28	2584.95
982.579	2609.35
982.878	2566.64
983.177	2597.15
983.475	2568.9
983.774	2571.16
984.073	2577.71
984.372	2544.27
984.67	2529.81
984.969	2478.73
985.267	2487.77
985.566	2480.77
985.864	2471.05
986.162	2482.58
986.461	2428.11
986.759	2447.55
987.057	2436.02
987.355	2404.16
987.653	2397.61
987.951	2404.61
988.249	2416.59
988.547	2371.62
988.844	2363.26
989.142	2359.64
989.44	2294.33
989.737	2333.65
990.035	2322.58
990.332	2312.41
990.63	2308.8
990.927	2287.33
991.224	2288.68
991.521	2271.73
991.819	2212.07
992.116	2240.77
992.413	2250.94
992.71	2215.92
993.006	2233.09
993.303	2206.2
993.6	2191.74
993.897	2192.64
994.193	2185.63
994.49	2166.2
994.787	2158.97
995.083	2107.44
995.379	2104.28
995.676	2119.87
995.972	2134.34
996.268	2093.43
996.565	2053.43
996.861	2046.66
997.157	2082.36
997.453	2072.42
997.749	2053.66
998.044	2015.02
998.34	2035.13
998.636	2019.99
998.932	2032.19
999.227	2002.59
999.523	2002.81
999.818	1969.37
1000.114	1970.5
1000.409	1947.9
1000.704	1971.4
1001	1943.83
1001.295	1911.29
1001.59	1934.57
1001.885	1903.83
1002.18	1904.96
1002.475	1885.08
1002.77	1889.82
1003.065	1869.48
1003.359	1840.56
1003.654	1873.33
1003.949	1857.28
1004.243	1843.5
1004.538	1827.45
1004.832	1801.92
1005.127	1782.03
1005.421	1803.5
1005.715	1784.52
1006.009	1762.37
1006.304	1784.97
1006.598	1763.72
1006.892	1754.91
1007.186	1725.99
1007.48	1697.74
1007.773	1709.49
1008.067	1692.09
1008.361	1698.87
1008.655	1693.67
1008.948	1699.32
1009.242	1679.21
1009.535	1672.2
1009.829	1652.77
1010.122	1645.08
1010.415	1624.07
1010.708	1638.76
1011.001	1582.71
1011.295	1587.68
1011.588	1568.93
1011.881	1564.86
1012.173	1602.15
1012.466	1552.88
1012.759	1551.3
1013.052	1540.45
1013.344	1514.01
1013.637	1545.2
1013.93	1509.72
1014.222	1532.09
1014.514	1497.07
1014.807	1488.7
1015.099	1482.6
1015.391	1471.76
1015.683	1475.6
1015.976	1492.32
1016.268	1436.05
1016.56	1423.17
1016.851	1434.47
1017.143	1468.14
1017.435	1419.33
1017.727	1414.58
1018.018	1408.71
1018.31	1412.32
1018.602	1368.71
1018.893	1369.84
1019.185	1361.48
1019.476	1357.18
1019.767	1368.25
1020.058	1338.65
1020.35	1342.49
1020.641	1334.81
1020.932	1315.6
1021.223	1295.26
1021.514	1295.71
1021.804	1286.9
1022.095	1281.93
1022.386	1281.25
1022.677	1304.08
1022.967	1265.66
1023.258	1242.16
1023.548	1238.99
1023.839	1236.51
1024.129	1225.43
1024.419	1213.91
1024.709	1215.26
1025	1198.54
1025.29	1206.45
1025.58	1170.07
1025.87	1178.2
1026.16	1171.42
1026.449	1185.43
1026.739	1152.44
1027.029	1144.53
1027.319	1163.51
1027.608	1133.46
1027.898	1134.36
1028.187	1132.1
1028.477	1097.3
1028.766	1126.91
1029.055	1107.02
1029.344	1088.49
1029.634	1084.65
1029.923	1059.56
1030.212	1069.73
1030.501	1057.75
1030.79	1071.54
1031.078	1059.56
1031.367	1050.75
1031.656	1055.27
1031.945	1044.65
1032.233	1022.05
1032.522	1010.52
1032.81	1034.25
1033.099	1025.21
1033.387	992.9
1033.675	1032.22
1033.963	996.74
1034.251	987.47
1034.54	987.02
1034.828	994.93
1035.116	966.23
1035.403	962.16
1035.691	962.16
1035.979	944.99
1036.267	949.73
1036.554	941.37
1036.842	928.72
1037.129	928.27
1037.417	935.05
1037.704	913.8
1037.992	907.25
1038.279	909.51
1038.566	928.72
1038.853	928.72
1039.14	928.72
