Data from hue_110_FLMS001491_00080.txt Node
Date: Tue Feb 07 17:01:49 GMT 2017
User: dcchb
Spectrometer: FLMS00149
Trigger mode: 0
Integration Time (sec): 2.000000E-2
Scans to average: 10
Electric dark correction enabled: true
Nonlinearity correction enabled: false
Boxcar width: 0
XAxis mode: Wavelengths
Number of Pixels in Spectrum: 2048
>>>>>Begin Spectral Data<<<<<
341.393	-20.58
341.776	-20.58
342.16	-20.58
342.543	-80.01
342.927	-71.65
343.31	-68.71
343.693	-93.12
344.077	-65.32
344.46	-53.8
344.843	-35.49
345.226	-69.84
345.61	-30.3
345.993	-15.38
346.376	-10.86
346.759	8.12
347.142	38.4
347.525	50.61
347.908	77.05
348.291	72.53
348.674	74.79
349.057	121.34
349.44	134.67
349.823	127.89
350.206	153.43
350.588	188.23
350.971	201.34
351.354	216.25
351.737	235.69
352.119	244.95
352.502	264.84
352.884	254.44
353.267	292.18
353.65	290.6
354.032	277.04
354.414	301.67
354.797	322.46
355.179	326.3
355.562	331.28
355.944	327.66
356.326	323.37
356.709	322.92
357.091	318.4
357.473	331.73
357.855	336.47
358.238	352.29
358.62	357.49
359.002	342.35
359.384	334.21
359.766	351.16
360.148	361.11
360.53	336.47
360.912	346.42
361.294	339.19
361.676	330.15
362.057	321.79
362.439	339.86
362.821	315.91
363.203	314.78
363.584	315.46
363.966	331.05
364.348	302.58
364.729	296.25
365.111	313.42
365.493	321.11
365.874	323.82
366.256	305.51
366.637	315.01
367.019	305.06
367.4	294.22
367.781	310.49
368.163	326.3
368.544	323.82
368.925	305.06
369.306	317.04
369.688	321.56
370.069	321.79
370.45	306.64
370.831	321.11
371.212	312.97
371.593	332.41
371.974	315.46
372.355	317.94
372.736	332.18
373.117	325.63
373.498	313.2
373.879	336.25
374.26	331.73
374.641	337.83
375.021	295.35
375.402	312.07
375.783	324.5
376.163	334.44
376.544	323.59
376.925	331.95
377.305	313.65
377.686	327.43
378.066	335.8
378.447	322.69
378.827	334.44
379.208	340.77
379.588	341.9
379.968	338.06
380.349	348.23
380.729	333.54
381.109	354.1
381.489	345.97
381.87	347.32
382.25	349.81
382.63	370.82
383.01	347.77
383.39	345.97
383.77	350.49
384.15	358.17
384.53	351.84
384.91	372.63
385.29	356.36
385.67	359.3
386.049	385.74
386.429	358.62
386.809	347.1
387.189	352.29
387.568	346.64
387.948	363.59
388.328	367.43
388.707	355
389.087	365.4
389.466	391.61
389.846	389.13
390.225	384.83
390.605	377.15
390.984	399.07
391.363	372.86
391.743	387.09
392.122	385.06
392.501	378.28
392.881	394.55
393.26	405.85
393.639	402.69
394.018	395.23
394.397	422.57
394.776	384.16
395.155	404.04
395.534	368.79
395.913	398.85
396.292	402.46
396.671	399.75
397.05	394.33
397.429	404.95
397.808	396.13
398.186	385.74
398.565	404.5
398.944	413.53
399.323	414.44
399.701	415.12
400.08	424.38
400.458	425.74
400.837	437.49
401.215	429.13
401.594	415.79
401.972	441.56
402.351	425.06
402.729	449.24
403.107	439.3
403.486	437.26
403.864	433.87
404.242	440.88
404.62	455.34
404.999	452.63
405.377	452.4
405.755	470.71
406.133	463.25
406.511	480.43
406.889	473.65
407.267	479.75
407.645	459.86
408.023	450.82
408.401	469.13
408.779	460.99
409.156	486.53
409.534	486.07
409.912	475.45
410.29	485.85
410.667	486.3
411.045	495.34
411.422	491.27
411.8	508.45
412.178	496.7
412.555	515.45
412.933	501.22
413.31	504.61
413.687	523.59
414.065	554.1
414.442	526.3
414.819	521.55
415.197	538.05
415.574	562.91
415.951	549.35
416.328	529.46
416.705	533.53
417.082	552.06
417.46	539.63
417.837	569.24
418.214	587.99
418.591	551.61
418.967	584.6
419.344	594.32
419.721	579.41
420.098	565.85
420.475	596.58
420.852	590.48
421.228	612.85
421.605	590.93
421.982	611.04
422.358	612.4
422.735	615.56
423.111	633.87
423.488	636.13
423.864	626.86
424.241	622.12
424.617	650.36
424.994	668.89
425.37	656.69
425.746	629.35
426.123	631.83
426.499	667.76
426.875	667.31
427.251	668.89
427.627	678.84
428.003	660.08
428.379	682.68
428.756	686.52
429.132	713.87
429.507	690.59
429.883	693.53
430.259	725.16
430.635	753.86
431.011	724.26
431.387	733.75
431.763	723.36
432.138	741.66
432.514	760.64
432.89	750.02
433.265	780.53
433.641	759.97
434.016	759.51
434.392	790.93
434.767	809.23
435.143	798.61
435.518	807.2
435.894	820.08
436.269	808.55
436.644	812.85
437.02	840.19
437.395	846.07
437.77	854.88
438.145	872.96
438.52	857.82
438.895	885.84
439.271	879.96
439.646	881.32
440.021	882
440.395	919.06
440.77	897.82
441.145	915.22
441.52	916.57
441.895	937.59
442.27	942.33
442.645	952.73
443.019	940.98
443.394	961.54
443.769	951.37
444.143	951.83
444.518	964.48
444.892	973.75
445.267	986.4
445.641	972.62
446.016	987.98
446.39	1010.81
446.764	1039.96
447.139	996.34
447.513	1017.59
447.887	1013.29
448.262	1001.32
448.636	1025.27
449.01	1023.01
449.384	1047.87
449.758	1046.96
450.132	1061.2
450.506	1068.88
450.88	1100.07
451.254	1096.23
451.628	1093.52
452.002	1096.45
452.376	1124.48
452.75	1112.95
453.123	1119.73
453.497	1137.36
453.871	1168.77
454.244	1201.08
454.618	1173.29
454.992	1221.65
455.365	1220.97
455.739	1239.73
456.112	1249.22
456.486	1261.87
456.859	1254.19
457.232	1303.68
457.606	1275.88
457.979	1298.03
458.352	1336.67
458.725	1357.92
459.099	1354.75
459.472	1400.85
459.845	1413.06
460.218	1412.83
460.591	1422.1
460.964	1417.35
461.337	1473.17
461.71	1508.42
462.083	1498.03
462.456	1508.65
462.829	1525.6
463.201	1556.1
463.574	1561.98
463.947	1602.66
464.32	1598.14
464.692	1656.21
465.065	1647.4
465.438	1696.89
465.81	1679.94
466.183	1712.48
466.555	1767.62
466.928	1759.71
467.3	1773.27
467.672	1810.11
468.045	1885.59
468.417	1856.89
468.789	1898.24
469.161	1957.67
469.534	1961.29
469.906	2022.53
470.278	2015.07
470.65	2064.79
471.022	2092.13
471.394	2128.52
471.766	2181.17
472.138	2223.43
472.51	2303.2
472.882	2322.86
473.253	2349.75
473.625	2441.73
473.997	2485.12
474.369	2516.08
474.74	2550.2
475.112	2616.64
475.484	2613.93
475.855	2725.79
476.227	2780.7
476.598	2823.41
476.97	2905.67
477.341	3010.75
477.713	3095.05
478.084	3142.95
478.455	3239.22
478.827	3290.75
479.198	3424.08
479.569	3488.71
479.94	3559.89
480.311	3625.43
480.682	3770.06
481.053	3876.72
481.424	3954.01
481.795	4073.78
482.166	4184.28
482.537	4247.56
482.908	4484.39
483.279	4470.83
483.65	4582.69
484.021	4751.73
484.391	4874.89
484.762	4951.95
485.133	5069.68
485.503	5203.01
485.874	5335.89
486.244	5457.02
486.615	5645.26
486.985	5736.78
487.356	5867.4
487.726	6030.11
488.097	6207.05
488.467	6272.14
488.837	6520.72
489.207	6636.65
489.578	6821.95
489.948	6915.96
490.318	7104.21
490.688	7181.04
491.058	7320.25
491.428	7518.88
491.798	7674.13
492.168	7859.89
492.538	7992.09
492.908	8129.94
493.278	8325.87
493.648	8442.25
494.017	8592.53
494.387	8728.34
494.757	8924.27
495.126	8978.73
495.496	9139.63
495.866	9279.97
496.235	9380.76
496.605	9590.92
496.974	9786.17
497.344	9914.08
497.713	10012.15
498.082	10109.32
498.452	10316.32
498.821	10375.53
499.19	10475.42
499.559	10728.07
499.928	10772.13
500.298	10811.9
500.667	11095.29
501.036	11041.73
501.405	11237.66
501.774	11241.27
502.143	11491.44
502.512	11577.31
502.88	11622.96
503.249	11719.23
503.618	11717.19
503.987	11912.89
504.356	12019.78
504.724	12129.61
505.093	12193.56
505.462	12315.14
505.83	12430.39
506.199	12551.52
506.567	12710.61
506.936	12649.14
507.304	12907.67
507.672	12937.95
508.041	12978.4
508.409	13123.03
508.777	13253.2
509.145	13325.06
509.514	13342.01
509.882	13471.27
510.25	13486.18
510.618	13580.42
510.986	13615.22
511.354	13831.03
511.722	13828.55
512.09	13917.13
512.458	13914.2
512.826	14025.15
513.193	14085.04
513.561	14155.32
513.929	14186.05
514.297	14309.67
514.664	14377.91
515.032	14448.42
515.4	14559.15
515.767	14592.14
516.135	14627.17
516.502	14515.08
516.869	14761.41
517.237	14810.44
517.604	14746.94
517.972	14836.43
518.339	14931.34
518.706	14965.69
519.073	14902.87
519.44	15047.27
519.808	15167.04
520.175	15143.54
520.542	15250.21
520.909	15247.95
521.276	15340.83
521.643	15526.58
522.009	15482.97
522.376	15540.37
522.743	15571.33
523.11	15696.07
523.477	15845.9
523.843	15738.78
524.21	15908.04
524.577	15969.06
524.943	15968.15
525.31	16027.81
525.676	16063.74
526.043	16184.42
526.409	16223.06
526.776	16228.71
527.142	16212.89
527.508	16287.69
527.874	16322.04
528.241	16298.54
528.607	16384.64
528.973	16474.13
529.339	16387.58
529.705	16623.05
530.071	16552.32
530.437	16474.35
530.803	16547.35
531.169	16606.78
531.535	16561.36
531.901	16508.25
532.267	16584.86
532.632	16567.91
532.998	16600.45
533.364	16658.53
533.73	16593.22
534.095	16764.06
534.461	16712.77
534.826	16725.42
535.192	16663.5
535.557	16707.34
535.923	16567.91
536.288	16716.16
536.653	16692.65
537.019	16655.14
537.384	16563.62
537.749	16560.23
538.114	16453.79
538.479	16447.01
538.845	16581.92
539.21	16427.35
539.575	16456.73
539.94	16421.02
540.305	16495.15
540.67	16401.59
541.034	16442.94
541.399	16447.01
541.764	16518.87
542.129	16386.45
542.494	16385.54
542.858	16360.46
543.223	16326.11
543.587	16382.83
543.952	16185.55
544.316	16266
544.681	16165.66
545.045	16234.59
545.41	16206.79
545.774	16117.08
546.138	16127.25
546.503	16149.62
546.867	16038.43
547.231	16142.61
547.595	16054.93
547.959	16064.65
548.324	15989.17
548.688	15995.05
549.052	16029.62
549.416	15881.83
549.779	15916.18
550.143	15885.22
550.507	15972
550.871	15830.76
551.235	15805.45
551.599	15963.41
551.962	15817.42
552.326	15704.43
552.689	15827.14
553.053	15681.61
553.417	15683.64
553.78	15811.32
554.143	15711.89
554.507	15809.06
554.87	15677.31
555.234	15846.8
555.597	15600.25
555.96	15652.91
556.323	15626.47
556.686	15564.1
557.05	15667.14
557.413	15683.42
557.776	15637.31
558.139	15629.18
558.502	15672.57
558.865	15619.46
559.228	15694.71
559.59	15619.01
559.953	15670.31
560.316	15733.58
560.679	15670.76
561.041	15730.87
561.404	15839.12
561.767	15742.85
562.129	15764.54
562.492	15841.15
562.854	15810.42
563.217	15724.54
563.579	15746.01
563.941	15874.37
564.304	15927.48
564.666	15985.1
565.028	15840.25
565.39	15901.49
565.753	16011.77
566.115	15952.11
566.477	16074.59
566.839	15937.87
567.201	15967.48
567.563	16039.56
567.925	16120.92
568.287	16128.38
568.648	16087.02
569.01	16160.92
569.372	16182.39
569.734	16041.82
570.095	16257.41
570.457	16113.69
570.819	16231.65
571.18	16068.04
571.542	16197.3
571.903	16177.87
572.265	16250.86
572.626	16207.92
572.987	16349.16
573.349	16339.67
573.71	16404.98
574.071	16305.77
574.432	16414.02
574.794	16468.48
575.155	16377.41
575.516	16443.62
575.877	16411.31
576.238	16482.26
576.599	16489.04
576.96	16478.87
577.32	16448.59
577.681	16550.51
578.042	16536.27
578.403	16541.02
578.763	16574.92
579.124	16556.39
579.485	16525.2
579.845	16578.08
580.206	16510.06
580.566	16410.18
580.927	16561.81
581.287	16546.67
581.648	16518.87
582.008	16513.45
582.368	16484.75
582.728	16514.58
583.089	16491.98
583.449	16471.19
583.809	16539.89
584.169	16545.99
584.529	16434.58
584.889	16548.03
585.249	16345.09
585.609	16277.98
585.969	16454.69
586.329	16397.07
586.688	16454.24
587.048	16373.11
587.408	16297.86
587.768	16376.05
588.127	16314.81
588.487	16283.63
588.846	16401.36
589.206	16296.51
589.565	16301.7
589.925	16345.77
590.284	16305.09
590.643	16387.58
591.003	16380.8
591.362	16352.1
591.721	16336.28
592.08	16272.78
592.44	16294.25
592.799	16315.94
593.158	16176.06
593.517	16298.99
593.876	16185.55
594.235	16137.41
594.593	16235.49
594.952	16258.77
595.311	16157.98
595.67	16204.31
596.029	16315.94
596.387	16215.83
596.746	16327.24
597.104	16171.09
597.463	16186.23
597.822	16184.42
598.18	16125.66
598.538	16193.46
598.897	16279.56
599.255	16079.11
599.613	16350.52
599.972	16152.33
600.33	16217.41
600.688	16175.83
601.046	16205.66
601.404	16213.57
601.762	16174.7
602.12	16308.48
602.478	16284.08
602.836	16201.59
603.194	16132.67
603.552	16202.95
603.91	16125.44
604.268	16175.38
604.625	16163.18
604.983	16231.65
605.341	16079.79
605.698	16178.09
606.056	16197.75
606.413	16229.62
606.771	16253.8
607.128	16249.95
607.485	16171.99
607.843	16221.25
608.2	16253.12
608.557	16235.72
608.914	16138.32
609.272	16362.27
609.629	16350.06
609.986	16359.56
610.343	16290.18
610.7	16411.98
611.057	16387.35
611.414	16376.73
611.771	16402.49
612.127	16499.67
612.484	16506.67
612.841	16393.68
613.198	16511.87
613.554	16373.34
613.911	16485.43
614.267	16461.25
614.624	16444.53
614.98	16376.28
615.337	16567.46
615.693	16492.66
616.05	16499.89
616.406	16538.76
616.762	16486.56
617.118	16515.48
617.475	16501.7
617.831	16712.54
618.187	16638.42
618.543	16608.81
618.899	16648.81
619.255	16710.28
619.611	16660.79
619.967	16804.74
620.323	16744.63
620.678	16744.63
621.034	16688.36
621.39	16608.36
621.746	16604.3
622.101	16793.22
622.457	16728.36
622.812	16651.07
623.168	16663.95
623.523	16672.32
623.879	16683.16
624.234	16690.39
624.589	16667.34
624.945	16684.52
625.3	16754.35
625.655	16709.15
626.01	16703.73
626.365	16683.84
626.72	16700.11
627.075	16657.18
627.43	16675.25
627.785	16626.44
628.14	16696.5
628.495	16678.64
628.85	16715.7
629.205	16620.79
629.559	16618.53
629.914	16657.63
630.269	16675.48
630.623	16555.26
630.978	16482.26
631.332	16538.31
631.687	16679.77
632.041	16466.22
632.396	16605.2
632.75	16462.83
633.104	16514.13
633.459	16454.02
633.813	16360.01
634.167	16442.04
634.521	16470.06
634.875	16368.82
635.229	16381.48
635.583	16242.72
635.937	16308.26
636.291	16327.92
636.645	16299.44
636.999	16235.72
637.352	16273
637.706	16233.46
638.06	16227.36
638.413	16120.24
638.767	16148.26
639.121	16210.86
639.474	16042.73
639.828	15994.82
640.181	16117.53
640.534	16057.42
640.888	16042.05
641.241	15988.04
641.594	16040.92
641.947	16030.98
642.301	15947.82
642.654	15973.58
643.007	16090.41
643.36	15936.29
643.713	15980.58
644.066	16054.93
644.419	15952.33
644.771	15853.81
645.124	15691.55
645.477	15702.17
645.83	15637.77
646.182	15567.94
646.535	15456.98
646.888	15472.8
647.24	15390.99
647.593	15516.64
647.945	15418.11
648.298	15348.96
648.65	15321.84
649.002	15285.69
649.355	15395.97
649.707	15337.66
650.059	15482.97
650.411	15644.77
650.763	15647.26
651.115	15881.83
651.467	15800.02
651.819	15799.57
652.171	15668.95
652.523	15753.02
652.875	15699.46
653.227	15763.41
653.578	15715.73
653.93	15748.05
654.282	15672.57
654.633	15725.22
654.985	15672.12
655.337	15694.94
655.688	15730.19
656.039	15851.32
656.391	15685
656.742	15725.67
657.094	15666.92
657.445	15704.88
657.796	15593.47
658.147	15793.24
658.498	15736.52
658.849	15719.57
659.2	15695.62
659.551	15755.96
659.902	15778.55
660.253	15750.53
660.604	15886.8
660.955	15603.64
661.306	15759.35
661.656	15711.44
662.007	15719.35
662.358	15732
662.708	15755.96
663.059	15837.08
663.409	15702.17
663.76	15806.8
664.11	15717.54
664.461	15770.42
664.811	15867.59
665.161	15720.7
665.511	15752.57
665.862	15778.33
666.212	15871.66
666.562	15747.37
666.912	15818.78
667.262	15754.15
667.612	15718.67
667.962	15780.59
668.312	15702.85
668.662	15829.17
669.011	15795.05
669.361	15750.98
669.711	15741.49
670.06	15736.75
670.41	15697.88
670.76	15728.16
671.109	15701.27
671.459	15672.12
671.808	15530.2
672.157	15697.2
672.507	15619.69
672.856	15561.61
673.205	15674.38
673.554	15635.05
673.904	15597.77
674.253	15640.93
674.602	15658.56
674.951	15363.65
675.3	15398.23
675.649	15541.95
675.998	15466.02
676.346	15548.28
676.695	15638.44
677.044	15402.29
677.393	15526.36
677.741	15486.58
678.09	15485.45
678.438	15492.23
678.787	15441.61
679.135	15431.44
679.484	15307.15
679.832	15405.23
680.181	15251.56
680.529	15275.29
680.877	15243.2
681.225	15296.31
681.573	15293.14
681.922	15121.85
682.27	15204.11
682.618	15150.77
682.966	15133.6
683.314	15134.05
683.661	15112.13
684.009	14968.63
684.357	15000.04
684.705	14922.98
685.053	14995.07
685.4	14947.84
685.748	14795.53
686.095	14745.13
686.443	14819.71
686.79	14673.27
687.138	14784.46
687.485	14737
687.832	14687.06
688.18	14669.2
688.527	14545.82
688.874	14556.89
689.221	14517.8
689.568	14465.82
689.915	14460.17
690.262	14414.97
690.609	14323.68
690.956	14355.77
691.303	14328.42
691.65	14249.1
691.997	14243
692.344	14181.08
692.69	14045.04
693.037	14161.2
693.383	13987.87
693.73	13967.98
694.077	13924.82
694.423	13891.82
694.769	13872.16
695.116	13887.98
695.462	13805.05
695.808	13723.47
696.155	13807.08
696.501	13673.75
696.847	13705.39
697.193	13520.99
697.539	13541.78
697.885	13486.86
698.231	13379.3
698.577	13348.79
698.923	13398.28
699.269	13228.56
699.614	13191.73
699.96	13189.24
700.306	13196.25
700.651	12992.64
700.997	13045.74
701.342	12970.72
701.688	12956.03
702.033	12888.46
702.379	12951.51
702.724	12903.83
703.069	12912.19
703.415	12693.44
703.76	12839.87
704.105	12646.21
704.45	12659.99
704.795	12565.08
705.14	12565.08
705.485	12558.53
705.83	12487.12
706.175	12471.97
706.52	12419.09
706.865	12373.67
707.209	12351.07
707.554	12307.68
707.899	12295.93
708.243	12252.55
708.588	12197.41
708.932	12078.31
709.277	12119.89
709.621	12098.2
709.966	11989.05
710.31	12034.7
710.654	11926.23
710.998	11956.28
711.342	11930.29
711.687	11822.27
712.031	11816.17
712.375	11795.38
712.719	11734.59
713.063	11759.9
713.407	11794.25
713.75	11687.36
714.094	11711.99
714.438	11687.36
714.782	11633.35
715.125	11605.78
715.469	11579.34
715.812	11545.9
716.156	11446.01
716.499	11471.55
716.843	11503.19
717.186	11459.8
717.53	11532.11
717.873	11523.98
718.216	11482.4
718.559	11434.49
718.902	11351.55
719.246	11429.74
719.589	11236.75
719.932	11320.14
720.275	11341.61
720.617	11339.12
720.96	11314.26
721.303	11262.29
721.646	11298.67
721.989	11213.02
722.331	11271.78
722.674	11195.17
723.016	11244.89
723.359	11224.32
723.701	11198.56
724.044	11100.94
724.386	11090.09
724.729	11208.5
725.071	11129.64
725.413	11159.92
725.755	11151.78
726.097	11054.61
726.439	11043.54
726.782	11026.36
727.124	11118.56
727.465	11001.5
727.807	11051.45
728.149	10985.23
728.491	10950.21
728.833	11009.19
729.175	10974.84
729.516	10886.93
729.858	10858.46
730.199	10921.73
730.541	10967.16
730.882	10836.31
731.224	10903.88
731.565	10897.1
731.906	10884.22
732.248	10888.29
732.589	10852.81
732.93	10843.32
733.271	10795.86
733.612	10941.62
733.953	10872.24
734.294	10924.22
734.635	10899.81
734.976	10877.44
735.317	10853.71
735.658	10873.37
735.999	10859.14
736.339	10885.35
736.68	10848.97
737.021	10888.74
737.361	10865.91
737.702	10952.24
738.042	10888.06
738.383	10945.69
738.723	10947.72
739.063	10931.22
739.404	10876.08
739.744	10856.42
740.084	10862.53
740.424	10899.81
740.764	10915.18
741.104	10972.58
741.444	11023.88
741.784	10964.67
742.124	11008.74
742.464	11013.71
742.804	11029.3
743.143	11123.54
743.483	11065.23
743.823	11107.49
744.162	11090.32
744.502	11112.69
744.841	11135.51
745.181	11288.05
745.52	11260.03
745.86	11330.08
746.199	11280.14
746.538	11343.64
746.877	11402.62
747.216	11523.75
747.556	11559.91
747.895	11559.23
748.234	11618.66
748.573	11619.79
748.911	11690.3
749.25	11827.7
749.589	11789.51
749.928	11888.26
750.267	12050.29
750.605	12114.47
750.944	12147.01
751.283	12174.58
751.621	12352.88
751.96	12399.21
752.298	12478.75
752.636	12671.97
752.975	12694.79
753.313	12740.67
753.651	12877.61
753.989	12995.8
754.327	13050.26
754.666	13133.2
755.004	13361.67
755.342	13438.5
755.679	13533.64
756.017	13691.15
756.355	13948.09
756.693	14036.45
757.031	14127.3
757.368	14217.01
757.706	14351.47
758.044	14478.25
758.381	14751.01
758.719	14786.49
759.056	15074.17
759.394	15120.04
759.731	15195.07
760.068	15426.02
760.405	15555.28
760.743	15625.56
761.08	15846.35
761.417	15973.8
761.754	16064.2
762.091	16393.45
762.428	16452.21
762.765	16594.35
763.102	16725.42
763.438	16918.86
763.775	17104.39
764.112	17261.68
764.449	17476.59
764.785	17578.73
765.122	17715.68
765.458	17794.55
765.795	17936.01
766.131	18089.68
766.467	18234.31
766.804	18336.45
767.14	18385.04
767.476	18636.56
767.812	18663.45
768.148	18881.98
768.485	18897.57
768.821	18972.59
769.157	19090.78
769.492	19171.23
769.828	19345.69
770.164	19252.81
770.5	19347.5
770.836	19474.05
771.171	19608.74
771.507	19623.65
771.842	19719.24
772.178	19775.96
772.513	19861.38
772.849	19940.48
773.184	19978.9
773.519	20168.72
773.855	20203.75
774.19	20136.86
774.525	20232.45
774.86	20380.01
775.195	20381.14
775.53	20342.73
775.865	20296.63
776.2	20285.1
776.535	20274.26
776.87	20297.98
777.205	20378.43
777.539	20435.38
777.874	20577.98
778.209	20376.85
778.543	20457.53
778.878	20435.61
779.212	20457.08
779.547	20483.06
779.881	20562.16
780.215	20596.73
780.55	20611.42
780.884	20499.79
781.218	20573.68
781.552	20485.55
781.886	20516.06
782.22	20459.11
782.554	20435.83
782.888	20354.7
783.222	20382.05
783.556	20325.55
783.889	20361.26
784.223	20172.11
784.557	20171.88
784.89	20321.94
785.224	20144.77
785.557	20140.25
785.891	20204.65
786.224	20035.62
786.558	20073.81
786.891	20023.19
787.224	19994.94
787.557	19909.97
787.891	19900.03
788.224	19872.46
788.557	19885.11
788.89	19818.9
789.223	19895.96
789.556	19689.64
789.888	19743.65
790.221	19690.32
790.554	19525.57
790.887	19588.17
791.219	19524.22
791.552	19592.92
791.884	19478.34
792.217	19447.61
792.549	19403.54
792.882	19335.52
793.214	19219.59
793.546	19309.08
793.879	19334.62
794.211	19081.74
794.543	19178.69
794.875	19072.25
795.207	19070.44
795.539	19099.14
795.871	19094.17
796.203	18928.53
796.535	18843.33
796.867	18819.15
797.198	18786.16
797.53	18906.16
797.862	18655.31
798.193	18731.24
798.525	18608.99
798.856	18650.34
799.188	18478.14
799.519	18372.61
799.85	18333.06
800.182	18350.24
800.513	18460.29
800.844	18208.77
801.175	18369.67
801.506	18276.57
801.837	18215.33
802.168	18129
802.499	18074.99
802.83	18007.2
803.161	18064.37
803.491	18015.78
803.822	17948.89
804.153	17873.19
804.483	17845.39
804.814	17819.18
805.145	17723.59
805.475	17714.1
805.805	17591.61
806.136	17591.39
806.466	17590.94
806.796	17526.76
807.126	17444.5
807.457	17399.75
807.787	17424.16
808.117	17340.55
808.447	17369.92
808.777	17331.73
809.107	17241.79
809.436	17182.13
809.766	17203.15
810.096	17106.2
810.426	17002.02
810.755	17115.92
811.085	17030.5
811.414	16985.3
811.744	16828.02
812.073	16916.15
812.403	16809.04
812.732	16758.64
813.061	16781.69
813.39	16691.3
813.719	16614.92
814.049	16768.13
814.378	16621.02
814.707	16556.84
815.036	16576.27
815.365	16524.75
815.693	16394.58
816.022	16368.14
816.351	16317.52
816.68	16339.67
817.008	16298.54
817.337	16179
817.665	16235.72
817.994	16244.98
818.322	16194.59
818.651	16099
818.979	16035.27
819.307	16091.77
819.636	16111.2
819.964	16006.57
820.292	16035.5
820.62	16089.28
820.948	16016.29
821.276	16054.7
821.604	15969.06
821.932	15989.85
822.259	15943.3
822.587	15854.03
822.915	15962.96
823.243	15902.62
823.57	15870.98
823.898	15891.32
824.225	15892.45
824.553	15890.87
824.88	15919.57
825.207	16013.35
825.535	15952.33
825.862	15901.26
826.189	15894.26
826.516	15971.77
826.843	16044.31
827.17	15991.2
827.497	16028.72
827.824	15955.95
828.151	16048.15
828.478	15863.3
828.805	16068.72
829.131	15915.27
829.458	15990.75
829.785	15920.25
830.111	15922.96
830.438	15957.98
830.764	15919.79
831.09	15989.4
831.417	15844.32
831.743	15893.35
832.069	15979.45
832.395	15759.35
832.722	15846.8
833.048	15814.49
833.374	15843.86
833.7	15846.35
834.026	15868.72
834.351	15851.55
834.677	15819.23
835.003	15770.64
835.329	15797.99
835.654	15837.76
835.98	15700.59
836.306	15703.08
836.631	15635.28
836.956	15745.33
837.282	15707.14
837.607	15588.05
837.932	15568.84
838.258	15573.36
838.583	15639.57
838.908	15407.26
839.233	15524.1
839.558	15478.9
839.883	15360.03
840.208	15297.66
840.533	15380.37
840.858	15312.58
841.182	15368.17
841.507	15285.46
841.832	15220.83
842.156	15197.78
842.481	15223.31
842.805	15151.23
843.13	15141.28
843.454	15154.84
843.778	15104.67
844.103	15037.78
844.427	14969.54
844.751	15006.37
845.075	14929.54
845.399	14856.09
845.723	14815.87
846.047	14888.41
846.371	14737.68
846.695	14810.22
847.019	14556.67
847.343	14563.67
847.666	14550.11
847.99	14410.91
848.313	14421.3
848.637	14289.78
848.96	14240.52
849.284	14199.84
849.607	14158.94
849.931	14151.48
850.254	14044.81
850.577	14069.9
850.9	13888.43
851.223	13906.06
851.546	13807.53
851.869	13683.47
852.192	13722.34
852.515	13614.54
852.838	13669.91
853.161	13573.87
853.483	13470.37
853.806	13447.09
854.129	13403.48
854.451	13386.3
854.774	13347.21
855.096	13289.81
855.419	13297.26
855.741	13220.88
856.063	13175.23
856.385	13131.84
856.708	13088.68
857.03	13034.67
857.352	13055.46
857.674	13030.6
857.996	12928.91
858.318	12899.08
858.64	12824.73
858.961	12921
859.283	12799.42
859.605	12708.35
859.926	12779.31
860.248	12754.23
860.57	12621.57
860.891	12669.03
861.212	12655.92
861.534	12577.28
861.855	12489.15
862.176	12543.61
862.498	12451.18
862.819	12577.96
863.14	12474.46
863.461	12377.97
863.782	12369.15
864.103	12437.62
864.424	12321.92
864.745	12360.56
865.065	12257.29
865.386	12199.44
865.707	12215.94
866.027	12166.67
866.348	12118.76
866.668	12106.56
866.989	12131.42
867.309	12010.07
867.63	12137.07
867.95	12096.84
868.27	12009.84
868.59	11998.77
868.91	11953.57
869.23	11975.94
869.55	11981.59
869.87	12011.65
870.19	11922.38
870.51	11992.44
870.83	11966.22
871.15	11825.44
871.469	11837.87
871.789	11869.96
872.109	11843.29
872.428	11698.21
872.748	11828.38
873.067	11776.17
873.386	11796.51
873.706	11723.52
874.025	11636.74
874.344	11668.15
874.663	11719.68
874.982	11643.3
875.301	11673.58
875.62	11580.7
875.939	11635.39
876.258	11618.21
876.577	11470.42
876.896	11565.11
877.214	11573.69
877.533	11431.1
877.852	11445.79
878.17	11476.07
878.489	11403.53
878.807	11426.58
879.125	11421.38
879.444	11416.63
879.762	11381.38
880.08	11410.08
880.398	11211.67
880.716	11347.48
881.034	11298.45
881.352	11236.75
881.67	11248.28
881.988	11258.67
882.306	11213.7
882.624	11166.47
882.941	11079.69
883.259	11115.4
883.577	11148.17
883.894	11138
884.212	11121.73
884.529	11054.61
884.846	10991.79
885.164	10980.94
885.481	10947.49
885.798	10977.1
886.115	10895.07
886.432	10876.99
886.75	10797.44
887.067	10843.09
887.383	10803.09
887.7	10755.86
888.017	10750.89
888.334	10747.5
888.651	10665.69
888.967	10596.32
889.284	10625.7
889.6	10507.28
889.917	10507.28
890.233	10495.76
890.55	10527.84
890.866	10469.77
891.182	10445.81
891.498	10429.54
891.815	10366.04
892.131	10383.67
892.447	10373.05
892.763	10271.13
893.079	10267.29
893.395	10232.49
893.71	10172.15
894.026	10174.63
894.342	10142.32
894.657	10084.69
894.973	10010.12
895.289	10026.84
895.604	9973.28
895.92	9938.71
896.235	9856.22
896.55	9875.66
896.865	9787.3
897.181	9821.42
897.496	9803.8
897.811	9788.66
898.126	9663.23
898.441	9669.11
898.756	9602.67
899.071	9566.51
899.386	9549.11
899.7	9530.58
900.015	9387.54
900.33	9424.37
900.644	9436.57
900.959	9413.98
901.273	9379.85
901.588	9311.15
901.902	9299.18
902.216	9250.14
902.531	9190.93
902.845	9198.84
903.159	9135.34
903.473	9173.53
903.787	9103.93
904.101	9064.61
904.415	9001.33
904.729	9023.93
905.042	8911.39
905.356	8906.42
905.67	8898.96
905.984	8809.7
906.297	8879.98
906.611	8839.75
906.924	8789.81
907.237	8777.61
907.551	8750.49
907.864	8729.47
908.177	8709.14
908.491	8657.61
908.804	8517.28
909.117	8499.2
909.43	8502.81
909.743	8428.24
910.056	8429.14
910.368	8391.4
910.681	8345.08
910.994	8345.3
911.307	8261.46
911.619	8243.38
911.932	8223.5
912.244	8138.08
912.557	8112.54
912.869	8113.67
913.181	8109.83
913.494	8046.78
913.806	7988.48
914.118	7973.79
914.43	7914.13
914.742	7881.13
915.054	7852.21
915.366	7840.91
915.678	7789.84
915.99	7826.9
916.302	7688.15
916.613	7684.76
916.925	7697.41
917.236	7645.21
917.548	7625.55
917.859	7569.28
918.171	7513.69
918.482	7516.17
918.794	7472.11
919.105	7505.78
919.416	7398.89
919.727	7409.96
920.038	7371.32
920.349	7323.86
920.66	7296.07
920.971	7253.58
921.282	7225.33
921.593	7241.6
921.903	7183.53
922.214	7150.98
922.525	7147.82
922.835	7110.31
923.146	7006.36
923.456	7009.29
923.767	7032.8
924.077	7019.01
924.387	6937.66
924.697	6857.88
925.008	6903.76
925.318	6871.22
925.628	6847.72
925.938	6818.56
926.248	6734.95
926.558	6795.51
926.867	6734.05
927.177	6673.71
927.487	6641.17
927.796	6589.42
928.106	6611.34
928.416	6581.73
928.725	6551.23
929.034	6490.89
929.344	6550.55
929.653	6540.38
929.962	6477.56
930.271	6398.69
930.581	6374.28
930.89	6299.03
931.199	6337.22
931.508	6322.08
931.817	6328.41
932.125	6316.66
932.434	6262.65
932.743	6189.88
933.051	6154.63
933.36	6154.63
933.669	6056.78
933.977	6099.03
934.286	6063.33
934.594	6058.58
934.902	6040.51
935.21	5980.62
935.519	6034.4
935.827	5981.98
936.135	5904.01
936.443	5855.2
936.751	5853.62
937.059	5865.59
937.367	5798.03
937.674	5841.19
937.982	5794.64
938.29	5783.11
938.597	5743.56
938.905	5695.43
939.213	5658.82
939.52	5620.4
939.827	5668.76
940.135	5643.23
940.442	5581.08
940.749	5574.53
941.056	5592.61
941.363	5484.14
941.67	5487.53
941.977	5457.92
942.284	5435.1
942.591	5383.12
942.898	5413.4
943.205	5366.4
943.511	5314.2
943.818	5349.45
944.125	5263.35
944.431	5289.11
944.738	5258.6
945.044	5251.37
945.35	5231.94
945.657	5179.28
945.963	5127.99
946.269	5091.6
946.575	5119.4
946.881	5116.91
947.187	5114.88
947.493	5035.11
947.799	5047.08
948.105	5023.81
948.41	4927.09
948.716	4988.33
949.022	4954.66
949.327	4919.63
949.633	4849.35
949.938	4897.94
950.244	4853.87
950.549	4806.87
950.854	4865.39
951.16	4808.67
951.465	4747.43
951.77	4743.14
952.075	4757.15
952.38	4693.87
952.685	4689.13
952.99	4686.19
953.294	4686.64
953.599	4610.71
953.904	4550.6
954.209	4621.11
954.513	4575.01
954.818	4517.61
955.122	4529.13
955.426	4556.25
955.731	4497.95
956.035	4506.31
956.339	4435.35
956.643	4425.86
956.948	4415.91
957.252	4399.42
957.556	4335.69
957.86	4379.98
958.163	4352.64
958.467	4308.8
958.771	4316.71
959.075	4321.91
959.378	4236.94
959.682	4242.59
959.985	4264.73
960.289	4194.45
960.592	4212.3
960.896	4199.65
961.199	4156.26
961.502	4164.4
961.805	4132.98
962.108	4097.73
962.411	4115.81
962.714	4086.43
963.017	4088.69
963.32	4026.32
963.623	4022.93
963.926	4025.87
964.228	3989.26
964.531	3979.77
964.833	3976.15
965.136	3982.48
965.438	3918.07
965.741	3882.82
966.043	3892.76
966.345	3843.95
966.648	3848.7
966.95	3834.46
967.252	3822.71
967.554	3810.51
967.856	3810.28
968.158	3671.75
968.46	3726.67
968.761	3732.54
969.063	3717.18
969.365	3668.14
969.666	3654.13
969.968	3636.5
970.269	3628.14
970.571	3626.11
970.872	3603.96
971.174	3613.68
971.475	3570.51
971.776	3567.35
972.077	3520.12
972.378	3538.65
972.679	3530.06
972.98	3528.03
973.281	3486.22
973.582	3479.67
973.883	3467.92
974.183	3462.72
974.484	3403.96
974.785	3391.54
975.085	3433.34
975.386	3380.24
975.686	3397.18
975.986	3354.25
976.287	3342.5
976.587	3303.18
976.887	3325.77
977.187	3337.3
977.487	3348.6
977.787	3282.61
978.087	3286.68
978.387	3280.35
978.687	3238.32
978.987	3215.49
979.286	3220.01
979.586	3180.69
979.885	3161.03
980.185	3132.33
980.484	3184.99
980.784	3144.31
981.083	3121.03
981.382	3107.25
981.682	3118.1
981.981	3060.92
982.28	3053.24
982.579	3029.96
982.878	3051.88
983.177	2999.68
983.475	2992
983.774	2970.53
984.073	2944.32
984.372	2952.45
984.67	2951.32
984.969	2894.83
985.267	2912.45
985.566	2898.21
985.864	2886.01
986.162	2850.31
986.461	2860.7
986.759	2836.52
987.057	2816.86
987.355	2810.76
987.653	2803.08
987.951	2773.7
988.249	2788.16
988.547	2752.91
988.844	2766.69
989.142	2758.78
989.44	2716.75
989.737	2683.08
990.035	2685.56
990.332	2711.33
990.63	2664.55
990.927	2678.56
991.224	2677.66
991.521	2674.49
991.819	2640.59
992.116	2613.48
992.413	2634.27
992.71	2571.9
993.006	2572.57
993.303	2580.48
993.6	2556.3
993.897	2557.88
994.193	2521.95
994.49	2546.13
994.787	2521.05
995.083	2487.15
995.379	2510.43
995.676	2466.36
995.972	2485.34
996.268	2448.28
996.565	2437.44
996.861	2420.71
997.157	2416.65
997.453	2406.93
997.749	2387.49
998.044	2387.27
998.34	2362.41
998.636	2343.43
998.932	2350.21
999.227	2347.04
999.523	2326.48
999.818	2279.25
1000.114	2288.51
1000.409	2280.38
1000.704	2293.03
1001	2224.79
1001.295	2252.81
1001.59	2258.01
1001.885	2251.68
1002.18	2196.99
1002.475	2205.13
1002.77	2176.43
1003.065	2190.21
1003.359	2155.86
1003.654	2154.51
1003.949	2128.97
1004.243	2119.03
1004.538	2093.94
1004.832	2103.21
1005.127	2127.16
1005.421	2090.33
1005.715	2088.52
1006.009	2060.27
1006.304	2069.99
1006.598	2021.4
1006.892	2048.29
1007.186	1992.93
1007.48	1985.02
1007.773	1989.54
1008.067	1980.72
1008.361	1973.04
1008.655	1952.7
1008.948	1919.03
1009.242	1930.1
1009.535	1933.49
1009.829	1882.42
1010.122	1888.98
1010.415	1873.16
1010.708	1860.5
1011.001	1877
1011.295	1839.03
1011.588	1831.8
1011.881	1820.5
1012.173	1813.05
1012.466	1805.59
1012.759	1780.28
1013.052	1798.58
1013.344	1794.97
1013.637	1757
1013.93	1759.71
1014.222	1715.2
1014.514	1757.68
1014.807	1741.18
1015.099	1717.68
1015.391	1706.38
1015.683	1691.69
1015.976	1691.01
1016.268	1656.89
1016.56	1659.15
1016.851	1642.65
1017.143	1653.5
1017.435	1655.31
1017.727	1612.37
1018.018	1597.01
1018.31	1594.07
1018.602	1590.23
1018.893	1572.83
1019.185	1593.62
1019.476	1565.14
1019.767	1548.65
1020.058	1532.37
1020.35	1526.73
1020.641	1528.76
1020.932	1513.84
1021.223	1495.99
1021.514	1478.59
1021.804	1454.64
1022.095	1458.25
1022.386	1477.46
1022.677	1454.18
1022.967	1433.62
1023.258	1453.06
1023.548	1448.76
1023.839	1411.7
1024.129	1402.43
1024.419	1401.98
1024.709	1385.94
1025	1384.36
1025.29	1354.75
1025.58	1361.31
1025.87	1366.96
1026.16	1345.71
1026.449	1328.99
1026.739	1313.85
1027.029	1342.32
1027.319	1321.08
1027.608	1295.32
1027.898	1282.66
1028.187	1298.93
1028.477	1267.07
1028.766	1261.65
1029.055	1244.25
1029.344	1260.74
1029.634	1225.26
1029.923	1204.47
1030.212	1224.13
1030.501	1213.97
1030.79	1208.77
1031.078	1195.89
1031.367	1211.25
1031.656	1146.4
1031.945	1147.75
1032.233	1175.77
1032.522	1154.76
1032.81	1162.67
1033.099	1147.3
1033.387	1150.01
1033.675	1137.81
1033.963	1107.75
1034.251	1096
1034.54	1108.21
1034.828	1102.56
1035.116	1070.92
1035.403	1093.74
1035.691	1083.35
1035.979	1082.67
1036.267	1074.76
1036.554	1048.55
1036.842	1042.22
1037.129	1027.08
1037.417	1001.77
1037.704	1038.6
1037.992	1003.35
1038.279	1016.68
1038.566	990.92
1038.853	990.92
1039.14	990.92
