Data from hue_24_FLMS001491_00001.txt Node
Date: Tue Feb 07 17:11:39 GMT 2017
User: dcchb
Spectrometer: FLMS00149
Trigger mode: 0
Integration Time (sec): 2.000000E-2
Scans to average: 10
Electric dark correction enabled: true
Nonlinearity correction enabled: false
Boxcar width: 0
XAxis mode: Wavelengths
Number of Pixels in Spectrum: 2048
>>>>>Begin Spectral Data<<<<<
341.393	-9.72
341.776	-9.72
342.16	-9.72
342.543	-57.63
342.927	-80
343.31	-60.56
343.693	-52.43
344.077	-67.79
344.46	-67.57
344.843	-65.08
345.226	-40.68
345.61	-49.26
345.993	-21.02
346.376	-8.14
346.759	0.68
347.142	32.54
347.525	46.33
347.908	65.31
348.291	91.07
348.674	89.04
349.057	107.57
349.44	123.61
349.823	132.43
350.206	171.52
350.588	212.88
350.971	217.85
351.354	213.55
351.737	263.95
352.119	233.44
352.502	258.52
352.884	268.24
353.267	294.23
353.65	285.19
354.032	299.43
354.414	309.82
354.797	317.73
355.179	326.09
355.562	343.27
355.944	309.37
356.326	330.84
356.709	336.49
357.091	348.69
357.473	349.6
357.855	332.65
358.238	342.14
358.62	342.36
359.002	349.14
359.384	335.81
359.766	349.82
360.148	334
360.53	358.63
360.912	339.2
361.294	341.46
361.676	343.72
362.057	336.26
362.439	337.62
362.821	341.01
363.203	315.02
363.584	330.39
363.966	318.18
364.348	331.52
364.729	328.35
365.111	309.6
365.493	327.68
365.874	325.19
366.256	306.21
366.637	334.68
367.019	312.76
367.4	295.36
367.781	312.31
368.163	329.26
368.544	305.3
368.925	341.46
369.306	334.68
369.688	314.34
370.069	323.16
370.45	317.05
370.831	315.7
371.212	333.55
371.593	296.49
371.974	326.32
372.355	316.15
372.736	304.85
373.117	315.25
373.498	312.76
373.879	301.69
374.26	325.87
374.641	313.89
375.021	310.73
375.402	313.89
375.783	308.24
376.163	328.35
376.544	319.31
376.925	324.96
377.305	343.27
377.686	329.03
378.066	319.99
378.447	346.43
378.827	343.95
379.208	338.97
379.588	330.84
379.968	308.92
380.349	346.43
380.729	346.88
381.109	350.5
381.489	331.06
381.87	322.93
382.25	349.37
382.63	354.11
383.01	349.6
383.39	342.14
383.77	348.69
384.15	345.08
384.53	335.81
384.91	355.24
385.29	376.49
385.67	324.51
386.049	347.79
386.429	367
386.809	356.6
387.189	349.37
387.568	344.85
387.948	362.25
388.328	340.56
388.707	374.91
389.087	385.3
389.466	364.28
389.846	367.9
390.225	357.96
390.605	381.68
390.984	376.49
391.363	344.85
391.743	392.31
392.122	365.64
392.501	362.48
392.881	409.93
393.26	369.93
393.639	362.25
394.018	378.3
394.397	379.43
394.776	376.94
395.155	380.55
395.534	397.96
395.913	397.28
396.292	386.66
396.671	372.19
397.05	385.75
397.429	387.79
397.808	409.25
398.186	388.92
398.565	407.9
398.944	393.44
399.323	392.76
399.701	394.11
400.08	399.76
400.458	401.8
400.837	399.54
401.215	413.55
401.594	413.77
401.972	406.54
402.351	402.25
402.729	410.84
403.107	406.54
403.486	413.1
403.864	404.06
404.242	406.32
404.62	414.23
404.999	433.89
405.377	430.95
405.755	421.46
406.133	403.15
406.511	435.69
406.889	427.79
407.267	448.35
407.645	448.58
408.023	445.41
408.401	448.8
408.779	456.94
409.156	440.67
409.534	457.62
409.912	456.71
410.29	450.84
410.667	450.61
411.045	466.65
411.422	481.34
411.8	459.65
412.178	472.76
412.555	478.41
412.933	476.15
413.31	476.82
413.687	474.34
414.065	476.82
414.442	487.22
414.819	477.95
415.197	494.9
415.574	504.85
415.951	489.25
416.328	505.75
416.705	495.81
417.082	515.01
417.46	494.22
417.837	507.78
418.214	492.42
418.591	504.62
418.967	497.39
419.344	507.11
419.721	529.03
420.098	499.42
420.475	535.81
420.852	531.29
421.228	540.78
421.605	529.7
421.982	541.91
422.358	526.77
422.735	564.5
423.111	560.89
423.488	521.57
423.864	564.5
424.241	579.42
424.617	555.01
424.994	567.67
425.37	580.32
425.746	558.86
426.123	588.69
426.499	578.06
426.875	597.95
427.251	608.35
427.627	606.31
428.003	597.5
428.379	618.51
428.756	622.58
429.132	619.64
429.507	611.74
429.883	628.46
430.259	615.8
430.635	635.92
431.011	639.53
431.387	647.21
431.763	652.41
432.138	660.32
432.514	653.54
432.89	661.68
433.265	663.94
433.641	678.85
434.016	656.93
434.392	707.1
434.767	701.45
435.143	693.09
435.518	727.89
435.894	728.79
436.269	721.79
436.644	729.25
437.02	748.45
437.395	721.79
437.77	738.96
438.145	742.58
438.52	746.87
438.895	740.09
439.271	779.41
439.646	770.38
440.021	785.29
440.395	771.96
440.77	773.76
441.145	794.78
441.52	778.28
441.895	768.34
442.27	803.82
442.645	805.18
443.019	804.05
443.394	788.23
443.769	826.19
444.143	825.97
444.518	828.23
444.892	816.7
445.267	819.19
445.641	812.63
446.016	844.05
446.39	858.73
446.764	849.92
447.139	833.2
447.513	858.51
447.887	859.64
448.262	872.29
448.636	858.06
449.01	890.6
449.384	875.46
449.758	906.64
450.132	888.56
450.506	910.26
450.88	936.7
451.254	915.68
451.628	927.21
452.002	929.92
452.376	932.18
452.75	949.35
453.123	986.64
453.497	972.63
453.871	939.86
454.244	1008.56
454.618	981.9
454.992	999.07
455.365	1027.77
455.739	985.06
456.112	1001.78
456.486	1027.09
456.859	1038.62
457.232	1047.43
457.606	1066.64
457.979	1072.29
458.352	1090.82
458.725	1084.72
459.099	1095.79
459.472	1154.77
459.845	1120.2
460.218	1131.72
460.591	1139.18
460.964	1155.68
461.337	1193.41
461.71	1205.17
462.083	1238.39
462.456	1198.84
462.829	1233.19
463.201	1240.19
463.574	1237.26
463.947	1259.63
464.32	1294.88
464.692	1309.57
465.065	1278.38
465.438	1307.08
465.81	1341.21
466.183	1358.83
466.555	1393.86
466.928	1377.14
467.3	1378.49
467.672	1393.18
468.045	1434.76
468.417	1450.13
468.789	1426.18
469.161	1458.72
469.534	1489.45
469.906	1517.7
470.278	1547.98
470.65	1560.64
471.022	1575.1
471.394	1628.88
471.766	1619.39
472.138	1651.26
472.51	1669.11
472.882	1696.23
473.253	1725.38
473.625	1704.36
473.997	1774.42
474.369	1815.09
474.74	1824.13
475.112	1829.78
475.484	1886.28
475.855	1893.06
476.227	1959.5
476.598	2006.95
476.97	2000.4
477.341	2041.08
477.713	2087.18
478.084	2095.99
478.455	2172.37
478.827	2181.86
479.198	2239.04
479.569	2245.36
479.94	2322.2
480.311	2356.77
480.682	2387.73
481.053	2478.13
481.424	2496.21
481.795	2563.55
482.166	2593.38
482.537	2613.94
482.908	2649.42
483.279	2717.44
483.65	2728.74
484.021	2822.3
484.391	2816.65
484.762	2900.71
485.133	2900.94
485.503	2978.68
485.874	3027.49
486.244	3103.87
486.615	3148.17
486.985	3202.4
487.356	3255.28
487.726	3260.25
488.097	3375.05
488.467	3386.8
488.837	3423.19
489.207	3495.05
489.578	3552.67
489.948	3606.23
490.318	3663.63
490.688	3690.52
491.058	3761.71
491.428	3776.85
491.798	3836.28
492.168	3914.25
492.538	3971.65
492.908	4022.72
493.278	4074.92
493.648	4066.56
494.017	4112.66
494.387	4206.44
494.757	4167.57
495.126	4235.37
495.496	4293.22
495.866	4296.84
496.235	4375.48
496.605	4386.78
496.974	4445.31
497.344	4472.88
497.713	4497.06
498.082	4541.8
498.452	4638.97
498.821	4626.32
499.19	4687.79
499.559	4709.71
499.928	4740.44
500.298	4810.04
500.667	4826.54
501.036	4804.17
501.405	4864.28
501.774	4897.5
502.143	4972.07
502.512	4953.99
502.88	5004.84
503.249	5001.22
503.618	5035.8
503.987	5090.04
504.356	5143.82
504.724	5096.82
505.093	5150.37
505.462	5187.89
505.83	5245.51
506.199	5264.72
506.567	5257.04
506.936	5264.49
507.304	5350.37
507.672	5382.23
508.041	5421.1
508.409	5440.08
508.777	5471.72
509.145	5523.47
509.514	5530.25
509.882	5610.7
510.25	5544.94
510.618	5579.74
510.986	5656.12
511.354	5710.36
511.722	5693.86
512.09	5740.64
512.458	5723.92
512.826	5786.97
513.193	5783.58
513.561	5801.66
513.929	5875.1
514.297	5890.92
514.664	5930.24
515.032	5860.64
515.4	5958.04
515.767	5989.45
516.135	6039.39
516.502	6023.12
516.869	6064.47
517.237	6101.31
517.604	6082.78
517.972	6149.67
518.339	6151.93
518.706	6198.03
519.073	6188.99
519.44	6229.44
519.808	6318.25
520.175	6301.76
520.542	6352.83
520.909	6419.72
521.276	6387.63
521.643	6422.43
522.009	6478.93
522.376	6455.65
522.743	6540.62
523.11	6563.44
523.477	6555.99
523.843	6690.45
524.21	6764.34
524.577	6744.68
524.943	6727.05
525.31	6763.21
525.676	6869.42
526.043	6924.79
526.409	6874.4
526.776	6925.02
527.142	7060.15
527.508	7018.35
527.874	7062.87
528.241	7087.95
528.607	7104.45
528.973	7203.65
529.339	7187.61
529.705	7221.51
530.071	7346.7
530.437	7426.92
530.803	7362.74
531.169	7428.51
531.535	7368.85
531.901	7417.88
532.267	7482.97
532.632	7530.42
532.998	7497.66
533.364	7595.96
533.73	7584.89
534.095	7647.48
534.461	7724.54
534.826	7740.81
535.192	7720.7
535.557	7854.03
535.923	7785.11
536.288	7836.86
536.653	7925.44
537.019	7903.75
537.384	7976.06
537.749	7973.12
538.114	7990.07
538.479	8013.12
538.845	8065.55
539.21	8057.64
539.575	8086.34
539.94	8145.77
540.305	8255.83
540.67	8138.77
541.034	8285.21
541.399	8309.39
541.764	8307.35
542.129	8312.78
542.494	8337.18
542.858	8430.51
543.223	8427.8
543.587	8500.34
543.952	8482.49
544.316	8480.23
544.681	8629.83
545.045	8569.49
545.41	8647
545.774	8688.36
546.138	8661.02
546.503	8690.84
546.867	8729.04
547.231	8744.4
547.595	8799.32
547.959	8847
548.324	8874.57
548.688	8866.66
549.052	8906.66
549.416	8952.76
549.779	8962.48
550.143	8994.57
550.507	9140.32
550.871	9102.36
551.235	8981.68
551.599	9193.43
551.962	9155.47
552.326	9174
552.689	9302.58
553.053	9219.87
553.417	9195.69
553.78	9392.52
554.143	9285.41
554.507	9338.96
554.87	9436.59
555.234	9442.69
555.597	9394.56
555.96	9504.38
556.323	9474.55
556.686	9562.23
557.05	9556.36
557.413	9638.16
557.776	9592.97
558.139	9675
558.502	9712.74
558.865	9699.41
559.228	9798.84
559.59	9773.08
559.953	9790.25
560.316	9905.95
560.679	9875.22
561.041	10014.43
561.404	10044.93
561.767	10050.81
562.129	9995.22
562.492	10103.69
562.854	10100.3
563.217	10137.13
563.579	10224.36
563.941	10164.25
564.304	10220.52
564.666	10313.4
565.028	10385.26
565.39	10349.56
565.753	10361.31
566.115	10422.55
566.477	10525.37
566.839	10521.08
567.201	10609.44
567.563	10585.26
567.925	10627.07
568.287	10650.57
568.648	10712.49
569.01	10676.78
569.372	10781.41
569.734	10787.29
570.095	10844.69
570.457	10972.82
570.819	10973.95
571.18	10950.67
571.542	11112.02
571.903	11051.69
572.265	11175.07
572.626	11219.14
572.987	11227.73
573.349	11294.84
573.71	11281.06
574.071	11430.43
574.432	11473.14
574.794	11600.37
575.155	11617.1
575.516	11564.67
575.877	11716.53
576.238	11836.52
576.599	11871.1
576.96	11860.03
577.32	12003.07
577.681	12175.73
578.042	12190.19
578.403	12246.68
578.763	12394.25
579.124	12468.6
579.485	12562.38
579.845	12685.77
580.206	12785.43
580.566	12872.43
580.927	12983.84
581.287	13175.25
581.648	13238.07
582.008	13490.04
582.368	13539.76
582.728	13792.41
583.089	13889.8
583.449	13980.42
583.809	14186.29
584.169	14402.11
584.529	14523.46
584.889	14852.26
585.249	14865.82
585.609	15053.62
585.969	15372.03
586.329	15441.4
586.688	15708.29
587.048	15902.41
587.408	16175.17
587.768	16486.35
588.127	16570.86
588.487	16854.25
588.846	17285.65
589.206	17374.23
589.565	17606.77
589.925	17997.72
590.284	18168.34
590.643	18439.52
591.003	18825.95
591.362	19200.4
591.721	19254.86
592.08	19615.98
592.44	19946.82
592.799	20241.95
593.158	20500.25
593.517	20781.83
593.876	21185.88
594.235	21371.42
594.593	21753.33
594.952	21944.96
595.311	22319.64
595.67	22467.88
596.029	22963.46
596.387	23290.91
596.746	23600.96
597.104	23770.45
597.463	24128.18
597.822	24550.54
598.18	24705.79
598.538	25095.16
598.897	25461.25
599.255	25600.46
599.613	26226.2
599.972	26406.09
600.33	26807.2
600.688	26862.12
601.046	27247.42
601.404	27794.75
601.762	28012.6
602.12	28482.64
602.478	28504.79
602.836	28793.14
603.194	29017.54
603.552	29364.65
603.91	29565.55
604.268	30037.63
604.625	30037.63
604.983	30498.86
605.341	30589.7
605.698	30983.14
606.056	31446.18
606.413	31541.54
606.771	31901.08
607.128	32170.68
607.485	32232.15
607.843	32503.33
608.2	32890.89
608.557	33266.47
608.914	33304.21
609.272	33699.9
609.629	33817.64
609.986	34214.24
610.343	34309.15
610.7	34725.87
611.057	34792.53
611.414	34954.79
611.771	35217.15
612.127	35462.57
612.484	35842.22
612.841	35971.03
613.198	36065.27
613.554	36197.92
613.911	36639.49
614.267	36652.14
614.624	36913.83
614.98	36968.07
615.337	37507.71
615.693	37482.63
616.05	37760.14
616.406	37928.27
616.762	38044.65
617.118	38181.59
617.475	38243.29
617.831	38429.95
618.187	38706.33
618.543	38909.49
618.899	39146.32
619.255	39176.6
619.611	39258.63
619.967	39422.47
620.323	39752.85
620.678	39711.95
621.034	39749.24
621.39	39804.15
621.746	39942.9
622.101	40477.35
622.457	40117.36
622.812	40400.29
623.168	40628.08
623.523	40593.06
623.879	40887.29
624.234	40734.52
624.589	40882.77
624.945	41077.11
625.3	41171.35
625.655	41127.73
626.01	41325.47
626.365	41311
626.72	41410.44
627.075	41395.3
627.43	41515.52
627.785	41533.82
628.14	41600.71
628.495	41699.24
628.85	41854.72
629.205	41669.64
629.559	42010.65
629.914	41957.31
630.269	41889.97
630.623	42030.53
630.978	41863.53
631.332	42136.52
631.687	42174.03
632.041	42089.06
632.396	42223.52
632.75	41929.29
633.104	42158.67
633.459	42130.42
633.813	42198.44
634.167	42169.29
634.521	42103.53
634.875	42175.84
635.229	42197.08
635.583	42128.16
635.937	42005.45
636.291	42173.13
636.645	42181.04
636.999	42128.38
637.352	42289.96
637.706	42064.88
638.06	42279.79
638.413	42144.43
638.767	42090.87
639.121	42121.15
639.474	41977.43
639.828	42022.85
640.181	42049.29
640.534	42007.26
640.888	42083.41
641.241	41966.35
641.594	42018.56
641.947	42191.66
642.301	42112.11
642.654	42068.05
643.007	42107.14
643.36	42074.6
643.713	42045.9
644.066	42144.88
644.419	41947.37
644.771	41762.97
645.124	41444.11
645.477	41243.66
645.83	41109.88
646.182	41057.45
646.535	40884.57
646.888	41002.31
647.24	40644.13
647.593	40935.19
647.945	40933.61
648.298	40609.1
648.65	40618.14
649.002	40536.11
649.355	40707.63
649.707	40852.94
650.059	40973.61
650.411	41463.99
650.763	41492.24
651.115	41860.59
651.467	41702.41
651.819	41725.23
652.171	41506.48
652.523	41501.73
652.875	41494.28
653.227	41361.17
653.578	41736.3
653.93	41535.41
654.282	41502.41
654.633	41245.02
654.985	41415.63
655.337	41439.36
655.688	41428.52
656.039	41592.35
656.391	41372.7
656.742	41467.16
657.094	41485.01
657.445	41554.84
657.796	41450.21
658.147	41482.98
658.498	41287.73
658.849	41444.56
659.2	41468.51
659.551	41291.8
659.902	41539.92
660.253	41248.63
660.604	41438.91
660.955	41128.64
661.306	41302.42
661.656	41363.43
662.007	41337.44
662.358	41259.03
662.708	41292.93
663.059	41287.73
663.409	41019.03
663.76	41480.49
664.11	41292.25
664.461	41380.38
664.811	41296.77
665.161	41103.55
665.511	41162.53
665.862	41203.21
666.212	41227.84
666.562	41175.19
666.912	41195.75
667.262	41132.48
667.612	41179.93
667.962	41307.61
668.312	41205.02
668.662	41420.38
669.011	41215.64
669.361	41231.01
669.711	41202.08
670.06	41110.78
670.41	41119.37
670.76	40928.19
671.109	41080.5
671.459	40984.69
671.808	40882.09
672.157	41111.91
672.507	40814.97
672.856	40992.59
673.205	41041.18
673.554	41242.31
673.904	40930
674.253	41191.69
674.602	40960.5
674.951	40500.18
675.3	40236.46
675.649	40937.91
675.998	40789.21
676.346	40887.51
676.695	40871.02
677.044	40708.76
677.393	40708.53
677.741	40784.46
678.09	40742.43
678.438	40591.48
678.787	40648.87
679.135	40640.29
679.484	40344.7
679.832	40560.97
680.181	40333.63
680.529	40452.04
680.877	40295.66
681.225	40198.94
681.573	40618.37
681.922	40280.07
682.27	40111.26
682.618	40181.99
682.966	40032.62
683.314	40130.92
683.661	39964.82
684.009	39809.8
684.357	39777.49
684.705	39813.19
685.053	39797.37
685.4	39820.2
685.748	39620.88
686.095	39486.42
686.443	39495.01
686.79	39452.97
687.138	39539.3
687.485	39425.18
687.832	39365.52
688.18	39304.05
688.527	39130.27
688.874	39003.72
689.221	39114
689.568	38879.2
689.915	38900.67
690.262	38710.62
690.609	38848.47
690.956	38511.3
691.303	38663.16
691.65	38300.91
691.997	38484.86
692.344	38347.69
692.69	38185.89
693.037	38243.29
693.383	37909.74
693.73	37967.36
694.077	37755.62
694.423	37789.51
694.769	37669.07
695.116	37643.08
695.462	37667.03
695.808	37453.25
696.155	37499.35
696.501	37262.98
696.847	37177.55
697.193	36936.2
697.539	37104.11
697.885	36795.19
698.231	36697.79
698.577	36799.26
698.923	36767.85
699.269	36486.05
699.614	36368.54
699.96	36338.48
700.306	36406.5
700.651	36137.58
700.997	36153.17
701.342	36143.91
701.688	35944.82
702.033	35985.49
702.379	35888.77
702.724	35819.17
703.069	35815.1
703.415	35412.63
703.76	35436.81
704.105	35430.93
704.45	35329.69
704.795	35100.55
705.14	35001.34
705.485	35062.58
705.83	34914.56
706.175	35013.09
706.52	34906.43
706.865	34759.99
707.209	34674.34
707.554	34606.1
707.899	34596.15
708.243	34388.7
708.588	34390.06
708.932	34159.55
709.277	34134.92
709.621	34188.03
709.966	34058.54
710.31	34033.46
710.654	33749.17
710.998	33786.91
711.342	33809.28
711.687	33656.52
712.031	33622.84
712.375	33442.28
712.719	33583.07
713.063	33571.55
713.407	33524.32
713.75	33317.09
714.094	33301.5
714.438	33231.22
714.782	33248.62
715.125	33122.52
715.469	33221.05
715.812	33002.07
716.156	32748.07
716.499	32826.71
716.843	32762.75
717.186	32817.67
717.53	32797.56
717.873	32785.35
718.216	32794.17
718.559	32574.51
718.902	32321.41
719.246	32452.93
719.589	32244.58
719.932	32294.74
720.275	32221.75
720.617	32200.51
720.96	32171.58
721.303	32212.26
721.646	32115.99
721.989	32003.9
722.331	31992.61
722.674	31964.36
723.016	31886.39
723.359	31797.36
723.701	31870.12
724.044	31513.97
724.386	31495.44
724.729	31560.3
725.071	31461.09
725.413	31462.68
725.755	31410.7
726.097	31301.1
726.439	31099.07
726.782	31286.41
727.124	31308.1
727.465	31177.03
727.807	31276.69
728.149	31082.8
728.491	30893.42
728.833	31120.99
729.175	30888.68
729.516	30938.85
729.858	30872.41
730.199	30911.5
730.541	30650.95
730.882	30601.68
731.224	30742.92
731.565	30499.54
731.906	30515.36
732.248	30428.35
732.589	30425.87
732.93	30246.66
733.271	30311.07
733.612	30371.63
733.953	30394.91
734.294	30382.03
734.635	30174.8
734.976	30252.54
735.317	30162.14
735.658	30055.93
735.999	30012.09
736.339	29961.47
736.68	30140
737.021	30105.65
737.361	29884.41
737.702	30029.72
738.042	29843.28
738.383	29728.94
738.723	29971.19
739.063	29576.17
739.404	29803.51
739.744	29688.71
740.084	29584.76
740.424	29553.8
740.764	29501.37
741.104	29640.35
741.444	29380.92
741.784	29293.69
742.124	29385.22
742.464	29302.28
742.804	29280.81
743.143	29225.45
743.483	29292.79
743.823	29061.38
744.162	29092.12
744.502	29102.51
744.841	29114.49
745.181	29114.26
745.52	28995.17
745.86	29081.72
746.199	28865
746.538	28906.36
746.877	29054.6
747.216	28973.7
747.556	28782.52
747.895	28866.36
748.234	28618.68
748.573	28641.05
748.911	28617.78
749.25	28622.3
749.589	28521.96
749.928	28558.8
750.267	28546.37
750.605	28451.91
750.944	28343.66
751.283	28429.31
751.621	28417.33
751.96	28142.54
752.298	28309.99
752.636	28262.76
752.975	28134.63
753.313	28006.72
753.651	28110.67
753.989	27853.5
754.327	27862.77
754.666	27824.13
755.004	27916.1
755.342	27736.9
755.679	27796.11
756.017	27553.63
756.355	27640.86
756.693	27474.53
757.031	27567.86
757.368	27406.51
757.706	27297.36
758.044	27258.49
758.381	27181.66
758.719	27167.2
759.056	27158.83
759.394	27081.32
759.731	26894.21
760.068	26835
760.405	26854.21
760.743	26807.88
761.08	26718.62
761.417	26606.76
761.754	26613.76
762.091	26453.54
762.428	26375.13
762.765	26371.96
763.102	26398.4
763.438	26249.25
763.775	26072.76
764.112	26077.73
764.449	26178.97
764.785	25954.35
765.122	25787.8
765.458	25703.5
765.795	25740.57
766.131	25736.27
766.467	25596.84
766.804	25520.68
767.14	25339.45
767.476	25397.98
767.812	25126.34
768.148	25144.2
768.485	25118.66
768.821	24896.75
769.157	24896.75
769.492	24903.07
769.828	24795.05
770.164	24631.22
770.5	24602.74
770.836	24544.67
771.171	24355.97
771.507	24381.05
771.842	24129.31
772.178	24219.48
772.513	24040.72
772.849	24103.77
773.184	23923.89
773.519	23880.5
773.855	23841.63
774.19	23684.57
774.525	23621.07
774.86	23643.67
775.195	23544.47
775.53	23343.57
775.865	23246.39
776.2	23185.38
776.535	22880.08
776.87	23040.75
777.205	22935.44
777.539	22922.11
777.874	22852.96
778.209	22652.51
778.543	22613.19
778.878	22576.81
779.212	22506.07
779.547	22328
779.881	22432.4
780.215	22238.29
780.55	22231.73
780.884	22002.36
781.218	22064.96
781.552	22090.04
781.886	21889.14
782.22	21801.91
782.554	21766.21
782.888	21693.44
783.222	21481.92
783.556	21310.85
783.889	21422.94
784.223	21212.55
784.557	21133
784.89	21097.75
785.224	20982.27
785.557	20883.07
785.891	20839.9
786.224	20812.11
786.558	20837.87
786.891	20674.26
787.224	20575.05
787.557	20554.26
787.891	20465.45
788.224	20389.29
788.557	20425.9
788.89	20308.39
789.223	20268.17
789.556	20088.96
789.888	20095.97
790.221	19995.86
790.554	19838.57
790.887	19885.35
791.219	19773.27
791.552	19623.44
791.884	19638.58
792.217	19651.23
792.549	19582.08
792.882	19368.08
793.214	19240.4
793.546	19433.39
793.879	19346.38
794.211	19222.32
794.543	19212.38
794.875	19125.15
795.207	19159.72
795.539	18977.13
795.871	18966.73
796.203	18768.09
796.535	18634.99
796.867	18767.19
797.198	18626.4
797.53	18617.59
797.862	18448.78
798.193	18604.71
798.525	18432.28
798.856	18383.7
799.188	18252.18
799.519	18225.06
799.85	18006.53
800.182	18014.22
800.513	18016.7
800.844	17948.91
801.175	18053.31
801.506	17912.3
801.837	17778.97
802.168	17759.76
802.499	17744.84
802.83	17624.17
803.161	17621.46
803.491	17617.84
803.822	17560.67
804.153	17524.74
804.483	17316.83
804.814	17322.26
805.145	17282.94
805.475	17255.59
805.805	17102.83
806.136	17207.23
806.466	17176.5
806.796	17085.88
807.126	17003.17
807.457	16848.6
807.787	16952.32
808.117	16914.13
808.447	16747.36
808.777	16791.42
809.107	16703.29
809.436	16722.95
809.766	16661.03
810.096	16595.95
810.426	16491.77
810.755	16524.76
811.085	16510.98
811.414	16346.69
811.744	16318.67
812.073	16291.78
812.403	16321.83
812.732	16138.56
813.061	16177.43
813.39	16069.41
813.719	16023.08
814.049	16228.05
814.378	16040.93
814.707	15916.19
815.036	16042.29
815.365	15849.07
815.693	15761.39
816.022	15812.92
816.351	15678.91
816.68	15591.91
817.008	15680.72
817.337	15537.44
817.665	15518.01
817.994	15601.17
818.322	15575.64
818.651	15407.96
818.979	15412.02
819.307	15540.38
819.636	15376.32
819.964	15273.5
820.292	15414.28
820.62	15328.64
820.948	15245.02
821.276	15382.19
821.604	15259.26
821.932	15222.42
822.259	15205.02
822.587	15225.14
822.915	15238.7
823.243	15262.2
823.57	15124.35
823.898	15155.76
824.225	15152.37
824.553	15170.67
824.88	15136.55
825.207	15259.71
825.535	15120.28
825.862	15193.5
826.189	15087.29
826.516	15165.25
826.843	15167.51
827.17	15172.71
827.497	15237.57
827.824	15178.13
828.151	15271.46
828.478	15158.92
828.805	15153.73
829.131	15204.12
829.458	15134.07
829.785	15085.48
830.111	15100.62
830.438	15152.37
830.764	15099.72
831.09	15150.11
831.417	15113.27
831.743	15105.82
832.069	15089.09
832.395	15071.47
832.722	15145.59
833.048	15080.73
833.374	15036.67
833.7	14972.94
834.026	14955.31
834.351	15057.23
834.677	14965.48
835.003	14924.13
835.329	14966.16
835.654	14880.51
835.98	14899.5
836.306	14927.52
836.631	14847.07
836.956	14871.47
837.282	14879.16
837.607	14772.72
837.932	14756
838.258	14754.19
838.583	14674.64
838.908	14625.38
839.233	14666.28
839.558	14616.34
839.883	14541.99
840.208	14493.86
840.533	14498.15
840.858	14490.47
841.182	14506.96
841.507	14493.86
841.832	14382.22
842.156	14357.59
842.481	14469.45
842.805	14387.87
843.13	14327.08
843.454	14234.43
843.778	14237.37
844.103	14214.77
844.427	14193.53
844.751	14172.06
845.075	14180.19
845.399	14092.96
845.723	13969.35
846.047	13971.16
846.371	13928.45
846.695	13840.99
847.019	13775.23
847.343	13719.64
847.666	13718.28
847.99	13619.08
848.313	13588.34
848.637	13451.17
848.96	13498.18
849.284	13483.26
849.607	13389.93
849.931	13299.31
850.254	13212.99
850.577	13135.93
850.9	13140.9
851.223	13030.39
851.546	13023.16
851.869	12919.21
852.192	12987
852.515	12943.61
852.838	12775.94
853.161	12815.26
853.483	12693
853.806	12689.38
854.129	12698.65
854.451	12617.07
854.774	12511.54
855.096	12476.73
855.419	12450.97
855.741	12446.68
856.063	12434.7
856.385	12377.75
856.708	12276.97
857.03	12328.72
857.352	12245.55
857.674	12189.06
857.996	12169.4
858.318	12097.76
858.64	12126.91
858.961	12108.38
859.283	11982.96
859.605	11932.79
859.926	11972.11
860.248	11973.02
860.57	11850.31
860.891	11944.32
861.212	11820.25
861.534	11832.46
861.855	11775.74
862.176	11865
862.498	11717.43
862.819	11759.01
863.14	11727.6
863.461	11726.7
863.782	11626.59
864.103	11629.75
864.424	11671.33
864.745	11610.77
865.065	11506.82
865.386	11557.21
865.707	11459.81
866.027	11541.84
866.348	11464.11
866.668	11521.73
866.989	11466.59
867.309	11284.68
867.63	11345.92
867.95	11381.17
868.27	11303.66
868.59	11333.71
868.91	11239.48
869.23	11276.54
869.55	11279.48
869.87	11275.18
870.19	11255.3
870.51	11231.12
870.83	11262.53
871.15	11162.42
871.469	11225.24
871.789	11207.39
872.109	11163.1
872.428	11070.22
872.748	11102.53
873.067	11065.7
873.386	11089.43
873.706	10995.42
874.025	10991.12
874.344	10947.06
874.663	10970.56
874.982	10912.71
875.301	10910.9
875.62	10920.39
875.939	10933.72
876.258	10905.48
876.577	10778.47
876.896	10808.76
877.214	10810.11
877.533	10840.39
877.852	10741.86
878.17	10781.41
878.489	10711.58
878.807	10752.71
879.125	10738.93
879.444	10753.62
879.762	10704.8
880.08	10645.82
880.398	10616.9
880.716	10645.14
881.034	10618.03
881.352	10618.48
881.67	10565.15
881.988	10503
882.306	10494.19
882.624	10506.84
882.941	10464.58
883.259	10328.32
883.577	10410.57
883.894	10354.3
884.212	10429.56
884.529	10429.56
884.846	10366.73
885.164	10328.99
885.481	10248.32
885.798	10263.68
886.115	10191.82
886.432	10277.7
886.75	10081.54
887.067	10212.61
887.383	10115.67
887.7	10136.68
888.017	10038.83
888.334	10121.09
888.651	10044.48
888.967	10044.26
889.284	10010.13
889.6	9976.23
889.917	9890.81
890.233	9939.63
890.55	9811.72
890.866	9905.73
891.182	9804.94
891.498	9794.09
891.815	9792.51
892.131	9765.84
892.447	9683.36
892.763	9563.59
893.079	9583.25
893.395	9620.54
893.71	9608.33
894.026	9551.39
894.342	9571.95
894.657	9484.5
894.973	9509.58
895.289	9521.56
895.604	9449.7
895.92	9319.08
896.235	9390.26
896.55	9321.79
896.865	9340.55
897.181	9287.89
897.496	9244.5
897.811	9247.21
898.126	9105.3
898.441	9112.53
898.756	9099.65
899.071	9039.99
899.386	9050.61
899.7	8943.27
900.015	8899.2
900.33	8888.35
900.644	8896.94
900.959	8885.87
901.273	8806.32
901.588	8830.5
901.902	8762.48
902.216	8711.41
902.531	8704.86
902.845	8709.15
903.159	8670.28
903.473	8552.54
903.787	8589.83
904.101	8550.06
904.415	8482.94
904.729	8471.42
905.042	8472.09
905.356	8462.6
905.67	8454.24
905.984	8433.9
906.297	8393.45
906.611	8317.97
906.924	8252.66
907.237	8298.99
907.551	8289.27
907.864	8226.9
908.177	8191.2
908.491	8153.01
908.804	8110.52
909.117	8089.28
909.43	8044.53
909.743	7979.9
910.056	7997.08
910.368	7929.74
910.681	7850.64
910.994	7861.94
911.307	7875.05
911.619	7789.63
911.932	7807.93
912.244	7689.29
912.557	7710.98
912.869	7671.89
913.181	7622.85
913.494	7622.62
913.806	7567.71
914.118	7564.09
914.43	7489.29
914.742	7449.75
915.054	7473.93
915.366	7422.86
915.678	7425.57
915.99	7348.28
916.302	7318.23
916.613	7325.01
916.925	7254.5
917.236	7251.79
917.548	7205.23
917.859	7194.39
918.171	7166.37
918.482	7127.04
918.794	7123.2
919.105	7083.66
919.416	6989.65
919.727	6987.84
920.038	6949.42
920.349	6947.39
920.66	6891.8
920.971	6932.7
921.282	6854.96
921.593	6843.21
921.903	6727.28
922.214	6828.75
922.525	6737.22
922.835	6656.1
923.146	6619.71
923.456	6625.14
923.767	6640.96
924.077	6578.81
924.387	6540.39
924.697	6551.69
925.008	6510.11
925.318	6446.38
925.628	6527.96
925.938	6418.36
926.248	6364.58
926.558	6338.59
926.867	6419.72
927.177	6327.29
927.487	6289.78
927.796	6236.22
928.106	6230.57
928.416	6221.53
928.725	6185.37
929.034	6109.22
929.344	6158.26
929.653	6139.73
929.962	6076.45
930.271	6041.88
930.581	5978.37
930.89	6076.9
931.199	5955.78
931.508	5933.18
931.817	5933.86
932.125	5929.79
932.434	5806.18
932.743	5844.37
933.051	5843.46
933.36	5790.58
933.669	5803.24
933.977	5764.59
934.286	5682.56
934.594	5683.47
934.902	5669.46
935.21	5633.75
935.519	5639.85
935.827	5606.86
936.135	5578.61
936.443	5531.15
936.751	5539.52
937.059	5501.55
937.367	5488.22
937.674	5504.94
937.982	5446.86
938.29	5396.02
938.597	5412.06
938.905	5310.82
939.213	5322.8
939.52	5283.93
939.827	5337.26
940.135	5231.73
940.442	5260.43
940.749	5220.43
941.056	5231.5
941.363	5168.68
941.67	5158.06
941.977	5122.58
942.284	5076.7
942.591	5074.44
942.898	5095.46
943.205	5052.75
943.511	5071.96
943.818	4964.62
944.125	4964.39
944.431	4923.03
944.738	4959.87
945.044	4892.98
945.35	4917.61
945.657	4858.63
945.963	4893.43
946.269	4811.85
946.575	4811.4
946.881	4754
947.187	4805.75
947.493	4744.06
947.799	4726.43
948.105	4739.31
948.41	4666.09
948.716	4685.53
949.022	4648.69
949.327	4664.28
949.633	4600.11
949.938	4582.48
950.244	4551.07
950.549	4559.65
950.854	4554.23
951.16	4527.11
951.465	4495.02
951.77	4459.54
952.075	4423.39
952.38	4400.79
952.685	4383.61
952.99	4353.33
953.294	4359.89
953.599	4318.76
953.904	4353.11
954.209	4276.5
954.513	4292.77
954.818	4276.95
955.122	4274.01
955.426	4251.41
955.731	4202.15
956.035	4201.02
956.339	4226.78
956.643	4170.06
956.948	4175.03
957.252	4165.54
957.556	4109.95
957.86	4101.14
958.163	4073.57
958.467	4046.22
958.771	4078.76
959.075	4044.41
959.378	3996.73
959.682	4029.72
959.985	3962.61
960.289	3963.06
960.592	3887.58
960.896	3946.34
961.199	3896.62
961.502	3911.99
961.805	3853.23
962.108	3809.39
962.411	3831.09
962.714	3809.84
963.017	3833.35
963.32	3794.7
963.623	3773.69
963.926	3735.27
964.228	3754.03
964.531	3708.15
964.833	3742.05
965.136	3703.41
965.438	3686.91
965.741	3664.76
966.043	3630.41
966.345	3609.17
966.648	3592.22
966.95	3607.81
967.252	3563.07
967.554	3553.35
967.856	3523.52
968.158	3548.83
968.46	3507.7
968.761	3494.6
969.063	3530.3
969.365	3462.06
969.666	3483.3
969.968	3439.68
970.269	3403.75
970.571	3414.6
970.872	3428.16
971.174	3361.72
971.475	3381.15
971.776	3345
972.077	3339.57
972.378	3347.71
972.679	3291.89
972.98	3297.99
973.281	3288.28
973.582	3283.98
973.883	3253.25
974.183	3214.83
974.484	3232.23
974.785	3247.6
975.085	3191.78
975.386	3225.68
975.686	3188.62
975.986	3136.64
976.287	3145.23
976.587	3140.03
976.887	3098.22
977.187	3124.44
977.487	3133.25
977.787	3057.09
978.087	3062.07
978.387	3071.11
978.687	3024.1
978.987	3018.23
979.286	2988.17
979.586	2960.37
979.885	2944.33
980.185	2955.63
980.484	2955.85
980.784	2938.91
981.083	2916.31
981.382	2926.7
981.682	2906.14
981.981	2908.17
982.28	2889.64
982.579	2857.33
982.878	2862.75
983.177	2842.19
983.475	2803.09
983.774	2778.68
984.073	2797.67
984.372	2750.21
984.67	2766.03
984.969	2777.1
985.267	2749.76
985.566	2745.69
985.864	2721.96
986.162	2734.84
986.461	2680.83
986.759	2683.77
987.057	2631.8
987.355	2645.35
987.653	2664.79
987.951	2627.05
988.249	2632.93
988.547	2637.67
988.844	2615.07
989.142	2598.8
989.44	2553.83
989.737	2574.4
990.035	2579.37
990.332	2578.46
990.63	2521.29
990.927	2551.8
991.224	2526.04
991.521	2506.83
991.819	2508.41
992.116	2503.89
992.413	2488.07
992.71	2441.97
993.006	2446.72
993.303	2452.59
993.6	2410.78
993.897	2419.6
994.193	2443.33
994.49	2391.12
994.787	2380.28
995.083	2356.55
995.379	2351.8
995.676	2352.25
995.972	2294.85
996.268	2296.89
996.565	2303.67
996.861	2260.96
997.157	2278.13
997.453	2293.27
997.749	2281.07
998.044	2234.07
998.34	2208.3
998.636	2253.05
998.932	2213.95
999.227	2204.69
999.523	2206.72
999.818	2145.71
1000.114	2182.54
1000.409	2161.75
1000.704	2133.5
1001	2149.77
1001.295	2128.31
1001.59	2131.92
1001.885	2097.57
1002.18	2058.7
1002.475	2067.06
1002.77	2032.71
1003.065	2052.6
1003.359	2071.81
1003.654	2042.66
1003.949	2023
1004.243	2039.04
1004.538	2025.48
1004.832	2003.11
1005.127	1989.55
1005.421	1955.43
1005.715	1959.27
1006.009	1939.61
1006.304	1922.66
1006.598	1939.38
1006.892	1907.97
1007.186	1888.31
1007.48	1879.5
1007.773	1872.49
1008.067	1891.25
1008.361	1851.93
1008.655	1845.83
1008.948	1843.79
1009.242	1841.99
1009.535	1832.04
1009.829	1808.99
1010.122	1803.34
1010.415	1793.17
1010.708	1791.37
1011.001	1760.86
1011.295	1780.74
1011.588	1710.92
1011.881	1739.62
1012.173	1716.11
1012.466	1706.85
1012.759	1700.52
1013.052	1694.42
1013.344	1724.25
1013.637	1672.72
1013.93	1664.36
1014.222	1672.5
1014.514	1682.89
1014.807	1669.11
1015.099	1659.62
1015.391	1630.69
1015.683	1602.22
1015.976	1614.65
1016.268	1605.38
1016.56	1583.46
1016.851	1553.41
1017.143	1561.09
1017.435	1544.82
1017.727	1551.37
1018.018	1544.37
1018.31	1519.06
1018.602	1538.49
1018.893	1512.28
1019.185	1495.78
1019.476	1518.6
1019.767	1476.35
1020.058	1472.73
1020.35	1457.36
1020.641	1463.24
1020.932	1429.79
1021.223	1424.37
1021.514	1409.91
1021.804	1409.45
1022.095	1378.04
1022.386	1400.87
1022.677	1388.44
1022.967	1371.49
1023.258	1351.6
1023.548	1372.62
1023.839	1357.93
1024.129	1362.9
1024.419	1320.64
1024.709	1346.41
1025	1310.93
1025.29	1320.19
1025.58	1290.59
1025.87	1289.91
1026.16	1290.59
1026.449	1276.8
1026.739	1261.21
1027.029	1254.66
1027.319	1255.11
1027.608	1227.09
1027.898	1224.37
1028.187	1231.15
1028.477	1206.52
1028.766	1199.52
1029.055	1216.92
1029.344	1194.77
1029.634	1195.9
1029.923	1186.86
1030.212	1157.48
1030.501	1155.22
1030.79	1130.82
1031.078	1155.9
1031.367	1132.17
1031.656	1136.24
1031.945	1119.74
1032.233	1142.34
1032.522	1116.13
1032.81	1092.17
1033.099	1079.52
1033.387	1089.91
1033.675	1080.65
1033.963	1079.97
1034.251	1058.96
1034.54	1052.63
1034.828	1049.24
1035.116	1057.6
1035.403	1046.98
1035.691	1043.14
1035.979	1022.35
1036.267	1025.74
1036.554	1003.59
1036.842	1013.76
1037.129	996.13
1037.417	984.61
1037.704	1001.56
1037.992	995.68
1038.279	979.41
1038.566	966.53
1038.853	966.53
1039.14	966.53
