Data from hue_310_FLMS001491_42.txt Node
Date: Mon Feb 06 15:49:44 GMT 2017
User: dcchb
Spectrometer: FLMS00149
Trigger mode: 0
Integration Time (sec): 2.000000E-2
Scans to average: 10
Electric dark correction enabled: true
Nonlinearity correction enabled: false
Boxcar width: 0
XAxis mode: Wavelengths
Number of Pixels in Spectrum: 2048
>>>>>Begin Spectral Data<<<<<
341.393	-19.43
341.776	-19.43
342.16	-19.43
342.543	-37.29
342.927	-69.6
343.31	-87.91
343.693	-63.05
344.077	-65.31
344.46	-56.04
344.843	-61.47
345.226	-52.88
345.61	-23.95
345.993	-23.5
346.376	4.07
346.759	13.33
347.142	34.58
347.525	49.49
347.908	49.72
348.291	63.05
348.674	100.56
349.057	119.32
349.44	127.23
349.823	149.15
350.206	166.78
350.588	179.66
350.971	210.16
351.354	229.37
351.737	230.95
352.119	251.52
352.502	254.91
352.884	272.08
353.267	306.88
353.65	301.01
354.032	309.37
354.414	285.87
354.797	322.03
355.179	322.7
355.562	291.52
355.944	347.56
356.326	343.95
356.709	325.64
357.091	336.49
357.473	343.27
357.855	343.27
358.238	316.38
358.62	348.69
359.002	359.99
359.384	345.53
359.766	319.99
360.148	339.43
360.53	336.26
360.912	339.88
361.294	338.3
361.676	327.68
362.057	325.19
362.439	325.42
362.821	324.06
363.203	361.12
363.584	336.71
363.966	317.28
364.348	332.19
364.729	327
365.111	305.08
365.493	320.9
365.874	323.61
366.256	320.22
366.637	323.16
367.019	329.26
367.4	318.41
367.781	316.83
368.163	296.04
368.544	312.76
368.925	296.94
369.306	313.44
369.688	322.25
370.069	319.31
370.45	308.69
370.831	315.92
371.212	304.4
371.593	304.62
371.974	312.08
372.355	324.74
372.736	308.01
373.117	319.09
373.498	313.89
373.879	304.4
374.26	309.6
374.641	318.18
375.021	323.38
375.402	317.28
375.783	293.1
376.163	320.67
376.544	332.65
376.925	322.7
377.305	329.71
377.686	305.08
378.066	324.74
378.447	329.48
378.827	324.51
379.208	333.32
379.588	334.23
379.968	328.8
380.349	342.59
380.729	345.53
381.109	324.06
381.489	317.28
381.87	317.51
382.25	354.57
382.63	331.06
383.01	339.88
383.39	360.89
383.77	336.49
384.15	349.37
384.53	340.1
384.91	355.47
385.29	352.08
385.67	353.21
386.049	358.18
386.429	355.24
386.809	372.87
387.189	340.56
387.568	360.89
387.948	365.64
388.328	371.97
388.707	362.48
389.087	354.57
389.466	342.59
389.846	368.58
390.225	368.58
390.605	362.93
390.984	360.22
391.363	369.26
391.743	359.54
392.122	365.87
392.501	379.88
392.881	378.52
393.26	372.19
393.639	386.66
394.018	362.25
394.397	377.62
394.776	387.56
395.155	382.36
395.534	372.65
395.913	386.43
396.292	388.01
396.671	390.5
397.05	392.31
397.429	386.43
397.808	402.93
398.186	396.83
398.565	378.52
398.944	402.02
399.323	409.93
399.701	381.91
400.08	405.87
400.458	415.81
400.837	394.57
401.215	430.95
401.594	422.81
401.972	437.73
402.351	420.1
402.729	410.61
403.107	395.7
403.486	428.46
403.864	436.37
404.242	429.37
404.62	433.43
404.999	442.47
405.377	442.25
405.755	452.42
406.133	432.53
406.511	436.37
406.889	472.3
407.267	462.59
407.645	454.45
408.023	449.25
408.401	442.02
408.779	457.16
409.156	462.59
409.534	503.04
409.912	484.96
410.29	486.77
410.667	484.28
411.045	509.59
411.422	494.22
411.8	504.85
412.178	514.56
412.555	557.27
412.933	524.05
413.31	537.84
413.687	519.76
414.065	554.34
414.442	555.69
414.819	566.09
415.197	583.26
415.574	578.06
415.951	575.58
416.328	588.69
416.705	602.92
417.082	619.42
417.46	626.42
417.837	621.68
418.214	625.97
418.591	643.15
418.967	649.02
419.344	656.25
419.721	653.09
420.098	667.55
420.475	666.88
420.852	690.6
421.228	687.44
421.605	706.42
421.982	703.48
422.358	710.26
422.735	714.56
423.111	728.12
423.488	720.21
423.864	748
424.241	742.81
424.617	773.54
424.994	770.83
425.37	771.73
425.746	789.13
426.123	766.08
426.499	795.01
426.875	784.39
427.251	817.61
427.627	824.61
428.003	814.22
428.379	849.47
428.756	856.93
429.132	856.7
429.507	882.01
429.883	884.04
430.259	888.56
430.635	898.96
431.011	897.38
431.387	895.34
431.763	926.76
432.138	925.85
432.514	942.8
432.89	958.39
433.265	1002.91
433.641	966.98
434.016	976.7
434.392	1007.88
434.767	1024.15
435.143	1027.77
435.518	1031.61
435.894	1041.33
436.269	1067.77
436.644	1056.24
437.02	1046.3
437.395	1069.12
437.77	1083.14
438.145	1089.91
438.52	1122.23
438.895	1114.1
439.271	1101.89
439.646	1154.55
440.021	1146.64
440.395	1162.68
440.77	1138.73
441.145	1184.83
441.52	1180.08
441.895	1164.72
442.27	1169.23
442.645	1215.11
443.019	1195.45
443.394	1201.1
443.769	1196.35
444.143	1196.58
444.518	1240.65
444.892	1223.92
445.267	1226.86
445.641	1238.16
446.016	1218.95
446.39	1234.32
446.764	1265.5
447.139	1239.74
447.513	1243.81
447.887	1256.46
448.262	1248.55
448.636	1279.51
449.01	1293.75
449.384	1243.81
449.758	1265.5
450.132	1319.29
450.506	1296.69
450.88	1312.06
451.254	1281.55
451.628	1322.45
452.002	1313.86
452.376	1306.63
452.75	1348.21
453.123	1352.51
453.497	1369.23
453.871	1351.38
454.244	1380.53
454.618	1394.77
454.992	1404.71
455.365	1382.79
455.739	1407.65
456.112	1446.97
456.486	1430.92
456.859	1460.98
457.232	1456.68
457.606	1448.55
457.979	1458.72
458.352	1483.8
458.725	1484.93
459.099	1483.58
459.472	1523.12
459.845	1545.04
460.218	1538.26
460.591	1561.99
460.964	1537.81
461.337	1543.46
461.71	1577.81
462.083	1600.18
462.456	1564.48
462.829	1626.62
463.201	1660.75
463.574	1638.15
463.947	1629.34
464.32	1661.88
464.692	1670.92
465.065	1669.33
465.438	1690.35
465.81	1715.89
466.183	1740.29
466.555	1765.6
466.928	1731.03
467.3	1760.63
467.672	1758.82
468.045	1820.29
468.417	1804.47
468.789	1808.99
469.161	1813.96
469.534	1844.47
469.906	1875.88
470.278	1877.69
470.65	1884.7
471.022	1924.24
471.394	1937.8
471.766	1980.74
472.138	1964.47
472.51	2011.7
472.882	2030.23
473.253	2036.56
473.625	2015.99
473.997	2066.39
474.369	2054.86
474.74	2102.54
475.112	2125.14
475.484	2134.41
475.855	2177.34
476.227	2193.84
476.598	2208.98
476.97	2221.64
477.341	2268.19
477.713	2307.28
478.084	2304.8
478.455	2339.6
478.827	2331.46
479.198	2364.01
479.569	2388.41
479.94	2465.02
480.311	2441.74
480.682	2498.01
481.053	2521.97
481.424	2550.44
481.795	2587.95
482.166	2600.84
482.537	2613.26
482.908	2682.42
483.279	2665.92
483.65	2726.48
484.021	2747.5
484.391	2784.79
484.762	2778.46
485.133	2810.55
485.503	2827.95
485.874	2876.31
486.244	2865.69
486.615	2875.18
486.985	2911.56
487.356	2974.16
487.726	2998.57
488.097	3025.46
488.467	3022.52
488.837	3090.54
489.207	3085.79
489.578	3157.88
489.948	3160.37
490.318	3207.6
490.688	3193.36
491.058	3259.8
491.428	3288.28
491.798	3285.34
492.168	3353.81
492.538	3335.28
492.908	3332.57
493.278	3402.4
493.648	3436.29
494.017	3427.25
494.387	3475.84
494.757	3493.69
495.126	3530.53
495.496	3516.52
495.866	3513.81
496.235	3587.02
496.605	3582.96
496.974	3583.18
497.344	3583.18
497.713	3649.62
498.082	3638.77
498.452	3674.03
498.821	3692.11
499.19	3695.04
499.559	3713.8
499.928	3726.91
500.298	3738.88
500.667	3800.8
501.036	3764.42
501.405	3764.87
501.774	3763.06
502.143	3826.34
502.512	3786.12
502.88	3863.18
503.249	3856.17
503.618	3863.63
503.987	3880.58
504.356	3931.42
504.724	3919.22
505.093	3927.13
505.462	3942.95
505.83	3924.87
506.199	3972.1
506.567	4007.35
506.936	3989.27
507.304	4025.2
507.672	4067.46
508.041	4067.01
508.409	4057.97
508.777	4059.55
509.145	4095.49
509.514	4098.88
509.882	4059.55
510.25	4111.3
510.618	4149.27
510.986	4162.6
511.354	4151.98
511.722	4153.56
512.09	4169.83
512.458	4210.96
512.826	4219.78
513.193	4237.4
513.561	4240.34
513.929	4267.91
514.297	4290.51
514.664	4324.86
515.032	4258.87
515.4	4328.47
515.767	4320.56
516.135	4311.07
516.502	4299.55
516.869	4319.89
517.237	4381.13
517.604	4346.1
517.972	4356.27
518.339	4381.13
518.706	4384.97
519.073	4401.47
519.44	4420
519.808	4463.61
520.175	4424.52
520.542	4476.27
520.909	4463.16
521.276	4462.71
521.643	4469.26
522.009	4530.95
522.376	4530.5
522.743	4564.63
523.11	4573.21
523.477	4615.25
523.843	4629.03
524.21	4629.93
524.577	4679.88
524.943	4665.64
525.31	4661.35
525.676	4737.28
526.043	4765.98
526.409	4783.83
526.776	4816.37
527.142	4787.44
527.508	4770.27
527.874	4866.54
528.241	4899.08
528.607	4857.73
528.973	4904.96
529.339	4927.33
529.705	4941.79
530.071	5008.91
530.437	4973.65
530.803	5045.97
531.169	5094.1
531.535	5094.56
531.901	5059.3
532.267	5092.3
532.632	5122.8
532.998	5125.97
533.364	5167.32
533.73	5201.45
534.095	5200.09
534.461	5252.07
534.826	5262.46
535.192	5269.01
535.557	5305.4
535.923	5308.56
536.288	5327.09
536.653	5358.05
537.019	5386.75
537.384	5386.53
537.749	5391.27
538.114	5399.41
538.479	5442.12
538.845	5437.6
539.21	5440.76
539.575	5516.24
539.94	5500.87
540.305	5506.52
540.67	5534.77
541.034	5531.15
541.399	5630.36
541.764	5694.99
542.129	5680.53
542.494	5642.34
542.858	5729.79
543.223	5698.83
543.587	5709.45
543.952	5756.91
544.316	5730.02
544.681	5775.22
545.045	5835.1
545.41	5863.8
545.774	5866.51
546.138	5892.05
546.503	5917.81
546.867	5963.23
547.231	5992.16
547.595	6014.08
547.959	6038.03
548.324	6024.7
548.688	6055.66
549.052	6082.33
549.416	6067.86
549.779	6038.26
550.143	6138.14
550.507	6158.48
550.871	6180.85
551.235	6156.22
551.599	6266.95
551.962	6240.51
552.326	6234.19
552.689	6307.18
553.053	6323.68
553.417	6266.28
553.78	6383.79
554.143	6335.88
554.507	6378.59
554.87	6374.75
555.234	6459.04
555.597	6416.33
555.96	6403
556.323	6459.27
556.686	6419.04
557.05	6469.21
557.413	6498.81
557.776	6522.31
558.139	6551.69
558.502	6539.94
558.865	6560.73
559.228	6628.3
559.59	6588.53
559.953	6659.94
560.316	6675.98
560.679	6669.88
561.041	6778.35
561.404	6685.25
561.767	6804.79
562.129	6730.9
562.492	6772.25
562.854	6809.54
563.217	6750.11
563.579	6876.66
563.941	6914.17
564.304	6950.78
564.666	6927.5
565.028	6932.7
565.39	6939.93
565.753	6975.64
566.115	6994.17
566.477	7036.43
566.839	7074.84
567.201	7088.63
567.563	7069.64
567.925	7127.95
568.287	7142.41
568.648	7216.76
569.01	7212.69
569.372	7253.14
569.734	7218.34
570.095	7342.41
570.457	7346.25
570.819	7400.94
571.18	7367.04
571.542	7428.73
571.903	7443.42
572.265	7447.71
572.626	7536.98
572.987	7579.24
573.349	7663.75
573.71	7682.06
574.071	7771.32
574.432	7774.71
574.794	7807.25
575.155	7860.36
575.516	7890.41
575.877	7997.98
576.238	8050.64
576.599	8126.34
576.96	8171.54
577.32	8254.47
577.681	8319.33
578.042	8374.7
578.403	8458.76
578.763	8570.85
579.124	8738.75
579.485	8752.31
579.845	8918.41
580.206	8967
580.566	9045.64
580.927	9172.19
581.287	9337.38
581.648	9433.65
582.008	9528.56
582.368	9742.12
582.728	9838.61
583.089	10030.7
583.449	10202.44
583.809	10267.53
584.169	10513.85
584.529	10654.86
584.889	10964.91
585.249	11093.72
585.609	11234.28
585.969	11510.66
586.329	11690.77
586.688	11888.5
587.048	12096.86
587.408	12293.01
587.768	12561.7
588.127	12788.14
588.487	12987.91
588.846	13364.17
589.206	13402.59
589.565	13669.7
589.925	14098.16
590.284	14280.75
590.643	14551.71
591.003	14794.87
591.362	15152.14
591.721	15397.34
592.08	15588.06
592.44	15984.89
592.799	16203.19
593.158	16471.21
593.517	16912.78
593.876	17097.4
594.235	17351.63
594.593	17636.15
594.952	17910.26
595.311	18128.34
595.67	18555.44
596.029	19015.09
596.387	19173.73
596.746	19498.7
597.104	19699.37
597.463	20029.3
597.822	20392.91
598.18	20490.99
598.538	20867.25
598.897	21248.71
599.255	21390.4
599.613	21921.46
599.972	22086.42
600.33	22388.56
600.688	22621.55
601.046	22965.05
601.404	23377.69
601.762	23549.66
602.12	23902.42
602.478	24163.43
602.836	24468.96
603.194	24520.49
603.552	24878.67
603.91	25004.54
604.268	25369.5
604.625	25577.86
604.983	25836.38
605.341	26092.65
605.698	26309.82
606.056	26658.28
606.413	26779.18
606.771	27184.37
607.128	27506.4
607.485	27507.07
607.843	27695.09
608.2	28120.39
608.557	28361.97
608.914	28437.44
609.272	28863.87
609.629	29012.57
609.986	29446.23
610.343	29396.29
610.7	29723.29
611.057	29883.96
611.414	30087.34
611.771	30293.21
612.127	30575.02
612.484	30710.38
612.841	30938.4
613.198	31007.32
613.554	31178.39
613.911	31448.21
614.267	31626.06
614.624	31711.93
614.98	31918.71
615.337	32173.17
615.693	32349.66
616.05	32412.71
616.406	32701.06
616.762	32734.05
617.118	32922.3
617.475	33044.55
617.831	33328.62
618.187	33373.81
618.543	33571.09
618.899	33884.31
619.255	33855.61
619.611	33827.59
619.967	34108.71
620.323	34362.03
620.678	34284.75
621.034	34297.86
621.39	34407.68
621.746	34471.18
622.101	34994.11
622.457	34706.43
622.812	34945.3
623.168	34901.68
623.523	35079.53
623.879	35457.82
624.234	35213.76
624.589	35436.81
624.945	35557.48
625.3	35703.24
625.655	35616.69
626.01	35785.5
626.365	35933.29
626.72	35847.19
627.075	35917.47
627.43	35992.73
627.785	35943.46
628.14	36171.7
628.495	36209.67
628.85	36314.98
629.205	36174.19
629.559	36462.77
629.914	36239.95
630.269	36397.91
630.623	36362.21
630.978	36447.4
631.332	36532.37
631.687	36696.21
632.041	36409.44
632.396	36653.95
632.75	36514.29
633.104	36731.01
633.459	36614.86
633.813	36598.81
634.167	36542.54
634.521	36664.57
634.875	36646.04
635.229	36740.28
635.583	36479.72
635.937	36560.39
636.291	36645.14
636.645	36655.99
636.999	36653.95
637.352	36830.9
637.706	36513.62
638.06	36795.19
638.413	36729.43
638.767	36673.61
639.121	36715.42
639.474	36430
639.828	36610.79
640.181	36580.96
640.534	36666.61
640.888	36683.78
641.241	36478.59
641.594	36401.08
641.947	36659.15
642.301	36569.66
642.654	36619.6
643.007	36678.36
643.36	36630.68
643.713	36530.56
644.066	36486.27
644.419	36496.89
644.771	36148.43
645.124	35953.63
645.477	35827.53
645.83	35763.58
646.182	35469.35
646.535	35435.23
646.888	35490.14
647.24	35357.26
647.593	35562.23
647.945	35557.03
648.298	35380.76
648.65	35378.5
649.002	35268.23
649.355	35399.3
649.707	35331.05
650.059	35536.69
650.411	35853.52
650.763	35999.51
651.115	36294.41
651.467	36284.02
651.819	36242.89
652.171	36135.77
652.523	36269.33
652.875	36176.22
653.227	36120.41
653.578	36347.07
653.93	36165.83
654.282	35962.22
654.633	36008.77
654.985	36107.75
655.337	36111.82
655.688	35958.6
656.039	36161.99
656.391	35924.48
656.742	35936.46
657.094	36044.48
657.445	36141.65
657.796	36048.54
658.147	36020.97
658.498	35925.16
658.849	35908.66
659.2	35969.22
659.551	35831.83
659.902	36018.26
660.253	35889.23
660.604	35934.87
660.955	35691.04
661.306	35855.55
661.656	35863.24
662.007	35791.83
662.358	35875.67
662.708	35929.9
663.059	35780.98
663.409	35611.49
663.76	35912.95
664.11	35891.03
664.461	35925.16
664.811	35717.25
665.161	35832.28
665.511	35802.22
665.862	35792.28
666.212	35879.96
666.562	35960.64
666.912	35853.07
667.262	35853.52
667.612	35806.97
667.962	35825.27
668.312	35781.88
668.662	35916.12
669.011	35757.25
669.361	35734.65
669.711	35761.09
670.06	35630.25
670.41	35614.88
670.76	35667.08
671.109	35738.72
671.459	35718.83
671.808	35745.05
672.157	35724.48
672.507	35444.72
672.856	35682.9
673.205	35472.74
673.554	35580.31
673.904	35527.2
674.253	35719.29
674.602	35536.69
674.951	35039.08
675.3	34906.43
675.649	35454.89
675.998	35356.81
676.346	35507.77
676.695	35581.89
677.044	35397.04
677.393	35453.76
677.741	35457.82
678.09	35317.72
678.438	35324.04
678.787	35423.93
679.135	35376.47
679.484	35186.42
679.832	35265.51
680.181	35217.61
680.529	35110.94
680.877	35243.14
681.225	34957.5
681.573	35219.41
681.922	34911.62
682.27	34975.8
682.618	34930.38
682.966	34789.59
683.314	35018.51
683.661	34811.51
684.009	34564.97
684.357	34508.25
684.705	34539.43
685.053	34443.84
685.4	34457.85
685.748	34255.37
686.095	34355.93
686.443	34358.64
686.79	34231.19
687.138	34352.09
687.485	34291.53
687.832	34160.01
688.18	34082.95
688.527	34019.44
688.874	33874.82
689.221	33930.63
689.568	33765.44
689.915	33648.83
690.262	33733.35
690.609	33652.22
690.956	33538.1
691.303	33538.33
691.65	33330.42
691.997	33360.25
692.344	33163.65
692.69	33136.98
693.037	33157.09
693.383	32868.29
693.73	33095.63
694.077	32819.48
694.423	32889.98
694.769	32685.69
695.116	32649.54
695.462	32590.33
695.808	32475.98
696.155	32624.9
696.501	32297.23
696.847	32296.78
697.193	32149.89
697.539	32254.75
697.885	31984.24
698.231	31971.59
698.577	31953.74
698.923	31802.1
699.269	31781.54
699.614	31607.3
699.96	31451.15
700.306	31653.18
700.651	31442.34
700.997	31363.7
701.342	31303.13
701.688	31205.73
702.033	31254.55
702.379	31129.35
702.724	31082.35
703.069	31057.94
703.415	30677.39
703.76	30691.17
704.105	30730.49
704.45	30518.97
704.795	30463.61
705.14	30326.66
705.485	30289.37
705.83	30299.77
706.175	30230.39
706.52	30290.5
706.865	30076.95
707.209	29972.55
707.554	29884.86
707.899	29950.62
708.243	29613.46
708.588	29826.11
708.932	29607.36
709.277	29584.31
709.621	29644.42
709.966	29479.9
710.31	29439
710.654	29241.49
710.998	29285.33
711.342	29287.82
711.687	29255.73
712.031	29022.51
712.375	28969.63
712.719	29183.87
713.063	29074.26
713.407	29046.02
713.75	28942.74
714.094	29034.26
714.438	28752.46
714.782	28867.04
715.125	28659.59
715.469	28658.68
715.812	28462.98
716.156	28422.98
716.499	28426.82
716.843	28432.7
717.186	28301.85
717.53	28384.11
717.873	28396.99
718.216	28305.7
718.559	28232.93
718.902	27984.35
719.246	28090.56
719.589	27935.08
719.932	27882.43
720.275	27846.73
720.617	27883.56
720.96	27874.75
721.303	27745.26
721.646	27792.72
721.989	27620.52
722.331	27685.15
722.674	27674.53
723.016	27721.31
723.359	27472.5
723.701	27441.09
724.044	27376.23
724.386	27295.33
724.729	27409.67
725.071	27284.25
725.413	27377.59
725.755	27199.74
726.097	27190.25
726.439	26962.68
726.782	26994.77
727.124	27095.56
727.465	26911.38
727.807	26929.01
728.149	26887.2
728.491	26925.62
728.833	26899.63
729.175	26706.87
729.516	26678.62
729.858	26583.48
730.199	26756.81
730.541	26625.51
730.882	26534.9
731.224	26633.88
731.565	26490.15
731.906	26489.02
732.248	26381.23
732.589	26383.04
732.93	26212.42
733.271	26199.09
733.612	26286.99
733.953	26281.57
734.294	26080.22
734.635	26045.42
734.976	26221.23
735.317	26006.1
735.658	26019.43
735.999	25950.05
736.339	25939.88
736.68	26041.58
737.021	25955.93
737.361	25733.56
737.702	26030.5
738.042	25897.62
738.383	25756.61
738.723	25783.05
739.063	25685.65
739.404	25722.26
739.744	25569.72
740.084	25582.38
740.424	25584.64
740.764	25578.31
741.104	25610.17
741.444	25341.03
741.784	25320.69
742.124	25405.89
742.464	25339.9
742.804	25263.29
743.143	25140.58
743.483	25258.77
743.823	25173.58
744.162	25141.71
744.502	25145.78
744.841	24978.33
745.181	25172.22
745.52	24940.14
745.86	25052.67
746.199	25022.62
746.538	24973.13
746.877	25022.84
747.216	24923.86
747.556	24878.44
747.895	24802.51
748.234	24708.28
748.573	24747.37
748.911	24607.49
749.25	24611.56
749.589	24430.77
749.928	24537.66
750.267	24489.07
750.605	24435.74
750.944	24379.02
751.283	24358.23
751.621	24360.94
751.96	24255.41
752.298	24181.74
752.636	24241.62
752.975	24111.23
753.313	24025.58
753.651	24175.86
753.989	23940.84
754.327	23970.22
754.666	23697
755.004	23835.76
755.342	23777.45
755.679	23686.38
756.017	23586.05
756.355	23702.43
756.693	23478.93
757.031	23535.65
757.368	23368.43
757.706	23388.99
758.044	23402.55
758.381	23359.61
758.719	23270.8
759.056	23265.38
759.394	23154.65
759.731	22985.61
760.068	23005.27
760.405	22946.06
760.743	22842.34
761.08	22905.16
761.417	22757.14
761.754	22667.88
762.091	22704.04
762.428	22558.95
762.765	22449.58
763.102	22632.63
763.438	22276.48
763.775	22277.15
764.112	22252.75
764.449	22192.41
764.785	22138.85
765.122	21961.68
765.458	21898.63
765.795	21917.62
766.131	21929.37
766.467	21895.02
766.804	21670.84
767.14	21568.47
767.476	21613.89
767.812	21359.44
768.148	21565.31
768.485	21391.53
768.821	21260.23
769.157	21313.11
769.492	21161.7
769.828	21112.21
770.164	20988.6
770.5	20933.01
770.836	21013.46
771.171	20735.27
771.507	20742.51
771.842	20663.64
772.178	20599.91
772.513	20685.78
772.849	20463.87
773.184	20385.45
773.519	20428.39
773.855	20308.84
774.19	20211.67
774.525	20132.8
774.86	20103.65
775.195	19937.78
775.53	19961.74
775.865	19850.1
776.2	19712.93
776.535	19657.56
776.87	19580.95
777.205	19581.86
777.539	19399.04
777.874	19418.02
778.209	19281.3
778.543	19278.59
778.878	19103.68
779.212	19142.77
779.547	19076.11
779.881	18973.96
780.215	19001.76
780.55	18930.12
780.884	18800.41
781.218	18735.55
781.552	18801.31
781.886	18665.95
782.22	18547.53
782.554	18530.36
782.888	18306.86
783.222	18332.85
783.556	18228.22
783.889	18115.91
784.223	18090.37
784.557	18025.06
784.89	18045.85
785.224	17943.03
785.557	17870.49
785.891	17782.13
786.224	17704.39
786.558	17760.44
786.891	17644.96
787.224	17508.92
787.557	17515.7
787.891	17447.9
788.224	17341.69
788.557	17329.04
788.89	17357.96
789.223	17217.17
789.556	17135.14
789.888	17049.04
790.221	17043.17
790.554	16820.57
790.887	16870.06
791.219	16817.18
791.552	16795.94
791.884	16725.89
792.217	16692.22
792.549	16628.04
792.882	16440.92
793.214	16412.22
793.546	16424.2
793.879	16275.28
794.211	16246.8
794.543	16259.46
794.875	16181.27
795.207	16251.1
795.539	16110.99
795.871	16073.48
796.203	16033.25
796.535	15890.66
796.867	15833.48
797.198	15784.9
797.53	15805.01
797.862	15812.24
798.193	15762.98
798.525	15595.3
798.856	15585.58
799.188	15475.07
799.519	15450.89
799.85	15445.92
800.182	15289.09
800.513	15327.05
800.844	15268.98
801.175	15268.75
801.506	15221.07
801.837	15252.48
802.168	15194.4
802.499	15042.77
802.83	14934.75
803.161	14968.65
803.491	14948.08
803.822	14924.35
804.153	14845.49
804.483	14715.55
804.814	14724.58
805.145	14613.63
805.475	14690.24
805.805	14580.63
806.136	14664.47
806.466	14613.18
806.796	14531.6
807.126	14461.77
807.457	14413.18
807.787	14427.87
808.117	14351.71
808.447	14323.47
808.777	14217.93
809.107	14245.05
809.436	14158.72
809.766	14247.31
810.096	14069.91
810.426	14049.8
810.755	14106.3
811.085	14059.97
811.414	13983.36
811.744	13764.16
812.073	13894.55
812.403	13947.43
812.732	13655.01
813.061	13699.07
813.39	13673.31
813.719	13603.26
814.049	13693.65
814.378	13608.68
814.707	13629.02
815.036	13560.77
815.365	13454.11
815.693	13383.15
816.022	13422.02
816.351	13307.9
816.68	13287.33
817.008	13343.6
817.337	13231.74
817.665	13196.72
817.994	13179.09
818.322	13279.88
818.651	13118.07
818.979	13150.61
819.307	13142.03
819.636	13077.62
819.964	12935.25
820.292	13056.83
820.62	13053.67
820.948	12989.04
821.276	12969.83
821.604	12928.7
821.932	13028.13
822.259	12902.03
822.587	12902.94
822.915	12888.47
823.243	12960.34
823.57	12941.58
823.898	12869.94
824.225	12893.22
824.553	12854.35
824.88	12855.71
825.207	12908.81
825.535	12884.63
825.862	12845.54
826.189	12857.29
826.516	12963.05
826.843	12947
827.17	12907.68
827.497	12914.91
827.824	12869.94
828.151	12883.5
828.478	12808.25
828.805	12930.28
829.131	12769.83
829.458	12749.72
829.785	12752.43
830.111	12845.99
830.438	12883.05
830.764	12845.31
831.09	12882.15
831.417	12784.75
831.743	12801.7
832.069	12827.69
832.395	12781.13
832.722	12899.32
833.048	12817.29
833.374	12794.92
833.7	12708.37
834.026	12681.7
834.351	12770.74
834.677	12721.47
835.003	12711.08
835.329	12713.79
835.654	12716.73
835.98	12700.68
836.306	12647.8
836.631	12669.95
836.956	12613.45
837.282	12608.48
837.607	12610.06
837.932	12564.64
838.258	12555.38
838.583	12457.98
838.908	12439.45
839.233	12467.02
839.558	12503.4
839.883	12395.83
840.208	12416.17
840.533	12391.99
840.858	12396.06
841.182	12244.88
841.507	12308.38
841.832	12250.3
842.156	12297.3
842.481	12125.1
842.805	12217.08
843.13	12139.12
843.454	12150.87
843.778	12103.64
844.103	12055.5
844.427	11995.39
844.751	12095.5
845.075	11994.94
845.399	11935.96
845.723	11912.91
846.047	11885.56
846.371	11807.6
846.695	11843.76
847.019	11752.46
847.343	11668.39
847.666	11602.86
847.99	11511.56
848.313	11553.37
848.637	11466.59
848.96	11408.06
849.284	11467.5
849.607	11365.58
849.931	11350.21
850.254	11258.69
850.577	11210.78
850.9	11080.16
851.223	11097.34
851.546	11010.11
851.869	10980.28
852.192	10986.15
852.515	10973.27
852.838	10918.81
853.161	10854.63
853.483	10811.69
853.806	10775.08
854.129	10733.73
854.451	10682.43
854.774	10611.02
855.096	10682.43
855.419	10621.19
855.741	10600.85
856.063	10498.03
856.385	10493.06
856.708	10474.75
857.03	10517.46
857.352	10506.16
857.674	10449.89
857.996	10407.41
858.318	10304.59
858.64	10329.45
858.961	10215.1
859.283	10279.73
859.605	10170.58
859.926	10150.92
860.248	10178.94
860.57	10128.1
860.891	10123.8
861.212	10132.16
861.534	10024.82
861.855	10055.1
862.176	10052.17
862.498	10055.33
862.819	10080.19
863.14	9970.59
863.461	9976.69
863.782	9900.98
864.103	9910.02
864.424	9920.42
864.745	9847.65
865.065	9854.66
865.386	9749.12
865.707	9854.2
866.027	9850.59
866.348	9754.55
866.668	9737.6
866.989	9759.52
867.309	9661.89
867.63	9651.05
867.95	9708.9
868.27	9615.57
868.59	9653.53
868.91	9574.66
869.23	9637.94
869.55	9532.86
869.87	9646.3
870.19	9574.44
870.51	9552.97
870.83	9578.05
871.15	9560.65
871.469	9483.14
871.789	9528.56
872.109	9519.3
872.428	9521.78
872.748	9493.54
873.067	9470.26
873.386	9436.36
873.706	9438.62
874.025	9382.35
874.344	9418.28
874.663	9412.63
874.982	9366.31
875.301	9390.04
875.62	9311.85
875.939	9265.07
876.258	9280.66
876.577	9296.7
876.896	9268.91
877.214	9229.59
877.533	9294.67
877.852	9212.19
878.17	9206.99
878.489	9227.33
878.807	9213.77
879.125	9155.92
879.444	9209.25
879.762	9104.85
880.08	9205.18
880.398	9069.37
880.716	9055.58
881.034	9087.67
881.352	9066.2
881.67	9017.62
881.988	9030.72
882.306	8990.5
882.624	8931.97
882.941	8926.09
883.259	8875.92
883.577	8852.65
883.894	8854.46
884.212	8872.76
884.529	8830.05
884.846	8788.92
885.164	8817.17
885.481	8799.99
885.798	8783.5
886.115	8702.37
886.432	8720
886.75	8686.1
887.067	8644.97
887.383	8688.59
887.7	8602.03
888.017	8592.54
888.334	8660.79
888.651	8561.81
888.967	8539.66
889.284	8529.49
889.6	8443.17
889.917	8459.44
890.233	8403.39
890.55	8374.92
890.866	8366.79
891.182	8374.7
891.498	8348.03
891.815	8263.06
892.131	8317.75
892.447	8249.73
892.763	8238.2
893.079	8220.57
893.395	8187.13
893.71	8159.79
894.026	8159.11
894.342	8130.86
894.657	8084.53
894.973	8061.93
895.289	8081.14
895.604	8027.59
895.92	8031.65
896.235	7958.66
896.55	7980.81
896.865	7940.58
897.181	7940.36
897.496	7911.88
897.811	7892
898.126	7870.08
898.441	7849.29
898.756	7785.56
899.071	7710.76
899.386	7734.03
899.7	7724.77
900.015	7656.97
900.33	7557.77
900.644	7600.7
900.959	7621.27
901.273	7551.44
901.588	7558.67
901.902	7445.91
902.216	7478.45
902.531	7400.26
902.845	7462.18
903.159	7405.23
903.473	7281.16
903.787	7310.54
904.101	7292.01
904.415	7216.53
904.729	7254.5
905.042	7215.18
905.356	7219.25
905.67	7181.73
905.984	7175.86
906.297	7148.51
906.611	7077.33
906.924	7051.79
907.237	7037.78
907.551	6997.33
907.864	6942.87
908.177	6965.47
908.491	7006.14
908.804	6934.73
909.117	6833.27
909.43	6843.21
909.743	6770.67
910.056	6812.25
910.368	6794.85
910.681	6715.76
910.994	6732.03
911.307	6626.04
911.619	6600.73
911.932	6677.11
912.244	6587.17
912.557	6572.26
912.869	6564.57
913.181	6518.7
913.494	6537.46
913.806	6466.27
914.118	6432.6
914.43	6431.7
914.742	6401.41
915.054	6303.79
915.366	6369.1
915.678	6304.69
915.99	6285.48
916.302	6269.67
916.613	6241.87
916.925	6239.38
917.236	6207.52
917.548	6098.37
917.859	6116
918.171	6142.66
918.482	6107.86
918.794	6054.98
919.105	6046.17
919.416	5999.62
919.727	6019.5
920.038	5978.6
920.349	5906.51
920.66	5902.22
920.971	5900.41
921.282	5864.03
921.593	5795.55
921.903	5816.57
922.214	5772.05
922.525	5818.83
922.835	5763.46
923.146	5746.06
923.456	5680.53
923.767	5636.69
924.077	5700.19
924.387	5619.29
924.697	5591.04
925.008	5625.16
925.318	5548.55
925.628	5525.96
925.938	5536.58
926.248	5471.95
926.558	5461.1
926.867	5395.11
927.177	5415.68
927.487	5401.89
927.796	5287.77
928.106	5346.53
928.416	5326.19
928.725	5346.3
929.034	5280.31
929.344	5270.82
929.653	5235.12
929.962	5245.96
930.271	5185.63
930.581	5173.65
930.89	5102.24
931.199	5109.47
931.508	5112.86
931.817	5136.36
932.125	5099.07
932.434	5044.61
932.743	5007.1
933.051	5019.98
933.36	4971.62
933.669	4915.35
933.977	4903.37
934.286	4853.88
934.594	4870.38
934.902	4827.22
935.21	4832.87
935.519	4838.74
935.827	4807.56
936.135	4800.33
936.443	4780.67
936.751	4730.5
937.059	4702.25
937.367	4703.38
937.674	4681.23
937.982	4695.02
938.29	4671.97
938.597	4641.69
938.905	4642.36
939.213	4537.96
939.52	4575.92
939.827	4581.35
940.135	4527.79
940.442	4487.79
940.749	4478.75
941.056	4469.04
941.363	4438.75
941.67	4418.41
941.977	4394.91
942.284	4397.4
942.591	4353.78
942.898	4337.74
943.205	4377.74
943.511	4331.19
943.818	4295.25
944.125	4245.09
944.431	4292.09
944.738	4291.19
945.044	4276.05
945.35	4236.72
945.657	4153.56
945.963	4144.07
946.269	4181.13
946.575	4101.36
946.881	4093.9
947.187	4095.94
947.493	4083.73
947.799	4093.23
948.105	4046.9
948.41	4014.81
948.716	4062.04
949.022	4033.79
949.327	3991.99
949.633	3973.68
949.938	3949.73
950.244	3942.72
950.549	3911.08
950.854	3883.29
951.16	3891.88
951.465	3833.8
951.77	3853.91
952.075	3842.16
952.38	3844.87
952.685	3830.18
952.99	3756.96
953.294	3766.68
953.599	3742.95
953.904	3741.37
954.209	3692.33
954.513	3701.6
954.818	3717.87
955.122	3698.89
955.426	3614.14
955.731	3621.83
956.035	3644.65
956.339	3607.14
956.643	3629.06
956.948	3563.97
957.252	3580.47
957.556	3613.24
957.86	3547.03
958.163	3513.35
958.467	3546.8
958.771	3503.41
959.075	3498.67
959.378	3472.9
959.682	3446.69
959.985	3445.11
960.289	3430.19
960.592	3366.24
960.896	3389.74
961.199	3362.17
961.502	3360.59
961.805	3355.84
962.108	3321.95
962.411	3306.13
962.714	3310.42
963.017	3260.48
963.32	3324.43
963.623	3274.49
963.926	3231.78
964.228	3210.54
964.531	3223.42
964.833	3223.42
965.136	3218.67
965.438	3190.42
965.741	3164.66
966.043	3131.22
966.345	3115.4
966.648	3150.2
966.95	3109.07
967.252	3088.96
967.554	3050.77
967.856	3105.91
968.158	3071.56
968.46	3063.65
968.761	3012.58
969.063	3013.25
969.365	2987.94
969.666	2986.81
969.968	2970.77
970.269	3010.99
970.571	2945.46
970.872	2944.33
971.174	2951.11
971.475	2984.33
971.776	2882.86
972.077	2895.97
972.378	2895.07
972.679	2860.94
972.98	2847.61
973.281	2873.37
973.582	2842.64
973.883	2827.04
974.183	2807.38
974.484	2834.95
974.785	2764.67
975.085	2801.73
975.386	2754.28
975.686	2746.37
975.986	2719.93
976.287	2730.1
976.587	2747.72
976.887	2700.72
977.187	2680.61
977.487	2705.92
977.787	2644
978.087	2628.86
978.387	2630.21
978.687	2613.94
978.987	2593.38
979.286	2604.23
979.586	2616.2
979.885	2592.7
980.185	2566.26
980.484	2580.27
980.784	2506.83
981.083	2513.61
981.382	2579.59
981.682	2494.85
981.981	2526.49
982.28	2498.47
982.579	2488.75
982.878	2454.62
983.177	2446.26
983.475	2457.34
983.774	2447.85
984.073	2399.03
984.372	2451.46
984.67	2390.9
984.969	2380.95
985.267	2384.12
985.566	2334.85
985.864	2361.52
986.162	2351.35
986.461	2350.22
986.759	2309.77
987.057	2343.89
987.355	2320.16
987.653	2319.49
987.951	2290.11
988.249	2291.92
988.547	2269.32
988.844	2262.54
989.142	2267.06
989.44	2235.2
989.737	2225.03
990.035	2200.62
990.332	2218.02
990.63	2210.56
990.927	2201.75
991.224	2190.45
991.521	2177.8
991.819	2177.8
992.116	2169.21
992.413	2178.7
992.71	2125.59
993.006	2152.94
993.303	2160.85
993.6	2105.26
993.897	2109.32
994.193	2088.98
994.49	2120.4
994.787	2082.21
995.083	2065.26
995.379	2042.21
995.676	2014.18
995.972	2029.33
996.268	2060.74
996.565	2044.01
996.861	1982.09
997.157	1978.03
997.453	1967.86
997.749	1968.54
998.044	1975.09
998.34	1959.95
998.636	1957.24
998.932	1950.91
999.227	1949.78
999.523	1927.86
999.818	1879.27
1000.114	1881.31
1000.409	1869.33
1000.704	1880.85
1001	1859.39
1001.295	1850.12
1001.59	1840.86
1001.885	1833.85
1002.18	1802.89
1002.475	1823.23
1002.77	1794.98
1003.065	1777.35
1003.359	1806.51
1003.654	1819.84
1003.949	1760.86
1004.243	1781.42
1004.538	1739.62
1004.832	1762.67
1005.127	1758.82
1005.421	1728.77
1005.715	1701.2
1006.009	1705.49
1006.304	1710.24
1006.598	1683.57
1006.892	1677.24
1007.186	1685.38
1007.48	1646.06
1007.773	1654.65
1008.067	1646.51
1008.361	1649.67
1008.655	1627.53
1008.948	1613.74
1009.242	1614.65
1009.535	1576
1009.829	1592.95
1010.122	1592.5
1010.415	1586.85
1010.708	1565.61
1011.001	1532.62
1011.295	1535.55
1011.588	1534.65
1011.881	1535.1
1012.173	1494.42
1012.466	1532.39
1012.759	1498.49
1013.052	1502.56
1013.344	1471.15
1013.637	1487.64
1013.93	1490.36
1014.222	1492.16
1014.514	1466.4
1014.807	1432.05
1015.099	1440.19
1015.391	1451.71
1015.683	1409.23
1015.976	1402.22
1016.268	1405.39
1016.56	1400.87
1016.851	1382.79
1017.143	1385.73
1017.435	1391.15
1017.727	1392.96
1018.018	1324.71
1018.31	1340.98
1018.602	1368.78
1018.893	1352.51
1019.185	1338.5
1019.476	1323.58
1019.767	1297.14
1020.058	1326.29
1020.35	1321.77
1020.641	1290.81
1020.932	1295.56
1021.223	1258.95
1021.514	1264.37
1021.804	1223.92
1022.095	1253.3
1022.386	1248.55
1022.677	1221.21
1022.967	1229.35
1023.258	1219.18
1023.548	1187.77
1023.839	1186.86
1024.129	1189.57
1024.419	1189.8
1024.709	1193.41
1025	1177.37
1025.29	1176.92
1025.58	1170.59
1025.87	1153.64
1026.16	1135.79
1026.449	1153.64
1026.739	1132.85
1027.029	1104.83
1027.319	1128.78
1027.608	1099.86
1027.898	1102.34
1028.187	1092.4
1028.477	1102.8
1028.766	1076.81
1029.055	1073.19
1029.344	1059.18
1029.634	1067.77
1029.923	1050.59
1030.212	1048.33
1030.501	1040.42
1030.79	1044.04
1031.078	1028.67
1031.367	1025.74
1031.656	988.45
1031.945	1003.82
1032.233	1000.2
1032.522	999.97
1032.81	987.54
1033.099	986.87
1033.387	985.74
1033.675	983.7
1033.963	943.93
1034.251	957.26
1034.54	942.8
1034.828	955.91
1035.116	935.57
1035.403	926.53
1035.691	912.52
1035.979	931.27
1036.267	911.39
1036.554	912.74
1036.842	913.87
1037.129	898.06
1037.417	863.71
1037.704	898.96
1037.992	869.81
1038.279	892.41
1038.566	896.7
1038.853	896.7
1039.14	896.7
