Data from hue_270_FLMS001491_00046.txt Node
Date: Tue Feb 07 15:57:14 GMT 2017
User: dcchb
Spectrometer: FLMS00149
Trigger mode: 0
Integration Time (sec): 2.000000E-2
Scans to average: 10
Electric dark correction enabled: true
Nonlinearity correction enabled: false
Boxcar width: 0
XAxis mode: Wavelengths
Number of Pixels in Spectrum: 2048
>>>>>Begin Spectral Data<<<<<
341.393	-24.45
341.776	-24.45
342.16	-24.45
342.543	-60.15
342.927	-61.28
343.31	-57.67
343.693	-60.61
344.077	-70.55
344.46	-52.47
344.843	-63.09
345.226	-45.46
345.61	-55.63
345.993	-12.7
346.376	19.17
346.759	21.88
347.142	16.68
347.525	29.34
347.908	52.61
348.291	75.66
348.674	86.74
349.057	116.11
349.44	127.41
349.823	140.52
350.206	155.66
350.588	199.73
350.971	211.7
351.354	210.35
351.737	211.48
352.119	258.71
352.502	248.09
352.884	282.89
353.267	263.45
353.65	276.11
354.032	296.22
354.414	302.32
354.797	321.53
355.179	303.23
355.562	299.84
355.944	305.49
356.326	324.69
356.709	321.76
357.091	310.68
357.473	351.13
357.855	325.82
358.238	326.95
358.62	335.32
359.002	335.99
359.384	307.29
359.766	324.24
360.148	340.51
360.53	334.19
360.912	301.42
361.294	309.78
361.676	315.43
362.057	313.85
362.439	328.54
362.821	301.64
363.203	319.5
363.584	302.77
363.966	324.47
364.348	300.51
364.729	303.68
365.111	312.27
365.493	321.76
365.874	296
366.256	298.48
366.637	325.15
367.019	310.23
367.4	310.91
367.781	330.8
368.163	284.7
368.544	302.55
368.925	300.97
369.306	289.22
369.688	314.3
370.069	292.38
370.45	315.43
370.831	297.35
371.212	310.01
371.593	288.76
371.974	310.23
372.355	303.68
372.736	325.15
373.117	312.04
373.498	313.4
373.879	305.26
374.26	318.37
374.641	314.98
375.021	286.05
375.402	310.46
375.783	348.42
376.163	334.41
376.544	334.41
376.925	324.02
377.305	343.23
377.686	339.16
378.066	316.11
378.447	316.56
378.827	335.99
379.208	298.71
379.588	305.26
379.968	317.01
380.349	337.12
380.729	318.82
381.109	347.52
381.489	338.71
381.87	326.73
382.25	339.16
382.63	323.34
383.01	339.38
383.39	371.02
383.77	335.77
384.15	360.4
384.53	344.58
384.91	323.34
385.29	339.16
385.67	349.33
386.049	359.27
386.429	344.36
386.809	359.04
387.189	333.73
387.568	343.45
387.948	352.26
388.328	354.07
388.707	352.72
389.087	346.39
389.466	347.52
389.846	365.6
390.225	363.34
390.605	384.13
390.984	380.29
391.363	374.86
391.743	372.83
392.122	388.65
392.501	361.08
392.881	371.93
393.26	362.89
393.639	388.87
394.018	370.57
394.397	364.24
394.776	395.88
395.155	379.16
395.534	385.94
395.913	378.93
396.292	388.87
396.671	402.43
397.05	406.73
397.429	395.2
397.808	386.84
398.186	406.73
398.565	408.08
398.944	406.95
399.323	408.53
399.701	419.38
400.08	417.8
400.458	425.71
400.837	426.16
401.215	406.05
401.594	423.22
401.972	433.84
402.351	434.52
402.729	403.34
403.107	419.38
403.486	439.04
403.864	461.64
404.242	441.08
404.62	444.24
404.999	455.09
405.377	441.08
405.755	436.33
406.133	436.1
406.511	461.19
406.889	466.39
407.267	484.01
407.645	464.8
408.023	461.64
408.401	503.22
408.779	478.82
409.156	486.05
409.534	491.02
409.912	507.97
410.29	505.03
410.667	527.63
411.045	550.68
411.422	524.92
411.8	537.57
412.178	538.47
412.555	547.06
412.933	578.02
413.31	554.97
413.687	571.92
414.065	591.58
414.442	603.11
414.819	591.58
415.197	603.78
415.574	584.12
415.951	609.43
416.328	597
416.705	601.98
417.082	628.42
417.46	611.69
417.837	644.69
418.214	653.95
418.591	655.99
418.967	647.85
419.344	681.07
419.721	676.78
420.098	682.65
420.475	687.62
420.852	707.51
421.228	714.06
421.605	716.32
421.982	736.44
422.358	719.26
422.735	769.65
423.111	742.99
423.488	775.3
423.864	752.25
424.241	789.54
424.617	774.85
424.994	799.03
425.37	830.44
425.746	801.74
426.123	822.08
426.499	834.29
426.875	856.66
427.251	877.45
427.627	872.48
428.003	891.01
428.379	889.2
428.756	903.89
429.132	891.01
429.507	892.59
429.883	929.65
430.259	947.05
430.635	971.68
431.011	966.03
431.387	953.15
431.763	996.77
432.138	1017.78
432.514	1018.46
432.89	1056.88
433.265	1050.33
433.641	1063.43
434.016	1056.65
434.392	1124.67
434.767	1116.31
435.143	1126.71
435.518	1144.79
435.894	1159.7
436.269	1171.23
436.644	1180.27
437.02	1195.41
437.395	1225.01
437.77	1246.03
438.145	1264.78
438.52	1280.15
438.895	1279.7
439.271	1299.81
439.646	1326.02
440.021	1316.53
440.395	1329.64
440.77	1328.74
441.145	1344.78
441.52	1371.45
441.895	1409.19
442.27	1412.35
442.645	1424.1
443.019	1458.68
443.394	1442.86
443.769	1459.35
444.143	1470.43
444.518	1471.11
444.892	1447.6
445.267	1489.41
445.641	1492.12
446.016	1506.81
446.39	1519.01
446.764	1539.58
447.139	1535.28
447.513	1555.17
447.887	1554.72
448.262	1566.92
448.636	1577.54
449.01	1585.23
449.384	1585.9
449.758	1605.34
450.132	1633.14
450.506	1652.34
450.88	1659.58
451.254	1674.49
451.628	1688.5
452.002	1676.98
452.376	1699.57
452.75	1741.38
453.123	1707.71
453.497	1734.83
453.871	1757.2
454.244	1803.07
454.618	1799.23
454.992	1824.77
455.365	1806.69
455.739	1876.29
456.112	1881.94
456.486	1852.34
456.859	1886.01
457.232	1918.55
457.606	1916.07
457.979	1924.43
458.352	1968.95
458.725	1985.22
459.099	2018.66
459.472	2017.08
459.845	2058.89
460.218	2055.04
460.591	2068.15
460.964	2077.42
461.337	2138.43
461.71	2161.93
462.083	2207.58
462.456	2194.93
462.829	2178.43
463.201	2232.22
463.574	2218.88
463.947	2267.47
464.32	2324.42
464.692	2325.09
465.065	2331.65
465.438	2375.71
465.81	2358.09
466.183	2394.7
466.555	2473.56
466.928	2433.11
467.3	2440.12
467.672	2491.64
468.045	2508.14
468.417	2526.44
468.789	2529.83
469.161	2612.09
469.534	2629.49
469.906	2667.91
470.278	2676.72
470.65	2725.54
471.022	2759.66
471.394	2767.34
471.766	2762.6
472.138	2823.16
472.51	2889.6
472.882	2879.66
473.253	2917.62
473.625	2952.65
473.997	3015.25
474.369	3011.86
474.74	3051.63
475.112	3074.45
475.484	3104.51
475.855	3176.6
476.227	3189.25
476.598	3287.33
476.97	3274.45
477.341	3398.51
477.713	3407.55
478.084	3379.3
478.455	3482.58
478.827	3541.56
479.198	3600.54
479.569	3542.46
479.94	3667.88
480.311	3677.6
480.682	3739.97
481.053	3841.89
481.424	3858.61
481.795	3890.02
482.166	3925.5
482.537	3994.88
482.908	4088.21
483.279	4089.12
483.65	4137.02
484.021	4226.29
484.391	4233.29
484.762	4313.52
485.133	4309.9
485.503	4324.14
485.874	4443.46
486.244	4459.28
486.615	4529.78
486.985	4569.33
487.356	4615.43
487.726	4681.87
488.097	4776.33
488.467	4731.58
488.837	4885.93
489.207	4880.51
489.578	4930.9
489.948	5017
490.318	5020.16
490.688	5010.45
491.058	5073.27
491.428	5124.57
491.798	5167.28
492.168	5230.1
492.538	5269.65
492.908	5321.4
493.278	5417.44
493.648	5366.82
494.017	5432.13
494.387	5495.41
494.757	5508.74
495.126	5509.87
495.496	5549.19
495.866	5585.8
496.235	5617.66
496.605	5660.15
496.974	5688.4
497.344	5715.06
497.713	5736.98
498.082	5810.2
498.452	5845.91
498.821	5822.86
499.19	5833.48
499.559	5911.44
499.928	5949.86
500.298	5981.04
500.667	6028.05
501.036	6007.26
501.405	6052.68
501.774	6066.46
502.143	6095.39
502.512	6107.82
502.88	6145.11
503.249	6110.31
503.618	6156.41
503.987	6123.19
504.356	6204.54
504.724	6211.32
505.093	6261.71
505.462	6262.39
505.83	6348.04
506.199	6331.54
506.567	6400.24
506.936	6343.97
507.304	6446.79
507.672	6390.98
508.041	6485.89
508.409	6459
508.777	6507.13
509.145	6588.03
509.514	6530.41
509.882	6520.24
510.25	6607.47
510.618	6595.26
510.986	6590.74
511.354	6633.23
511.722	6656.05
512.09	6720.23
512.458	6722.04
512.826	6821.93
513.193	6777.63
513.561	6743.96
513.929	6806.56
514.297	6854.01
514.664	6875.48
515.032	6856.5
515.4	6894.47
515.767	6880.68
516.135	6948.25
516.502	6846.11
516.869	6968.59
517.237	6974.46
517.604	6940.57
517.972	7021.02
518.339	7041.81
518.706	6995.03
519.073	6999.32
519.44	7011.52
519.808	7087.23
520.175	7065.99
520.542	7112.99
520.909	7132.65
521.276	7107.34
521.643	7121.58
522.009	7199.99
522.376	7173.78
522.743	7295.36
523.11	7315.47
523.477	7352.53
523.843	7305.08
524.21	7358.63
524.577	7407.9
524.943	7474.11
525.31	7497.84
525.676	7518.63
526.043	7557.05
526.409	7556.14
526.776	7581.23
527.142	7491.96
527.508	7611.73
527.874	7613.09
528.241	7638.17
528.607	7719.08
528.973	7694.22
529.339	7697.38
529.705	7721.56
530.071	7769.92
530.437	7789.36
530.803	7872.29
531.169	7828
531.535	7733.99
531.901	7833.88
532.267	7872.29
532.632	7852.86
532.998	7905.06
533.364	7889.69
533.73	7937.15
534.095	7999.3
534.461	7935.79
534.826	7992.97
535.192	8019.86
535.557	8044.27
535.923	7993.87
536.288	8065.73
536.653	8104.6
537.019	8039.97
537.384	8093.08
537.749	8070.71
538.114	8109.57
538.479	8112.74
538.845	8157.03
539.21	8095.11
539.575	8148.44
539.94	8091.72
540.305	8154.55
540.67	8152.74
541.034	8152.51
541.399	8184.6
541.764	8218.95
542.129	8201.32
542.494	8208.33
542.858	8189.57
543.223	8194.54
543.587	8272.51
543.952	8276.12
544.316	8204.04
544.681	8241.55
545.045	8282.45
545.41	8304.37
545.774	8310.02
546.138	8296.91
546.503	8345.5
546.867	8287.88
547.231	8335.33
547.595	8353.41
547.959	8342.79
548.324	8343.69
548.688	8329.23
549.052	8331.49
549.416	8365.84
549.779	8362.22
550.143	8372.39
550.507	8446.29
550.871	8394.54
551.235	8456.01
551.599	8442
551.962	8493.29
552.326	8460.53
552.689	8500.53
553.053	8442.9
553.417	8445.16
553.78	8591.37
554.143	8493.52
554.507	8548.66
554.87	8551.82
555.234	8564.48
555.597	8582.33
555.96	8604.93
556.323	8613.52
556.686	8615.78
557.05	8771.48
557.413	8622.78
557.776	8707.3
558.139	8723.34
558.502	8752.5
558.865	8699.84
559.228	8792.27
559.59	8835.88
559.953	8796.56
560.316	8901.19
560.679	8891.48
561.041	8910.46
561.404	8937.35
561.767	9081.53
562.129	8974.41
562.492	9061.19
562.854	9108.42
563.217	9100.96
563.579	9136.44
563.941	9168.98
564.304	9164.01
564.666	9142.99
565.028	9218.7
565.39	9272.48
565.753	9256.66
566.115	9333.95
566.477	9321.07
566.839	9374.63
567.201	9386.38
567.563	9354.29
567.925	9540.72
568.287	9515.41
568.648	9517.67
569.01	9532.14
569.372	9539.37
569.734	9573.49
570.095	9598.35
570.457	9744.56
570.819	9738.91
571.18	9745.01
571.542	9714.96
571.903	9801.51
572.265	9822.52
572.626	9858.68
572.987	9878.79
573.349	9924.44
573.71	9931.9
574.071	9988.17
574.432	10051.22
574.794	10060.94
575.155	10036.53
575.516	10045.34
575.877	10164.21
576.238	10130.76
576.599	10151.1
576.96	10187.03
577.32	10267.48
577.681	10289.86
578.042	10258.22
578.403	10300.03
578.763	10293.25
579.124	10359.01
579.485	10450.3
579.845	10501.38
580.206	10496.86
580.566	10536.4
580.927	10476.29
581.287	10572.34
581.648	10577.53
582.008	10616.4
582.368	10623.41
582.728	10668.6
583.089	10659.34
583.449	10693.69
583.809	10748.6
584.169	10785.21
584.529	10817.98
584.889	10843.51
585.249	10821.82
585.609	10866.34
585.969	10880.12
586.329	10940.91
586.688	10881.03
587.048	10944.53
587.408	10944.3
587.768	10943.4
588.127	10957.64
588.487	10989.05
588.846	11133.22
589.206	11026.79
589.565	11040.35
589.925	11178.19
590.284	11183.17
590.643	11193.79
591.003	11209.83
591.362	11277.4
591.721	11218.87
592.08	11294.12
592.44	11349.94
592.799	11341.35
593.158	11376.61
593.517	11404.63
593.876	11349.94
594.235	11379.55
594.593	11439.66
594.952	11460.45
595.311	11489.83
595.67	11454.35
596.029	11571.4
596.387	11586.32
596.746	11583.16
597.104	11617.05
597.463	11497.96
597.822	11596.94
598.18	11585.87
598.538	11582.48
598.897	11655.47
599.255	11619.54
599.613	11784.96
599.972	11696.83
600.33	11774.11
600.688	11753.55
601.046	11803.49
601.404	11874.22
601.762	11761.23
602.12	11802.59
602.478	11824.73
602.836	11895.24
603.194	11716.03
603.552	11824.28
603.91	11745.64
604.268	11909.25
604.625	11767.56
604.983	11809.59
605.341	11829.25
605.698	11908.8
606.056	11915.8
606.413	11927.1
606.771	11906.99
607.128	11933.2
607.485	11890.94
607.843	11945.41
608.2	11991.73
608.557	11985.63
608.914	11978.63
609.272	12030.38
609.629	12001.68
609.986	12116.02
610.343	12056.59
610.7	12146.53
611.057	12089.58
611.414	12134.55
611.771	12190.15
612.127	12131.62
612.484	12184.95
612.841	12245.51
613.198	12189.69
613.554	12146.98
613.911	12300.88
614.267	12269.92
614.624	12231.27
614.98	12282.12
615.337	12276.02
615.693	12383.13
616.05	12311.05
616.406	12372.97
616.762	12306.98
617.118	12348.11
617.475	12313.76
617.831	12403.47
618.187	12386.75
618.543	12322.35
618.899	12404.6
619.255	12439.86
619.611	12434.43
619.967	12433.3
620.323	12476.92
620.678	12439.86
621.034	12365.73
621.39	12299.52
621.746	12364.83
622.101	12516.69
622.457	12394.66
622.812	12425.39
623.168	12419.97
623.523	12454.09
623.879	12425.17
624.234	12388.78
624.589	12467.88
624.945	12389.01
625.3	12494.32
625.655	12480.99
626.01	12503.58
626.365	12510.59
626.72	12475.56
627.075	12375.68
627.43	12461.78
627.785	12404.15
628.14	12438.27
628.495	12426.98
628.85	12483.7
629.205	12474.21
629.559	12469.91
629.914	12369.58
630.269	12402.34
630.623	12350.59
630.978	12361.44
631.332	12372.51
631.687	12389.69
632.041	12379.07
632.396	12409.12
632.75	12306.3
633.104	12349.92
633.459	12278.73
633.813	12331.84
634.167	12290.48
634.521	12256.13
634.875	12255.68
635.229	12282.35
635.583	12179.3
635.937	12146.08
636.291	12153.54
636.645	12230.82
636.999	12154.21
637.352	12187.43
637.706	12137.94
638.06	12175.68
638.413	12044.61
638.767	12164.84
639.121	12061.34
639.474	11971.17
639.828	12034.22
640.181	12005.74
640.534	12039.87
640.888	12013.2
641.241	11918.29
641.594	11963.48
641.947	12038.51
642.301	11916.71
642.654	12063.82
643.007	12041.45
643.36	11985.86
643.713	11917.84
644.066	11956.03
644.419	11862.47
644.771	11837.61
645.124	11699.76
645.477	11733.89
645.83	11635.81
646.182	11551.07
646.535	11544.51
646.888	11617.51
647.24	11476.72
647.593	11515.81
647.945	11512.65
648.298	11485.98
648.65	11499.77
649.002	11380
649.355	11539.32
649.707	11463.84
650.059	11528.69
650.411	11683.94
650.763	11706.32
651.115	11752.64
651.467	11735.47
651.819	11801.91
652.171	11705.64
652.523	11733.89
652.875	11716.03
653.227	11768.69
653.578	11795.35
653.93	11701.57
654.282	11710.16
654.633	11686.43
654.985	11658.86
655.337	11684.17
655.688	11739.99
656.039	11639.43
656.391	11652.53
656.742	11678.75
657.094	11729.14
657.445	11799.87
657.796	11717.84
658.147	11654.57
658.498	11683.72
658.849	11738.86
659.2	11660.89
659.551	11682.36
659.902	11687.56
660.253	11683.27
660.604	11714.68
660.955	11706.77
661.306	11657.73
661.656	11776.6
662.007	11707.22
662.358	11718.75
662.708	11741.57
663.059	11718.07
663.409	11677.84
663.76	11746.77
664.11	11777.95
664.461	11775.47
664.811	11718.52
665.161	11712.42
665.511	11727.56
665.862	11694.34
666.212	11742.7
666.562	11750.16
666.912	11721.01
667.262	11710.61
667.612	11686.88
667.962	11765.07
668.312	11651.18
668.662	11744.73
669.011	11681.46
669.361	11706.54
669.711	11709.25
670.06	11676.71
670.41	11654.79
670.76	11632.42
671.109	11672.87
671.459	11699.09
671.808	11692.76
672.157	11715.13
672.507	11541.35
672.856	11590.39
673.205	11657.73
673.554	11662.02
673.904	11639.65
674.253	11653.21
674.602	11617.96
674.951	11459.77
675.3	11422.71
675.649	11641.23
675.998	11567.11
676.346	11449.37
676.695	11613.89
677.044	11456.38
677.393	11535.47
677.741	11523.27
678.09	11482.59
678.438	11444.85
678.787	11474.91
679.135	11463.84
679.484	11453.67
679.832	11397.62
680.181	11331.86
680.529	11404.4
680.877	11351.3
681.225	11351.75
681.573	11381.58
681.922	11288.93
682.27	11271.07
682.618	11295.25
682.966	11282.6
683.314	11276.5
683.661	11226.33
684.009	11228.36
684.357	11166.67
684.705	11097.29
685.053	11174.81
685.4	11133.68
685.748	11064.3
686.095	11083.96
686.443	11071.53
686.79	11020.23
687.138	11034.24
687.485	10997.41
687.832	10930.07
688.18	10966.22
688.527	10914.92
688.874	10928.71
689.221	10872.44
689.568	10860.46
689.915	10693.46
690.262	10755.16
690.609	10719.9
690.956	10740.69
691.303	10736.85
691.65	10575.27
691.997	10557.65
692.344	10520.36
692.69	10585.89
693.037	10502.96
693.383	10413.02
693.73	10477.65
694.077	10449.85
694.423	10410.53
694.769	10397.2
695.116	10319.01
695.462	10349.06
695.808	10255.06
696.155	10280.82
696.501	10225.9
696.847	10226.13
697.193	10142.97
697.539	10123.08
697.885	10062.07
698.231	10025.23
698.577	10067.94
698.923	9964.44
699.269	9920.37
699.614	9938.91
699.96	9817.78
700.306	9834.73
700.651	9786.59
700.997	9704.56
701.342	9714.5
701.688	9708.63
702.033	9658.01
702.379	9650.1
702.724	9590.21
703.069	9561.97
703.415	9507.5
703.76	9471.35
704.105	9490.78
704.45	9459.37
704.795	9387.51
705.14	9438.81
705.485	9311.13
705.83	9358.81
706.175	9372.59
706.52	9293.05
706.865	9275.42
707.209	9271.13
707.554	9190.22
707.899	9182.09
708.243	9110.45
708.588	9207.4
708.932	9096.44
709.277	9097.12
709.621	9129.44
709.966	9027.52
710.31	9009.66
710.654	8997.69
710.998	8998.59
711.342	8965.37
711.687	8928.08
712.031	8943.45
712.375	8880.63
712.719	8869.1
713.063	8792.72
713.407	8911.36
713.75	8902.77
714.094	8861.87
714.438	8750.01
714.782	8828.65
715.125	8775.32
715.469	8800.18
715.812	8787.98
716.156	8659.39
716.499	8757.24
716.843	8735.55
717.186	8658.71
717.53	8724.7
717.873	8703.91
718.216	8680.86
718.559	8689.67
718.902	8556.34
719.246	8616.91
719.589	8577.59
719.932	8585.95
720.275	8537.13
720.617	8549.34
720.96	8504.37
721.303	8487.42
721.646	8541.88
721.989	8524.25
722.331	8480.41
722.674	8433.18
723.016	8508.43
723.359	8451.49
723.701	8428.21
724.044	8386.4
724.386	8328.1
724.729	8396.12
725.071	8428.44
725.413	8434.76
725.755	8353.86
726.097	8332.39
726.439	8293.98
726.782	8377.14
727.124	8415.33
727.465	8336.91
727.807	8290.81
728.149	8256.46
728.491	8298.5
728.833	8338.95
729.175	8288.55
729.516	8336.24
729.858	8308.44
730.199	8327.42
730.541	8308.21
730.882	8234.54
731.224	8303.24
731.565	8205.17
731.906	8258.05
732.248	8291.04
732.589	8248.1
732.93	8210.14
733.271	8220.76
733.612	8257.82
733.953	8312.06
734.294	8169.69
734.635	8185.51
734.976	8174.43
735.317	8179.86
735.658	8130.37
735.999	8196.58
736.339	8142.57
736.68	8202.45
737.021	8209.01
737.361	8182.79
737.702	8228.67
738.042	8212.4
738.383	8247.42
738.723	8270.47
739.063	8265.73
739.404	8258.05
739.744	8274.32
740.084	8279.29
740.424	8296.91
740.764	8319.29
741.104	8327.87
741.444	8279.97
741.784	8345.27
742.124	8372.39
742.464	8347.31
742.804	8313.86
743.143	8327.2
743.483	8399.51
743.823	8329.23
744.162	8379.4
744.502	8463.46
744.841	8417.14
745.181	8458.27
745.52	8474.31
745.86	8495.78
746.199	8562.44
746.538	8602.44
746.877	8651.93
747.216	8609.45
747.556	8601.99
747.895	8688.32
748.234	8658.71
748.573	8746.39
748.911	8798.37
749.25	8900.06
749.589	8854.87
749.928	8904.36
750.267	9023.45
750.605	9034.07
750.944	9098.02
751.283	9160.17
751.621	9194.29
751.96	9281.07
752.298	9407.17
752.636	9422.08
752.975	9474.74
753.313	9582.3
753.651	9716.76
753.989	9747.05
754.327	9898.45
754.666	9936.19
755.004	10063.2
755.342	10203.53
755.679	10285.56
756.017	10359.91
756.355	10510.42
756.693	10638.1
757.031	10784.08
757.368	10829.5
757.706	10985.21
758.044	11045.99
758.381	11210.51
758.719	11389.49
759.056	11576.15
759.394	11592.2
759.731	11706.32
760.068	11894.56
760.405	12005.52
760.743	12176.81
761.08	12315.34
761.417	12447.99
761.754	12569.12
762.091	12798.27
762.428	12888.21
762.765	13037.13
763.102	13259.5
763.438	13345.6
763.775	13505.82
764.112	13723.66
764.449	13834.17
764.785	13971.79
765.122	14007.5
765.458	14136.99
765.795	14325.23
766.131	14530.2
766.467	14657.88
766.804	14700.14
767.14	14760.93
767.476	14968.15
767.812	15134.02
768.148	15308.26
768.485	15287.01
768.821	15405.43
769.157	15630.06
769.492	15675.03
769.828	15845.19
770.164	15870.27
770.5	15929.48
770.836	16256.48
771.171	16206.31
771.507	16319.3
771.842	16355.91
772.178	16540.77
772.513	16530.82
772.849	16621.67
773.184	16672.29
773.519	16908.44
773.855	16918.83
774.19	16922
774.525	16926.52
774.86	16999.74
775.195	17237.24
775.53	17250.35
775.865	17210.8
776.2	17218.04
776.535	17215.55
776.87	17310.24
777.205	17370.57
777.539	17331.48
777.874	17545.94
778.209	17405.83
778.543	17462.55
778.878	17441.31
779.212	17521.08
779.547	17485.37
779.881	17600.17
780.215	17514.3
780.55	17705.48
780.884	17605.37
781.218	17692.15
781.552	17720.62
781.886	17657.57
782.22	17623.68
782.554	17630.68
782.888	17533.06
783.222	17525.6
783.556	17539.84
783.889	17550.46
784.223	17546.84
784.557	17492.38
784.89	17604.47
785.224	17577.35
785.557	17441.53
785.891	17534.64
786.224	17417.35
786.558	17530.12
786.891	17430.91
787.224	17364.02
787.557	17393.62
787.891	17281.99
788.224	17445.83
788.557	17441.31
788.89	17454.87
789.223	17368.09
789.556	17256
789.888	17275.21
790.221	17246.96
790.554	17228.66
790.887	17232.72
791.219	17163.8
791.552	17182.1
791.884	17187.98
792.217	17109.56
792.549	17080.64
792.882	16976.23
793.214	16848.33
793.546	17014.88
793.879	16840.87
794.211	16780.08
794.543	16960.19
794.875	16863.92
795.207	16917.93
795.539	16841.32
795.871	16827.54
796.203	16642.68
796.535	16626.64
796.867	16669.58
797.198	16614.66
797.53	16623.93
797.862	16550.93
798.193	16596.81
798.525	16450.82
798.856	16446.76
799.188	16328.79
799.519	16279.98
799.85	16178.52
800.182	16288.34
800.513	16273.2
800.844	16172.19
801.175	16246.31
801.506	16094.68
801.837	16103.71
802.168	16101.91
802.499	16054
802.83	15969.03
803.161	15885.19
803.491	15892.2
803.822	15798.19
804.153	15750.05
804.483	15767.9
804.814	15723.16
805.145	15658.75
805.475	15750.5
805.805	15618.76
806.136	15685.42
806.466	15642.71
806.796	15582.15
807.126	15485.65
807.457	15367.69
807.787	15339.89
808.117	15469.61
808.447	15338.99
808.777	15388.71
809.107	15351.42
809.436	15344.64
809.766	15302.38
810.096	15189.84
810.426	15200.46
810.755	15131.54
811.085	15122.95
811.414	15143.29
811.744	15014.48
812.073	15052.9
812.403	15048.83
812.732	14948.72
813.061	14922.28
813.39	14896.06
813.719	14893.13
814.049	14972.9
814.378	14847.7
814.707	14781.49
815.036	14887.93
815.365	14724.99
815.693	14548.73
816.022	14607.26
816.351	14594.83
816.68	14551.89
817.008	14539.01
817.337	14437.09
817.665	14515.51
817.994	14547.6
818.322	14470.31
818.651	14395.51
818.979	14382.18
819.307	14462.18
819.636	14415.17
819.964	14355.29
820.292	14339.24
820.62	14352.8
820.948	14295.85
821.276	14306.25
821.604	14247.49
821.932	14403.42
822.259	14323.87
822.587	14279.36
822.915	14187.38
823.243	14270.09
823.57	14283.65
823.898	14355.96
824.225	14217.21
824.553	14306.7
824.88	14288.85
825.207	14332.46
825.535	14300.6
825.862	14289.3
826.189	14298.56
826.516	14379.92
826.843	14349.86
827.17	14376.53
827.497	14368.62
827.824	14332.91
828.151	14328.17
828.478	14313.48
828.805	14354.16
829.131	14299.47
829.458	14306.7
829.785	14377.88
830.111	14328.39
830.438	14353.25
830.764	14447.04
831.09	14379.92
831.417	14287.27
831.743	14368.62
832.069	14386.47
832.395	14262.86
832.722	14386.92
833.048	14216.31
833.374	14249.75
833.7	14231.45
834.026	14199.58
834.351	14222.86
834.677	14136.76
835.003	14262.63
835.329	14171.11
835.654	14158.46
835.98	14157.55
836.306	14132.92
836.631	14125.91
836.956	14080.49
837.282	14076.2
837.607	14090.21
837.932	14082.07
838.258	14044.56
838.583	13968.18
838.908	13915.07
839.233	13908.29
839.558	13910.78
839.883	13892.93
840.208	13875.3
840.533	13802.31
840.858	13907.61
841.182	13799.59
841.507	13799.37
841.832	13727.51
842.156	13764.57
842.481	13727.05
842.805	13702.42
843.13	13633.95
843.454	13617.68
843.778	13513.05
844.103	13562.54
844.427	13559.38
844.751	13500.39
845.075	13453.16
845.399	13437.12
845.723	13382.43
846.047	13369.55
846.371	13305.82
846.695	13300.62
847.019	13157.8
847.343	13151.02
847.666	13017.69
847.99	12987.64
848.313	13029.67
848.637	12915.32
848.96	12906.74
849.284	12893.63
849.607	12723.92
849.931	12779.28
850.254	12619.96
850.577	12553.07
850.9	12511.49
851.223	12461.78
851.546	12364.15
851.869	12332.97
852.192	12362.8
852.515	12344.04
852.838	12267.88
853.161	12263.36
853.483	12149.69
853.806	12085.74
854.129	12146.08
854.451	12104.5
854.774	12038.29
855.096	11956.25
855.419	11973.43
855.741	11978.4
856.063	11822.25
856.385	11847.1
856.708	11768.69
857.03	11789.7
857.352	11764.62
857.674	11662.25
857.996	11676.49
858.318	11575.92
858.64	11593.55
858.961	11529.37
859.283	11484.63
859.605	11524.17
859.926	11578.64
860.248	11437.17
860.57	11419.54
860.891	11409.6
861.212	11413.89
861.534	11343.61
861.855	11348.13
862.176	11363.05
862.498	11190.85
862.819	11276.5
863.14	11343.84
863.461	11226.33
863.782	11201.7
864.103	11249.61
864.424	11109.72
864.745	11121.47
865.065	11082.6
865.386	11009.39
865.707	11024.98
866.027	11023.85
866.348	11038.99
866.668	10976.39
866.989	10975.71
867.309	10897.52
867.63	10892.78
867.95	10916.51
868.27	10824.98
868.59	10905.66
868.91	10827.02
869.23	10835.38
869.55	10844.19
869.87	10880.12
870.19	10825.44
870.51	10760.35
870.83	10805.1
871.15	10653.24
871.469	10661.15
871.789	10733.23
872.109	10710.64
872.428	10610.07
872.748	10641.49
873.067	10643.07
873.386	10643.75
873.706	10617.98
874.025	10566.91
874.344	10531.43
874.663	10558.55
874.982	10470.87
875.301	10517.65
875.62	10544.31
875.939	10480.36
876.258	10488.95
876.577	10432.45
876.896	10483.75
877.214	10404.43
877.533	10417.76
877.852	10436.97
878.17	10342.96
878.489	10424.54
878.807	10388.61
879.125	10306.81
879.444	10257.09
879.762	10277.43
880.08	10235.17
880.398	10269.97
880.716	10269.74
881.034	10200.37
881.352	10224.32
881.67	10234.26
881.988	10177.32
882.306	10121.73
882.624	10144.78
882.941	10060.03
883.259	10076.53
883.577	10039.92
883.894	10020.49
884.212	9961.5
884.529	9971.67
884.846	9943.65
885.164	9941.17
885.481	9870.66
885.798	9933.48
886.115	9862.98
886.432	9835.18
886.75	9792.92
887.067	9766.93
887.383	9770.1
887.7	9815.97
888.017	9711.11
888.334	9744.56
888.651	9707.72
888.967	9657.78
889.284	9582.3
889.6	9575.53
889.917	9513.38
890.233	9528.07
890.55	9491.01
890.866	9523.32
891.182	9438.81
891.498	9326.49
891.815	9345.02
892.131	9401.97
892.447	9316.77
892.763	9278.81
893.079	9307.96
893.395	9227.74
893.71	9264.12
894.026	9166.72
894.342	9118.14
894.657	9095.99
894.973	9033.39
895.289	9092.6
895.604	9072.26
895.92	8904.36
896.235	8978.93
896.55	8959.72
896.865	8885.15
897.181	8833.4
897.496	8857.8
897.811	8841.08
898.126	8791.59
898.441	8788.2
898.756	8696.68
899.071	8688.09
899.386	8634.31
899.7	8637.02
900.015	8614.19
900.33	8523.35
900.644	8504.59
900.959	8548.89
901.273	8422.34
901.588	8425.72
901.902	8436.57
902.216	8317.03
902.531	8380.3
902.845	8282.68
903.159	8290.81
903.473	8234.54
903.787	8217.14
904.101	8193.41
904.415	8193.64
904.729	8102.8
905.042	8054.89
905.356	8128.78
905.67	8018.28
905.984	8035.68
906.297	7959.52
906.611	7957.49
906.924	7885.4
907.237	7946.87
907.551	7841.79
907.864	7871.39
908.177	7771.05
908.491	7791.84
908.804	7725.86
909.117	7631.62
909.43	7679.3
909.743	7585.75
910.056	7633.43
910.368	7549.59
910.681	7536.71
910.994	7486.31
911.307	7490.38
911.619	7406.09
911.932	7473.66
912.244	7345.3
912.557	7350.5
912.869	7282.03
913.181	7344.4
913.494	7280.67
913.806	7180.33
914.118	7177.85
914.43	7098.3
914.742	7146.21
915.054	7095.14
915.366	7060.11
915.678	7014.24
915.99	7022.15
916.302	6960
916.613	6964.97
916.925	6887.23
917.236	6971.3
917.548	6898.31
917.859	6915.93
918.171	6781.93
918.482	6801.81
918.794	6787.8
919.105	6777.86
919.416	6638.2
919.727	6701.02
920.038	6684.75
920.349	6648.37
920.66	6611.08
920.971	6553.91
921.282	6534.02
921.593	6530.41
921.903	6448.83
922.214	6457.19
922.525	6466
922.835	6411.99
923.146	6404.31
923.456	6384.2
923.767	6337.87
924.077	6349.85
924.387	6307.59
924.697	6266.46
925.008	6232.34
925.318	6226.23
925.628	6246.12
925.938	6173.13
926.248	6149.17
926.558	6140.14
926.867	6048.39
927.177	6045.45
927.487	6090.42
927.796	6013.36
928.106	6027.6
928.416	5962.74
928.725	5922.06
929.034	5939.01
929.344	5880.48
929.653	5888.16
929.962	5807.94
930.271	5821.5
930.581	5786.25
930.89	5789.64
931.199	5754.38
931.508	5703.54
931.817	5729.3
932.125	5694.95
932.434	5689.53
932.743	5628.06
933.051	5625.57
933.36	5589.87
933.669	5556.65
933.977	5529.3
934.286	5505.58
934.594	5513.48
934.902	5480.94
935.21	5469.64
935.519	5457.22
935.827	5458.12
936.135	5372.25
936.443	5349.2
936.751	5291.34
937.059	5377.44
937.367	5309.65
937.674	5266.26
937.982	5226.03
938.29	5246.15
938.597	5227.84
938.905	5173.15
939.213	5133.16
939.52	5144.91
939.827	5161.86
940.135	5107.62
940.442	5064.91
940.749	5047.73
941.056	5036.21
941.363	5009.09
941.67	5001.18
941.977	4986.95
942.284	4906.5
942.591	4937.23
942.898	4913.73
943.205	4875.54
943.511	4857.46
943.818	4821.98
944.125	4823.33
944.431	4767.29
944.738	4741.75
945.044	4803.45
945.35	4741.75
945.657	4686.61
945.963	4725.48
946.269	4691.81
946.575	4662.21
946.881	4624.02
947.187	4598.48
947.493	4546.28
947.799	4567.3
948.105	4566.62
948.41	4544.24
948.716	4494.53
949.022	4461.54
949.327	4514.64
949.633	4457.47
949.938	4460.41
950.244	4421.08
950.549	4391.93
950.854	4369.11
951.16	4408.88
951.465	4327.98
951.77	4292.95
952.075	4333.4
952.38	4275.33
952.685	4270.58
952.99	4255.21
953.294	4237.81
953.599	4192.84
953.904	4196.46
954.209	4131.37
954.513	4163.92
954.818	4136.35
955.122	4134.54
955.426	4117.59
955.731	4063.58
956.035	4054.09
956.339	4026.29
956.643	4020.64
956.948	4054.31
957.252	4038.5
957.556	3948.1
957.86	3971.6
958.163	3969.12
958.467	3948.78
958.771	3911.95
959.075	3944.26
959.378	3897.26
959.682	3857.26
959.985	3849.57
960.289	3866.75
960.592	3836.92
960.896	3771.16
961.199	3801.67
961.502	3818.39
961.805	3760.08
962.108	3721.89
962.411	3747.88
962.714	3705.4
963.017	3696.36
963.32	3717.6
963.623	3712.4
963.926	3633.53
964.228	3657.26
964.531	3633.53
964.833	3567.77
965.136	3557.38
965.438	3544.95
965.741	3555.8
966.043	3528.23
966.345	3563.93
966.648	3468.79
966.95	3497.27
967.252	3460.88
967.554	3448.45
967.856	3431.96
968.158	3413.88
968.46	3375.24
968.761	3406.42
969.063	3382.69
969.365	3361.9
969.666	3369.81
969.968	3310.83
970.269	3311.96
970.571	3319.42
970.872	3269.02
971.174	3247.33
971.475	3274.45
971.776	3240.78
972.077	3249.36
972.378	3211.17
972.679	3205.3
972.98	3203.26
973.281	3172.76
973.582	3146.54
973.883	3143.6
974.183	3114.23
974.484	3155.13
974.785	3115.13
975.085	3117.84
975.386	3108.12
975.686	3085.75
975.986	3030.39
976.287	3055.02
976.587	3054.11
976.887	3048.47
977.187	3004.17
977.487	2970.28
977.787	2981.35
978.087	2925.08
978.387	2930.5
978.687	2941.35
978.987	2906.77
979.286	2902.03
979.586	2895.02
979.885	2851.18
980.185	2870.62
980.484	2852.54
980.784	2873.55
981.083	2843.5
981.382	2832.65
981.682	2778.87
981.981	2828.13
982.28	2758.53
982.579	2761.47
982.878	2755.59
983.177	2741.35
983.475	2710.17
983.774	2708.14
984.073	2704.07
984.372	2702.26
984.67	2664.97
984.969	2686.67
985.267	2683.73
985.566	2685.08
985.864	2634.69
986.162	2608.25
986.461	2616.61
986.759	2564.86
987.057	2585.43
987.355	2591.53
987.653	2577.29
987.951	2516.28
988.249	2550.85
988.547	2523.96
988.844	2518.99
989.142	2513.79
989.44	2508.82
989.737	2499.1
990.035	2462.27
990.332	2481.02
990.63	2447.35
990.927	2423.85
991.224	2422.04
991.521	2419.33
991.819	2405.09
992.116	2406.22
992.413	2378.88
992.71	2375.26
993.006	2394.92
993.303	2369.61
993.6	2347.47
993.897	2335.72
994.193	2305.43
994.49	2299.33
994.787	2284.87
995.083	2274.47
995.379	2284.42
995.676	2263.63
995.972	2276.51
996.268	2243.29
996.565	2229.73
996.861	2217.3
997.157	2188.83
997.453	2206.23
997.749	2177.53
998.044	2169.62
998.34	2163.06
998.636	2142.5
998.932	2135.04
999.227	2100.92
999.523	2115.83
999.818	2140.47
1000.114	2089.39
1000.409	2065.67
1000.704	2074.71
1001	2047.81
1001.295	2009.85
1001.59	2040.58
1001.885	2058.43
1002.18	2002.84
1002.475	2017.98
1002.77	2010.07
1003.065	2001.03
1003.359	1984.31
1003.654	1973.69
1003.949	1964.88
1004.243	1947.25
1004.538	1947.93
1004.832	1951.09
1005.127	1909.96
1005.421	1909.06
1005.715	1872
1006.009	1851.89
1006.304	1851.43
1006.598	1870.19
1006.892	1845.56
1007.186	1825.9
1007.48	1808.05
1007.773	1828.61
1008.067	1801.94
1008.361	1804.2
1008.655	1770.76
1008.948	1770.53
1009.242	1753.81
1009.535	1774.15
1009.829	1738.67
1010.122	1750.87
1010.415	1706.35
1010.708	1708.16
1011.001	1718.56
1011.295	1712.45
1011.588	1656.41
1011.881	1674.72
1012.173	1646.69
1012.466	1669.07
1012.759	1613.93
1013.052	1648.5
1013.344	1612.8
1013.637	1622.51
1013.93	1599.92
1014.222	1603.98
1014.514	1579.35
1014.807	1571.44
1015.099	1574.83
1015.391	1556.07
1015.683	1542.06
1015.976	1563.76
1016.268	1503.19
1016.56	1520.37
1016.851	1515.62
1017.143	1501.84
1017.435	1505.91
1017.727	1490.54
1018.018	1482.86
1018.31	1457.32
1018.602	1437.66
1018.893	1452.8
1019.185	1439.02
1019.476	1429.75
1019.767	1408.28
1020.058	1413.48
1020.35	1410.54
1020.641	1384.33
1020.932	1353.59
1021.223	1353.82
1021.514	1347.27
1021.804	1336.42
1022.095	1360.6
1022.386	1340.49
1022.677	1338
1022.967	1310.88
1023.258	1300.26
1023.548	1299.13
1023.839	1323.54
1024.129	1284.44
1024.419	1289.19
1024.709	1265.91
1025	1245.35
1025.29	1282.18
1025.58	1229.3
1025.87	1241.96
1026.16	1251.45
1026.449	1204.9
1026.739	1195.86
1027.029	1204.67
1027.319	1217.55
1027.608	1206.71
1027.898	1193.37
1028.187	1175.29
1028.477	1189.3
1028.766	1161.28
1029.055	1170.55
1029.344	1158.12
1029.634	1121.51
1029.923	1138.23
1030.212	1143.66
1030.501	1138.68
1030.79	1116.54
1031.078	1076.09
1031.367	1098.69
1031.656	1111.34
1031.945	1069.08
1032.233	1095.52
1032.522	1054.62
1032.81	1079.48
1033.099	1052.81
1033.387	1048.52
1033.675	1045.58
1033.963	1015.75
1034.251	1046.03
1034.54	1036.31
1034.828	1006.03
1035.116	1015.3
1035.403	1025.47
1035.691	985.02
1035.979	990.44
1036.267	981.17
1036.554	981.4
1036.842	965.13
1037.129	966.49
1037.417	934.62
1037.704	967.16
1037.992	957.67
1038.279	954.51
1038.566	914.51
1038.853	914.51
1039.14	914.51
