Data from hue_270_FLMS001491_00056.txt Node
Date: Tue Feb 07 15:57:23 GMT 2017
User: dcchb
Spectrometer: FLMS00149
Trigger mode: 0
Integration Time (sec): 2.000000E-2
Scans to average: 10
Electric dark correction enabled: true
Nonlinearity correction enabled: false
Boxcar width: 0
XAxis mode: Wavelengths
Number of Pixels in Spectrum: 2048
>>>>>Begin Spectral Data<<<<<
341.393	-3.9
341.776	-3.9
342.16	-3.9
342.543	-56.55
342.927	-77.12
343.31	-74.63
343.693	-55.2
344.077	-70.11
344.46	-61.3
344.843	-35.76
345.226	-32.82
345.61	-30.79
345.993	-28.76
346.376	-26.27
346.759	20.06
347.142	33.84
347.525	51.92
347.908	45.14
348.291	64.57
348.674	80.39
349.057	119.71
349.44	114.52
349.823	141.86
350.206	165.14
350.588	177.11
350.971	201.97
351.354	225.7
351.737	251.24
352.119	230.67
352.502	252.14
352.884	289.65
353.267	259.6
353.65	298.69
354.032	308.64
354.414	310.44
354.797	311.35
355.179	325.81
355.562	311.8
355.944	323.32
356.326	300.95
356.709	315.19
357.091	324.23
357.473	317.9
357.855	323.1
358.238	330.1
358.62	331.23
359.002	349.31
359.384	337.79
359.766	335.08
360.148	324.68
360.53	333.95
360.912	328.07
361.294	319.26
361.676	333.72
362.057	326.04
362.439	322.87
362.821	342.99
363.203	307.96
363.584	329.2
363.966	329.2
364.348	318.58
364.729	301.63
365.111	328.07
365.493	300.73
365.874	311.35
366.256	298.69
366.637	315.64
367.019	311.8
367.4	320.16
367.781	331.01
368.163	294.17
368.544	308.64
368.925	321.29
369.306	320.39
369.688	292.14
370.069	286.49
370.45	328.97
370.831	292.14
371.212	322.19
371.593	331.01
371.974	294.85
372.355	309.54
372.736	306.38
373.117	303.44
373.498	298.24
373.879	319.48
374.26	310.9
374.641	312.48
375.021	317.9
375.402	310.22
375.783	298.24
376.163	313.83
376.544	329.65
376.925	322.65
377.305	314.96
377.686	333.27
378.066	312.25
378.447	338.24
378.827	334.17
379.208	327.84
379.588	330.56
379.968	325.36
380.349	317
380.729	321.07
381.109	342.99
381.489	320.61
381.87	343.66
382.25	322.42
382.63	342.53
383.01	326.71
383.39	346.6
383.77	331.69
384.15	314.06
384.53	321.07
384.91	361.74
385.29	357.67
385.67	381.4
386.049	355.41
386.429	357.67
386.809	339.37
387.189	352.7
387.568	334.85
387.948	373.49
388.328	363.78
388.707	355.41
389.087	361.74
389.466	364.45
389.846	359.93
390.225	370.78
390.605	384.11
390.984	373.27
391.363	357
391.743	379.14
392.122	386.6
392.501	373.49
392.881	385.02
393.26	366.49
393.639	389.09
394.018	378.69
394.397	364.91
394.776	390.22
395.155	409.2
395.534	388.86
395.913	381.4
396.292	398.13
396.671	402.64
397.05	382.31
397.429	378.01
397.808	383.21
398.186	418.24
398.565	409.65
398.944	413.49
399.323	391.35
399.701	402.19
400.08	415.07
400.458	395.87
400.837	432.47
401.215	427.28
401.594	436.54
401.972	429.76
402.351	437.67
402.729	455.98
403.107	432.47
403.486	435.19
403.864	438.58
404.242	434.73
404.62	446.49
404.999	444.23
405.377	469.76
405.755	455.98
406.133	455.3
406.511	454.62
406.889	473.83
407.267	479.7
407.645	479.93
408.023	474.51
408.401	497.11
408.779	489.65
409.156	498.24
409.534	499.14
409.912	492.81
410.29	509.99
410.667	545.24
411.045	516.77
411.422	524
411.8	536.88
412.178	547.27
412.555	568.29
412.933	555.64
413.31	563.54
413.687	568.97
414.065	566.48
414.442	577.1
414.819	580.27
415.197	595.63
415.574	607.16
415.951	603.09
416.328	613.26
416.705	613.71
417.082	624.11
417.46	625.92
417.837	648.97
418.214	622.98
418.591	674.05
418.967	652.36
419.344	671.79
419.721	674.5
420.098	686.03
420.475	704.11
420.852	698.91
421.228	718.57
421.605	716.08
421.982	735.74
422.358	753.14
422.735	762.64
423.111	740.04
423.488	756.53
423.864	785.91
424.241	803.09
424.617	809.64
424.994	799.92
425.37	822.52
425.746	818.23
426.123	844.44
426.499	848.28
426.875	855.51
427.251	853.71
427.627	905.46
428.003	911.33
428.379	911.56
428.756	912.46
429.132	931.22
429.507	948.39
429.883	951.78
430.259	962.63
430.635	977.09
431.011	1003.08
431.387	993.82
431.763	1005.57
432.138	1016.41
432.514	1041.27
432.89	1048.5
433.265	1058.22
433.641	1109.74
434.016	1136.41
434.392	1100.03
434.767	1150.87
435.143	1122.63
435.518	1175.51
435.894	1164.66
436.269	1194.49
436.644	1217.31
437.02	1212.12
437.395	1230.87
437.77	1258.67
438.145	1270.64
438.52	1285.79
438.895	1311.1
439.271	1302.51
439.646	1328.5
440.021	1348.83
440.395	1356.74
440.77	1345.67
441.145	1384.99
441.52	1385.22
441.895	1389.29
442.27	1419.12
442.645	1443.97
443.019	1497.08
443.394	1448.49
443.769	1475.84
444.143	1476.97
444.518	1499.79
444.892	1504.99
445.267	1511.09
445.641	1506.34
446.016	1540.69
446.39	1560.13
446.764	1584.99
447.139	1576.63
447.513	1565.1
447.887	1571.88
448.262	1561.03
448.636	1611.43
449.01	1614.59
449.384	1615.04
449.758	1636.74
450.132	1651.88
450.506	1666.34
450.88	1646.23
451.254	1664.08
451.628	1702.72
452.002	1726
452.376	1741.82
452.75	1747.24
453.123	1765.32
453.497	1787.02
453.871	1752.21
454.244	1837.41
454.618	1815.94
454.992	1855.04
455.365	1823.62
455.739	1884.41
456.112	1897.07
456.486	1932.1
456.859	1911.76
457.232	1956.05
457.606	1931.19
457.979	1959.89
458.352	2013.45
458.725	2036.05
459.099	2032.21
459.472	2086.89
459.845	2078.53
460.218	2105.65
460.591	2126.67
460.964	2128.25
461.337	2157.85
461.71	2187.68
462.083	2260.9
462.456	2228.59
462.829	2229.26
463.201	2239.43
463.574	2258.87
463.947	2283.73
464.32	2363.05
464.692	2344.06
465.065	2352.42
465.438	2401.69
465.81	2431.74
466.183	2446.88
466.555	2452.99
466.928	2498.18
467.3	2523.04
467.672	2544.96
468.045	2594.45
468.417	2590.61
468.789	2595.36
469.161	2623.38
469.534	2702.25
469.906	2710.15
470.278	2758.74
470.65	2749.25
471.022	2786.08
471.394	2876.7
471.766	2855.69
472.138	2917.38
472.51	2936.36
472.882	3000.99
473.253	2981.33
473.625	3048.45
473.997	3066.3
474.369	3087.55
474.74	3137.49
475.112	3179.29
475.484	3275.79
475.855	3283.92
476.227	3254.32
476.598	3358.95
476.97	3400.98
477.341	3445.05
477.713	3479.4
478.084	3480.76
478.455	3551.94
478.827	3582.9
479.198	3677.81
479.569	3690.02
479.94	3750.35
480.311	3816.79
480.682	3883.01
481.053	3937.47
481.424	3971.36
481.795	3993.28
482.166	4025.6
482.537	4098.14
482.908	4158.25
483.279	4209.32
483.65	4238.02
484.021	4279.38
484.391	4338.59
484.762	4392.37
485.133	4441.63
485.503	4498.58
485.874	4493.38
486.244	4568.41
486.615	4667.84
486.985	4674.85
487.356	4776.09
487.726	4780.83
488.097	4856.76
488.467	4860.83
488.837	4982.19
489.207	4955.07
489.578	4990.32
489.948	5071.22
490.318	5165.23
490.688	5123.42
491.058	5192.8
491.428	5276.19
491.798	5340.37
492.168	5385.34
492.538	5450.87
492.908	5497.65
493.278	5533.13
493.648	5530.87
494.017	5555.96
494.387	5593.47
494.757	5687.03
495.126	5729.51
495.496	5663.52
495.866	5731.09
496.235	5750.3
496.605	5856.96
496.974	5875.5
497.344	5901.71
497.713	5944.65
498.082	5946.23
498.452	5969.73
498.821	5985.32
499.19	6033.91
499.559	6124.53
499.928	6160.91
500.298	6163.62
500.667	6137.18
501.036	6122.49
501.405	6207.46
501.774	6211.08
502.143	6230.97
502.512	6248.37
502.88	6289.5
503.249	6255.82
503.618	6361.58
503.987	6366.33
504.356	6361.13
504.724	6432.09
505.093	6424.18
505.462	6473.67
505.83	6477.29
506.199	6545.31
506.567	6540.79
506.936	6524.29
507.304	6595.25
507.672	6618.98
508.041	6600
508.409	6670.28
508.777	6676.15
509.145	6705.98
509.514	6706.89
509.882	6688.58
510.25	6733.55
510.618	6710.73
510.986	6785.75
511.354	6863.27
511.722	6907.33
512.09	6897.62
512.458	6834.34
512.826	6898.97
513.193	6931.96
513.561	6986.2
513.929	7024.62
514.297	7054.45
514.664	7074.56
515.032	7028.23
515.4	7071.4
515.767	7086.99
516.135	7152.75
516.502	7041.79
516.869	7192.97
517.237	7148.68
517.604	7139.42
517.972	7221.9
518.339	7204.05
518.706	7232.3
519.073	7163.37
519.44	7191.39
519.808	7256.93
520.175	7282.92
520.542	7352.74
520.909	7376.92
521.276	7325.63
521.643	7400.65
522.009	7383.03
522.376	7510.93
522.743	7422.12
523.11	7544.83
523.477	7492.18
523.843	7592.96
524.21	7641.32
524.577	7645.39
524.943	7682.45
525.31	7724.71
525.676	7750.93
526.043	7786.63
526.409	7699.63
526.776	7819.4
527.142	7827.53
527.508	7810.59
527.874	7837.48
528.241	7879.51
528.607	7882.9
528.973	7904.82
529.339	7939.17
529.705	7970.58
530.071	8055.32
530.437	8027.98
530.803	8033.18
531.169	8063.23
531.535	8078.38
531.901	8047.42
532.267	8096.45
532.632	8157.24
532.998	8182.1
533.364	8160.18
533.73	8139.84
534.095	8273.17
534.461	8148.88
534.826	8226.62
535.192	8254.64
535.557	8295.77
535.923	8234.08
536.288	8224.13
536.653	8293.74
537.019	8263
537.384	8378.25
537.749	8375.09
538.114	8359.72
538.479	8295.77
538.845	8349.55
539.21	8336
539.575	8303.91
539.94	8338.71
540.305	8428.2
540.67	8392.04
541.034	8405.37
541.399	8447.41
541.764	8373.51
542.129	8516.33
542.494	8423
542.858	8425.26
543.223	8518.36
543.587	8507.97
543.952	8560.62
544.316	8514.07
544.681	8500.06
545.045	8567.18
545.41	8525.6
545.774	8490.34
546.138	8498.93
546.503	8544.8
546.867	8570.57
547.231	8622.09
547.595	8649.43
547.959	8648.53
548.324	8564.01
548.688	8644.46
549.052	8613.5
549.416	8667.74
549.779	8603.33
550.143	8698.92
550.507	8630.9
550.871	8718.36
551.235	8655.08
551.599	8727.17
551.962	8784.35
552.326	8791.58
552.689	8802.88
553.053	8736.89
553.417	8717.91
553.78	8815.53
554.143	8773.72
554.507	8904.57
554.87	8901.86
555.234	8971.46
555.597	8861.18
555.96	8856.66
556.323	8894.62
556.686	8899.82
557.05	8995.87
557.413	8935.3
557.776	8967.62
558.139	9012.36
558.502	9058.69
558.865	9022.08
559.228	9076.09
559.59	9091.91
559.953	9127.16
560.316	9152.02
560.679	9154.96
561.041	9204.45
561.404	9235.63
561.767	9277.67
562.129	9262.98
562.492	9381.17
562.854	9324.67
563.217	9324.9
563.579	9340.94
563.941	9402.41
564.304	9436.31
564.666	9446.02
565.028	9421.84
565.39	9474.27
565.753	9540.26
566.115	9548.17
566.477	9587.71
566.839	9595.17
567.201	9680.82
567.563	9652.12
567.925	9728.05
568.287	9815.96
568.648	9759.69
569.01	9754.94
569.372	9805.56
569.734	9798.56
570.095	9949.06
570.457	9915.84
570.819	9941.15
571.18	9951.55
571.542	10035.16
571.903	9993.58
572.265	10071.54
572.626	10156.51
572.987	10040.13
573.349	10206.45
573.71	10186.79
574.071	10246
574.432	10301.82
574.794	10295.72
575.155	10326
575.516	10300.69
575.877	10377.3
576.238	10375.94
576.599	10483.51
576.96	10403.29
577.32	10478.99
577.681	10449.16
578.042	10477.41
578.403	10528.25
578.763	10610.29
579.124	10614.81
579.485	10646.67
579.845	10714.46
580.206	10729.6
580.566	10714.69
580.927	10703.62
581.287	10864.74
581.648	10804.41
582.008	10923.95
582.368	10881.69
582.728	10861.8
583.089	11007.34
583.449	11012.99
583.809	11003.5
584.169	11054.12
584.529	11031.07
584.889	11151.74
585.249	11191.74
585.609	11038.07
585.969	11179.08
586.329	11149.71
586.688	11265.64
587.048	11226.54
587.408	11252.3
587.768	11179.31
588.127	11295.69
588.487	11272.42
588.846	11420.43
589.206	11306.54
589.565	11341.11
589.925	11422.92
590.284	11470.83
590.643	11520.32
591.003	11587.89
591.362	11564.84
591.721	11550.83
592.08	11555.8
592.44	11608.9
592.799	11582.69
593.158	11585.63
593.517	11657.04
593.876	11741.56
594.235	11670.82
594.593	11734.78
594.952	11844.38
595.311	11669.92
595.67	11827.2
596.029	11860.65
596.387	11897.94
596.746	11889.35
597.104	11892.74
597.463	11960.98
597.822	11953.53
598.18	11927.77
598.538	11955.79
598.897	12009.35
599.255	11918.05
599.613	12127.99
599.972	12022.9
600.33	12118.49
600.688	12052.06
601.046	12103.35
601.404	12124.37
601.762	12093.64
602.12	12110.36
602.478	12129.12
602.836	12197.14
603.194	12122.79
603.552	12128.89
603.91	12134.09
604.268	12209.79
604.625	12184.03
604.983	12229.9
605.341	12203.92
605.698	12266.51
606.056	12291.15
606.413	12300.64
606.771	12359.84
607.128	12391.03
607.485	12304.93
607.843	12277.36
608.2	12408.2
608.557	12470.35
608.914	12382.22
609.272	12418.37
609.629	12463.12
609.986	12476.45
610.343	12489.56
610.7	12483.46
611.057	12538.82
611.414	12499.95
611.771	12528.88
612.127	12560.52
612.484	12600.06
612.841	12621.76
613.198	12551.7
613.554	12650.01
613.911	12644.13
614.267	12657.01
614.624	12604.81
614.98	12660.18
615.337	12612.04
615.693	12659.95
616.05	12666.5
616.406	12785.82
616.762	12723
617.118	12712.83
617.475	12667.41
617.831	12699.27
618.187	12779.27
618.543	12678.71
618.899	12876.22
619.255	12812.49
619.611	12780.62
619.967	12880.73
620.323	12857.46
620.678	12800.06
621.034	12742.66
621.39	12744.47
621.746	12755.77
622.101	12838.7
622.457	12747.86
622.812	12838.48
623.168	12970.9
623.523	12894.29
623.879	12867.63
624.234	12869.66
624.589	12903.11
624.945	12916.67
625.3	12839.15
625.655	12880.06
626.01	12946.27
626.365	12939.49
626.72	12882.77
627.075	12819.49
627.43	12957.79
627.785	12862.2
628.14	12919.38
628.495	12844.58
628.85	12823.11
629.205	12804.8
629.559	12860.85
629.914	12824.47
630.269	12828.08
630.623	12807.97
630.978	12716.9
631.332	12795.77
631.687	12755.77
632.041	12756.9
632.396	12714.64
632.75	12735.43
633.104	12635.09
633.459	12642.1
633.813	12647.29
634.167	12618.59
634.521	12648.42
634.875	12731.81
635.229	12560.07
635.583	12494.53
635.937	12598.26
636.291	12609.33
636.645	12599.84
636.999	12594.87
637.352	12600.52
637.706	12502.89
638.06	12577.69
638.413	12483.01
638.767	12498.37
639.121	12446.62
639.474	12441.65
639.828	12406.85
640.181	12449.79
640.534	12386.28
640.888	12394.19
641.241	12291.15
641.594	12330.24
641.947	12436.68
642.301	12351.48
642.654	12342.9
643.007	12398.26
643.36	12386.51
643.713	12284.37
644.066	12424.25
644.419	12290.02
644.771	12309.68
645.124	12115.33
645.477	12127.99
645.83	12005.28
646.182	11952.85
646.535	11981.32
646.888	11923.92
647.24	11880.76
647.593	11920.53
647.945	11868.78
648.298	11826.07
648.65	11865.62
649.002	11788.33
649.355	11895.45
649.707	11869.24
650.059	11843.7
650.411	12008.89
650.763	12121.43
651.115	12159.17
651.467	12087.31
651.819	12173.18
652.171	12092.28
652.523	12101.09
652.875	12090.02
653.227	12106.74
653.578	12203.46
653.93	12111.72
654.282	12051.15
654.633	12075.33
654.985	12129.79
655.337	12053.86
655.688	12024.71
656.039	12127.76
656.391	11966.18
656.742	12033.75
657.094	12020.87
657.445	12050.93
657.796	12095.9
658.147	12086.63
658.498	12076.24
658.849	12075.33
659.2	12100.42
659.551	12107.2
659.902	12152.62
660.253	12063.36
660.604	12161.21
660.955	12022.45
661.306	12012.28
661.656	12095.22
662.007	12073.52
662.358	12068.78
662.708	12094.77
663.059	12097.03
663.409	12002.57
663.76	12107.2
664.11	12103.81
664.461	12152.17
664.811	12128.44
665.161	12074.65
665.511	12078.72
665.862	12055.67
666.212	12110.13
666.562	12137.48
666.912	12076.91
667.262	12111.26
667.612	12096.12
667.962	12089.34
668.312	12064.71
668.662	12145.39
669.011	12098.38
669.361	12059.51
669.711	12007.99
670.06	12059.51
670.41	12051.83
670.76	11946.52
671.109	12037.59
671.459	12038.05
671.808	12025.16
672.157	12026.52
672.507	11915.79
672.856	12005.5
673.205	11991.94
673.554	12040.53
673.904	11944.49
674.253	11960.08
674.602	12039.17
674.951	11799.86
675.3	11683.25
675.649	11957.6
675.998	11932.06
676.346	11931.61
676.695	11997.14
677.044	11868.11
677.393	11872.85
677.741	11878.73
678.09	11796.02
678.438	11782.01
678.787	11833.3
679.135	11745.62
679.484	11667.21
679.832	11710.82
680.181	11635.34
680.529	11758.73
680.877	11687.77
681.225	11647.77
681.573	11694.33
681.922	11629.47
682.27	11592.63
682.618	11486.87
682.966	11588.34
683.314	11580.66
683.661	11530.49
684.009	11526.42
684.357	11490.71
684.705	11476.25
685.053	11416.82
685.4	11411.39
685.748	11336.14
686.095	11372.07
686.443	11354.67
686.79	11224.06
687.138	11325.52
687.485	11327.33
687.832	11241.91
688.18	11248.01
688.527	11187.22
688.874	11173.44
689.221	11196.94
689.568	11159.2
689.915	11125.75
690.262	11095.47
690.609	11052.99
690.956	11019.77
691.303	11043.72
691.65	10956.72
691.997	10882.6
692.344	10867.68
692.69	10860.22
693.037	10804.63
693.383	10750.62
693.73	10783.16
694.077	10765.31
694.423	10674.24
694.769	10669.72
695.116	10621.13
695.462	10649.61
695.808	10537.97
696.155	10577.97
696.501	10490.06
696.847	10481.25
697.193	10391.76
697.539	10442.61
697.885	10349.5
698.231	10281.48
698.577	10285.77
698.923	10254.14
699.269	10233.57
699.614	10153.35
699.96	10152.44
700.306	10187.25
700.651	10134.37
700.997	10144.08
701.342	10015.5
701.688	10027.93
702.033	9943.86
702.379	9882.85
702.724	9890.08
703.069	9835.17
703.415	9794.94
703.76	9822.51
704.105	9846.69
704.45	9782.29
704.795	9694.83
705.14	9712.91
705.485	9659.35
705.83	9622.06
706.175	9521.73
706.52	9628.39
706.865	9552.01
707.209	9535.29
707.554	9436.76
707.899	9503.42
708.243	9439.47
708.588	9413.03
708.932	9352.24
709.277	9326.7
709.621	9411.9
709.966	9342.97
710.31	9286.25
710.654	9330.77
710.998	9255.29
711.342	9276.54
711.687	9241.28
712.031	9170.1
712.375	9114.73
712.719	9149.76
713.063	9122.19
713.407	9128.52
713.75	9062.53
714.094	9119.7
714.438	9060.27
714.782	9094.17
715.125	9036.77
715.469	9017.56
715.812	9001.97
716.156	8974.62
716.499	8976.88
716.843	8923.1
717.186	8947.96
717.53	8963.78
717.873	8927.17
718.216	8923.55
718.559	8914.74
718.902	8771.24
719.246	8852.82
719.589	8746.83
719.932	8783.67
720.275	8780.73
720.617	8802.2
720.96	8743.22
721.303	8762.42
721.646	8736.44
721.989	8752.48
722.331	8686.95
722.674	8688.98
723.016	8719.26
723.359	8728.98
723.701	8625.71
724.044	8620.96
724.386	8651.47
724.729	8670.68
725.071	8613.73
725.413	8648.98
725.755	8573.96
726.097	8569.66
726.439	8481.3
726.782	8546.61
727.124	8575.09
727.465	8482.43
727.807	8510
728.149	8472.49
728.491	8494.64
728.833	8530.34
729.175	8512.26
729.516	8537.57
729.858	8483.56
730.199	8450.12
730.541	8464.35
730.882	8425.26
731.224	8551.36
731.565	8397.01
731.906	8437.69
732.248	8510
732.589	8390.46
732.93	8418.25
733.271	8425.26
733.612	8466.16
733.953	8506.16
734.294	8395.2
734.635	8394.98
734.976	8383.45
735.317	8378.25
735.658	8423
735.999	8398.59
736.339	8411.25
736.68	8468.65
737.021	8496.67
737.361	8395.2
737.702	8453.96
738.042	8475.43
738.383	8484.01
738.723	8420.74
739.063	8447.86
739.404	8430.91
739.744	8499.61
740.084	8522.66
740.424	8520.17
740.764	8489.21
741.104	8554.29
741.444	8456.67
741.784	8506.39
742.124	8520.85
742.464	8493.28
742.804	8524.92
743.143	8514.3
743.483	8505.93
743.823	8494.86
744.162	8553.62
744.502	8569.44
744.841	8594.97
745.181	8630.68
745.52	8631.81
745.86	8675.87
746.199	8698.02
746.538	8738.47
746.877	8786.15
747.216	8840.39
747.556	8808.3
747.895	8894.17
748.234	8912.48
748.573	8974.85
748.911	9026.15
749.25	9042.19
749.589	9048.07
749.928	9136.2
750.267	9197.67
750.605	9208.74
750.944	9313.37
751.283	9340.26
751.621	9469.3
751.96	9507.04
752.298	9495.29
752.636	9663.87
752.975	9700.71
753.313	9748.16
753.651	9835.84
753.989	9930.3
754.327	10005.78
754.666	10040.13
755.004	10239.67
755.342	10354.7
755.679	10478.31
756.017	10525.77
756.355	10618.65
756.693	10761.92
757.031	10959.43
757.368	11039.65
757.706	11071.06
758.044	11266.09
758.381	11359.42
758.719	11451.39
759.056	11732.06
759.394	11809.8
759.731	11873.76
760.068	11989.23
760.405	12184.48
760.743	12277.13
761.08	12558.26
761.417	12580.18
761.754	12736.56
762.091	12959.83
762.428	13003.9
762.765	13124.8
763.102	13356.88
763.438	13456.09
763.775	13567.27
764.112	13776.3
764.449	13982.85
764.785	14019.91
765.122	14222.62
765.458	14236.86
765.795	14506.23
766.131	14557.3
766.467	14794.36
766.804	14830.74
767.14	14975.82
767.476	15110.28
767.812	15230.96
768.148	15412.42
768.485	15406.77
768.821	15543.94
769.157	15716.14
769.492	15846.76
769.828	16050.59
770.164	15980.31
770.5	16122.46
770.836	16156.35
771.171	16284.94
771.507	16494.2
771.842	16465.5
772.178	16569
772.513	16781.42
772.849	16708.43
773.184	16838.6
773.519	16928.76
773.855	16928.31
774.19	17074.97
774.525	17059.61
774.86	17234.07
775.195	17182.32
775.53	17293.73
775.865	17342.54
776.2	17392.93
776.535	17289.21
776.87	17437.23
777.205	17414.85
777.539	17563.78
777.874	17602.42
778.209	17534.17
778.543	17617.33
778.878	17470.22
779.212	17705.92
779.547	17675.41
779.881	17814.16
780.215	17733.71
780.55	17765.8
780.884	17780.04
781.218	17760.83
781.552	17982.07
781.886	17814.16
782.22	17753.15
782.554	17785.69
782.888	17775.07
783.222	17695.07
783.556	17681.96
783.889	17750.66
784.223	17609.42
784.557	17686.71
784.89	17643.32
785.224	17723.32
785.557	17709.99
785.891	17649.65
786.224	17709.31
786.558	17731.23
786.891	17580.05
787.224	17584.34
787.557	17511.35
787.891	17594.28
788.224	17485.59
788.557	17582.08
788.89	17591.8
789.223	17566.49
789.556	17507.51
789.888	17495.98
790.221	17434.51
790.554	17412.37
790.887	17365.36
791.219	17299.15
791.552	17288.08
791.884	17237
792.217	17329.66
792.549	17241.3
792.882	17222.54
793.214	17043.34
793.546	17174.41
793.879	17105.26
794.211	17047.4
794.543	17155.65
794.875	17033.17
795.207	17111.81
795.539	16942.77
795.871	16943.23
796.203	16997.46
796.535	16864.81
796.867	16835.43
797.198	16782.1
797.53	16721.54
797.862	16628.21
798.193	16721.99
798.525	16548.66
798.856	16598.15
799.188	16505.05
799.519	16391.83
799.85	16502.11
800.182	16486.97
800.513	16421.21
800.844	16343.69
801.175	16384.15
801.506	16375.33
801.837	16312.73
802.168	16264.37
802.499	16162.23
802.83	16084.27
803.161	16129.01
803.491	16117.26
803.822	16151.84
804.153	16092.63
804.483	15928.11
804.814	15828.91
805.145	15886.53
805.475	15897.6
805.805	15885.63
806.136	15806.53
806.466	15784.61
806.796	15719.08
807.126	15713.88
807.457	15639.08
807.787	15611.51
808.117	15615.8
808.447	15549.37
808.777	15642.92
809.107	15486.54
809.436	15440.67
809.766	15474.79
810.096	15439.99
810.426	15452.64
810.755	15383.49
811.085	15364.51
811.414	15356.83
811.744	15175.59
812.073	15253.33
812.403	15227.79
812.732	15098.3
813.061	15141.24
813.39	15033.9
813.719	15069.15
814.049	15113.22
814.378	15035.71
814.707	14994.13
815.036	14971.08
815.365	14906.44
815.693	14849.27
816.022	14896.73
816.351	14717.52
816.68	14738.54
817.008	14798.88
817.337	14684.53
817.665	14583.97
817.994	14645.21
818.322	14632.1
818.651	14502.84
818.979	14528.6
819.307	14678.65
819.636	14512.1
819.964	14487.02
820.292	14576.06
820.62	14466.23
820.948	14429.85
821.276	14569.28
821.604	14453.12
821.932	14486.12
822.259	14473.24
822.587	14409.28
822.915	14446.12
823.243	14451.09
823.57	14434.59
823.898	14380.81
824.225	14390.98
824.553	14420.58
824.88	14466.68
825.207	14557.53
825.535	14429.62
825.862	14530.63
826.189	14383.07
826.516	14527.25
826.843	14557.75
827.17	14497.87
827.497	14488.83
827.824	14547.36
828.151	14506.68
828.478	14470.75
828.805	14564.76
829.131	14536.06
829.458	14449.73
829.785	14456.74
830.111	14464.2
830.438	14564.76
830.764	14553.46
831.09	14560.46
831.417	14394.82
831.743	14492.9
832.069	14422.39
832.395	14444.76
832.722	14450.86
833.048	14420.81
833.374	14558.88
833.7	14448.6
834.026	14410.19
834.351	14451.31
834.677	14400.24
835.003	14447.25
835.329	14397.31
835.654	14312.11
835.98	14357.53
836.306	14310.3
836.631	14245.9
836.956	14306.23
837.282	14220.81
837.607	14214.71
837.932	14228.95
838.258	14198.21
838.583	14174.26
838.908	14165.67
839.233	14097.65
839.558	14028.05
839.883	14068.5
840.208	14065.11
840.533	14070.53
840.858	14035.05
841.182	14040.25
841.507	14015.62
841.832	13879.58
842.156	13894.95
842.481	13823.76
842.805	13824.44
843.13	13850.43
843.454	13731.11
843.778	13745.57
844.103	13620.38
844.427	13677.1
844.751	13657.66
845.075	13607.95
845.399	13540.15
845.723	13409.76
846.047	13533.82
846.371	13412.02
846.695	13412.02
847.019	13310.1
847.343	13208.41
847.666	13212.48
847.99	13141.52
848.313	13141.07
848.637	12993.5
848.96	12953.05
849.284	13020.17
849.607	12915.31
849.931	12884.8
850.254	12826.72
850.577	12667.86
850.9	12737.24
851.223	12673.28
851.546	12587.64
851.869	12542.89
852.192	12643.23
852.515	12466.73
852.838	12429.45
853.161	12426.51
853.483	12386.06
853.806	12289.11
854.129	12338.38
854.451	12291.6
854.774	12203.01
855.096	12133.18
855.419	12125.5
855.741	12179.06
856.063	12027.42
856.385	12005.05
856.708	11973.64
857.03	11916.69
857.352	11891.38
857.674	11837.37
857.996	11858.61
858.318	11765.51
858.64	11779.07
858.961	11699.3
859.283	11700.43
859.605	11702.23
859.926	11714.66
860.248	11580.2
860.57	11542.69
860.891	11511.96
861.212	11489.58
861.534	11413.65
861.855	11388.57
862.176	11510.38
862.498	11454.11
862.819	11387.89
863.14	11333.66
863.461	11360.55
863.782	11321.68
864.103	11327.33
864.424	11312.19
864.745	11265.18
865.065	11222.25
865.386	11180.67
865.707	11214.79
866.027	11200.1
866.348	11123.04
866.668	11147
866.989	11078.75
867.309	11061.57
867.63	11038.52
867.95	11042.37
868.27	10993.55
868.59	11035.13
868.91	10976.15
869.23	10984.29
869.55	10881.92
869.87	11020.22
870.19	10947.23
870.51	11013.67
870.83	10933.44
871.15	10931.86
871.469	10859.54
871.789	10906.55
872.109	10843.5
872.428	10799.43
872.748	10782.48
873.067	10751.98
873.386	10749.04
873.706	10752.88
874.025	10730.51
874.344	10662.04
874.663	10737.51
874.982	10610.74
875.301	10652.32
875.62	10613.45
875.939	10599.44
876.258	10644.18
876.577	10569.38
876.896	10574.58
877.214	10509.27
877.533	10646.44
877.852	10549.5
878.17	10509.27
878.489	10568.03
878.807	10528.03
879.125	10499.55
879.444	10464.53
879.762	10478.76
880.08	10461.59
880.398	10355.38
880.716	10378.88
881.034	10342.72
881.352	10339.11
881.67	10303.18
881.988	10231.76
882.306	10227.92
882.624	10302.05
882.941	10223.18
883.259	10245.78
883.577	10204.42
883.894	10144.54
884.212	10113.12
884.529	10127.13
884.846	10156.51
885.164	10072.22
885.481	9973.47
885.798	10000.13
886.115	9931.89
886.432	9901.83
886.75	9887.37
887.067	9918.55
887.383	9935.5
887.7	9865.67
888.017	9748.16
888.334	9866.12
888.651	9780.93
888.967	9829.74
889.284	9707.48
889.6	9704.1
889.917	9603.08
890.233	9592.91
890.55	9542.52
890.866	9620.71
891.182	9569.86
891.498	9460.26
891.815	9446.47
892.131	9429.75
892.447	9419.58
892.763	9392.92
893.079	9380.04
893.395	9382.3
893.71	9322.64
894.026	9287.38
894.342	9312.69
894.657	9260.94
894.973	9184.56
895.289	9227.27
895.604	9164.9
895.92	9054.17
896.235	9122.19
896.55	9066.6
896.865	9010.78
897.181	9027.05
897.496	8989.99
897.811	8954.06
898.126	8948.18
898.441	8911.57
898.756	8853.95
899.071	8815.3
899.386	8750.67
899.7	8665.03
900.015	8711.8
900.33	8621.19
900.644	8602.66
900.959	8573.5
901.273	8549.1
901.588	8512.71
901.902	8477.91
902.216	8441.98
902.531	8496.44
902.845	8441.3
903.159	8424.13
903.473	8343.68
903.787	8308.2
904.101	8216.22
904.415	8294.41
904.729	8226.17
905.042	8132.16
905.356	8138.49
905.67	8183.68
905.984	8139.62
906.297	8103.91
906.611	8050.13
906.924	8065.04
907.237	8025.04
907.551	7960.64
907.864	7959.73
908.177	7846.97
908.491	7834.99
908.804	7864.14
909.117	7734.2
909.43	7766.29
909.743	7707.99
910.056	7722.68
910.368	7667.31
910.681	7632.74
910.994	7566.98
911.307	7570.14
911.619	7496.7
911.932	7537.6
912.244	7436.81
912.557	7445.85
912.869	7335.34
913.181	7363.37
913.494	7417.15
913.806	7301.67
914.118	7304.16
914.43	7286.76
914.742	7229.81
915.054	7154.78
915.366	7151.62
915.678	7117.04
915.99	7112.07
916.302	7041.79
916.613	7013.09
916.925	7032.07
917.236	7016.03
917.548	6940.78
917.859	6972.87
918.171	6915.69
918.482	6860.55
918.794	6818.52
919.105	6777.39
919.416	6809.71
919.727	6781.23
920.038	6750.05
920.349	6727.45
920.66	6661.46
920.971	6651.29
921.282	6640.22
921.593	6640.9
921.903	6562.93
922.214	6573.56
922.525	6490.62
922.835	6493.33
923.146	6482.26
923.456	6436.16
923.767	6404.07
924.077	6393.22
924.387	6353.45
924.697	6344.41
925.008	6363.39
925.318	6288.59
925.628	6265.54
925.938	6251.76
926.248	6220.34
926.558	6202.27
926.867	6207.24
927.177	6139.67
927.487	6141.93
927.796	6051.31
928.106	6100.8
928.416	6054.93
928.725	5983.51
929.034	5975.38
929.344	6014.25
929.653	5937.19
929.962	5917.75
930.271	5871.43
930.581	5872.78
930.89	5838.66
931.199	5768.61
931.508	5781.71
931.817	5768.61
932.125	5775.61
932.434	5747.14
932.743	5675.95
933.051	5636.18
933.36	5678.66
933.669	5597.54
933.977	5639.12
934.286	5637.31
934.594	5556.63
934.902	5502.4
935.21	5509.4
935.519	5496.97
935.827	5460.59
936.135	5434.15
936.443	5398.67
936.751	5397.32
937.059	5364.1
937.367	5377.43
937.674	5348.73
937.982	5349.86
938.29	5280.26
938.597	5210.88
938.905	5186.25
939.213	5216.53
939.52	5227.6
939.827	5192.12
940.135	5136.98
940.442	5085.46
940.749	5117.55
941.056	5138.34
941.363	5042.07
941.67	5051.56
941.977	5004.78
942.284	4977.67
942.591	5004.56
942.898	4986.48
943.205	4943.54
943.511	4951
943.818	4906.71
944.125	4842.53
944.431	4855.86
944.738	4871.68
945.044	4806.37
945.35	4789.2
945.657	4772.02
945.963	4754.85
946.269	4728.18
946.575	4700.61
946.881	4664
947.187	4689.54
947.493	4635.53
947.799	4613.38
948.105	4594.85
948.41	4594.85
948.716	4607.73
949.022	4550.78
949.327	4565.93
949.633	4484.35
949.938	4499.26
950.244	4473.05
950.549	4427.85
950.854	4416.1
951.16	4430.56
951.465	4413.39
951.77	4336.78
952.075	4354.63
952.38	4355.54
952.685	4349.43
952.99	4327.29
953.294	4337.68
953.599	4254.52
953.904	4221.3
954.209	4237.8
954.513	4210.23
954.818	4170.68
955.122	4180.4
955.426	4154.86
955.731	4135.43
956.035	4075.99
956.339	4099.95
956.643	4070.12
956.948	4057.24
957.252	4054.3
957.556	4056.56
957.86	4052.04
958.163	4031.25
958.467	3967.3
958.771	3938.15
959.075	3977.92
959.378	3917.35
959.682	3921.65
959.985	3898.6
960.289	3876.68
960.592	3901.76
960.896	3849.56
961.199	3839.62
961.502	3842.33
961.805	3859.5
962.108	3774.76
962.411	3738.83
962.714	3772.73
963.017	3732.27
963.32	3776.12
963.623	3694.31
963.926	3704.48
964.228	3643.92
964.531	3663.12
964.833	3660.64
965.136	3611.6
965.438	3609.57
965.741	3577.93
966.043	3575.44
966.345	3548.32
966.648	3600.75
966.95	3538.16
967.252	3528.66
967.554	3514.88
967.856	3469.46
968.158	3464.26
968.46	3447.31
968.761	3434.88
969.063	3425.16
969.365	3425.16
969.666	3360.99
969.968	3350.82
970.269	3325.51
970.571	3358.5
970.872	3341.78
971.174	3308.56
971.475	3243.93
971.776	3292.51
972.077	3301.1
972.378	3290.93
972.679	3269.24
972.98	3242.8
973.281	3226.53
973.582	3216.58
973.883	3205.73
974.183	3195.57
974.484	3130.48
974.785	3137.94
975.085	3107.21
975.386	3119.41
975.686	3109.01
975.986	3109.24
976.287	3121.67
976.587	3060.2
976.887	3053.87
977.187	3065.17
977.487	3033.31
977.787	3033.08
978.087	3006.87
978.387	3031.5
978.687	3011.39
978.987	2948.34
979.286	2972.52
979.586	2942.92
979.885	2919.64
980.185	2887.1
980.484	2877.38
980.784	2891.62
981.083	2893.88
981.382	2865.63
981.682	2898.85
981.981	2830.15
982.28	2838.96
982.579	2801.23
982.878	2791.96
983.177	2773.88
983.475	2797.61
983.774	2769.36
984.073	2727.56
984.372	2712.41
984.67	2735.92
984.969	2680.78
985.267	2731.85
985.566	2632.64
985.864	2654.79
986.162	2672.87
986.461	2666.99
986.759	2639.65
987.057	2594.9
987.355	2610.27
987.653	2612.53
987.951	2597.16
988.249	2596.71
988.547	2528.92
988.844	2549.71
989.142	2532.08
989.44	2505.64
989.737	2517.17
990.035	2505.41
990.332	2505.41
990.63	2469.03
990.927	2474.45
991.224	2446.21
991.521	2434.23
991.819	2407.34
992.116	2425.19
992.413	2437.85
992.71	2416.15
993.006	2395.13
993.303	2342.48
993.6	2374.12
993.897	2360.11
994.193	2356.27
994.49	2334.57
994.787	2333.67
995.083	2292.99
995.379	2297.96
995.676	2316.94
995.972	2261.58
996.268	2242.82
996.565	2236.49
996.861	2239.43
997.157	2228.59
997.453	2213.22
997.749	2222.94
998.044	2168.7
998.34	2186.1
998.636	2160.79
998.932	2170.96
999.227	2144.07
999.523	2141.81
999.818	2126.67
1000.114	2147.01
1000.409	2093
1000.704	2117.85
1001	2083.05
1001.295	2061.36
1001.59	2059.32
1001.885	2060.68
1002.18	2031.3
1002.475	2025.65
1002.77	1992.43
1003.065	2009.16
1003.359	1985.65
1003.654	1975.03
1003.949	1976.39
1004.243	1968.25
1004.538	1956.5
1004.832	1929.16
1005.127	1923.06
1005.421	1906.11
1005.715	1906.11
1006.009	1914.7
1006.304	1884.87
1006.598	1875.15
1006.892	1863.62
1007.186	1832.21
1007.48	1820.46
1007.773	1820.23
1008.067	1832.21
1008.361	1794.25
1008.655	1829.95
1008.948	1801.03
1009.242	1795.38
1009.535	1782.72
1009.829	1784.76
1010.122	1772.1
1010.415	1731.42
1010.708	1736.85
1011.001	1731.65
1011.295	1693.46
1011.588	1705.89
1011.881	1681.26
1012.173	1683.29
1012.466	1687.13
1012.759	1658.88
1013.052	1664.08
1013.344	1610.52
1013.637	1644.19
1013.93	1615.95
1014.222	1624.08
1014.514	1607.36
1014.807	1603.29
1015.099	1577.76
1015.391	1598.32
1015.683	1551.09
1015.976	1555.61
1016.268	1541.82
1016.56	1548.38
1016.851	1528.94
1017.143	1513.8
1017.435	1507.7
1017.727	1487.59
1018.018	1475.16
1018.31	1486.91
1018.602	1473.35
1018.893	1470.64
1019.185	1465.22
1019.476	1431.77
1019.767	1432.67
1020.058	1398.78
1020.35	1416.4
1020.641	1398.55
1020.932	1415.95
1021.223	1381.83
1021.514	1380.25
1021.804	1364.65
1022.095	1368.04
1022.386	1375.5
1022.677	1328.5
1022.967	1313.13
1023.258	1331.66
1023.548	1321.26
1023.839	1328.5
1024.129	1301.15
1024.419	1309.29
1024.709	1276.07
1025	1285.33
1025.29	1292.34
1025.58	1267.48
1025.87	1250.76
1026.16	1265.22
1026.449	1260.25
1026.739	1218.22
1027.029	1223.87
1027.319	1193.81
1027.608	1202.62
1027.898	1182.74
1028.187	1190.42
1028.477	1166.92
1028.766	1187.26
1029.055	1156.3
1029.344	1155.62
1029.634	1140.93
1029.923	1139.57
1030.212	1134.6
1030.501	1131.67
1030.79	1133.47
1031.078	1124.66
1031.367	1115.62
1031.656	1080.14
1031.945	1116.52
1032.233	1086.47
1032.522	1062.29
1032.81	1074.94
1033.099	1070.42
1033.387	1066.13
1033.675	1032.01
1033.963	1023.19
1034.251	1041.05
1034.54	1024.55
1034.828	1054.61
1035.116	1028.84
1035.403	1015.06
1035.691	1002.63
1035.979	984.32
1036.267	961.95
1036.554	989.75
1036.842	978.9
1037.129	979.35
1037.417	977.77
1037.704	943.2
1037.992	956.53
1038.279	960.6
1038.566	921.95
1038.853	921.95
1039.14	921.95
