Data from hue_28_FLMS001491_00077.txt Node
Date: Tue Feb 07 17:17:47 GMT 2017
User: dcchb
Spectrometer: FLMS00149
Trigger mode: 0
Integration Time (sec): 2.000000E-2
Scans to average: 10
Electric dark correction enabled: true
Nonlinearity correction enabled: false
Boxcar width: 0
XAxis mode: Wavelengths
Number of Pixels in Spectrum: 2048
>>>>>Begin Spectral Data<<<<<
341.393	-6.33
341.776	-6.33
342.16	-6.33
342.543	-62.15
342.927	-51.3
343.31	-54.24
343.693	-63.05
344.077	-83.16
344.46	-65.31
344.843	-36.84
345.226	-24.63
345.61	-30.96
345.993	-36.61
346.376	-0.9
346.759	-5.42
347.142	40.45
347.525	42.03
347.908	48.36
348.291	75.48
348.674	95.82
349.057	98.98
349.44	142.6
349.823	147.57
350.206	158.41
350.588	198.41
350.971	205.87
351.354	210.39
351.737	247.68
352.119	238.64
352.502	264.63
352.884	270.05
353.267	260.33
353.65	309.82
354.032	284.74
354.414	308.47
354.797	313.89
355.179	322.48
355.562	320.67
355.944	314.57
356.326	335.36
356.709	314.79
357.091	347.11
357.473	345.3
357.855	352.31
358.238	346.88
358.62	357.28
359.002	347.34
359.384	332.65
359.766	348.92
360.148	339.88
360.53	347.79
360.912	360.22
361.294	328.35
361.676	344.4
362.057	314.12
362.439	336.04
362.821	311.63
363.203	336.26
363.584	326.55
363.966	321.35
364.348	345.98
364.729	319.31
365.111	312.76
365.493	306.88
365.874	321.8
366.256	319.09
366.637	313.89
367.019	311.63
367.4	329.48
367.781	336.04
368.163	327
368.544	314.79
368.925	308.92
369.306	314.57
369.688	296.72
370.069	303.49
370.45	328.13
370.831	337.62
371.212	317.96
371.593	337.17
371.974	310.95
372.355	324.29
372.736	322.48
373.117	335.81
373.498	319.54
373.879	303.04
374.26	299.88
374.641	324.06
375.021	321.57
375.402	314.34
375.783	309.14
376.163	324.06
376.544	334.91
376.925	333.78
377.305	317.28
377.686	316.15
378.066	334.91
378.447	354.34
378.827	323.61
379.208	321.12
379.588	321.8
379.968	321.35
380.349	345.75
380.729	327.22
381.109	350.95
381.489	348.47
381.87	331.06
382.25	348.92
382.63	345.53
383.01	336.71
383.39	346.66
383.77	333.1
384.15	350.73
384.53	345.53
384.91	343.72
385.29	365.87
385.67	337.17
386.049	367.22
386.429	345.08
386.809	374.23
387.189	352.76
387.568	365.41
387.948	348.47
388.328	360.22
388.707	367.22
389.087	359.31
389.466	373.55
389.846	370.61
390.225	386.66
390.605	345.98
390.984	361.35
391.363	364.51
391.743	375.13
392.122	363.15
392.501	380.55
392.881	380.33
393.26	374.45
393.639	388.92
394.018	364.51
394.397	373.32
394.776	384.17
395.155	373.78
395.534	371.52
395.913	386.43
396.292	393.21
396.671	381.23
397.05	380.1
397.429	372.87
397.808	387.11
398.186	416.94
398.565	390.27
398.944	397.73
399.323	405.64
399.701	408.12
400.08	405.64
400.458	410.38
400.837	414.23
401.215	403.83
401.594	418.07
401.972	412.42
402.351	411.74
402.729	402.02
403.107	428.69
403.486	425.98
403.864	421.23
404.242	418.07
404.62	427.11
404.999	414.23
405.377	439.76
405.755	424.4
406.133	421.68
406.511	418.75
406.889	418.29
407.267	441.8
407.645	435.24
408.023	444.06
408.401	452.64
408.779	444.51
409.156	443.15
409.534	443.38
409.912	440.21
410.29	467.33
410.667	445.86
411.045	478.86
411.422	455.58
411.8	472.98
412.178	484.73
412.555	452.64
412.933	486.09
413.31	468.46
413.687	463.26
414.065	484.51
414.442	458.07
414.819	505.52
415.197	465.3
415.574	510.04
415.951	498.74
416.328	489.48
416.705	494.9
417.082	512.75
417.46	492.19
417.837	511.85
418.214	498.74
418.591	481.57
418.967	521.79
419.344	515.47
419.721	537.39
420.098	525.64
420.475	526.09
420.852	498.29
421.228	563.6
421.605	554.56
421.982	534.9
422.358	560.66
422.735	550.49
423.111	549.36
423.488	573.77
423.864	569.93
424.241	575.35
424.617	556.14
424.994	570.15
425.37	572.64
425.746	567.67
426.123	588.23
426.499	564.05
426.875	592.75
427.251	593.43
427.627	570.83
428.003	601.34
428.379	603.15
428.756	585.97
429.132	587.33
429.507	606.99
429.883	607.89
430.259	622.36
430.635	618.06
431.011	644.95
431.387	649.02
431.763	668.91
432.138	634.56
432.514	645.63
432.89	651.73
433.265	671.85
433.641	655.8
434.016	651.06
434.392	668.46
434.767	687.44
435.143	693.54
435.518	679.08
435.894	717.27
436.269	704.16
436.644	712.98
437.02	722.01
437.395	733.09
437.77	735.57
438.145	732.86
438.52	710.26
438.895	753.2
439.271	743.94
439.646	765.18
440.021	770.38
440.395	738.51
440.77	764.95
441.145	778.28
441.52	780.77
441.895	795.69
442.27	764.95
442.645	755.46
443.019	786.42
443.394	783.71
443.769	788.45
444.143	796.82
444.518	798.85
444.892	767.89
445.267	829.58
445.641	806.31
446.016	830.71
446.39	834.78
446.764	845.4
447.139	842.92
447.513	844.05
447.887	851.73
448.262	846.98
448.636	857.38
449.01	859.86
449.384	869.36
449.758	842.69
450.132	863.25
450.506	869.36
450.88	877.72
451.254	904.16
451.628	893.76
452.002	923.82
452.376	912.97
452.75	925.85
453.123	931.27
453.497	941.22
453.871	945.74
454.244	944.61
454.618	952.52
454.992	959.75
455.365	986.19
455.739	971.05
456.112	986.64
456.486	999.75
456.859	1029.8
457.232	1018.28
457.606	1025.28
457.979	1037.49
458.352	1046.98
458.725	1061.67
459.099	1082.68
459.472	1077.26
459.845	1117.26
460.218	1090.59
460.591	1116.13
460.964	1124.49
461.337	1144.15
461.71	1141.44
462.083	1153.87
462.456	1164.04
462.829	1189.12
463.201	1189.12
463.574	1189.57
463.947	1193.19
464.32	1206.52
464.692	1249.68
465.065	1248.33
465.438	1289.91
465.81	1282.45
466.183	1293.07
466.555	1319.06
466.928	1329.46
467.3	1347.31
467.672	1348.21
468.045	1365.84
468.417	1381.88
468.789	1416.01
469.161	1438.15
469.534	1475.44
469.906	1467.08
470.278	1522.67
470.65	1522.22
471.022	1550.92
471.394	1570.13
471.766	1575.78
472.138	1616.68
472.51	1620.52
472.882	1649.22
473.253	1658.26
473.625	1700.52
473.997	1724.93
474.369	1748.2
474.74	1785.04
475.112	1807.41
475.484	1837.24
475.855	1892.15
476.227	1866.84
476.598	1905.26
476.97	1956.11
477.341	2013.96
477.713	2014.41
478.084	2073.62
478.455	2134.63
478.827	2145.71
479.198	2230.22
479.569	2235.42
479.94	2290.79
480.311	2340.5
480.682	2412.82
481.053	2450.78
481.424	2528.3
481.795	2514.74
482.166	2562.42
482.537	2620.5
482.908	2654.85
483.279	2732.81
483.65	2733.94
484.021	2846.93
484.391	2857.55
484.762	2878.79
485.133	2980.03
485.503	3008.06
485.874	3047.38
486.244	3119.47
486.615	3196.3
486.985	3271.55
487.356	3352.91
487.726	3344.09
488.097	3432.23
488.467	3465.67
488.837	3517.42
489.207	3574.14
489.578	3617.31
489.948	3685.55
490.318	3764.87
490.688	3814.14
491.058	3821.37
491.428	3939.33
491.798	3977.3
492.168	4050.51
492.538	4123.28
492.908	4146.56
493.278	4223.39
493.648	4284.63
494.017	4338.42
494.387	4341.35
494.757	4356.72
495.126	4454.57
495.496	4477.85
495.866	4538.19
496.235	4605.3
496.605	4691.63
496.974	4672.19
497.344	4797.61
497.713	4785.18
498.082	4777.73
498.452	4901.11
498.821	4927.1
499.19	4909.48
499.559	4995.12
499.928	5041.22
500.298	5104.95
500.667	5107.21
501.036	5088.45
501.405	5192.86
501.774	5155.57
502.143	5294.55
502.512	5275.79
502.88	5401.67
503.249	5362.57
503.618	5414.55
503.987	5406.64
504.356	5498.39
504.724	5469.23
505.093	5485.73
505.462	5554.43
505.83	5639.63
506.199	5621.32
506.567	5659.51
506.936	5706.52
507.304	5814.76
507.672	5832.61
508.041	5807.98
508.409	5893.86
508.777	5899.96
509.145	5946.28
509.514	5952.61
509.882	5987.64
510.25	5992.16
510.618	5985.15
510.986	6085.49
511.354	6069.67
511.722	6175.66
512.09	6135.43
512.458	6191.7
512.826	6252.94
513.193	6264.69
513.561	6233.06
513.929	6301.76
514.297	6423.79
514.664	6384.69
515.032	6441.41
515.4	6450.45
515.767	6498.81
516.135	6546.49
516.502	6521.86
516.869	6585.59
517.237	6576.55
517.604	6568.41
517.972	6639.37
518.339	6758.47
518.706	6667.4
519.073	6692.48
519.44	6773.83
519.808	6775.19
520.175	6791.91
520.542	6842.76
520.909	6950.33
521.276	6939.48
521.643	6957.33
522.009	7015.86
522.376	7064.67
522.743	7087.05
523.11	7108.97
523.477	7168.63
523.843	7178.79
524.21	7317.55
524.577	7279.36
524.943	7356.64
525.31	7350.99
525.676	7414.04
526.043	7424.89
526.409	7468.5
526.776	7554.6
527.142	7576.52
527.508	7589.4
527.874	7704.88
528.241	7668.05
528.607	7747.37
528.973	7810.19
529.339	7808.83
529.705	7877.98
530.071	7952.33
530.437	8001.15
530.803	7894.03
531.169	8101.48
531.535	8010.18
531.901	8051.31
532.267	8068.71
532.632	8176.06
532.998	8162.27
533.364	8189.16
533.73	8268.71
534.095	8347.35
534.461	8317.52
534.826	8393
535.192	8451.53
535.557	8584.86
535.923	8442.94
536.288	8513
536.653	8639.55
537.019	8548.02
537.384	8597.97
537.749	8645.65
538.114	8640.9
538.479	8717.28
538.845	8762.48
539.21	8768.13
539.575	8775.81
539.94	8785.76
540.305	8879.09
540.67	8934.91
541.034	8909.82
541.399	8907.11
541.764	8963.38
542.129	9042.7
542.494	9046.54
542.858	9160.89
543.223	9138.52
543.587	9207.22
543.952	9228.46
544.316	9212.41
544.681	9260.32
545.045	9310.72
545.41	9380.54
545.774	9378.96
546.138	9406.08
546.503	9435.23
546.867	9396.14
547.231	9616.24
547.595	9553.42
547.959	9614.44
548.324	9631.16
548.688	9612.4
549.052	9659.63
549.416	9704.6
549.779	9718.61
550.143	9724.94
550.507	9768.1
550.871	9853.75
551.235	9845.16
551.599	9929.91
551.962	9997.25
552.326	9951.6
552.689	10015.78
553.053	9972.62
553.417	10086.06
553.78	10177.59
554.143	10107.76
554.507	10238.37
554.87	10255.55
555.234	10306.17
555.597	10250.35
555.96	10356.79
556.323	10371.7
556.686	10344.36
557.05	10430.01
557.413	10404.92
557.776	10412.83
558.139	10581.19
558.502	10541.42
558.865	10560.17
559.228	10599.04
559.59	10623
559.953	10665.26
560.316	10794.52
560.679	10731.47
561.041	10840.17
561.404	10841.97
561.767	10863.44
562.129	10923.55
562.492	10918.58
562.854	10904.8
563.217	10957.45
563.579	11002.42
563.941	11094.4
564.304	11189.31
564.666	11229.99
565.028	11237.22
565.39	11241.06
565.753	11292.13
566.115	11328.29
566.477	11365.12
566.839	11440.15
567.201	11463.43
567.563	11506.36
567.925	11559.7
568.287	11589.98
568.648	11588.4
569.01	11713.59
569.372	11735.74
569.734	11733.93
570.095	11854.83
570.457	11882.4
570.819	11937.54
571.18	11945
571.542	12079.46
571.903	12069.06
572.265	12180.47
572.626	12109.29
572.987	12228.38
573.349	12393.12
573.71	12334.82
574.071	12389.96
574.432	12534.59
574.794	12582.49
575.155	12551.99
575.516	12654.81
575.877	12785.43
576.238	12859.77
576.599	12901.13
576.96	12956.27
577.32	13067
577.681	13178.41
578.042	13372.98
578.403	13362.59
578.763	13528.46
579.124	13612.98
579.485	13708.11
579.845	13921.44
580.206	13986.07
580.566	14098.61
580.927	14286.4
581.287	14412.5
581.648	14533.86
582.008	14710.8
582.368	14880.96
582.728	15063.56
583.089	15162.31
583.449	15292.25
583.809	15480.72
584.169	15756.42
584.529	15813.37
584.889	16188.05
585.249	16218.1
585.609	16409.74
585.969	16781.48
586.329	16884.98
586.688	17104.41
587.048	17243.84
587.408	17455.13
587.768	17712.3
588.127	18001.11
588.487	18252.63
588.846	18644.26
589.206	18759.96
589.565	18941.87
589.925	19368.98
590.284	19567.17
590.643	19712.93
591.003	20225.91
591.362	20559.46
591.721	20779.11
592.08	21025.21
592.44	21327.35
592.799	21558.3
593.158	21851.85
593.517	22185.86
593.876	22528.22
594.235	22692.06
594.593	23114.87
594.952	23375.2
595.311	23562.54
595.67	23946.49
596.029	24319.59
596.387	24539.69
596.746	24874.83
597.104	25059.68
597.463	25382.84
597.822	25757.74
598.18	25864.18
598.538	26155.7
598.897	26551.62
599.255	26732.63
599.613	27378.72
599.972	27481.99
600.33	27773.73
600.688	27927.85
601.046	28339.14
601.404	28650.32
601.762	28873.37
602.12	29249.4
602.478	29550.64
602.836	29822.04
603.194	29903.85
603.552	30171.41
603.91	30412.08
604.268	30913.09
604.625	30901.79
604.983	31345.39
605.341	31616.12
605.698	31766.17
606.056	32156.44
606.413	32317.79
606.771	32511.01
607.128	32749.2
607.485	32905.35
607.843	33152.35
608.2	33462.85
608.557	33698.1
608.914	33831.2
609.272	34150.74
609.629	34355.25
609.986	34658.07
610.343	34659.43
610.7	35073.88
611.057	35182.35
611.414	35436.58
611.771	35635.45
612.127	35900.52
612.484	36006.28
612.841	36161.76
613.198	36259.61
613.554	36531.24
613.911	36877.45
614.267	36983.66
614.624	37049.42
614.98	37273.37
615.337	37595.85
615.693	37697.09
616.05	37832.23
616.406	38168.94
616.762	38074.93
617.118	38156.74
617.475	38374.13
617.831	38595.82
618.187	38723.28
618.543	39029.03
618.899	39122.14
619.255	39121.46
619.611	39152.64
619.967	39494.55
620.323	39544.95
620.678	39519.64
621.034	39692.74
621.39	39695
621.746	39728.45
622.101	40263.8
622.457	40006.86
622.812	40228.09
623.168	40257.25
623.523	40443.68
623.879	40638.71
624.234	40497.92
624.589	40689.55
624.945	40871.69
625.3	40941.3
625.655	40900.39
626.01	41108.3
626.365	40925.93
626.72	41098.81
627.075	41177.22
627.43	41153.95
627.785	41176.32
628.14	41254.51
628.495	41392.36
628.85	41513.26
629.205	41287.95
629.559	41454.28
629.914	41251.12
630.269	41616.08
630.623	41458.12
630.978	41429.65
631.332	41638.45
631.687	41736.53
632.041	41660.15
632.396	41753.48
632.75	41668.28
633.104	41859.69
633.459	41705.34
633.813	41819.24
634.167	41688.4
634.521	41712.35
634.875	41825.57
635.229	41713.03
635.583	41663.76
635.937	41707.38
636.291	41866.24
636.645	41766.36
636.999	41732.69
637.352	41875.51
637.706	41588.96
638.06	41815.85
638.413	41683.2
638.767	41597.55
639.121	41706.25
639.474	41484.11
639.828	41558.23
640.181	41755.06
640.534	41516.2
640.888	41478.01
641.241	41462.19
641.594	41482.75
641.947	41593.93
642.301	41532.69
642.654	41565.91
643.007	41713.93
643.36	41619.47
643.713	41558.46
644.066	41765.23
644.419	41370.21
644.771	41259.03
645.124	40887.74
645.477	40860.62
645.83	40677.8
646.182	40490.91
646.535	40399.39
646.888	40462.44
647.24	40227.87
647.593	40499.27
647.945	40335.21
648.298	40232.16
648.65	40247.76
649.002	40034.65
649.355	40345.61
649.707	40358.03
650.059	40384.47
650.411	40891.13
650.763	40806.84
651.115	41254.51
651.467	41094.74
651.819	41142.2
652.171	40961.86
652.523	40900.85
652.875	41040.05
653.227	40804.12
653.578	41075.98
653.93	40973.39
654.282	40810
654.633	40954.63
654.985	40955.31
655.337	40889.32
655.688	40992.59
656.039	41078.92
656.391	40570.46
656.742	40775.43
657.094	40715.31
657.445	40949.88
657.796	40764.13
658.147	40794.41
658.498	40780.4
658.849	40938.58
659.2	40824.92
659.551	40703.56
659.902	40921.18
660.253	40844.12
660.604	40992.37
660.955	40609.55
661.306	40815.88
661.656	40647.29
662.007	40758.7
662.358	40725.48
662.708	40697.24
663.059	40798.7
663.409	40433.29
663.76	40831.69
664.11	40762.54
664.461	40650.46
664.811	40713.28
665.161	40734.97
665.511	40537.24
665.862	40596.45
666.212	40681.42
666.562	40772.26
666.912	40690.68
667.262	40535.88
667.612	40628.76
667.962	40634.64
668.312	40643
668.662	40806.38
669.011	40666.28
669.361	40648.65
669.711	40593.73
670.06	40533.17
670.41	40450.24
670.76	40561.42
671.109	40700.17
671.459	40504.02
671.808	40413.4
672.157	40474.19
672.507	40294.08
672.856	40284.14
673.205	40335.89
673.554	40570.46
673.904	40292.5
674.253	40583.79
674.602	40443
674.951	39807.77
675.3	39660.2
675.649	40281.43
675.998	40219.96
676.346	40168.44
676.695	40448.2
677.044	40086.86
677.393	40268.09
677.741	40226.96
678.09	40141.32
678.438	40078.72
678.787	40088.66
679.135	40128.66
679.484	39877.6
679.832	40003.47
680.181	39804.38
680.529	39893.64
680.877	39804.6
681.225	39838.73
681.573	39959.85
681.922	39645.29
682.27	39554.21
682.618	39646.64
682.966	39437.38
683.314	39621.78
683.661	39530.71
684.009	39304.5
684.357	39203.94
684.705	39241.68
685.053	39276.48
685.4	39255.24
685.748	39100.21
686.095	39106.77
686.443	38879.88
686.79	38937.73
687.138	38968.92
687.485	38989.48
687.832	38735.03
688.18	38885.98
688.527	38605.99
688.874	38547.24
689.221	38495.48
689.568	38442.15
689.915	38290.74
690.262	38404.41
690.609	38205.55
690.956	38187.7
691.303	38123.97
691.65	37828.61
691.997	37893.92
692.344	37656.19
692.69	37775.28
693.037	37578.9
693.383	37305.23
693.73	37474.95
694.077	37338.91
694.423	37182.07
694.769	37246.48
695.116	37090.32
695.462	37123.77
695.808	36924.9
696.155	37025.24
696.501	36744.57
696.847	36707.28
697.193	36459.38
697.539	36554.29
697.885	36334.64
698.231	36110.01
698.577	36372.83
698.923	36192.72
699.269	36097.13
699.614	35757.25
699.96	35734.65
700.306	35837.25
700.651	35740.98
700.997	35557.71
701.342	35493.08
701.688	35538.95
702.033	35385.51
702.379	35321.33
702.724	35218.06
703.069	35343.7
703.415	34870.72
703.76	35019.64
704.105	35053.54
704.45	34919.53
704.795	34607.9
705.14	34645.42
705.485	34733.78
705.83	34315.48
706.175	34449.04
706.52	34270.29
706.865	34239.33
707.209	34117.07
707.554	33970.86
707.899	34310.06
708.243	33821.48
708.588	33909.39
708.932	33595.73
709.277	33840.47
709.621	33685.89
709.966	33420.14
710.31	33611.32
710.654	33213.82
710.998	33294.04
711.342	33322.97
711.687	33126.36
712.031	33187.83
712.375	33040.49
712.719	33103.31
713.063	33006.59
713.407	33038.23
713.75	32890.21
714.094	32811.11
714.438	32665.13
714.782	32634.4
715.125	32568.86
715.469	32591.91
715.812	32365.25
716.156	32272.6
716.499	32358.25
716.843	32352.14
717.186	32208.64
717.53	32409.77
717.873	32236.89
718.216	32190.11
718.559	32017.24
718.902	31718.94
719.246	31957.8
719.589	31750.13
719.932	31755.1
720.275	31722.1
720.617	31664.7
720.96	31511.94
721.303	31516.69
721.646	31543.8
721.989	31491.38
722.331	31399.85
722.674	31331.15
723.016	31357.37
723.359	31355.79
723.701	31361.66
724.044	31038.28
724.386	31035.57
724.729	31178.62
725.071	31086.64
725.413	30993.99
725.755	30960.09
726.097	30840.09
726.439	30707.89
726.782	30732.3
727.124	30809.13
727.465	30691.62
727.807	30569.37
728.149	30589.03
728.491	30622.47
728.833	30636.26
729.175	30484.85
729.516	30503.83
729.858	30373.21
730.199	30455.92
730.541	30277.4
730.882	30270.62
731.224	30409.37
731.565	30236.04
731.906	30171.64
732.248	30151.98
732.589	30038.98
732.93	29901.13
733.271	29981.81
733.612	29964.64
733.953	30027.23
734.294	29965.31
734.635	29711.54
734.976	29830.63
735.317	29720.57
735.658	29545.89
735.999	29664.3
736.339	29589.73
736.68	29558.32
737.021	29497.3
737.361	29373.69
737.702	29525.1
738.042	29439.68
738.383	29306.35
738.723	29398.1
739.063	29258.67
739.404	29349.28
739.744	29139.8
740.084	29144.54
740.424	29274.48
740.764	29085.56
741.104	29153.36
741.444	28989.97
741.784	28888.96
742.124	29017.54
742.464	28917.21
742.804	28878.11
743.143	28708.17
743.483	28799.24
743.823	28684.22
744.162	28614.16
744.502	28732.13
744.841	28616.2
745.181	28625.46
745.52	28421.63
745.86	28437.22
746.199	28523.54
746.538	28454.62
746.877	28522.64
747.216	28521.51
747.556	28352.02
747.895	28394.96
748.234	28422.76
748.573	28293.27
748.911	28080.39
749.25	28137.11
749.589	27990
749.928	28032.26
750.267	28014.63
750.605	27940.28
750.944	27956.33
751.283	27830.23
751.621	27906.16
751.96	27847.18
752.298	27734.64
752.636	27724.92
752.975	27633.62
753.313	27527.86
753.651	27533.97
753.989	27561.76
754.327	27315.89
754.666	27384.82
755.004	27456.91
755.342	27289.9
755.679	27086.97
756.017	27105.28
756.355	27104.37
756.693	27076.8
757.031	26985.51
757.368	26932.85
757.706	26893.3
758.044	26859.41
758.381	26898.73
758.719	26699.41
759.056	26691.5
759.394	26714.1
759.731	26368.8
760.068	26376.26
760.405	26269.37
760.743	26241.34
761.08	26337.61
761.417	26068.47
761.754	25991.18
762.091	26090.16
762.428	25926.1
762.765	25789.38
763.102	25967.23
763.438	25781.92
763.775	25700.34
764.112	25635.71
764.449	25640.46
764.785	25542.61
765.122	25246.34
765.458	25296.06
765.795	25191.88
766.131	25250.86
766.467	25136.74
766.804	25040.47
767.14	24861.95
767.476	24848.39
767.812	24729.75
768.148	24828.27
768.485	24567.72
768.821	24564.1
769.157	24530.65
769.492	24325.91
769.828	24280.94
770.164	24201.62
770.5	24117.78
770.836	24072.59
771.171	23999.82
771.507	23855.42
771.842	23725.03
772.178	23813.61
772.513	23694.52
772.849	23542.88
773.184	23529.78
773.519	23559.15
773.855	23418.37
774.19	23143.8
774.525	23098.83
774.86	23114.87
775.195	23141.76
775.53	22891.38
775.865	22894.77
776.2	22612.06
776.535	22537.03
776.87	22605.51
777.205	22491.84
777.539	22362.35
777.874	22475.57
778.209	22173.43
778.543	22123.94
778.878	21973.89
779.212	22068.12
779.547	21832.65
779.881	21980.89
780.215	21754.46
780.55	21859.76
780.884	21664.29
781.218	21595.14
781.552	21627.45
781.886	21450.51
782.22	21274.24
782.554	21196.96
782.888	21034.48
783.222	21025.44
783.556	20990.63
783.889	20897.53
784.223	20788.15
784.557	20742.05
784.89	20744.09
785.224	20614.83
785.557	20529.4
785.891	20546.13
786.224	20440.14
786.558	20303.65
786.891	20145.68
787.224	20158.34
787.557	20008.06
787.891	20019.81
788.224	19963.99
788.557	19974.39
788.89	19832.25
789.223	19889.65
789.556	19712.93
789.888	19693.27
790.221	19562.65
790.554	19456.89
790.887	19420.73
791.219	19458.02
791.552	19358.14
791.884	19303
792.217	19165.82
792.549	19211.02
792.882	19047.41
793.214	18953.17
793.546	18991.82
793.879	18871.59
794.211	18761.54
794.543	18803.8
794.875	18681.09
795.207	18740.52
795.539	18576.23
795.871	18647.87
796.203	18469.12
796.535	18392.51
796.867	18327.43
797.198	18279.97
797.53	18243.36
797.862	18134.44
798.193	18175.34
798.525	18109.13
798.856	18013.31
799.188	17815.35
799.519	17869.13
799.85	17854.22
800.182	17725.41
800.513	17798.18
800.844	17516.83
801.175	17668.24
801.506	17618.07
801.837	17496.04
802.168	17470.5
802.499	17473.21
802.83	17357.96
803.161	17149.15
803.491	17199.77
803.822	17164.52
804.153	17105.54
804.483	17022.15
804.814	16947.8
805.145	16882.72
805.475	16809.73
805.805	16813.12
806.136	16894.92
806.466	16830.52
806.796	16730.86
807.126	16643.63
807.457	16584.87
807.787	16559.56
808.117	16537.19
808.447	16501.04
808.777	16523.63
809.107	16399.12
809.436	16357.31
809.766	16291.32
810.096	16297.65
810.426	16254.04
810.755	16168.61
811.085	16168.16
811.414	15998
811.744	15967.94
812.073	16073.93
812.403	16016.3
812.732	15878.9
813.061	15833.26
813.39	15819.7
813.719	15711.68
814.049	15841.84
814.378	15709.87
814.707	15710.1
815.036	15687.27
815.365	15610.21
815.693	15450.22
816.022	15477.33
816.351	15366.15
816.68	15290.45
817.008	15374.51
817.337	15274.85
817.665	15189.88
817.994	15226.49
818.322	15152.82
818.651	15092.26
818.979	15094.74
819.307	15163.22
819.636	15034.41
819.964	14988.53
820.292	15034.41
820.62	15012.94
820.948	15071.69
821.276	14986.27
821.604	14984.92
821.932	14972.04
822.259	14958.7
822.587	14865.82
822.915	14891.36
823.243	15006.39
823.57	14851.13
823.898	14920.51
824.225	14893.85
824.553	14903.56
824.88	14873.51
825.207	14884.35
825.535	14821.31
825.862	14939.27
826.189	14797.58
826.516	14889.1
826.843	14961.41
827.17	14831.7
827.497	14943.34
827.824	14856.33
828.151	14916.67
828.478	14878.93
828.805	14990.79
829.131	14911.92
829.458	14880.06
829.785	14779.5
830.111	14763.23
830.438	14841.42
830.764	14845.03
831.09	14845.03
831.417	14773.4
831.743	14869.21
832.069	14844.36
832.395	14730.91
832.722	14814.07
833.048	14733.4
833.374	14748.54
833.7	14710.57
834.026	14702.89
834.351	14661.08
834.677	14673.06
835.003	14703.57
835.329	14663.57
835.654	14611.82
835.98	14556.68
836.306	14603.68
836.631	14593.74
836.956	14597.81
837.282	14546.51
837.607	14459.51
837.932	14508.55
838.258	14339.96
838.583	14532.73
838.908	14364.59
839.233	14353.75
839.558	14313.75
839.883	14340.41
840.208	14213.19
840.533	14268.55
840.858	14198.95
841.182	14339.74
841.507	14246.18
841.832	14170.93
842.156	14159.4
842.481	14119.63
842.805	14080.31
843.13	14066.07
843.454	14081.21
843.778	13919.18
844.103	14015.9
844.427	13899.07
844.751	13911.05
845.075	13939.29
845.399	13763.25
845.723	13732.07
846.047	13740.88
846.371	13645.52
846.695	13654.1
847.019	13541.11
847.343	13525.52
847.666	13398.97
847.99	13405.3
848.313	13309.48
848.637	13256.37
848.96	13217.73
849.284	13218.64
849.607	13158.52
849.931	13052.09
850.254	12977.96
850.577	12986.33
850.9	12831.53
851.223	12836.27
851.546	12795.14
851.869	12728.7
852.192	12759.21
852.515	12628.14
852.838	12590.4
853.161	12558.31
853.483	12559.9
853.806	12413.91
854.129	12395.61
854.451	12355.16
854.774	12321.26
855.096	12324.42
855.419	12276.74
855.741	12241.71
856.063	12295.27
856.385	12170.53
856.708	12176.18
857.03	12109.29
857.352	12098.44
857.674	11979.35
857.996	11864.09
858.318	11827.71
858.64	11883.53
858.961	11815.96
859.283	11906.35
859.605	11811.89
859.926	11769.18
860.248	11702.07
860.57	11756.53
860.891	11698.45
861.212	11649.41
861.534	11590.66
861.855	11622.29
862.176	11610.32
862.498	11580.03
862.819	11523.76
863.14	11496.87
863.461	11463.2
863.782	11404.9
864.103	11464.33
864.424	11448.06
864.745	11395.63
865.065	11294.39
865.386	11336.2
865.707	11305.01
866.027	11352.24
866.348	11295.52
866.668	11229.76
866.989	11250.1
867.309	11236.31
867.63	11254.17
867.95	11194.96
868.27	11095.53
868.59	11093.49
868.91	11087.84
869.23	11064.34
869.55	11015.53
869.87	11056.43
870.19	11085.36
870.51	11015.53
870.83	11042.42
871.15	10956.55
871.469	10947.73
871.789	10961.29
872.109	10974.63
872.428	10893.5
872.748	10908.41
873.067	10906.38
873.386	10873.84
873.706	10846.95
874.025	10861.18
874.344	10757.68
874.663	10820.05
874.982	10776.67
875.301	10774.63
875.62	10661.64
875.939	10707.97
876.258	10689.89
876.577	10677.91
876.896	10742.54
877.214	10555.88
877.533	10568.31
877.852	10677.23
878.17	10604.92
878.489	10607.63
878.807	10573.51
879.125	10532.6
879.444	10465.26
879.762	10513.62
880.08	10451.7
880.398	10434.75
880.716	10410.12
881.034	10414.64
881.352	10369.9
881.67	10392.72
881.988	10335.1
882.306	10389.56
882.624	10284.7
882.941	10283.57
883.259	10239.96
883.577	10152.05
883.894	10220.97
884.212	10163.57
884.529	10207.42
884.846	10062.79
885.164	10132.39
885.481	10117.7
885.798	10108.89
886.115	10046.29
886.432	9990.7
886.75	9913.64
887.067	10044.03
887.383	9971.04
887.7	9919.29
888.017	9864.15
888.334	9901.89
888.651	9863.47
888.967	9891.27
889.284	9765.39
889.6	9799.06
889.917	9679.75
890.233	9733.53
890.55	9617.15
890.866	9647.43
891.182	9683.81
891.498	9664.6
891.815	9586.64
892.131	9510.26
892.447	9486.53
892.763	9503.93
893.079	9428.68
893.395	9417.61
893.71	9403.14
894.026	9420.32
894.342	9345.07
894.657	9311.62
894.973	9340.77
895.289	9268.91
895.604	9312.98
895.92	9197.05
896.235	9225.97
896.55	9134.45
896.865	9131.06
897.181	9069.82
897.496	9096.03
897.811	9053.1
898.126	9007.67
898.441	8948.01
898.756	8958.63
899.071	8897.85
899.386	8870.73
899.7	8792.99
900.015	8861.91
900.33	8745.76
900.644	8776.27
900.959	8722.71
901.273	8662.15
901.588	8635.03
901.902	8647.46
902.216	8606.55
902.531	8490.17
902.845	8561.13
903.159	8461.25
903.473	8549.83
903.787	8412.43
904.101	8366.11
904.415	8378.99
904.729	8356.16
905.042	8331.76
905.356	8359.33
905.67	8278.2
905.984	8232.55
906.297	8237.98
906.611	8125.66
906.924	8113.91
907.237	8112.1
907.551	8132.22
907.864	8021.03
908.177	8034.59
908.491	8046.12
908.804	7917.31
909.117	7911.2
909.43	7939.45
909.743	7833.01
910.056	7830.98
910.368	7758.89
910.681	7700.14
910.994	7726.12
911.307	7668.95
911.619	7683.64
911.932	7658.56
912.244	7557.09
912.557	7577.43
912.869	7488.84
913.181	7480.71
913.494	7467.15
913.806	7348.73
914.118	7360.94
914.43	7338.34
914.742	7359.58
915.054	7362.74
915.366	7271.9
915.678	7217.21
915.99	7146.93
916.302	7197.1
916.613	7178.79
916.925	7134.95
917.236	7057.67
917.548	7075.07
917.859	7037.56
918.171	7050.21
918.482	6998.46
918.794	6958.69
919.105	6897.67
919.416	6833.27
919.727	6867.84
920.038	6852.7
920.349	6813.38
920.66	6765.47
920.971	6782.65
921.282	6750.56
921.593	6671.46
921.903	6653.84
922.214	6614.52
922.525	6652.93
922.835	6624.23
923.146	6518.47
923.456	6565.7
923.767	6511.69
924.077	6496.33
924.387	6422.2
924.697	6415.42
925.008	6387.85
925.318	6398.25
925.628	6307.86
925.938	6314.18
926.248	6219.27
926.558	6273.28
926.867	6217.01
927.177	6224.02
927.487	6195.77
927.796	6122.78
928.106	6177.01
928.416	6124.13
928.725	6138.6
929.034	6032.84
929.344	6014.76
929.653	6045.72
929.962	5958.04
930.271	5962.78
930.581	5931.6
930.89	5904.93
931.199	5868.09
931.508	5843.01
931.817	5832.16
932.125	5809.11
932.434	5796.01
932.743	5761.2
933.051	5696.12
933.36	5686.4
933.669	5685.27
933.977	5623.58
934.286	5627.2
934.594	5620.42
934.902	5512.62
935.21	5495.67
935.519	5524.83
935.827	5527.99
936.135	5485.05
936.443	5442.34
936.751	5367.77
937.059	5387.88
937.367	5391.27
937.674	5384.04
937.982	5379.52
938.29	5333.65
938.597	5283.02
938.905	5274.66
939.213	5270.37
939.52	5212.07
939.827	5186.76
940.135	5184.27
940.442	5151.05
940.749	5121.9
941.056	5140.2
941.363	5065.4
941.67	5080.77
941.977	5019.08
942.284	4991.73
942.591	4988.8
942.898	4965.07
943.205	4939.76
943.511	4940.21
943.818	4935.92
944.125	4881.23
944.431	4892.07
944.738	4885.07
945.044	4877.84
945.35	4851.17
945.657	4791.74
945.963	4783.15
946.269	4750.61
946.575	4773.89
946.881	4727.33
947.187	4691.4
947.493	4674.91
947.799	4718.29
948.105	4641.91
948.41	4610.5
948.716	4619.54
949.022	4555.81
949.327	4531.18
949.633	4472.42
949.938	4497.51
950.244	4501.35
950.549	4509.49
950.854	4452.54
951.16	4434.46
951.465	4391.07
951.77	4406.44
952.075	4359.43
952.38	4337.29
952.685	4373.44
952.99	4298.42
953.294	4275.37
953.599	4233.79
953.904	4252.54
954.209	4224.52
954.513	4253.45
954.818	4231.08
955.122	4176.84
955.426	4176.39
955.731	4141.59
956.035	4117.18
956.339	4121.7
956.643	4110.17
956.948	4044.64
957.252	4061.36
957.556	4067.46
957.86	4039.22
958.163	4063.17
958.467	4017.07
958.771	3997.18
959.075	3946.56
959.378	3888.71
959.682	3951.53
959.985	3937.07
960.289	3899.56
960.592	3874.47
960.896	3822.95
961.199	3842.84
961.502	3835.61
961.805	3822.95
962.108	3753.35
962.411	3751.31
962.714	3794.7
963.017	3771.2
963.32	3733.91
963.623	3746.12
963.926	3700.47
964.228	3706.8
964.531	3639.68
964.833	3669.51
965.136	3595.16
965.438	3608.94
965.741	3594.93
966.043	3574.14
966.345	3551.09
966.648	3534.82
966.95	3586.35
967.252	3506.57
967.554	3521.49
967.856	3527.82
968.158	3505.9
968.46	3469.29
968.761	3448.95
969.063	3441.94
969.365	3434.71
969.666	3406.24
969.968	3356.07
970.269	3394.94
970.571	3380.02
970.872	3289.41
971.174	3341.61
971.475	3324.88
971.776	3311.55
972.077	3302.51
972.378	3306.58
972.679	3272.46
972.98	3264.09
973.281	3244.66
973.582	3200.82
973.883	3222.74
974.183	3213.7
974.484	3183.42
974.785	3139.58
975.085	3164.89
975.386	3109.75
975.686	3128.28
975.986	3126.02
976.287	3106.58
976.587	3066.59
976.887	3099.13
977.187	3016.87
977.487	3061.84
977.787	3016.87
978.087	2998.79
978.387	2987.94
978.687	3006.25
978.987	2988.17
979.286	2935.74
979.586	2958.57
979.885	2901.17
980.185	2935.29
980.484	2883.31
980.784	2883.31
981.083	2850.32
981.382	2879.47
981.682	2878.57
981.981	2848.29
982.28	2839.25
982.579	2762.87
982.878	2780.04
983.177	2779.81
983.475	2772.13
983.774	2762.64
984.073	2740.94
984.372	2712.7
984.67	2713.15
984.969	2703.43
985.267	2712.47
985.566	2707.05
985.864	2651
986.162	2693.49
986.461	2651.91
986.759	2641.74
987.057	2599.03
987.355	2594.06
987.653	2611
987.951	2604
988.249	2567.39
988.547	2543.44
988.844	2556.77
989.142	2549.99
989.44	2535.07
989.737	2524.45
990.035	2501.86
990.332	2517.67
990.63	2512.02
990.927	2500.5
991.224	2472.48
991.521	2488.97
991.819	2472.93
992.116	2454.85
992.413	2431.12
992.71	2422.54
993.006	2385.02
993.303	2416.89
993.6	2375.98
993.897	2399.03
994.193	2379.6
994.49	2325.36
994.787	2332.14
995.083	2335.98
995.379	2321.52
995.676	2325.14
995.972	2290.79
996.268	2272.26
996.565	2268.19
996.861	2266.83
997.157	2233.39
997.453	2235.87
997.749	2230
998.044	2211.02
998.34	2221.86
998.636	2205.14
998.932	2191.58
999.227	2161.98
999.523	2165.14
999.818	2136.22
1000.114	2121.53
1000.409	2121.07
1000.704	2122.66
1001	2131.47
1001.295	2065.48
1001.59	2068.42
1001.885	2088.31
1002.18	2052.15
1002.475	2066.39
1002.77	2055.54
1003.065	2002.21
1003.359	2026.61
1003.654	2023.45
1003.949	2005.6
1004.243	2002.89
1004.538	1959.95
1004.832	1951.59
1005.127	1945.26
1005.421	1938.48
1005.715	1948.2
1006.009	1917.92
1006.304	1894.41
1006.598	1931.47
1006.892	1877.24
1007.186	1857.13
1007.48	1853.06
1007.773	1831.82
1008.067	1853.96
1008.361	1836.11
1008.655	1859.61
1008.948	1826.62
1009.242	1835.66
1009.535	1814.42
1009.829	1771.25
1010.122	1768.99
1010.415	1776
1010.708	1758.82
1011.001	1779.16
1011.295	1743.01
1011.588	1755.66
1011.881	1706.4
1012.173	1707.75
1012.466	1702.33
1012.759	1670.24
1013.052	1693.51
1013.344	1651.93
1013.637	1634.99
1013.93	1652.16
1014.222	1619.62
1014.514	1607.19
1014.807	1622.33
1015.099	1610.13
1015.391	1607.42
1015.683	1596.34
1015.976	1583.69
1016.268	1612.84
1016.56	1551.37
1016.851	1556.12
1017.143	1550.92
1017.435	1528.32
1017.727	1532.16
1018.018	1520.86
1018.31	1513.18
1018.602	1495.55
1018.893	1472.96
1019.185	1457.14
1019.476	1496.68
1019.767	1468.66
1020.058	1476.12
1020.35	1427.08
1020.641	1416.69
1020.932	1423.92
1021.223	1413.3
1021.514	1385.73
1021.804	1387.76
1022.095	1367.42
1022.386	1371.49
1022.677	1372.17
1022.967	1364.71
1023.258	1396.12
1023.548	1352.28
1023.839	1337.37
1024.129	1345.5
1024.419	1327.2
1024.709	1306.41
1025	1297.14
1025.29	1305.73
1025.58	1282.23
1025.87	1281.1
1026.16	1243.13
1026.449	1260.08
1026.739	1256.01
1027.029	1270.93
1027.319	1242.68
1027.608	1223.24
1027.898	1216.47
1028.187	1211.72
1028.477	1216.47
1028.766	1174.88
1029.055	1181.21
1029.344	1185.51
1029.634	1188.9
1029.923	1150.7
1030.212	1166.3
1030.501	1149.35
1030.79	1159.52
1031.078	1131.04
1031.367	1109.58
1031.656	1128.33
1031.945	1137.37
1032.233	1107.09
1032.522	1117.03
1032.81	1068.9
1033.099	1065.96
1033.387	1082.23
1033.675	1050.14
1033.963	1071.38
1034.251	1060.54
1034.54	1072.29
1034.828	1039.52
1035.116	1035.9
1035.403	1023.02
1035.691	1039.29
1035.979	1025.06
1036.267	1017.6
1036.554	994.1
1036.842	977.83
1037.129	983.25
1037.417	990.26
1037.704	975.34
1037.992	976.25
1038.279	961.78
1038.566	948.9
1038.853	948.9
1039.14	948.9
