Data from hue_70_FLMS001491_10.txt Node
Date: Mon Feb 06 15:20:00 GMT 2017
User: dcchb
Spectrometer: FLMS00149
Trigger mode: 0
Integration Time (sec): 2.000000E-2
Scans to average: 10
Electric dark correction enabled: true
Nonlinearity correction enabled: false
Boxcar width: 0
XAxis mode: Wavelengths
Number of Pixels in Spectrum: 2048
>>>>>Begin Spectral Data<<<<<
341.393	6.03
341.776	6.03
342.16	6.03
342.543	-53.85
342.927	-65.38
343.31	-78.49
343.693	-69.45
344.077	-81.65
344.46	-41.43
344.843	-48.43
345.226	-41.2
345.61	-42.1
345.993	-11.82
346.376	-14.99
346.759	21.62
347.142	23.43
347.525	39.93
347.908	42.41
348.291	87.16
348.674	93.26
349.057	121.73
349.44	143.65
349.823	122.86
350.206	165.35
350.588	196.08
350.971	202.64
351.354	235.4
351.737	223.43
352.119	247.83
352.502	237.66
352.884	248.51
353.267	282.63
353.65	274.95
354.032	293.48
354.414	308.17
354.797	301.39
355.179	316.76
355.562	325.8
355.944	334.61
356.326	330.32
356.709	343.42
357.091	332.58
357.473	337.77
357.855	354.72
358.238	347.72
358.62	350.88
359.002	334.38
359.384	326.93
359.766	329.41
360.148	336.87
360.53	313.59
360.912	342.97
361.294	342.75
361.676	337.1
362.057	343.65
362.439	328.73
362.821	318.79
363.203	329.64
363.584	324.21
363.966	322.63
364.348	330.09
364.729	320.37
365.111	300.94
365.493	326.02
365.874	312.92
366.256	318.11
366.637	309.3
367.019	309.98
367.4	308.17
367.781	326.25
368.163	286.7
368.544	326.02
368.925	323.76
369.306	341.16
369.688	319.02
370.069	325.34
370.45	315.18
370.831	315.85
371.212	332.35
371.593	312.69
371.974	321.73
372.355	330.09
372.736	315.4
373.117	316.53
373.498	339.36
373.879	338
374.26	310.66
374.641	305.01
375.021	320.82
375.402	303.42
375.783	336.64
376.163	322.41
376.544	316.08
376.925	328.73
377.305	311.56
377.686	316.98
378.066	317.89
378.447	325.57
378.827	320.15
379.208	324.44
379.588	349.07
379.968	322.86
380.349	316.76
380.729	314.05
381.109	329.41
381.489	340.49
381.87	329.19
382.25	339.81
382.63	317.66
383.01	338
383.39	354.72
383.77	346.13
384.15	324.89
384.53	335.51
384.91	346.59
385.29	331.45
385.67	349.3
386.049	342.07
386.429	356.98
386.809	354.27
387.189	342.97
387.568	365.8
387.948	338.9
388.328	356.53
388.707	350.65
389.087	328.28
389.466	373.03
389.846	348.17
390.225	349.52
390.605	360.6
390.984	361.73
391.363	396.08
391.743	369.19
392.122	348.39
392.501	362.41
392.881	377.09
393.26	364.21
393.639	357.66
394.018	387.04
394.397	352.01
394.776	354.5
395.155	379.13
395.534	370.54
395.913	385.68
396.292	363.76
396.671	365.57
397.05	385.68
397.429	386.59
397.808	363.99
398.186	385.23
398.565	376.87
398.944	377.09
399.323	379.13
399.701	365.57
400.08	397.66
400.458	388.39
400.837	387.94
401.215	415.96
401.594	399.47
401.972	412.8
402.351	388.62
402.729	389.07
403.107	387.72
403.486	381.16
403.864	385
404.242	390.88
404.62	399.47
404.999	410.77
405.377	410.31
405.755	414.61
406.133	413.25
406.511	418.9
406.889	425
407.267	426.13
407.645	412.8
408.023	402.63
408.401	438.11
408.779	424.55
409.156	425.91
409.534	427.26
409.912	424.1
410.29	444.66
410.667	431.33
411.045	455.06
411.422	432.69
411.8	442.63
412.178	443.31
412.555	442.4
412.933	456.19
413.31	444.21
413.687	450.99
414.065	443.53
414.442	452.57
414.819	487.6
415.197	461.39
415.574	473.82
415.951	460.26
416.328	477.43
416.705	488.73
417.082	476.3
417.46	474.72
417.837	499.35
418.214	486.24
418.591	487.37
418.967	504.77
419.344	507.26
419.721	507.26
420.098	507.94
420.475	522.85
420.852	511.78
421.228	519.24
421.605	526.47
421.982	497.09
422.358	521.05
422.735	519.46
423.111	508.39
423.488	501.39
423.864	517.43
424.241	536.64
424.617	536.19
424.994	551.78
425.37	552.46
425.746	522.85
426.123	539.8
426.499	555.85
426.875	527.83
427.251	559.46
427.627	556.98
428.003	570.76
428.379	577.54
428.756	580.93
429.132	574.83
429.507	562.63
429.883	613.7
430.259	567.82
430.635	603.3
431.011	598.56
431.387	627.71
431.763	597.2
432.138	628.84
432.514	627.48
432.89	627.26
433.265	641.72
433.641	657.54
434.016	650.08
434.392	656.86
434.767	636.52
435.143	632.68
435.518	654.6
435.894	661.38
436.269	672.45
436.644	667.03
437.02	674.26
437.395	700.93
437.77	678.78
438.145	690.76
438.52	686.24
438.895	710.87
439.271	721.04
439.646	721.94
440.021	714.71
440.395	734.83
440.77	705.67
441.145	730.53
441.52	746.35
441.895	710.65
442.27	751.77
442.645	739.12
443.019	735.5
443.394	754.94
443.769	766.01
444.143	754.26
444.518	775.05
444.892	757.2
445.267	767.59
445.641	766.46
446.016	787.25
446.39	794.26
446.764	785.67
447.139	783.19
447.513	800.81
447.887	798.55
448.262	818.66
448.636	805.11
449.01	828.38
449.384	824.77
449.758	832.68
450.132	829.29
450.506	823.41
450.88	853.24
451.254	841.04
451.628	880.36
452.002	868.83
452.376	884.2
452.75	880.58
453.123	884.65
453.497	887.36
453.871	877.65
454.244	895.05
454.618	926.01
454.992	923.07
455.365	930.07
455.739	946.57
456.112	939.79
456.486	936.63
456.859	974.14
457.232	1020.92
457.606	1004.87
457.979	989.28
458.352	1024.54
458.725	1023.63
459.099	1044.65
459.472	1051.2
459.845	1049.85
460.218	1060.47
460.591	1069.51
460.964	1097.08
461.337	1104.53
461.71	1104.53
462.083	1156.74
462.456	1139.79
462.829	1142.72
463.201	1153.12
463.574	1175.72
463.947	1199.22
464.32	1174.14
464.692	1201.93
465.065	1198.54
465.438	1278.77
465.81	1275.83
466.183	1281.93
466.555	1315.6
466.928	1321.7
467.3	1325.32
467.672	1352.66
468.045	1387.46
468.417	1385.2
468.789	1420.23
469.161	1441.02
469.534	1462.26
469.906	1483.05
470.278	1498.65
470.65	1554.69
471.022	1574.35
471.394	1603.05
471.766	1619.55
472.138	1649.15
472.51	1675.59
472.882	1741.8
473.253	1735.25
473.625	1803.95
473.997	1840.11
474.369	1826.1
474.74	1901.57
475.112	1948.58
475.484	1999.88
475.855	2050.5
476.227	2095.02
476.598	2132.08
476.97	2158.74
477.341	2233.77
477.713	2285.29
478.084	2352.86
478.455	2457.04
478.827	2463.82
479.198	2531.39
479.569	2549.92
479.94	2679.86
480.311	2754.89
480.682	2805.51
481.053	2887.76
481.424	2975.9
481.795	3070.13
482.166	3139.96
482.537	3213.4
482.908	3316.9
483.279	3390.57
483.65	3478.03
484.021	3608.65
484.391	3675.31
484.762	3772.71
485.133	3877.12
485.503	3982.2
485.874	4086.15
486.244	4196.2
486.615	4322.53
486.985	4436.87
487.356	4556.65
487.726	4659.02
488.097	4788.05
488.467	4917.09
488.837	5043.19
489.207	5164.54
489.578	5278.43
489.948	5404.31
490.318	5571.31
490.688	5658.76
491.058	5778.31
491.428	5963.84
491.798	6043.39
492.168	6307.33
492.538	6361.34
492.908	6557.5
493.278	6714.78
493.648	6753.2
494.017	6919.75
494.387	7055.11
494.757	7163.13
495.126	7362
495.496	7480.18
495.866	7538.04
496.235	7790.91
496.605	7872.04
496.974	8030.45
497.344	8151.13
497.713	8297.79
498.082	8429.99
498.452	8642.87
498.821	8686.03
499.19	8797.66
499.559	8931.9
499.928	9087.15
500.298	9235.62
500.667	9401.94
501.036	9410.98
501.405	9557.87
501.774	9657.53
502.143	9809.61
502.512	9891.65
502.88	10007.8
503.249	10161.7
503.618	10234.46
503.987	10388.58
504.356	10475.13
504.724	10634.23
505.093	10702.7
505.462	10881
505.83	10993.09
506.199	11213.19
506.567	11279.18
506.936	11379.97
507.304	11504.49
507.672	11666.29
508.041	11684.82
508.409	11844.14
508.777	12004.59
509.145	12051.82
509.514	12178.14
509.882	12233.96
510.25	12349.89
510.618	12469.88
510.986	12556.44
511.354	12721.85
511.722	12826.03
512.09	12951.23
512.458	12991
512.826	13171.79
513.193	13236.19
513.561	13345.57
513.929	13452.23
514.297	13640.02
514.664	13709.85
515.032	13723.41
515.4	13808.15
515.767	14040.01
516.135	14056.28
516.502	14027.36
516.869	14260.12
517.237	14302.83
517.604	14414.92
517.972	14503.28
518.339	14582.37
518.706	14699.88
519.073	14717.06
519.44	14804.96
519.808	15006.54
520.175	14957.05
520.542	15169.47
520.909	15299.41
521.276	15340.32
521.643	15540.09
522.009	15578.95
522.376	15635
522.743	15635.68
523.11	15856.69
523.477	16032.95
523.843	16049
524.21	16249.22
524.577	16266.17
524.943	16376.9
525.31	16508.65
525.676	16669.55
526.043	16638.14
526.409	16684.01
526.776	16980.5
527.142	16921.07
527.508	17050.55
527.874	17101.63
528.241	17133.94
528.607	17278.35
528.973	17446.7
529.339	17355.86
529.705	17590.43
530.071	17669.75
530.437	17742.29
530.803	17687.37
531.169	17967.59
531.535	17840.59
531.901	17879.91
532.267	17937.76
532.632	18100.7
532.998	18084.65
533.364	18182.5
533.73	18232.9
534.095	18352.44
534.461	18360.12
534.826	18331.2
535.192	18484.42
535.557	18529.16
535.923	18567.58
536.288	18624.98
536.653	18627.24
537.019	18558.76
537.384	18670.17
537.749	18760.79
538.114	18689.38
538.479	18754.24
538.845	18791.07
539.21	18800.79
539.575	18891.41
539.94	19001.01
540.305	18949.49
540.67	18917.62
541.034	19064.29
541.399	19091.63
541.764	19077.17
542.129	19003.5
542.494	19151.06
542.858	19105.19
543.223	19086.89
543.587	19119.88
543.952	19068.35
544.316	19296.6
544.681	19271.74
545.045	19268.35
545.41	19475.12
545.774	19293.21
546.138	19342.25
546.503	19338.63
546.867	19303.38
547.231	19603.26
547.595	19426.09
547.959	19558.96
548.324	19500.89
548.688	19415.46
549.052	19438.97
549.416	19570.71
549.779	19575.91
550.143	19569.36
550.507	19633.99
550.871	19677.15
551.235	19624.95
551.599	19819.97
551.962	19795.34
552.326	19800.09
552.689	19880.54
553.053	19786.3
553.417	19820.88
553.78	19885.28
554.143	19892.51
554.507	20017.48
554.87	20077.37
555.234	20102.23
555.597	19972.51
555.96	20109.01
556.323	20132.96
556.686	20086.86
557.05	20205.73
557.413	20259.06
557.776	20248.89
558.139	20376.12
558.502	20384.03
558.865	20415.66
559.228	20530.01
559.59	20538.37
559.953	20563.23
560.316	20736.33
560.679	20756.45
561.041	20851.81
561.404	20958.47
561.767	21021.98
562.129	20901.07
562.492	21160.05
562.854	21116.66
563.217	21070.11
563.579	21256.09
563.941	21232.82
564.304	21294.28
564.666	21428.07
565.028	21500.38
565.39	21501.74
565.753	21645.24
566.115	21570.89
566.477	21721.62
566.839	21791.45
567.201	21788.06
567.563	21827.38
567.925	21864.44
568.287	21937.66
568.648	21934.95
569.01	22057.43
569.372	22184.88
569.734	22142.85
570.095	22257.88
570.457	22281.83
570.819	22277.99
571.18	22289.51
571.542	22448.83
571.903	22461.26
572.265	22563.4
572.626	22568.6
572.987	22695.38
573.349	22656.51
573.71	22814.47
574.071	22785.32
574.432	22842.04
574.794	23073
575.155	22952.77
575.516	22817.86
575.877	23055.37
576.238	23008.59
576.599	23075.48
576.96	23157.29
577.32	23124.75
577.681	23099.89
578.042	23265.08
578.403	23237.51
578.763	23217.4
579.124	23236.83
579.485	23426.43
579.845	23483.83
580.206	23356.15
580.566	23291.07
580.927	23349.37
581.287	23449.26
581.648	23450.61
582.008	23470.5
582.368	23429.6
582.728	23510.27
583.089	23425.98
583.449	23524.96
583.809	23523.83
584.169	23531.74
584.529	23409.48
584.889	23577.39
585.249	23444.74
585.609	23433.89
585.969	23570.16
586.329	23416.49
586.688	23486.32
587.048	23547.11
587.408	23364.74
587.768	23416.04
588.127	23418.97
588.487	23335.14
588.846	23551.17
589.206	23371.97
589.565	23502.14
589.925	23539.65
590.284	23421.01
590.643	23494.9
591.003	23513.21
591.362	23649.93
591.721	23525.64
592.08	23506.2
592.44	23659.19
592.799	23590.04
593.158	23544.4
593.517	23577.16
593.876	23609.25
594.235	23494.23
594.593	23616.94
594.952	23650.38
595.311	23472.53
595.67	23537.16
596.029	23635.69
596.387	23638.86
596.746	23695.58
597.104	23662.58
597.463	23497.84
597.822	23655.58
598.18	23612.19
598.538	23557.73
598.897	23715.69
599.255	23515.47
599.613	23838.4
599.972	23590.5
600.33	23718.4
600.688	23681.34
601.046	23746.88
601.404	23815.12
601.762	23807.89
602.12	23890.83
602.478	23883.14
602.836	23780.1
603.194	23606.99
603.552	23746.88
603.91	23644.28
604.268	23818.51
604.625	23762.24
604.983	23885.63
605.341	23741.68
605.698	23844.5
606.056	23918.17
606.413	23976.93
606.771	24092.86
607.128	24081.1
607.485	23923.37
607.843	23966.76
608.2	24177.82
608.557	24145.51
608.914	24152.51
609.272	24252.85
609.629	24307.99
609.986	24376.92
610.343	24273.87
610.7	24454.2
611.057	24275.45
611.414	24352.96
611.771	24394.09
612.127	24471.15
612.484	24400.19
612.841	24603.58
613.198	24590.02
613.554	24584.14
613.911	24683.12
614.267	24626.85
614.624	24669.34
614.98	24733.97
615.337	24794.53
615.693	24776.68
616.05	24799.28
616.406	24820.75
616.762	24713.4
617.118	24800.18
617.475	24847.41
617.831	24883.12
618.187	24965.83
618.543	24906.62
618.899	25079.27
619.255	25150.91
619.611	25085.82
619.967	25237.23
620.323	25241.07
620.678	25063.45
621.034	24928.54
621.39	25077.69
621.746	25028.88
622.101	25360.39
622.457	25088.76
622.812	25046.73
623.168	25285.14
623.523	25155.2
623.879	25287.17
624.234	25061.87
624.589	25253.5
624.945	25206.5
625.3	25225.93
625.655	25320.62
626.01	25370.79
626.365	25414.4
626.72	25270.68
627.075	25224.35
627.43	25359.04
627.785	25273.62
628.14	25313.39
628.495	25291.69
628.85	25293.73
629.205	25184.58
629.559	25397.91
629.914	25269.55
630.269	25254.63
630.623	25193.17
630.978	25191.81
631.332	25293.73
631.687	25322.65
632.041	25231.36
632.396	25289.89
632.75	25200.85
633.104	25150
633.459	25053.06
633.813	24986.62
634.167	25079.04
634.521	25025.03
634.875	25135.09
635.229	25026.39
635.583	24934.64
635.937	24844.93
636.291	24909.1
636.645	24959.5
636.999	24894.19
637.352	24916.34
637.706	24794.08
638.06	24919.5
638.413	24815.55
638.767	24881.54
639.121	24813.97
639.474	24648.09
639.828	24722.22
640.181	24717.25
640.534	24677.92
640.888	24602.67
641.241	24564.71
641.594	24630.24
641.947	24620.3
642.301	24605.38
642.654	24620.52
643.007	24499.4
643.36	24630.69
643.713	24543.01
644.066	24707.75
644.419	24467.53
644.771	24365.39
645.124	24169.69
645.477	24142.12
645.83	23982.58
646.182	23824.39
646.535	23822.35
646.888	23837.72
647.24	23728.35
647.593	23874.78
647.945	23760.21
648.298	23696.48
648.65	23673.66
649.002	23517.28
649.355	23646.99
649.707	23572.19
650.059	23787.33
650.411	24117.49
650.763	24032.52
651.115	24314.32
651.467	24245.39
651.819	24218.05
652.171	24110.03
652.523	24155.68
652.875	24210.59
653.227	24211.72
653.578	24213.08
653.93	24186.41
654.282	24098.5
654.633	24036.59
654.985	24174.43
655.337	24036.81
655.688	24042.46
656.039	24202.46
656.391	23954.55
656.742	24060.99
657.094	24023.48
657.445	24087.66
657.796	24131.05
658.147	24000.65
658.498	24013.54
658.849	24035.91
659.2	24135.34
659.551	23992.74
659.902	24086.98
660.253	24068.22
660.604	24049.24
660.955	24050.82
661.306	24005.63
661.656	24126.53
662.007	23980.54
662.358	24065.96
662.708	24024.83
663.059	24006.3
663.409	23937.38
663.76	24111.84
664.11	24170.14
664.461	24126.75
664.811	24056.7
665.161	24100.76
665.511	24057.15
665.862	24049.24
666.212	24093.76
666.562	24070.48
666.912	24026.42
667.262	24026.87
667.612	24077.94
667.962	24030.26
668.312	23931.96
668.662	24065.29
669.011	23953.88
669.361	23960.88
669.711	23955.23
670.06	23880.66
670.41	23954.55
670.76	23954.1
671.109	24015.34
671.459	23865.74
671.808	23889.7
672.157	23889.02
672.507	23794.56
672.856	23874.33
673.205	23856.48
673.554	23954.33
673.904	23754.11
674.253	23979.64
674.602	23755.46
674.951	23414.91
675.3	23323.38
675.649	23871.62
675.998	23701
676.346	23655.35
676.695	23769.25
677.044	23626.43
677.393	23745.07
677.741	23757.5
678.09	23672.53
678.438	23628.46
678.787	23567.67
679.135	23559.76
679.484	23445.87
679.832	23569.25
680.181	23421.91
680.529	23531.51
680.877	23440.22
681.225	23346.43
681.573	23502.14
681.922	23362.7
682.27	23224.63
682.618	23227.57
682.966	23117.06
683.314	23172.2
683.661	23100.79
684.009	23058.98
684.357	22962.72
684.705	23125.65
685.053	23110.06
685.4	22945.31
685.748	22877.52
686.095	22857.63
686.443	22847.24
686.79	22730.41
687.138	22762.72
687.485	22682.95
687.832	22582.39
688.18	22705.1
688.527	22505.78
688.874	22495.16
689.221	22441.83
689.568	22376.06
689.915	22315.05
690.262	22322.73
690.609	22266.24
690.956	22119.12
691.303	22158.22
691.65	21980.59
691.997	22079.12
692.344	21833.48
692.69	21921.16
693.037	21903.31
693.383	21710.54
693.73	21695.4
694.077	21632.81
694.423	21693.6
694.769	21586.71
695.116	21493.38
695.462	21365.92
695.808	21400.27
696.155	21499.03
696.501	21095.42
696.847	21162.54
697.193	21035.31
697.539	21117.79
697.885	20952.82
698.231	20930.9
698.577	20932.94
698.923	20837.8
699.269	20659.73
699.614	20643.23
699.96	20579.05
700.306	20625.15
700.651	20524.59
700.997	20367.76
701.342	20406.4
701.688	20325.5
702.033	20208.89
702.379	20250.02
702.724	20266.29
703.069	20218.15
703.415	19967.54
703.76	19974.77
704.105	19969.8
704.45	19910.82
704.795	19736.81
705.14	19704.5
705.485	19622.92
705.83	19607.55
706.175	19641.9
706.52	19589.24
706.865	19438.97
707.209	19419.98
707.554	19424.73
707.899	19459.98
708.243	19197.84
708.588	19223.6
708.932	19126.66
709.277	19043.72
709.621	19036.04
709.966	18875.37
710.31	18996.94
710.654	18852.99
710.998	18898.87
711.342	18841.02
711.687	18837.63
712.031	18685.77
712.375	18674.01
712.719	18685.09
713.063	18611.42
713.407	18613.23
713.75	18583.17
714.094	18556.5
714.438	18557.18
714.782	18466.79
715.125	18328.49
715.469	18437.18
715.812	18289.39
716.156	18178.89
716.499	18206.23
716.843	18310.41
717.186	18180.69
717.53	18231.31
717.873	18233.35
718.216	18125.55
718.559	18100.24
718.902	17877.43
719.246	18001.26
719.589	17960.81
719.932	17876.3
720.275	17929.18
720.617	17835.62
720.96	17831.55
721.303	17891.66
721.646	17835.17
721.989	17712.46
722.331	17709.52
722.674	17727.6
723.016	17739.35
723.359	17630.43
723.701	17729.18
724.044	17593.14
724.386	17488.06
724.729	17704.77
725.071	17480.83
725.413	17555.4
725.755	17512.69
726.097	17381.17
726.439	17397.21
726.782	17406.48
727.124	17470.88
727.465	17370.09
727.807	17369.64
728.149	17396.53
728.491	17341.39
728.833	17413.26
729.175	17293.03
729.516	17289.19
729.858	17161.06
730.199	17259.14
730.541	17171.23
730.882	17220.72
731.224	17280.6
731.565	17182.53
731.906	17111.34
732.248	17053.49
732.589	17010.78
732.93	17076.54
733.271	17069.76
733.612	17135.98
733.953	17139.82
734.294	17030.44
734.635	17054.17
734.976	16995.64
735.317	16947.51
735.658	17011.23
735.999	16971.01
736.339	16947.51
736.68	17055.3
737.021	16911.8
737.361	16923.78
737.702	16987.96
738.042	16907.96
738.383	16987.05
738.723	16984.57
739.063	16921.52
739.404	16991.12
739.744	16927.17
740.084	16932.37
740.424	17013.27
740.764	16860.05
741.104	16966.71
741.444	16824.35
741.784	16877.23
742.124	16906.15
742.464	16961.74
742.804	16837.68
743.143	16893.04
743.483	16917.68
743.823	16878.58
744.162	16848.53
744.502	16894.4
744.841	16831.35
745.181	16910.67
745.52	16806.04
745.86	16892.59
746.199	16955.64
746.538	16988.41
746.877	17059.37
747.216	17000.61
747.556	17082.87
747.895	17112.25
748.234	17066.83
748.573	17135.3
748.911	17127.61
749.25	17257.33
749.589	17223.43
749.928	17316.99
750.267	17349.76
750.605	17360.38
750.944	17401.73
751.283	17423.88
751.621	17407.61
751.96	17436.99
752.298	17489.86
752.636	17518.34
752.975	17685.57
753.313	17695.06
753.651	17813.92
753.989	17665.68
754.327	17773.02
754.666	17758.78
755.004	17839.91
755.342	18074.03
755.679	18033.58
756.017	17968.72
756.355	18187.47
756.693	18213.91
757.031	18343.4
757.368	18230.86
757.706	18300.69
758.044	18336.62
758.381	18419.11
758.719	18622.26
759.056	18581.36
759.394	18630.4
759.731	18571.64
760.068	18765.54
760.405	18744.75
760.743	18714.01
761.08	18959.43
761.417	18966.21
761.754	19069.94
762.091	19000.56
762.428	19046.43
762.765	19028.13
763.102	19131.63
763.438	19124.4
763.775	19096.38
764.112	19268.58
764.449	19369.36
764.785	19313.77
765.122	19269.93
765.458	19289.82
765.795	19427.89
766.131	19413.88
766.467	19365.52
766.804	19282.81
767.14	19274.45
767.476	19440.55
767.812	19334.56
768.148	19383.83
768.485	19381.57
768.821	19426.31
769.157	19385.41
769.492	19374.34
769.828	19420.21
770.164	19220.89
770.5	19394.22
770.836	19406.2
771.171	19391.06
771.507	19335.01
771.842	19163.27
772.178	19305.64
772.513	19273.55
772.849	19184.96
773.184	19139.99
773.519	19205.53
773.855	19173.89
774.19	19142.48
774.525	19091.63
774.86	19183.15
775.195	19066.32
775.53	19064.74
775.865	18923.5
776.2	18852.77
776.535	18802.82
776.87	18873.11
777.205	18897.29
777.539	18902.48
777.874	18780
778.209	18690.06
778.543	18649.61
778.878	18601.02
779.212	18632.43
779.547	18485.32
779.881	18478.54
780.215	18386.79
780.55	18409.16
780.884	18365.32
781.218	18398.32
781.552	18315.15
781.886	18166.68
782.22	18048.04
782.554	18053.47
782.888	17980.7
783.222	17998.33
783.556	17924.66
783.889	17761.95
784.223	17679.24
784.557	17776.41
784.89	17780.03
785.224	17540.26
785.557	17554.5
785.891	17485.8
786.224	17465.23
786.558	17422.52
786.891	17388.62
787.224	17339.59
787.557	17176.65
787.891	17269.76
788.224	17207.39
788.557	17156.31
788.89	17116.32
789.223	17088.97
789.556	16889.43
789.888	16943.21
790.221	16919.03
790.554	16711.81
790.887	16727.17
791.219	16658.02
791.552	16616.89
791.884	16677.91
792.217	16545.48
792.549	16453.06
792.882	16279.73
793.214	16267.52
793.546	16356.11
793.879	16121.09
794.211	16177.58
794.543	16192.95
794.875	16087.19
795.207	16163.57
795.539	16059.39
795.871	16029.79
796.203	15912.51
796.535	15773.53
796.867	15843.81
797.198	15717.03
797.53	15839.96
797.862	15646.98
798.193	15618.5
798.525	15646.3
798.856	15617.6
799.188	15496.47
799.519	15415.57
799.85	15419.41
800.182	15280.88
800.513	15327.89
800.844	15243.14
801.175	15324.27
801.506	15269.13
801.837	15167.89
802.168	15089.7
802.499	15033.66
802.83	15021.23
803.161	14991.17
803.491	14969.71
803.822	15004.96
804.153	14933.1
804.483	14668.7
804.814	14817.62
805.145	14769.48
805.475	14677.96
805.805	14698.07
806.136	14628.25
806.466	14669.83
806.796	14594.57
807.126	14492.43
807.457	14467.35
807.787	14460.11
808.117	14401.81
808.447	14308.25
808.777	14362.94
809.107	14302.15
809.436	14248.59
809.766	14293.79
810.096	14119.11
810.426	14124.76
810.755	14137.64
811.085	13977.41
811.414	14132.21
811.744	13982.39
812.073	13824.42
812.403	13939.9
812.732	13828.94
813.061	13830.75
813.39	13673.92
813.719	13718.89
814.049	13767.25
814.378	13767.48
814.707	13648.84
815.036	13663.07
815.365	13642.73
815.693	13491.1
816.022	13534.49
816.351	13475.51
816.68	13393.93
817.008	13379.46
817.337	13344.66
817.665	13238.9
817.994	13249.52
818.322	13282.07
818.651	13196.64
818.979	13134.73
819.307	13251.33
819.636	13169.07
819.964	13080.49
820.292	13079.36
820.62	13114.39
820.948	13062.86
821.276	13145.57
821.604	12994.39
821.932	13033.26
822.259	13087.72
822.587	13068.51
822.915	12937.89
823.243	13060.6
823.57	12958.23
823.898	13062.64
824.225	12940.61
824.553	13023.99
824.88	12997.1
825.207	13058.34
825.535	12981.96
825.862	13050.66
826.189	12954.17
826.516	13006.14
826.843	13087.95
827.17	13102.86
827.497	13073.26
827.824	13054.5
828.151	13103.31
828.478	13008.63
828.805	13088.17
829.131	12956.65
829.458	13012.47
829.785	13044.56
830.111	12988.51
830.438	13043.65
830.764	12983.54
831.09	12978.57
831.417	12882.53
831.743	12996.88
832.069	12944.22
832.395	12882.98
832.722	12908.52
833.048	12836.43
833.374	12864.9
833.7	12878.01
834.026	12921.4
834.351	12917.56
834.677	12836.43
835.003	12878.23
835.329	12833.94
835.654	12874.17
835.98	12764.11
836.306	12794.85
836.631	12729.31
836.956	12793.49
837.282	12825.13
837.607	12693.83
837.932	12607.06
838.258	12662.65
838.583	12681.4
838.908	12556.21
839.233	12567.28
839.558	12607.06
839.883	12455.87
840.208	12448.19
840.533	12462.43
840.858	12562.08
841.182	12510.79
841.507	12482.99
841.832	12455.65
842.156	12428.76
842.481	12419.04
842.805	12385.37
843.13	12270.57
843.454	12316.22
843.778	12257.01
844.103	12244.58
844.427	12219.27
844.751	12132.72
845.075	12163.45
845.399	12134.98
845.723	12034.64
846.047	12058.6
846.371	11893.85
846.695	11931.59
847.019	11764.59
847.343	11767.08
847.666	11734.76
847.99	11663.35
848.313	11602.56
848.637	11627.42
848.96	11579.51
849.284	11553.75
849.607	11484.15
849.931	11419.06
850.254	11344.26
850.577	11318.73
850.9	11251.61
851.223	11210.26
851.546	11116.25
851.869	11084.84
852.192	11154.21
852.515	11024.05
852.838	11022.92
853.161	11069.47
853.483	10954.44
853.806	10988.12
854.129	10890.26
854.451	10819.31
854.774	10780.44
855.096	10855.24
855.419	10758.06
855.741	10691.4
856.063	10581.57
856.385	10659.08
856.708	10582.7
857.03	10601.23
857.352	10558.07
857.674	10477.85
857.996	10515.13
858.318	10407.57
858.64	10455.25
858.961	10429.94
859.283	10410.96
859.605	10301.58
859.926	10369.37
860.248	10271.52
860.57	10203.95
860.891	10291.18
861.212	10230.85
861.534	10215.25
861.855	10170.74
862.176	10166.22
862.498	10134.13
862.819	10091.42
863.14	10099.32
863.461	10103.62
863.782	9954.24
864.103	10006.67
864.424	9969.16
864.745	9981.59
865.065	9940.68
865.386	9937.3
865.707	9894.36
866.027	9904.53
866.348	9834.02
866.668	9827.47
866.989	9845.55
867.309	9747.24
867.63	9874.92
867.95	9799.9
868.27	9749.28
868.59	9757.86
868.91	9744.08
869.23	9693.23
869.55	9683.06
869.87	9729.17
870.19	9690.07
870.51	9674.93
870.83	9697.53
871.15	9616.4
871.469	9589.51
871.789	9544.31
872.109	9610.07
872.428	9545.22
872.748	9606.91
873.067	9478.55
873.386	9579.11
873.706	9554.48
874.025	9489.62
874.344	9428.83
874.663	9499.34
874.982	9430.64
875.301	9401.94
875.62	9445.1
875.939	9373.92
876.258	9364.65
876.577	9302.06
876.896	9343.41
877.214	9342.06
877.533	9305
877.852	9333.47
878.17	9285.56
878.489	9267.93
878.807	9248.5
879.125	9228.61
879.444	9252.12
879.762	9171.44
880.08	9228.16
880.398	9126.02
880.716	9142.29
881.034	9108.16
881.352	9132.12
881.67	9141.38
881.988	9091.44
882.306	9054.83
882.624	9046.92
882.941	9012.8
883.259	8973.93
883.577	9020.94
883.894	8976.64
884.212	8907.72
884.529	9003.76
884.846	8963.76
885.164	8861.17
885.481	8857.55
885.798	8881.5
886.115	8771.68
886.432	8794.73
886.75	8684.22
887.067	8853.03
887.383	8734.16
887.7	8786.37
888.017	8696.42
888.334	8700.04
888.651	8673.6
888.967	8641.96
889.284	8604
889.6	8580.04
889.917	8577.78
890.233	8515.86
890.55	8537.33
890.866	8551.57
891.182	8493.94
891.498	8481.06
891.815	8402.65
892.131	8420.5
892.447	8408.97
892.763	8332.37
893.079	8319.71
893.395	8311.12
893.71	8309.09
894.026	8204.46
894.342	8224.8
894.657	8173.27
894.973	8159.49
895.289	8121.98
895.604	8161.3
895.92	8076.78
896.235	8091.69
896.55	8035.88
896.865	8011.47
897.181	7975.31
897.496	8037.01
897.811	7963.56
898.126	7857.12
898.441	7866.62
898.756	7838.59
899.071	7792.49
899.386	7807.86
899.7	7747.75
900.015	7790.01
900.33	7693.96
900.644	7691.7
900.959	7653.97
901.273	7608.77
901.588	7596.79
901.902	7538.49
902.216	7560.63
902.531	7488.32
902.845	7490.35
903.159	7421.2
903.473	7413.75
903.787	7393.41
904.101	7349.57
904.415	7343.69
904.729	7353.86
905.042	7254.2
905.356	7310.47
905.67	7201.32
905.984	7261.66
906.297	7159.97
906.611	7156.8
906.924	7160.65
907.237	7139.63
907.551	7083.58
907.864	7073.64
908.177	7021.44
908.491	7034.32
908.804	6955
909.117	6977.6
909.43	6897.38
909.743	6853.31
910.056	6869.13
910.368	6890.6
910.681	6784.61
910.994	6738.06
911.307	6684.5
911.619	6685.18
911.932	6689.92
912.244	6632.3
912.557	6660.77
912.869	6606.08
913.181	6593.65
913.494	6582.13
913.806	6486.76
914.118	6467.1
914.43	6477.05
914.742	6434.79
915.054	6466.88
915.366	6367.22
915.678	6331.74
915.99	6326.99
916.302	6279.09
916.613	6262.82
916.925	6268.69
917.236	6282.7
917.548	6222.59
917.859	6190.95
918.171	6167
918.482	6124.97
918.794	6127.45
919.105	6094.01
919.416	6054.46
919.727	6019.43
920.038	6015.36
920.349	5984.86
920.66	5966.78
920.971	5952.77
921.282	5985.08
921.593	5926.1
921.903	5855.82
922.214	5874.13
922.525	5825.76
922.835	5816.5
923.146	5771.53
923.456	5766.33
923.767	5714.13
924.077	5667.58
924.387	5719.55
924.697	5640.46
925.008	5611.53
925.318	5595.71
925.628	5618.99
925.938	5604.98
926.248	5479.56
926.558	5503.51
926.867	5506.68
927.177	5481.37
927.487	5470.29
927.796	5414.25
928.106	5403.4
928.416	5390.97
928.725	5383.97
929.034	5291.32
929.344	5339.9
929.653	5337.19
929.962	5246.8
930.271	5290.41
930.581	5223.97
930.89	5165.9
931.199	5190.98
931.508	5111.66
931.817	5138.33
932.125	5126.12
932.434	5098.78
932.743	5097.87
933.051	5059.23
933.36	5025.56
933.669	5028.27
933.977	4965.67
934.286	4941.95
934.594	4959.57
934.902	4902.63
935.21	4874.15
935.519	4872.57
935.827	4825.57
936.135	4826.92
936.443	4814.49
936.751	4772.01
937.059	4780.14
937.367	4754.83
937.674	4761.84
937.982	4704.44
938.29	4678.45
938.597	4726.58
938.905	4648.62
939.213	4689.75
939.52	4611.11
939.827	4614.5
940.135	4624.44
940.442	4536.76
940.749	4522.3
941.056	4538.12
941.363	4470.32
941.67	4484.56
941.977	4471.22
942.284	4460.6
942.591	4440.26
942.898	4405.01
943.205	4396.88
943.511	4359.36
943.818	4332.7
944.125	4342.87
944.431	4319.14
944.738	4306.48
945.044	4310.78
945.35	4278.23
945.657	4255.41
945.963	4224.45
946.269	4212.47
946.575	4216.99
946.881	4215.64
947.187	4193.04
947.493	4120.05
947.799	4137.22
948.105	4090.22
948.41	4118.47
948.716	4104.68
949.022	4062.42
949.327	4064.91
949.633	3993.72
949.938	3981.29
950.244	4010.22
950.549	3948.3
950.854	3933.61
951.16	3913.5
951.465	3882.31
951.77	3881.86
952.075	3837.79
952.38	3866.04
952.685	3851.13
952.99	3835.08
953.294	3813.16
953.599	3793.5
953.904	3763.9
954.209	3705.82
954.513	3800.28
954.818	3728.87
955.122	3692.26
955.426	3715.09
955.731	3694.97
956.035	3683.22
956.339	3708.98
956.643	3643.9
956.948	3633.73
957.252	3614.98
957.556	3615.88
957.86	3547.41
958.163	3560.06
958.467	3534.98
958.771	3561.64
959.075	3521.19
959.378	3532.49
959.682	3510.35
959.985	3459.73
960.289	3447.3
960.592	3449.1
960.896	3422.89
961.199	3426.73
961.502	3399.84
961.805	3385.6
962.108	3403.91
962.411	3393.74
962.714	3347.64
963.017	3317.13
963.32	3309.67
963.623	3293.18
963.926	3336.34
964.228	3246.4
964.531	3207.08
964.833	3250.24
965.136	3210.69
965.438	3233.97
965.741	3198.94
966.043	3178.38
966.345	3160.75
966.648	3156.91
966.95	3159.39
967.252	3071.71
967.554	3130.02
967.856	3087.53
968.158	3084.59
968.46	3072.16
968.761	3066.74
969.063	3044.6
969.365	3024.48
969.666	3003.69
969.968	2995.1
970.269	3033.75
970.571	2994.43
970.872	3011.38
971.174	2956.46
971.475	2968.21
971.776	2972.05
972.077	2928.44
972.378	2909.91
972.679	2911.72
972.98	2892.51
973.281	2906.97
973.582	2890.7
973.883	2856.8
974.183	2810.93
974.484	2824.71
974.785	2788.78
975.085	2810.25
975.386	2789.46
975.686	2781.55
975.986	2779.74
976.287	2781.1
976.587	2734.55
976.887	2694.77
977.187	2709.69
977.487	2685.51
977.787	2693.19
978.087	2657.49
978.387	2620.43
978.687	2659.75
978.987	2669.24
979.286	2658.16
979.586	2651.39
979.885	2605.28
980.185	2618.84
980.484	2574.78
980.784	2579.97
981.083	2581.1
981.382	2554.21
981.682	2545.63
981.981	2531.39
982.28	2498.39
982.579	2515.8
982.878	2507.21
983.177	2445.06
983.475	2483.48
983.774	2478.96
984.073	2429.92
984.372	2458.4
984.67	2436.7
984.969	2439.64
985.267	2430.15
985.566	2389.02
985.864	2403.71
986.162	2393.76
986.461	2382.92
986.759	2362.35
987.057	2357.16
987.355	2340.21
987.653	2338.62
987.951	2321.9
988.249	2309.47
988.547	2306.76
988.844	2281.68
989.142	2248.91
989.44	2270.83
989.737	2240.32
990.035	2257.72
990.332	2207.1
990.63	2181.79
990.927	2226.09
991.224	2205.3
991.521	2195.35
991.819	2212.07
992.116	2166.88
992.413	2179.53
992.71	2159.65
993.006	2169.59
993.303	2151.06
993.6	2092.98
993.897	2128.01
994.193	2109.48
994.49	2113.32
994.787	2094.34
995.083	2111.74
995.379	2069.03
995.676	2065.86
995.972	2040.33
996.268	2009.14
996.565	2021.8
996.861	2040.1
997.157	2024.96
997.453	2008.01
997.749	2006.66
998.044	1987.67
998.34	1964.17
998.636	1968.24
998.932	1953.78
999.227	1942.48
999.523	1951.06
999.818	1926.21
1000.114	1891.63
1000.409	1898.18
1000.704	1882.37
1001	1885.53
1001.295	1863.61
1001.59	1855.7
1001.885	1871.52
1002.18	1821.35
1002.475	1856.15
1002.77	1809.37
1003.065	1805.31
1003.359	1798.53
1003.654	1822.25
1003.949	1780.9
1004.243	1792.88
1004.538	1776.38
1004.832	1775.7
1005.127	1763.95
1005.421	1730.05
1005.715	1743.16
1006.009	1718.75
1006.304	1720.11
1006.598	1715.36
1006.892	1696.16
1007.186	1664.52
1007.48	1674.69
1007.773	1657.51
1008.067	1645.99
1008.361	1631.07
1008.655	1631.3
1008.948	1643.28
1009.242	1614.12
1009.535	1574.35
1009.829	1606.44
1010.122	1583.84
1010.415	1556.95
1010.708	1570.74
1011.001	1553.56
1011.295	1577.52
1011.588	1540.23
1011.881	1507.91
1012.173	1542.04
1012.466	1542.94
1012.759	1511.3
1013.052	1517.86
1013.344	1505.43
1013.637	1504.97
1013.93	1471.53
1014.222	1489.83
1014.514	1476.5
1014.807	1456.84
1015.099	1440.34
1015.391	1420.46
1015.683	1425.2
1015.976	1433.56
1016.268	1409.84
1016.56	1418.2
1016.851	1397.18
1017.143	1369.38
1017.435	1355.83
1017.727	1343.4
1018.018	1351.08
1018.31	1339.56
1018.602	1356.5
1018.893	1335.49
1019.185	1337.07
1019.476	1329.84
1019.767	1306.11
1020.058	1307.01
1020.35	1274.7
1020.641	1281.48
1020.932	1257.3
1021.223	1284.64
1021.514	1250.74
1021.804	1240.12
1022.095	1239.67
1022.386	1243.29
1022.677	1225.43
1022.967	1238.99
1023.258	1207.36
1023.548	1238.54
1023.839	1190.41
1024.129	1195.38
1024.419	1183.85
1024.709	1189.5
1025	1163.74
1025.29	1163.06
1025.58	1134.59
1025.87	1147.92
1026.16	1157.87
1026.449	1159.45
1026.739	1145.21
1027.029	1133.68
1027.319	1133.01
1027.608	1114.02
1027.898	1090.52
1028.187	1105.89
1028.477	1101.14
1028.766	1105.66
1029.055	1060.92
1029.344	1080.8
1029.634	1056.4
1029.923	1041.26
1030.212	1041.03
1030.501	1051.88
1030.79	1037.19
1031.078	1029.96
1031.367	1025.89
1031.656	998.32
1031.945	1008.04
1032.233	987.47
1032.522	988.6
1032.81	983.86
1033.099	979.79
1033.387	978.66
1033.675	986.34
1033.963	957.64
1034.251	951.99
1034.54	966.23
1034.828	951.54
1035.116	944.76
1035.403	937.08
1035.691	945.44
1035.979	927.36
1036.267	920.81
1036.554	937.31
1036.842	921.94
1037.129	923.75
1037.417	909.51
1037.704	892.79
1037.992	897.08
1038.279	882.84
1038.566	874.93
1038.853	874.93
1039.14	874.93
