Data from hue_20_FLMS001491_72.txt Node
Date: Mon Feb 06 15:34:37 GMT 2017
User: dcchb
Spectrometer: FLMS00149
Trigger mode: 0
Integration Time (sec): 2.000000E-2
Scans to average: 10
Electric dark correction enabled: true
Nonlinearity correction enabled: false
Boxcar width: 0
XAxis mode: Wavelengths
Number of Pixels in Spectrum: 2048
>>>>>Begin Spectral Data<<<<<
341.393	-2.23
341.776	-2.23
342.16	-2.23
342.543	-59.41
342.927	-63.02
343.31	-79.07
343.693	-84.94
344.077	-62.34
344.46	-70.48
344.843	-32.97
345.226	-38.16
345.61	-34.55
345.993	-23.93
346.376	0.93
346.759	11.55
347.142	22.85
347.525	40.25
347.908	67.82
348.291	94.94
348.674	77.09
349.057	110.99
349.44	117.99
349.823	122.06
350.206	138.33
350.588	187.14
350.971	224.43
351.354	221.27
351.737	240.93
352.119	233.47
352.502	278.66
352.884	263.98
353.267	305.56
353.65	300.81
354.032	309.85
354.414	297.87
354.797	315.27
355.179	321.38
355.562	322.51
355.944	312.34
356.326	320.7
356.709	350.98
357.091	338.78
357.473	345.1
357.855	367.93
358.238	340.13
358.62	348.27
359.002	346.23
359.384	332.9
359.766	339.68
360.148	360.7
360.53	347.14
360.912	343.52
361.294	342.62
361.676	332.9
362.057	335.84
362.439	342.84
362.821	335.84
363.203	342.17
363.584	341.04
363.966	314.37
364.348	304.43
364.729	315.27
365.111	338.55
365.493	322.96
365.874	321.38
366.256	304.43
366.637	295.16
367.019	320.47
367.4	318.21
367.781	302.85
368.163	320.47
368.544	321.83
368.925	302.17
369.306	335.61
369.688	305.1
370.069	329.74
370.45	320.47
370.831	306.23
371.212	315.27
371.593	333.13
371.974	325.44
372.355	303.07
372.736	318.44
373.117	326.35
373.498	314.37
373.879	327.25
374.26	329.29
374.641	329.74
375.021	312.11
375.402	346.23
375.783	322.96
376.163	341.26
376.544	322.28
376.925	337.19
377.305	339.68
377.686	337.87
378.066	333.58
378.447	321.83
378.827	340.13
379.208	334.26
379.588	332.67
379.968	338.1
380.349	356.4
380.729	327.25
381.109	349.17
381.489	347.59
381.87	359.34
382.25	353.24
382.63	352.79
383.01	371.54
383.39	329.74
383.77	355.5
384.15	359.34
384.53	372.67
384.91	333.13
385.29	355.05
385.67	375.39
386.049	367.25
386.429	375.16
386.809	372.22
387.189	361.6
387.568	351.88
387.948	362.5
388.328	352.79
388.707	376.97
389.087	372
389.466	372.22
389.846	379.91
390.225	367.48
390.605	388.27
390.984	392.11
391.363	362.05
391.743	372
392.122	377.87
392.501	390.53
392.881	403.63
393.26	370.41
393.639	389.85
394.018	415.84
394.397	368.61
394.776	379.45
395.155	382.39
395.534	389.4
395.913	358.66
396.292	402.96
396.671	398.44
397.05	403.86
397.429	397.76
397.808	396.4
398.186	388.04
398.565	389.17
398.944	402.05
399.323	418.55
399.701	417.64
400.08	405.44
400.458	416.51
400.837	414.93
401.215	428.94
401.594	406.57
401.972	429.62
402.351	420.81
402.729	409.96
403.107	403.63
403.486	423.97
403.864	423.97
404.242	430.75
404.62	435.5
404.999	426.23
405.377	423.07
405.755	425.1
406.133	453.12
406.511	453.8
406.889	445.67
407.267	453.58
407.645	450.86
408.023	461.49
408.401	473.01
408.779	466.68
409.156	461.49
409.534	483.63
409.912	463.29
410.29	487.02
410.667	465.55
411.045	475.27
411.422	467.59
411.8	466
412.178	471.43
412.555	515.27
412.933	490.18
413.31	494.03
413.687	502.61
414.065	501.71
414.442	500.13
414.819	500.81
415.197	504.2
415.574	512.11
415.951	512.33
416.328	527.02
416.705	530.18
417.082	532.9
417.46	528.83
417.837	517.3
418.214	545.32
418.591	543.52
418.967	535.16
419.344	530.86
419.721	546
420.098	540.58
420.475	546.23
420.852	565.21
421.228	557.53
421.605	565.89
421.982	567.24
422.358	567.47
422.735	575.61
423.111	580.35
423.488	573.35
423.864	588.26
424.241	595.04
424.617	581.48
424.994	597.53
425.37	581.48
425.746	575.83
426.123	625.32
426.499	600.46
426.875	610.86
427.251	598.2
427.627	607.47
428.003	636.17
428.379	635.49
428.756	639.11
429.132	637.07
429.507	639.33
429.883	637.98
430.259	666.45
430.635	660.35
431.011	663.74
431.387	672.55
431.763	674.36
432.138	675.72
432.514	707.58
432.89	685.66
433.265	697.19
433.641	723.63
434.016	694.47
434.392	701.7
434.767	729.5
435.143	743.29
435.518	732.66
435.894	738.31
436.269	760.23
436.644	753.68
437.02	746.22
437.395	755.26
437.77	786.67
438.145	764.53
438.52	768.82
438.895	769.95
439.271	792.78
439.646	826.9
440.021	821.7
440.395	782.15
440.77	816.5
441.145	795.49
441.52	822.83
441.895	830.51
442.27	805.66
442.645	826.67
443.019	847.01
443.394	862.38
443.769	854.47
444.143	854.02
444.518	861.25
444.892	869.84
445.267	864.41
445.641	869.16
446.016	856.05
446.39	884.75
446.764	886.78
447.139	896.28
447.513	915.94
447.887	886.11
448.262	913.22
448.636	918.65
449.01	894.02
449.384	920.68
449.758	919.33
450.132	940.57
450.506	921.81
450.88	944.41
451.254	985.99
451.628	957.52
452.002	950.74
452.376	964.75
452.75	971.98
453.123	978.53
453.497	989.83
453.871	968.82
454.244	1019.89
454.618	1030.51
454.992	1010.62
455.365	1025.99
455.739	1047.23
456.112	1042.94
456.486	1087.68
456.859	1055.82
457.232	1082.26
457.606	1099.89
457.979	1125.2
458.352	1139.43
458.725	1147.34
459.099	1131.98
459.472	1148.7
459.845	1186.89
460.218	1195.48
460.591	1205.87
460.964	1198.64
461.337	1208.36
461.71	1211.07
462.083	1269.6
462.456	1265.31
462.829	1253.78
463.201	1274.8
463.574	1274.35
463.947	1284.06
464.32	1327.68
464.692	1344.4
465.065	1344.17
465.438	1371.29
465.81	1365.87
466.183	1428.92
466.555	1433.44
466.928	1408.8
467.3	1443.15
467.672	1446.09
468.045	1478.63
468.417	1485.41
468.789	1489.03
469.161	1506.88
469.534	1552.76
469.906	1590.72
470.278	1600.44
470.65	1592.75
471.022	1621.45
471.394	1675.69
471.766	1643.83
472.138	1701.68
472.51	1744.62
472.882	1750.94
473.253	1773.99
473.625	1804.05
473.997	1817.16
474.369	1857.83
474.74	1853.31
475.112	1900.54
475.484	1926.53
475.855	1943.93
476.227	2003.82
476.598	2016.02
476.97	2055.12
477.341	2109.13
477.713	2163.59
478.084	2175.79
478.455	2218.28
478.827	2246.97
479.198	2333.98
479.569	2322
479.94	2380.98
480.311	2405.16
480.682	2442.68
481.053	2500.3
481.424	2564.03
481.795	2604.48
482.166	2634.76
482.537	2687.19
482.908	2717.24
483.279	2771.25
483.65	2777.81
484.021	2877.47
484.391	2923.12
484.762	2945.94
485.133	2983.45
485.503	3001.53
485.874	3103.9
486.244	3145.26
486.615	3195.65
486.985	3242.65
487.356	3283.56
487.726	3347.51
488.097	3408.98
488.467	3451.91
488.837	3491.46
489.207	3546.6
489.578	3590.67
489.948	3575.08
490.318	3688.74
490.688	3720.83
491.058	3777.33
491.428	3827.27
491.798	3876.76
492.168	3980.26
492.538	3934.84
492.908	4056.42
493.278	4077.44
493.648	4113.59
494.017	4165.12
494.387	4217.32
494.757	4285.79
495.126	4299.58
495.496	4316.75
495.866	4312.68
496.235	4464.09
496.605	4486.92
496.974	4440.82
497.344	4547.48
497.713	4582.05
498.082	4587.03
498.452	4666.8
498.821	4667.93
499.19	4727.81
499.559	4785.67
499.928	4781.82
500.298	4838.32
500.667	4873.12
501.036	4859.79
501.405	4882.61
501.774	4901.37
502.143	4925.77
502.512	4991.76
502.88	5020.91
503.249	5047.35
503.618	5083.28
503.987	5104.75
504.356	5160.12
504.724	5179.33
505.093	5215.03
505.462	5245.77
505.83	5271.08
506.199	5294.13
506.567	5363.05
506.936	5341.36
507.304	5412.54
507.672	5447.57
508.041	5476.95
508.409	5501.58
508.777	5509.71
509.145	5585.64
509.514	5495.48
509.882	5570.73
510.25	5584.97
510.618	5620.45
510.986	5617.73
511.354	5725.53
511.722	5740.22
512.09	5789.93
512.458	5794.9
512.826	5873.55
513.193	5884.17
513.561	5888.91
513.929	5950.61
514.297	5937.5
514.664	6006.42
515.032	5994.22
515.4	6037.84
515.767	6058.63
516.135	6104.73
516.502	6087.1
516.869	6149.25
517.237	6176.36
517.604	6156.48
517.972	6203.71
518.339	6200.32
518.706	6229.24
519.073	6275.57
519.44	6291.39
519.808	6405.74
520.175	6346.53
520.542	6405.51
520.909	6491.61
521.276	6453.42
521.643	6534.09
522.009	6482.8
522.376	6575.67
522.743	6602.79
523.11	6626.97
523.477	6741.09
523.843	6714.65
524.21	6822.22
524.577	6827.87
524.943	6842.11
525.31	6824.93
525.676	6940.18
526.043	6995.32
526.409	6981.99
526.776	7047.53
527.142	7066.06
527.508	7152.16
527.874	7185.15
528.241	7230.12
528.607	7249.33
528.973	7313.73
529.339	7336.11
529.705	7361.87
530.071	7457.23
530.437	7416.56
530.803	7478.25
531.169	7535.65
531.535	7554.18
531.901	7576.55
532.267	7556.44
532.632	7611.58
532.998	7686.61
533.364	7697.9
533.73	7830.1
534.095	7851.12
534.461	7834.17
534.826	7878.47
535.192	7902.42
535.557	7972.93
535.923	7915.07
536.288	8019.7
536.653	8072.13
537.019	8094.96
537.384	8112.13
537.749	8176.54
538.114	8160.04
538.479	8182.41
538.845	8204.78
539.21	8212.92
539.575	8218.8
539.94	8316.42
540.305	8394.84
540.67	8327.49
541.034	8400.03
541.399	8422.86
541.764	8421.28
542.129	8438.68
542.494	8495.4
542.858	8612.23
543.223	8641.38
543.587	8637.54
543.952	8654.26
544.316	8649.52
544.681	8707.37
545.045	8748.27
545.41	8803.64
545.774	8851.32
546.138	8894.71
546.503	8836.18
546.867	8936.06
547.231	9038.89
547.595	8988.04
547.959	9080.92
548.324	9129.05
548.688	9034.59
549.052	9099.9
549.416	9108.94
549.779	9189.62
550.143	9202.27
550.507	9292.67
550.871	9234.81
551.235	9269.62
551.599	9349.16
551.962	9385.54
552.326	9429.38
552.689	9438.2
553.053	9450.18
553.417	9434.81
553.78	9573.79
554.143	9573.56
554.507	9594.35
554.87	9582.83
555.234	9700.56
555.597	9623.73
555.96	9641.58
556.323	9762.71
556.686	9752.54
557.05	9898.98
557.413	9869.83
557.776	9853.78
558.139	9950.73
558.502	9976.04
558.865	9986.66
559.228	10011.52
559.59	10080.22
559.953	10147.33
560.316	10202.47
560.679	10182.81
561.041	10200.44
561.404	10277.72
561.767	10361.34
562.129	10313.88
562.492	10426.42
562.854	10483.82
563.217	10401.56
563.579	10449.02
563.941	10574.21
564.304	10599.3
564.666	10673.19
565.028	10614.66
565.39	10632.07
565.753	10679.52
566.115	10776.92
566.477	10815.56
566.839	10885.62
567.201	10905.28
567.563	10959.97
567.925	11003.81
568.287	10974.43
568.648	11047.87
569.01	11112.73
569.372	11096.91
569.734	11157.25
570.095	11298.71
570.457	11269.79
570.819	11323.12
571.18	11394.98
571.542	11421.65
571.903	11443.34
572.265	11469.33
572.626	11531.93
572.987	11609.44
573.349	11676.78
573.71	11764.69
574.071	11777.8
574.432	11883.11
574.794	11980.73
575.155	12005.59
575.516	11963.33
575.877	12098.02
576.238	12146.6
576.599	12258.91
576.96	12284.9
577.32	12326.03
577.681	12459.81
578.042	12590.66
578.403	12692.35
578.763	12726.02
579.124	12840.37
579.485	12952.46
579.845	13032
580.206	13092.34
580.566	13263.86
580.927	13396.51
581.287	13552.67
581.648	13632.66
582.008	13783.85
582.368	13951.98
582.728	14048.92
583.089	14181.35
583.449	14282.36
583.809	14472.64
584.169	14673.54
584.529	14829.92
584.889	15112.17
585.249	15141.78
585.609	15382.9
585.969	15679.39
586.329	15865.15
586.688	16065.14
587.048	16254.29
587.408	16381.74
587.768	16704.67
588.127	16919.13
588.487	17193.7
588.846	17547.82
589.206	17729.96
589.565	18027.12
589.925	18374.69
590.284	18586.88
590.643	18922.02
591.003	19184.83
591.362	19582.34
591.721	19838.38
592.08	20048.77
592.44	20393.39
592.799	20810.78
593.158	21034.5
593.517	21291.9
593.876	21583.64
594.235	22001.94
594.593	22352.21
594.952	22625.42
595.311	22969.82
595.67	23304.27
596.029	23771.15
596.387	24110.81
596.746	24433.51
597.104	24786.72
597.463	24997.79
597.822	25421.05
598.18	25701.05
598.538	26068.5
598.897	26567.24
599.255	26588.93
599.613	27383.49
599.972	27430.49
600.33	27976.92
600.688	28187.08
601.046	28529
601.404	29000.85
601.762	29187.96
602.12	29609.42
602.478	30004.21
602.836	30332.34
603.194	30475.84
603.552	30851.42
603.91	31118.31
604.268	31666.31
604.625	31734.11
604.983	32283.47
605.341	32426.97
605.698	32748.09
606.056	33054.07
606.413	33342.88
606.771	33707.16
607.128	34117.78
607.485	34299.01
607.843	34407.71
608.2	34814.93
608.557	35315.26
608.914	35334.92
609.272	35784.62
609.629	36126.31
609.986	36427.32
610.343	36551.84
610.7	36966.74
611.057	37102.78
611.414	37242.66
611.771	37489.66
612.127	38009.88
612.484	38148.18
612.841	38460.49
613.198	38545.91
613.554	38760.37
613.911	39204.42
614.267	39305.89
614.624	39360.8
614.98	39643.51
615.337	40098.18
615.693	40182.47
616.05	40282.58
616.406	40753.98
616.762	40708.79
617.118	40880.99
617.475	40979.06
617.831	41229.23
618.187	41449.56
618.543	41600.52
618.899	41880.28
619.255	42020.84
619.611	42176.09
619.967	42406.6
620.323	42479.14
620.678	42564.78
621.034	42546.25
621.39	42777.43
621.746	42713.48
622.101	43372.22
622.457	43157.54
622.812	43353.69
623.168	43528.83
623.523	43654.02
623.879	43901.25
624.234	43695.15
624.589	43954.35
624.945	43950.96
625.3	44023.73
625.655	44177.17
626.01	44148.02
626.365	44426.43
626.72	44315.02
627.075	44448.58
627.43	44623.71
627.785	44545.52
628.14	44760.89
628.495	44771.73
628.85	44761.79
629.205	44734.67
629.559	45131.95
629.914	45015.12
630.269	44985.51
630.623	45125.4
630.978	45007.43
631.332	45172.85
631.687	45252.4
632.041	45154.1
632.396	45232.51
632.75	45191.61
633.104	45333.53
633.459	45267.54
633.813	45285.17
634.167	45251.27
634.521	45262.57
634.875	45149.12
635.229	45329.68
635.583	45241.32
635.937	45295.11
636.291	45267.76
636.645	45269.57
636.999	45285.62
637.352	45397.25
637.706	45069.8
638.06	45343.02
638.413	45299.85
638.767	45261.66
639.121	45311.15
639.474	45033.87
639.828	45189.12
640.181	45252.17
640.534	45373.98
640.888	45104.38
641.241	45005.62
641.594	45107.09
641.947	45212.85
642.301	45090.37
642.654	45189.35
643.007	45228.9
643.36	45159.97
643.713	45102.57
644.066	45272.06
644.419	44954.1
644.771	44702.58
645.124	44327.22
645.477	44350.5
645.83	43970.4
646.182	43865.77
646.535	43863.06
646.888	43870.29
647.24	43829.61
647.593	43931.3
647.945	43879.78
648.298	43628.03
648.65	43719.33
649.002	43651.99
649.355	43779.44
649.707	43692.44
650.059	43977.4
650.411	44356.38
650.763	44342.14
651.115	44751.39
651.467	44631.17
651.819	44730.38
652.171	44739.42
652.523	44577.84
652.875	44630.04
653.227	44396.83
653.578	44647.89
653.93	44628.46
654.282	44509.37
654.633	44267.56
654.985	44465.75
655.337	44502.81
655.688	44378.07
656.039	44544.85
656.391	44289.94
656.742	44267.79
657.094	44347.34
657.445	44279.77
657.796	44318.41
658.147	44386.43
658.498	44242.25
658.849	44259.88
659.2	44314.34
659.551	44225.76
659.902	44324.96
660.253	44279.54
660.604	44458.52
660.955	44123.61
661.306	44321.12
661.656	44213.78
662.007	44158.42
662.358	44216.04
662.708	44138.08
663.059	44066.89
663.409	43914.58
663.76	44176.04
664.11	44149.83
664.461	44151.64
664.811	44297.62
665.161	44116.16
665.511	44056.27
665.862	44071.86
666.212	44293.55
666.562	44043.84
666.912	44092.2
667.262	44193.44
667.612	44118.19
667.962	44022.83
668.312	44071.64
668.662	44268.47
669.011	44145.76
669.361	44072.32
669.711	43953.22
670.06	43825.09
670.41	43842.27
670.76	43836.84
671.109	44070.28
671.459	43849.27
671.808	43973.34
672.157	43898.31
672.507	43733.57
672.856	43839.1
673.205	43746.22
673.554	43984.18
673.904	43784.41
674.253	43919.1
674.602	43767.47
674.951	43272.79
675.3	42965
675.649	43736.96
675.998	43615.83
676.346	43692.21
676.695	43766.56
677.044	43513.69
677.393	43515.04
677.741	43623.06
678.09	43566.79
678.438	43395.72
678.787	43506
679.135	43432.78
679.484	43106.69
679.832	43512.33
680.181	43155.05
680.529	43276.18
680.877	43184.2
681.225	43210.42
681.573	43383.29
681.922	43202.73
682.27	42993.02
682.618	42976.98
682.966	42806.59
683.314	42862.86
683.661	42809.75
684.009	42523.2
684.357	42583.09
684.705	42564.78
685.053	42527.72
685.4	42350.78
685.748	42344.45
686.095	42417.9
686.443	42208.64
686.79	42161.86
687.138	42158.69
687.485	42271.01
687.832	42028.98
688.18	41987.17
688.527	41829.89
688.874	41813.84
689.221	41660.4
689.568	41597.58
689.915	41577.69
690.262	41480.07
690.609	41490.69
690.956	41284.37
691.303	41139.74
691.65	41085.5
691.997	41074.65
692.344	40964.37
692.69	40844.15
693.037	40869.01
693.383	40449.36
693.73	40724.38
694.077	40377.05
694.423	40445.52
694.769	40289.36
695.116	40157.16
695.462	40232.19
695.808	39949.49
696.155	40240.78
696.501	39884.18
696.847	39928.02
697.193	39558.31
697.539	39644.86
697.885	39367.58
698.231	39331.65
698.577	39379.33
698.923	39312.44
699.269	39063.18
699.614	38961.26
699.96	38815.28
700.306	38935.95
700.651	38604.21
700.997	38667.71
701.342	38520.6
701.688	38462.97
702.033	38362.18
702.379	38289.42
702.724	38204
703.069	38310.89
703.415	37767.17
703.76	37902.76
704.105	37937.11
704.45	37851.91
704.795	37661.41
705.14	37571.7
705.485	37550.68
705.83	37279.27
706.175	37389.1
706.52	37231.59
706.865	37208.09
707.209	37058.94
707.554	36875.89
707.899	37120.18
708.243	36825.73
708.588	36736.01
708.932	36582.12
709.277	36561.55
709.621	36598.84
709.966	36318.85
710.31	36471.84
710.654	36119.98
710.998	36165.18
711.342	36187.33
711.687	35881.57
712.031	35884.51
712.375	35772.65
712.719	35837.05
713.063	35598.41
713.407	35826.2
713.75	35642.03
714.094	35619.88
714.438	35367.01
714.782	35475.03
715.125	35280.46
715.469	35296.5
715.812	35190.52
716.156	34967.92
716.499	35073.68
716.843	35068.26
717.186	34884.76
717.53	34955.72
717.873	34929.96
718.216	34831.88
718.559	34714.14
718.902	34544.43
719.246	34479.8
719.589	34399.12
719.932	34494.26
720.275	34439.12
720.617	34250.43
720.96	34313.48
721.303	34294.95
721.646	34107.83
721.989	34000.94
722.331	34092.01
722.674	34058.34
723.016	34139.7
723.359	33966.82
723.701	33904
724.044	33754.62
724.386	33539.26
724.729	33830.1
725.071	33646.6
725.413	33774.51
725.755	33515.53
726.097	33386.95
726.439	33232.6
726.782	33277.8
727.124	33477.11
727.465	33297.68
727.807	33252.04
728.149	33130.46
728.491	33141.3
728.833	33196.44
729.175	32986.05
729.516	32878.94
729.858	32882.78
730.199	32864.93
730.541	32699.28
730.882	32723.69
731.224	32812.5
731.565	32543.35
731.906	32645.05
732.248	32516.46
732.589	32350.82
732.93	32286.86
733.271	32305.62
733.612	32457.71
733.953	32311.95
734.294	32182.23
734.635	32117.83
734.976	32229.24
735.317	32032.63
735.658	32015.01
735.999	31958.51
736.339	31911.51
736.68	31946.98
737.021	31884.16
737.361	31706.31
737.702	31980.66
738.042	31851.17
738.383	31794.9
738.723	31800.77
739.063	31733.88
739.404	31681.91
739.744	31497.05
740.084	31513.32
740.424	31508.13
740.764	31437.62
741.104	31568.24
741.444	31286.66
741.784	31184.75
742.124	31294.12
742.464	31196.95
742.804	31047.8
743.143	31057.06
743.483	31165.76
743.823	30933
744.162	30958.99
744.502	30923.28
744.841	30904.53
745.181	31004.18
745.52	30796.05
745.86	30853
746.199	30698.43
746.538	30681.93
746.877	30686.68
747.216	30760.35
747.556	30562.84
747.895	30536.4
748.234	30474.93
748.573	30462.73
748.911	30439.91
749.25	30300.02
749.589	30184.32
749.928	30237.65
750.267	30260.48
750.605	30195.17
750.944	30084.21
751.283	30076.98
751.621	30117.2
751.96	29908.17
752.298	29981.16
752.636	29862.75
752.975	29864.33
753.313	29685.12
753.651	29837.21
753.989	29616.2
754.327	29570.32
754.666	29371.91
755.004	29496.43
755.342	29400.61
755.679	29391.12
756.017	29204.46
756.355	29422.76
756.693	29284.68
757.031	29187.06
757.368	29109.55
757.706	29086.95
758.044	28960.17
758.381	29051.69
758.719	28702.1
759.056	28788.2
759.394	28674.3
759.731	28461.2
760.068	28531.26
760.405	28322
760.743	28273.18
761.08	28383.24
761.417	28202.22
761.754	28125.84
762.091	28175.78
762.428	28087.88
762.765	27796.59
763.102	27832.29
763.438	27732.63
763.775	27521.56
764.112	27750.94
764.449	27562.47
764.785	27486.31
765.122	27326.99
765.458	27161.8
765.795	27248.58
766.131	27140.33
766.467	27156.15
766.804	26922.26
767.14	26767.23
767.476	26856.05
767.812	26782.83
768.148	26766.78
768.485	26548.26
768.821	26394.81
769.157	26385.78
769.492	26317.53
769.828	26314.36
770.164	26062.39
770.5	25997.08
770.836	26018.78
771.171	25839.12
771.507	25925.67
771.842	25681.39
772.178	25626.93
772.513	25567.72
772.849	25461.73
773.184	25309.65
773.519	25306.93
773.855	25285.47
774.19	25103.55
774.525	24979.48
774.86	24958.47
775.195	24882.31
775.53	24776.33
775.865	24687.29
776.2	24552.83
776.535	24376.34
776.87	24434.41
777.205	24301.76
777.539	24179.05
777.874	24271.93
778.209	24078.49
778.543	23931.6
778.878	23911.26
779.212	23740.19
779.547	23685.51
779.881	23652.29
780.215	23487.32
780.55	23462.91
780.884	23308.34
781.218	23347.21
781.552	23360.77
781.886	23139.08
782.22	23134.56
782.554	22961.46
782.888	22832.2
783.222	22782.25
783.556	22622.71
783.889	22693.22
784.223	22456.61
784.557	22423.17
784.89	22469.27
785.224	22300.23
785.557	22153.12
785.891	22161.93
786.224	22102.5
786.558	22029.51
786.891	21746.58
787.224	21853.92
787.557	21643.07
787.891	21713.13
788.224	21566.01
788.557	21620.7
788.89	21498.67
789.223	21424.78
789.556	21268.85
789.888	21269.3
790.221	21158.79
790.554	20924
790.887	21003.54
791.219	20886.48
791.552	20898.69
791.884	20814.62
792.217	20685.36
792.549	20620.05
792.882	20484.69
793.214	20427.06
793.546	20531.69
793.879	20301.64
794.211	20226.84
794.543	20233.17
794.875	20160.85
795.207	20294.18
795.539	19985.94
795.871	20040.41
796.203	20010.58
796.535	19894.87
796.867	19778.72
797.198	19654.43
797.53	19716.8
797.862	19648.78
798.193	19703.92
798.525	19615.11
798.856	19510.02
799.188	19300.76
799.519	19312.97
799.85	19201.56
800.182	19110.03
800.513	19108.9
800.844	18934.9
801.175	19002.47
801.506	19053.09
801.837	18884.73
802.168	18879.76
802.499	18842.92
802.83	18699.65
803.161	18628.92
803.491	18629.37
803.822	18589.6
804.153	18394.12
804.483	18366.1
804.814	18295.59
805.145	18258.31
805.475	18287.68
805.805	18163.17
806.136	18200.23
806.466	18146.44
806.796	18078.87
807.126	17877.75
807.457	17913.68
807.787	17863.29
808.117	17762.27
808.447	17769.05
808.777	17851.99
809.107	17731.54
809.436	17613.35
809.766	17648.38
810.096	17588.04
810.426	17553.92
810.755	17583.97
811.085	17494.94
811.414	17325.9
811.744	17253.59
812.073	17267.14
812.403	17225.56
812.732	17160.48
813.061	17148.96
813.39	17028.06
813.719	17040.26
814.049	17095.85
814.378	16936.31
814.707	16891.34
815.036	16880.94
815.365	16838.23
815.693	16669.87
816.022	16623.77
816.351	16635.52
816.68	16574.73
817.008	16561.63
817.337	16441.86
817.665	16325.25
817.994	16546.71
818.322	16397.34
818.651	16305.36
818.979	16345.36
819.307	16348.98
819.636	16338.58
819.964	16199.83
820.292	16257
820.62	16163.67
820.948	16168.64
821.276	16160.28
821.604	16118.93
821.932	16157.12
822.259	16175.65
822.587	16060.17
822.915	16111.7
823.243	16138.36
823.57	16157.12
823.898	16176.55
824.225	16051.81
824.553	16002.09
824.88	16031.25
825.207	16102.2
825.535	16008.42
825.862	16062.88
826.189	16026.05
826.516	16058.36
826.843	16066.27
827.17	16000.06
827.497	16040.51
827.824	16084.58
828.151	16098.59
828.478	16105.37
828.805	16054.3
829.131	16049.1
829.458	15897.01
829.785	15882.1
830.111	15952.38
830.438	16007.52
830.764	16035.09
831.09	15973.17
831.417	15948.31
831.743	15965.26
832.069	16021.53
832.395	15927.07
832.722	15962.09
833.048	15943.56
833.374	15859.27
833.7	15914.86
834.026	15825.37
834.351	15876.45
834.677	15927.52
835.003	15817.69
835.329	15755.55
835.654	15787.86
835.98	15699.05
836.306	15795.55
836.631	15656.57
836.956	15705.38
837.282	15709.45
837.607	15691.59
837.932	15676.68
838.258	15549.45
838.583	15611.82
838.908	15481.88
839.233	15600.52
839.558	15477.59
839.883	15434.2
840.208	15393.75
840.533	15399.4
840.858	15366.63
841.182	15386.97
841.507	15295.9
841.832	15184.71
842.156	15326.63
842.481	15344.03
842.805	15221.77
843.13	15131.16
843.454	15151.49
843.778	15033.53
844.103	15022.46
844.427	14995.11
844.751	15067.88
845.075	14925.51
845.399	14905.85
845.723	14797.61
846.047	14889.58
846.371	14768
846.695	14648.23
847.019	14593.32
847.343	14566.65
847.666	14492.75
847.99	14404.4
848.313	14405.53
848.637	14259.54
848.96	14305.41
849.284	14189.26
849.607	14066.78
849.931	14027.23
850.254	14010.28
850.577	13972.99
850.9	13806.9
851.223	13904.07
851.546	13821.13
851.869	13620.01
852.192	13735.94
852.515	13592.21
852.838	13582.04
853.161	13584.53
853.483	13529.16
853.806	13420.47
854.129	13400.58
854.451	13359.45
854.774	13215.05
855.096	13259.34
855.419	13187.25
855.741	13170.76
856.063	13133.24
856.385	13144.77
856.708	13046.69
857.03	12997.43
857.352	13000.36
857.674	12954.49
857.996	12969.86
858.318	12890.99
858.64	12855.74
858.961	12823.87
859.283	12702.52
859.605	12663.42
859.926	12667.72
860.248	12599.92
860.57	12543.65
860.891	12588.4
861.212	12561.51
861.534	12486.71
861.855	12485.35
862.176	12449.64
862.498	12441.74
862.819	12495.52
863.14	12462.53
863.461	12359.93
863.782	12292.36
864.103	12391.79
864.424	12267.95
864.745	12387.5
865.065	12286.71
865.386	12228.86
865.707	12233.15
866.027	12126.72
866.348	12218.46
866.668	12088.52
866.989	12152.25
867.309	12071.58
867.63	12056.66
867.95	12082.2
868.27	12000.16
868.59	12065.7
868.91	12050.78
869.23	12009.88
869.55	11924.46
869.87	11999.94
870.19	11920.39
870.51	11973.5
870.83	11983.22
871.15	11819.6
871.469	11773.96
871.789	11850.79
872.109	11845.37
872.428	11756.78
872.748	11788.42
873.067	11713.17
873.386	11794.97
873.706	11724.47
874.025	11599.05
874.344	11667.07
874.663	11644.24
874.982	11625.03
875.301	11519.27
875.62	11567.18
875.939	11611.7
876.258	11491.93
876.577	11527.63
876.896	11463.46
877.214	11434.76
877.533	11434.08
877.852	11417.58
878.17	11405.83
878.489	11401.54
878.807	11398.15
879.125	11402.67
879.444	11326.74
879.762	11250.81
880.08	11293.52
880.398	11179.62
880.716	11330.13
881.034	11205.38
881.352	11238.6
881.67	11159.73
881.988	11136.23
882.306	11151.83
882.624	11049.46
882.941	11050.36
883.259	11062.11
883.577	10958.61
883.894	10990.02
884.212	11007.42
884.529	10973.75
884.846	10935.56
885.164	10923.58
885.481	10860.31
885.798	10912.74
886.115	10801.55
886.432	10868.22
886.75	10758.62
887.067	10778.73
887.383	10725.4
887.7	10748.45
888.017	10656.92
888.334	10673.42
888.651	10610.37
888.967	10583.25
889.284	10542.12
889.6	10521.79
889.917	10436.36
890.233	10484.95
890.55	10391.62
890.866	10446.99
891.182	10399.75
891.498	10348.91
891.815	10331.73
892.131	10258.06
892.447	10251.51
892.763	10200.21
893.079	10188.69
893.395	10145.98
893.71	10148.91
894.026	10084.96
894.342	10085.64
894.657	10066.88
894.973	10020.33
895.289	9957.73
895.604	9983.27
895.92	9958.64
896.235	9868.92
896.55	9891.75
896.865	9796.38
897.181	9785.31
897.496	9767.46
897.811	9696.72
898.126	9709.83
898.441	9680.45
898.756	9614.24
899.071	9501.02
899.386	9522.72
899.7	9497.18
900.015	9467.58
900.33	9426
900.644	9393.91
900.959	9402.94
901.273	9369.95
901.588	9327.01
901.902	9255.38
902.216	9250.41
902.531	9278.43
902.845	9153.46
903.159	9190.07
903.473	9101.94
903.787	9119.79
904.101	9037.98
904.415	9041.6
904.729	8978.1
905.042	8872.56
905.356	8915.27
905.67	8932
905.984	8880.7
906.297	8891.09
906.611	8799.8
906.924	8813.36
907.237	8757.31
907.551	8710.08
907.864	8708.95
908.177	8590.08
908.491	8695.84
908.804	8595.73
909.117	8557.32
909.43	8482.29
909.743	8451.11
910.056	8422.63
910.368	8387.38
910.681	8346.7
910.994	8316.42
911.307	8287.95
911.619	8264.44
911.932	8295.4
912.244	8137.89
912.557	8140.83
912.869	8104.22
913.181	8105.8
913.494	8103.09
913.806	8001.17
914.118	8029.65
914.43	7940.84
914.742	7935.19
915.054	7875.98
915.366	7766.83
915.678	7846.83
915.99	7765.93
916.302	7724.8
916.613	7711.01
916.925	7711.92
917.236	7654.06
917.548	7608.87
917.859	7604.35
918.171	7540.62
918.482	7503.56
918.794	7443.67
919.105	7478.7
919.416	7420.62
919.727	7388.76
920.038	7393.28
920.349	7361.87
920.66	7332.72
920.971	7293.62
921.282	7278.48
921.593	7212.95
921.903	7152.83
922.214	7114.87
922.525	7143.12
922.835	7126.85
923.146	7030.35
923.456	7053.63
923.767	6990.35
924.077	7044.14
924.387	6915.1
924.697	6892.5
925.008	6869
925.318	6909.68
925.628	6871.03
925.938	6826.97
926.248	6784.26
926.558	6717.37
926.867	6699.06
927.177	6690.47
927.487	6629.46
927.796	6609.8
928.106	6577.71
928.416	6559.4
928.725	6570.93
929.034	6533.64
929.344	6546.97
929.653	6494.09
929.962	6452.74
930.271	6408.45
930.581	6368.22
930.89	6360.76
931.199	6268.11
931.508	6319.18
931.817	6335.45
932.125	6241.22
932.434	6210.71
932.743	6147.21
933.051	6161
933.36	6121.9
933.669	6078.96
933.977	6066.08
934.286	6042.13
934.594	6062.47
934.902	5941.34
935.21	5970.04
935.519	6001.68
935.827	5946.31
936.135	5901.12
936.443	5810.95
936.751	5822.25
937.059	5812.53
937.367	5754.68
937.674	5790.84
937.982	5757.39
938.29	5708.58
938.597	5694.79
938.905	5614.57
939.213	5626.1
939.52	5626.32
939.827	5618.64
940.135	5621.35
940.442	5572.31
940.749	5567.34
941.056	5524.63
941.363	5513.33
941.67	5472.88
941.977	5449.6
942.284	5377.29
942.591	5417.29
942.898	5342.94
943.205	5343.62
943.511	5317.18
943.818	5325.54
944.125	5244.86
944.431	5273.34
944.738	5201.7
945.044	5193.56
945.35	5186.11
945.657	5147.92
945.963	5146.33
946.269	5144.98
946.575	5101.82
946.881	5068.14
947.187	5064.98
947.493	4987.69
947.799	4976.62
948.105	4980.46
948.41	4948.15
948.716	4982.95
949.022	4902.05
949.327	4905.66
949.633	4846.45
949.938	4897.75
950.244	4852.56
950.549	4797.42
950.854	4798.32
951.16	4776.85
951.465	4709.96
951.77	4746.8
952.075	4693.24
952.38	4701.37
952.685	4648.72
952.99	4633.58
953.294	4652.56
953.599	4620.47
953.904	4587.03
954.209	4569.63
954.513	4524.43
954.818	4503.41
955.122	4476.52
955.426	4496.63
955.731	4491.89
956.035	4422.96
956.339	4408.5
956.643	4429.52
956.948	4391.55
957.252	4388.39
957.556	4367.82
957.86	4350.87
958.163	4307.03
958.467	4283.76
958.771	4314.49
959.075	4279.24
959.378	4259.35
959.682	4225.91
959.985	4179.35
960.289	4186.36
960.592	4140.94
960.896	4154.27
961.199	4105.91
961.502	4096.19
961.805	4095.74
962.108	4087.83
962.411	4084.67
962.714	4039.47
963.017	4009.87
963.32	4007.15
963.623	3981.62
963.926	3972.13
964.228	3918.8
964.531	3956.08
964.833	3932.58
965.136	3843.99
965.438	3853.26
965.741	3908.85
966.043	3861.17
966.345	3813.71
966.648	3800.61
966.95	3779.14
967.252	3772.13
967.554	3760.16
967.856	3739.59
968.158	3681.29
968.46	3740.72
968.761	3684
969.063	3658.01
969.365	3653.94
969.666	3646.26
969.968	3613.27
970.269	3598.58
970.571	3606.49
970.872	3566.71
971.174	3535.08
971.475	3620.5
971.776	3519.26
972.077	3534.17
972.378	3456.89
972.679	3499.15
972.98	3484
973.281	3446.94
973.582	3445.14
973.883	3440.39
974.183	3397.23
974.484	3360.62
974.785	3400.16
975.085	3394.74
975.386	3380.28
975.686	3324.46
975.986	3328.3
976.287	3326.27
976.587	3312.94
976.887	3302.77
977.187	3255.99
977.487	3246.95
977.787	3229.1
978.087	3265.48
978.387	3229.32
978.687	3232.94
978.987	3197.23
979.286	3182.54
979.586	3146.61
979.885	3148.87
980.185	3141.87
980.484	3106.16
980.784	3105.48
981.083	3091.02
981.382	3085.6
981.682	3055.09
981.981	3053.73
982.28	3024.81
982.579	3058.03
982.878	3038.82
983.177	2986.39
983.475	2938.93
983.774	2968.76
984.073	2939.16
984.372	2923.79
984.67	2918.37
984.969	2924.7
985.267	2919.95
985.566	2847.86
985.864	2905.49
986.162	2900.29
986.461	2864.59
986.759	2835.21
987.057	2813.29
987.355	2793.18
987.653	2805.6
987.951	2786.17
988.249	2752.72
988.547	2772.61
988.844	2732.39
989.142	2721.09
989.44	2686.96
989.737	2715.44
990.035	2706.62
990.332	2696.91
990.63	2649.22
990.927	2625.72
991.224	2631.15
991.521	2668.43
991.819	2635.21
992.116	2616
992.413	2571.03
992.71	2577.81
993.006	2596.12
993.303	2549.79
993.6	2552.96
993.897	2500.75
994.193	2544.37
994.49	2519.74
994.787	2479.29
995.083	2447.42
995.379	2446.07
995.676	2438.38
995.972	2459.4
996.268	2444.03
996.565	2412.17
996.861	2447.87
997.157	2405.16
997.453	2388.67
997.749	2359.97
998.044	2339.63
998.34	2341.21
998.636	2318.84
998.932	2340.53
999.227	2296.01
999.523	2314.54
999.818	2313.19
1000.114	2270.25
1000.409	2260.31
1000.704	2266.18
1001	2251.04
1001.295	2232.51
1001.59	2210.82
1001.885	2222.79
1002.18	2187.77
1002.475	2196.35
1002.77	2187.77
1003.065	2140.08
1003.359	2134.44
1003.654	2120.65
1003.949	2089.01
1004.243	2154.32
1004.538	2089.01
1004.832	2077.26
1005.127	2100.31
1005.421	2079.97
1005.715	2075.45
1006.009	2063.02
1006.304	2053.53
1006.598	2028.9
1006.892	2036.13
1007.186	1979.19
1007.48	1968.11
1007.773	1987.09
1008.067	1966.3
1008.361	1949.13
1008.655	1916.36
1008.948	1929.47
1009.242	1917.49
1009.535	1935.57
1009.829	1901
1010.122	1901.22
1010.415	1897.83
1010.708	1871.17
1011.001	1875.69
1011.295	1831.39
1011.588	1833.43
1011.881	1808.79
1012.173	1799.75
1012.466	1844.73
1012.759	1809.02
1013.052	1813.77
1013.344	1761.56
1013.637	1778.29
1013.93	1751.17
1014.222	1730.83
1014.514	1743.03
1014.807	1751.39
1015.099	1736.25
1015.391	1720.43
1015.683	1687.67
1015.976	1680.21
1016.268	1679.53
1016.56	1657.84
1016.851	1653.09
1017.143	1656.48
1017.435	1616.93
1017.727	1621.68
1018.018	1616.93
1018.31	1603.15
1018.602	1602.25
1018.893	1608.12
1019.185	1570.83
1019.476	1566.54
1019.767	1572.87
1020.058	1543.94
1020.35	1522.47
1020.641	1525.86
1020.932	1478.41
1021.223	1507.56
1021.514	1493.32
1021.804	1449.93
1022.095	1472.08
1022.386	1428.24
1022.677	1444.28
1022.967	1454.45
1023.258	1431.86
1023.548	1430.05
1023.839	1407.22
1024.129	1415.36
1024.419	1406.32
1024.709	1389.6
1025	1386.66
1025.29	1376.49
1025.58	1348.92
1025.87	1322.93
1026.16	1341.91
1026.449	1363.38
1026.739	1319.09
1027.029	1320.22
1027.319	1323.84
1027.608	1272.31
1027.898	1285.87
1028.187	1272.31
1028.477	1277.51
1028.766	1274.12
1029.055	1248.13
1029.344	1195.48
1029.634	1218.53
1029.923	1198.87
1030.212	1211.97
1030.501	1220.11
1030.79	1169.04
1031.078	1205.42
1031.367	1184.4
1031.656	1179.21
1031.945	1158.87
1032.233	1172.88
1032.522	1159.09
1032.81	1167
1033.099	1147.79
1033.387	1129.04
1033.675	1141.92
1033.963	1108.47
1034.251	1118.19
1034.54	1143.5
1034.828	1086.78
1035.116	1095.14
1035.403	1088.59
1035.691	1088.59
1035.979	1064.41
1036.267	1058.53
1036.554	1060.11
1036.842	1082.26
1037.129	1062.6
1037.417	1038.42
1037.704	1033.67
1037.992	1036.61
1038.279	1020.57
1038.566	1007.69
1038.853	1007.69
1039.14	1007.69
