Data from hue_240_FLMS001491_00010.txt Node
Date: Tue Feb 07 16:34:59 GMT 2017
User: dcchb
Spectrometer: FLMS00149
Trigger mode: 0
Integration Time (sec): 2.000000E-2
Scans to average: 10
Electric dark correction enabled: true
Nonlinearity correction enabled: false
Boxcar width: 0
XAxis mode: Wavelengths
Number of Pixels in Spectrum: 2048
>>>>>Begin Spectral Data<<<<<
341.393	-6.77
341.776	-6.77
342.16	-6.77
342.543	-72.07
342.927	-77.95
343.31	-75.24
343.693	-78.18
344.077	-62.36
344.46	-60.32
344.843	-47.67
345.226	-57.84
345.61	-34.11
345.993	-40.66
346.376	-13.54
346.759	25.78
347.142	28.04
347.525	51.76
347.908	77.75
348.291	73.91
348.674	90.63
349.057	122.04
349.44	133.34
349.823	153.68
350.206	154.13
350.588	172.89
350.971	175.6
351.354	216.96
351.737	211.99
352.119	245.66
352.502	240.69
352.884	265.77
353.267	257.86
353.65	270.29
354.032	287.46
354.414	296.28
354.797	288.82
355.179	304.86
355.562	294.24
355.944	302.61
356.326	314.13
356.709	325.66
357.091	310.51
357.473	337.18
357.855	337.86
358.238	332.89
358.62	323.62
359.002	321.14
359.384	330.17
359.766	332.66
360.148	328.37
360.53	295.6
360.912	299.89
361.294	319.1
361.676	315.49
362.057	313
362.439	324.98
362.821	309.61
363.203	334.02
363.584	322.94
363.966	317.52
364.348	296.28
364.729	291.31
365.111	300.8
365.493	317.52
365.874	310.97
366.256	280.23
366.637	298.54
367.019	300.57
367.4	298.31
367.781	292.89
368.163	310.06
368.544	300.57
368.925	291.76
369.306	287.24
369.688	291.76
370.069	296.96
370.45	287.01
370.831	289.72
371.212	288.82
371.593	313.9
371.974	296.73
372.355	295.83
372.736	297.63
373.117	305.09
373.498	300.57
373.879	303.28
374.26	304.86
374.641	295.37
375.021	317.75
375.402	310.06
375.783	300.57
376.163	317.97
376.544	315.49
376.925	304.19
377.305	293.57
377.686	315.26
378.066	317.97
378.447	322.04
378.827	306.67
379.208	312.1
379.588	333.11
379.968	302.15
380.349	328.82
380.729	325.66
381.109	330.4
381.489	321.59
381.87	319.78
382.25	319.33
382.63	318.88
383.01	323.85
383.39	329.05
383.77	331.53
384.15	343.28
384.53	332.89
384.91	329.05
385.29	320.01
385.67	341.25
386.049	325.66
386.429	326.56
386.809	343.51
387.189	342.15
387.568	346.22
387.948	331.08
388.328	329.5
388.707	334.92
389.087	343.73
389.466	349.16
389.846	343.51
390.225	345.32
390.605	342.83
390.984	362.94
391.363	340.8
391.743	369.95
392.122	364.3
392.501	346.22
392.881	351.87
393.26	372.21
393.639	358.65
394.018	370.4
394.397	372.66
394.776	385.31
395.155	367.46
395.534	356.84
395.913	374.92
396.292	388.93
396.671	375.6
397.05	377.41
397.429	382.83
397.808	367.24
398.186	394.13
398.565	380.8
398.944	385.99
399.323	410.4
399.701	400
400.08	385.09
400.458	393.22
400.837	381.47
401.215	411.3
401.594	397.07
401.972	390.29
402.351	402.26
402.729	412.21
403.107	407.69
403.486	399.78
403.864	420.79
404.242	411.75
404.62	402.04
404.999	420.57
405.377	427.8
405.755	436.84
406.133	431.87
406.511	417.63
406.889	450.4
407.267	433.22
407.645	435.71
408.023	439.55
408.401	469.61
408.779	457.86
409.156	475.48
409.534	461.92
409.912	480.23
410.29	476.61
410.667	483.62
411.045	509.61
411.422	487.01
411.8	501.47
412.178	504.86
412.555	519.32
412.933	516.61
413.31	527.23
413.687	517.29
414.065	524.29
414.442	549.6
414.819	566.1
415.197	556.84
415.574	560.9
415.951	574.01
416.328	560
416.705	543.95
417.082	581.69
417.46	604.52
417.837	597.06
418.214	589.15
418.591	610.85
418.967	612.88
419.344	614.24
419.721	635.03
420.098	621.69
420.475	653.33
420.852	654.23
421.228	661.01
421.605	651.97
421.982	670.5
422.358	698.3
422.735	683.61
423.111	697.85
423.488	730.84
423.864	725.42
424.241	723.84
424.617	736.27
424.994	724.29
425.37	759.32
425.746	783.5
426.123	756.83
426.499	790.28
426.875	791.41
427.251	795.93
427.627	808.81
428.003	828.69
428.379	848.13
428.756	830.95
429.132	831.4
429.507	875.02
429.883	856.49
430.259	899.43
430.635	888.35
431.011	881.35
431.387	925.87
431.763	942.36
432.138	919.54
432.514	950.27
432.89	931.97
433.265	966.99
433.641	985.07
434.016	977.84
434.392	1009.71
434.767	1044.28
435.143	1046.54
435.518	1055.58
435.894	1077.05
436.269	1094.9
436.644	1100.32
437.02	1134
437.395	1129.02
437.77	1103.49
438.145	1145.97
438.52	1169.47
438.895	1193.88
439.271	1201.79
439.646	1220.55
440.021	1224.61
440.395	1241.79
440.77	1256.03
441.145	1253.31
441.52	1269.59
441.895	1290.83
442.27	1315.01
442.645	1303.26
443.019	1341.45
443.394	1334.67
443.769	1331.28
444.143	1350.71
444.518	1362.69
444.892	1357.72
445.267	1361.79
445.641	1381.9
446.016	1388.9
446.39	1427.1
446.764	1412.18
447.139	1421.9
447.513	1425.74
447.887	1443.59
448.262	1471.16
448.636	1471.84
449.01	1462.8
449.384	1488.56
449.758	1492.63
450.132	1537.6
450.506	1538.73
450.88	1526.98
451.254	1532.63
451.628	1562.23
452.002	1576.02
452.376	1564.49
452.75	1599.07
453.123	1592.97
453.497	1667.99
453.871	1629.58
454.244	1664.15
454.618	1672.51
454.992	1723.36
455.365	1708.44
455.739	1723.36
456.112	1760.65
456.486	1769.01
456.859	1792.51
457.232	1799.06
457.606	1812.17
457.979	1807.88
458.352	1859.17
458.725	1848.1
459.099	1903.24
459.472	1907.31
459.845	1927.65
460.218	1932.39
460.591	1992.5
460.964	1946.86
461.337	1995.67
461.71	2055.55
462.083	2082.9
462.456	2069.79
462.829	2067.3
463.201	2130.81
463.574	2139.62
463.947	2144.36
464.32	2196.34
464.692	2183.91
465.065	2197.47
465.438	2234.08
465.81	2278.15
466.183	2293.29
466.555	2335.32
466.928	2340.97
467.3	2355.66
467.672	2376.22
468.045	2444.7
468.417	2472.49
468.789	2444.92
469.161	2482.89
469.534	2571.25
469.906	2575.54
470.278	2592.49
470.65	2599.72
471.022	2655.76
471.394	2691.02
471.766	2731.92
472.138	2731.02
472.51	2781.86
472.882	2816.66
473.253	2852.14
473.625	2892.82
473.997	2928.98
474.369	2941.86
474.74	3001.52
475.112	2993.83
475.484	3083.77
475.855	3112.93
476.227	3134.62
476.598	3229.08
476.97	3247.39
477.341	3308.18
477.713	3322.64
478.084	3361.28
478.455	3442.86
478.827	3469.75
479.198	3532.8
479.569	3543.42
479.94	3644.89
480.311	3637.21
480.682	3734.15
481.053	3796.3
481.424	3861.61
481.795	3912.91
482.166	3902.06
482.537	4007.37
482.908	4042.62
483.279	4068.38
483.65	4140.02
484.021	4202.62
484.391	4274.03
484.762	4228.38
485.133	4310.18
485.503	4352.44
485.874	4427.02
486.244	4488.48
486.615	4542.27
486.985	4592.21
487.356	4636.5
487.726	4672.66
488.097	4759.89
488.467	4765.99
488.837	4867.68
489.207	4905.2
489.578	4909.49
489.948	5010.73
490.318	5059.32
490.688	5026.55
491.058	5122.14
491.428	5198.97
491.798	5177.05
492.168	5316.94
492.538	5375.69
492.908	5371.85
493.278	5442.13
493.648	5451.4
494.017	5504.73
494.387	5527.78
494.757	5549.7
495.126	5653.42
495.496	5647.55
495.866	5668.79
496.235	5704.72
496.605	5783.14
496.974	5812.52
497.344	5872.18
497.713	5866.75
498.082	5859.07
498.452	5898.16
498.821	5953.76
499.19	5980.65
499.559	6069.01
499.928	6044.6
500.298	6050.48
500.667	6107.42
501.036	6114.2
501.405	6141.77
501.774	6142
502.143	6179.29
502.512	6209.34
502.88	6271.71
503.249	6303.13
503.618	6232.17
503.987	6287.08
504.356	6366.63
504.724	6319.4
505.093	6389
505.462	6363.46
505.83	6407.98
506.199	6465.38
506.567	6519.39
506.936	6549.67
507.304	6579.28
507.672	6570.69
508.041	6624.92
508.409	6655.88
508.777	6672.38
509.145	6733.4
509.514	6728.88
509.882	6755.32
510.25	6778.14
510.618	6770.68
510.986	6764.58
511.354	6772.27
511.722	6790.12
512.09	6892.94
512.458	6828.99
512.826	6834.64
513.193	6880.06
513.561	6906.5
513.929	6881.19
514.297	6906.05
514.664	6981.07
515.032	6991.69
515.4	7004.12
515.767	7038.7
516.135	7042.31
516.502	6964.12
516.869	7094.97
517.237	7104.01
517.604	7095.19
517.972	7138.13
518.339	7198.02
518.706	7101.07
519.073	7157.11
519.44	7138.36
519.808	7196.66
520.175	7204.34
520.542	7261.52
520.909	7259.26
521.276	7293.61
521.643	7322.99
522.009	7282.53
522.376	7318.01
522.743	7393.72
523.11	7388.97
523.477	7408.63
523.843	7435.98
524.21	7491.79
524.577	7570.21
524.943	7475.75
525.31	7441.85
525.676	7560.04
526.043	7601.85
526.409	7541.06
526.776	7698.79
527.142	7602.07
527.508	7622.86
527.874	7661.06
528.241	7645.24
528.607	7667.84
528.973	7710.32
529.339	7672.35
529.705	7738.12
530.071	7767.72
530.437	7800.04
530.803	7799.81
531.169	7742.41
531.535	7775.4
531.901	7803.42
532.267	7741.96
532.632	7790.32
532.998	7839.81
533.364	7799.36
533.73	7824.22
534.095	7865.12
534.461	7853.14
534.826	7822.63
535.192	7841.84
535.557	7852.91
535.923	7764.56
536.288	7853.59
536.653	7790.32
537.019	7839.81
537.384	7823.09
537.749	7817.89
538.114	7723.65
538.479	7760.04
538.845	7835.51
539.21	7823.09
539.575	7775.85
539.94	7776.98
540.305	7789.64
540.67	7752.58
541.034	7767.27
541.399	7769.3
541.764	7715.52
542.129	7770.66
542.494	7743.99
542.858	7726.14
543.223	7708.51
543.587	7755.97
543.952	7717.55
544.316	7693.37
544.681	7677.33
545.045	7709.87
545.41	7699.92
545.774	7669.42
546.138	7658.12
546.503	7621.73
546.867	7710.55
547.231	7726.82
547.595	7647.72
547.959	7709.87
548.324	7696.08
548.688	7680.94
549.052	7675.07
549.416	7616.09
549.779	7631.45
550.143	7652.02
550.507	7641.85
550.871	7629.42
551.235	7609.98
551.599	7657.44
551.962	7710.55
552.326	7600.49
552.689	7693.82
553.053	7672.58
553.417	7633.03
553.78	7719.81
554.143	7629.42
554.507	7642.3
554.87	7625.12
555.234	7682.07
555.597	7649.3
555.96	7666.93
556.323	7685.24
556.686	7617.21
557.05	7679.36
557.413	7641.4
557.776	7676.42
558.139	7642.75
558.502	7678
558.865	7678.23
559.228	7722.75
559.59	7709.42
559.953	7708.51
560.316	7776.53
560.679	7754.61
561.041	7786.48
561.404	7733.14
561.767	7801.62
562.129	7714.84
562.492	7786.7
562.854	7838.23
563.217	7794.39
563.579	7801.62
563.941	7874.84
564.304	7913.03
564.666	7871.9
565.028	7898.34
565.39	7920.71
565.753	7891.33
566.115	7976.3
566.477	7941.5
566.839	7961.39
567.201	8002.52
567.563	8042.06
567.925	8052.68
568.287	8101.95
568.648	8091.1
569.01	8109.86
569.372	8221.72
569.734	8153.92
570.095	8195.73
570.457	8183.53
570.819	8070.76
571.18	8168.39
571.542	8185.11
571.903	8253.36
572.265	8300.59
572.626	8343.52
572.987	8307.59
573.349	8332.45
573.71	8398.44
574.071	8349.85
574.432	8340.59
574.794	8417.42
575.155	8360.47
575.516	8381.49
575.877	8479.79
576.238	8394.37
576.599	8469.17
576.96	8495.84
577.32	8473.46
577.681	8539.9
578.042	8601.37
578.403	8493.58
578.763	8539.45
579.124	8601.14
579.485	8597.98
579.845	8660.58
580.206	8609.28
580.566	8676.62
580.927	8684.53
581.287	8666.68
581.648	8695.15
582.008	8742.61
582.368	8755.49
582.728	8749.16
583.089	8720.01
583.449	8811.31
583.809	8755.04
584.169	8773.57
584.529	8764.98
584.889	8851.08
585.249	8798.88
585.609	8761.14
585.969	8857.41
586.329	8803.62
586.688	8861.25
587.048	8830.29
587.408	8799.78
587.768	8871.19
588.127	8831.42
588.487	8887.92
588.846	8889.72
589.206	8930.4
589.565	8877.97
589.925	8960.46
590.284	8945.09
590.643	8966.33
591.003	8955.71
591.362	9025.09
591.721	8981.47
592.08	8981.25
592.44	8999.33
592.799	9046.78
593.158	9008.59
593.517	9059.44
593.876	9037.97
594.235	9040.45
594.593	8988.48
594.952	9034.35
595.311	9038.65
595.67	9091.3
596.029	9141.24
596.387	9148.7
596.746	9136.95
597.104	9158.19
597.463	9071.41
597.822	9146.21
598.18	9140.34
598.538	9112.77
598.897	9147.57
599.255	9121.13
599.613	9261.47
599.972	9156.16
600.33	9201.13
600.688	9166.1
601.046	9218.08
601.404	9202.03
601.762	9195.48
602.12	9223.05
602.478	9264.4
602.836	9247.23
603.194	9242.26
603.552	9235.7
603.91	9169.72
604.268	9208.13
604.625	9203.39
604.983	9300.33
605.341	9233.22
605.698	9252.88
606.056	9286.78
606.413	9297.17
606.771	9264.4
607.128	9319.77
607.485	9207
607.843	9247.68
608.2	9321.8
608.557	9380.11
608.914	9288.36
609.272	9363.38
609.629	9392.31
609.986	9415.81
610.343	9320
610.7	9395.7
611.057	9414.23
611.414	9383.04
611.771	9331.52
612.127	9414.23
612.484	9429.6
612.841	9414.46
613.198	9446.77
613.554	9426.88
613.911	9430.73
614.267	9439.09
614.624	9469.37
614.98	9484.96
615.337	9470.27
615.693	9503.95
616.05	9503.72
616.406	9615.58
616.762	9504.85
617.118	9500.33
617.475	9499.43
617.831	9592.98
618.187	9493.55
618.543	9531.74
618.899	9618.97
619.255	9603.6
619.611	9548.69
619.967	9659.87
620.323	9610.16
620.678	9643.38
621.034	9533.77
621.39	9544.62
621.746	9588.91
622.101	9678.86
622.457	9588.01
622.812	9615.58
623.168	9616.03
623.523	9609.03
623.879	9609.48
624.234	9601.8
624.589	9634.56
624.945	9572.42
625.3	9646.77
625.655	9611.06
626.01	9597.95
626.365	9614.9
626.72	9552.08
627.075	9564.28
627.43	9572.87
627.785	9618.07
628.14	9643.38
628.495	9661.91
628.85	9632.76
629.205	9583.04
629.559	9576.94
629.914	9508.92
630.269	9524.74
630.623	9530.61
630.978	9509.37
631.332	9497.84
631.687	9526.77
632.041	9495.13
632.396	9465.75
632.75	9518.86
633.104	9492.87
633.459	9372.88
633.813	9444.96
634.167	9413.33
634.521	9438.18
634.875	9463.04
635.229	9421.69
635.583	9272.99
635.937	9385.08
636.291	9397.73
636.645	9390.73
636.999	9339.2
637.352	9387.79
637.706	9360.22
638.06	9361.58
638.413	9326.55
638.767	9337.17
639.121	9317.51
639.474	9231.18
639.828	9226.66
640.181	9254.46
640.534	9307.57
640.888	9254.91
641.241	9204.07
641.594	9200.9
641.947	9231.86
642.301	9136.72
642.654	9181.69
643.007	9165.2
643.36	9157.51
643.713	9171.07
644.066	9170.39
644.419	9165.2
644.771	9093.33
645.124	9013.56
645.477	8985.31
645.83	8975.37
646.182	8904.86
646.535	8823.74
646.888	8902.6
647.24	8850.85
647.593	8857.41
647.945	8851.53
648.298	8825.09
648.65	8790.97
649.002	8773.34
649.355	8816.05
649.707	8863.96
650.059	8835.49
650.411	8911.64
650.763	8954.58
651.115	9007.23
651.467	9016.5
651.819	8985.31
652.171	9045.2
652.523	8998.2
652.875	9025.77
653.227	8973.79
653.578	8942.15
653.93	9015.14
654.282	9022.38
654.633	8971.53
654.985	8936.05
655.337	9014.69
655.688	8967.46
656.039	9023.51
656.391	8955.71
656.742	8961.59
657.094	8968.37
657.445	9016.05
657.796	8993
658.147	8959.1
658.498	8954.58
658.849	9051.98
659.2	9046.1
659.551	8900.12
659.902	8965.65
660.253	8938.76
660.604	8885.43
660.955	8979.21
661.306	8936.28
661.656	8986.67
662.007	8943.73
662.358	9035.71
662.708	8943.06
663.059	8973.79
663.409	8865.77
663.76	8949.61
664.11	8951.42
664.461	8991.87
664.811	9020.79
665.161	8907.58
665.511	8934.24
665.862	8950.97
666.212	8913.68
666.562	8969.95
666.912	8999.33
667.262	8931.53
667.612	9019.89
667.962	8991.64
668.312	9032.32
668.662	8954.81
669.011	9005.2
669.361	8942.6
669.711	8914.36
670.06	8926.33
670.41	8931.98
670.76	8861.02
671.109	8884.75
671.459	8889.05
671.808	8837.52
672.157	8976.95
672.507	8974.47
672.856	8847.24
673.205	8913.45
673.554	8883.17
673.904	8867.35
674.253	8921.36
674.602	8834.13
674.951	8754.36
675.3	8687.92
675.649	8837.75
675.998	8796.17
676.346	8793.46
676.695	8901.47
677.044	8786
677.393	8840.69
677.741	8785.55
678.09	8817.18
678.438	8801.14
678.787	8767.24
679.135	8755.04
679.484	8702.61
679.832	8692.21
680.181	8697.64
680.529	8689.73
680.877	8668.03
681.225	8684.53
681.573	8716.85
681.922	8596.17
682.27	8577.64
682.618	8616.74
682.966	8595.27
683.314	8605.44
683.661	8556.4
684.009	8509.39
684.357	8557.08
684.705	8559.11
685.053	8495.84
685.4	8466.91
685.748	8445.89
686.095	8451.09
686.443	8342.17
686.79	8359.79
687.138	8376.74
687.485	8418.78
687.832	8315.73
688.18	8378.32
688.527	8357.08
688.874	8271.89
689.221	8267.37
689.568	8268.72
689.915	8213.81
690.262	8231.44
690.609	8131.33
690.956	8213.81
691.303	8203.87
691.65	8138.11
691.997	8116.41
692.344	8061.27
692.69	8011.1
693.037	8055.17
693.383	7993.7
693.73	7999.35
694.077	7944.21
694.423	7950.31
694.769	7925.46
695.116	7838.23
695.462	7913.25
695.808	7906.92
696.155	7837.32
696.501	7727.72
696.847	7783.54
697.193	7708.06
697.539	7769.98
697.885	7638.01
698.231	7653.15
698.577	7626.93
698.923	7668.51
699.269	7639.14
699.614	7494.73
699.96	7522.75
700.306	7487.73
700.651	7446.37
700.997	7471.23
701.342	7452.02
701.688	7412.47
702.033	7386.03
702.379	7423.32
702.724	7280.05
703.069	7342.65
703.415	7305.13
703.76	7286.15
704.105	7249.77
704.45	7220.62
704.795	7167.74
705.14	7156.21
705.485	7195.76
705.83	7111.47
706.175	7173.38
706.52	7161.63
706.865	7042.99
707.209	7087.51
707.554	7049.09
707.899	7021.75
708.243	7014.52
708.588	7054.74
708.932	6939.49
709.277	6962.54
709.621	6920.28
709.966	6924.8
710.31	6925.48
710.654	6895.65
710.998	6889.55
711.342	6845.71
711.687	6847.07
712.031	6816.11
712.375	6751.48
712.719	6760.06
713.063	6790.34
713.407	6772.49
713.75	6746.96
714.094	6708.31
714.438	6689.78
714.782	6761.42
715.125	6666.05
715.469	6717.13
715.812	6645.49
716.156	6666.73
716.499	6647.07
716.843	6614.98
717.186	6624.7
717.53	6669.44
717.873	6617.69
718.216	6579.95
718.559	6580.63
718.902	6555.1
719.246	6570.91
719.589	6591.71
719.932	6554.64
720.275	6539.73
720.617	6553.51
720.96	6503.12
721.303	6521.88
721.646	6524.81
721.989	6466.28
722.331	6472.16
722.674	6516.68
723.016	6474.19
723.359	6522.1
723.701	6457.92
724.044	6499.73
724.386	6395.55
724.729	6465.38
725.071	6429.9
725.413	6401.65
725.755	6440.07
726.097	6410.92
726.439	6400.07
726.782	6353.75
727.124	6372.95
727.465	6391.71
727.807	6400.3
728.149	6348.55
728.491	6351.94
728.833	6358.49
729.175	6367.98
729.516	6314.65
729.858	6304.03
730.199	6330.24
730.541	6273.07
730.882	6322.79
731.224	6351.94
731.565	6335.44
731.906	6342.9
732.248	6300.19
732.589	6255.89
732.93	6279.4
733.271	6335.67
733.612	6332.05
733.953	6303.8
734.294	6294.99
734.635	6285.95
734.976	6307.42
735.317	6241.21
735.658	6299.96
735.999	6316.68
736.339	6294.76
736.68	6357.81
737.021	6322.79
737.361	6308.32
737.702	6318.72
738.042	6327.08
738.383	6361.65
738.723	6339.73
739.063	6287.31
739.404	6369.79
739.744	6341.77
740.084	6317.59
740.424	6306.51
740.764	6326.85
741.104	6337.7
741.444	6295.44
741.784	6346.97
742.124	6368.66
742.464	6386.29
742.804	6365.5
743.143	6333.86
743.483	6419.51
743.823	6441.2
744.162	6363.24
744.502	6464.25
744.841	6494.31
745.181	6513.06
745.52	6460.18
745.86	6521.88
746.199	6573.63
746.538	6572.04
746.877	6580.63
747.216	6639.16
747.556	6631.25
747.895	6592.38
748.234	6627.18
748.573	6804.58
748.911	6776.56
749.25	6732.27
749.589	6819.04
749.928	6863.56
750.267	6922.32
750.605	6905.6
750.944	6990.79
751.283	6970.9
751.621	7083.67
751.96	7083.22
752.298	7121.86
752.636	7248.86
752.975	7260.84
753.313	7330.44
753.651	7406.37
753.989	7415.64
754.327	7518.01
754.666	7560.95
755.004	7683.88
755.342	7784.67
755.679	7793.03
756.017	7871.67
756.355	8045.68
756.693	8007.71
757.031	8106.47
757.368	8170.87
757.706	8288.38
758.044	8345.33
758.381	8456.97
758.719	8542.84
759.056	8674.14
759.394	8721.37
759.731	8783.96
760.068	8893.11
760.405	8942.15
760.743	9007.01
761.08	9252.88
761.417	9291.3
761.754	9412.65
762.091	9411.29
762.428	9509.14
762.765	9593.43
763.102	9812.41
763.438	9879.75
763.775	9921.34
764.112	10021.9
764.449	10209.24
764.785	10238.39
765.122	10291.27
765.458	10369.23
765.795	10482.9
766.131	10612.62
766.467	10628.21
766.804	10693.07
767.14	10775.1
767.476	10856
767.812	10842.44
768.148	11043.57
768.485	11041.53
768.821	11081.08
769.157	11192.26
769.492	11202.21
769.828	11334.41
770.164	11327.63
770.5	11347.29
770.836	11489.43
771.171	11461.18
771.507	11490.56
771.842	11512.93
772.178	11610.78
772.513	11578.01
772.849	11733.49
773.184	11697.33
773.519	11761.96
773.855	11724.9
774.19	11822.08
774.525	11881.51
774.86	11887.61
775.195	11925.8
775.53	11946.82
775.865	11904.56
776.2	11926.93
776.535	11886.71
776.87	11975.52
777.205	11935.75
777.539	11991.34
777.874	11983.88
778.209	12004.22
778.543	11995.4
778.878	11937.78
779.212	12029.98
779.547	12037.21
779.881	12087.61
780.215	12019.59
780.55	12041.96
780.884	12036.76
781.218	12092.35
781.552	12021.39
781.886	12062.75
782.22	12002.86
782.554	12056.42
782.888	11951.11
783.222	11954.28
783.556	11906.37
783.889	11880.83
784.223	11916.54
784.557	11833.15
784.89	11880.61
785.224	11854.39
785.557	11792.02
785.891	11855.52
786.224	11791.79
786.558	11779.14
786.891	11743.66
787.224	11700.72
787.557	11709.99
787.891	11656.88
788.224	11637.45
788.557	11686.49
788.89	11695.3
789.223	11728.29
789.556	11592.48
789.888	11597.22
790.221	11585.7
790.554	11519.03
790.887	11534.17
791.219	11398.81
791.552	11431.8
791.884	11420.73
792.217	11361.3
792.549	11317
792.882	11305.03
793.214	11301.64
793.546	11353.61
793.879	11183.22
794.211	11198.59
794.543	11244.69
794.875	11227.29
795.207	11248.53
795.539	11161.75
795.871	11203.79
796.203	11117.01
796.535	11060.97
796.867	11058.25
797.198	10965.6
797.53	11066.62
797.862	10929.22
798.193	11007.86
798.525	10953.62
798.856	10928.54
799.188	10891.03
799.519	10858.03
799.85	10800.63
800.182	10769.45
800.513	10811.48
800.844	10693.07
801.175	10740.75
801.506	10724.25
801.837	10656.91
802.168	10710.92
802.499	10612.84
802.83	10578.95
803.161	10526.74
803.491	10529.45
803.822	10580.53
804.153	10500.98
804.483	10472.51
804.814	10450.59
805.145	10409.46
805.475	10373.75
805.805	10413.3
806.136	10302.34
806.466	10368.78
806.796	10358.39
807.126	10232.97
807.457	10233.87
807.787	10211.27
808.117	10181.89
808.447	10213.76
808.777	10212.63
809.107	10222.57
809.436	10107.32
809.766	10028.45
810.096	10071.39
810.426	10035.23
810.755	10034.78
811.085	10018.06
811.414	9982.12
811.744	9949.13
812.073	9964.27
812.403	9956.59
812.732	9947.55
813.061	9854.44
813.39	9888.12
813.719	9875.91
814.049	9937.61
814.378	9826.87
814.707	9773.99
815.036	9743.71
815.365	9674.79
815.693	9648.35
816.022	9654.9
816.351	9660.33
816.68	9624.39
817.008	9604.96
817.337	9626.2
817.665	9572.87
817.994	9571.29
818.322	9557.28
818.651	9524.96
818.979	9490.61
819.307	9522.48
819.636	9508.24
819.964	9464.85
820.292	9494.91
820.62	9453.1
820.948	9477.96
821.276	9458.3
821.604	9381.24
821.932	9394.34
822.259	9468.69
822.587	9377.62
822.915	9514.79
823.243	9436.38
823.57	9381.01
823.898	9422.59
824.225	9397.51
824.553	9421.46
824.88	9403.16
825.207	9360.45
825.535	9437.73
825.862	9451.97
826.189	9397.96
826.516	9442.48
826.843	9468.69
827.17	9455.13
827.497	9384.63
827.824	9490.84
828.151	9474.57
828.478	9510.27
828.805	9468.24
829.131	9481.8
829.458	9380.56
829.785	9405.42
830.111	9407
830.438	9491.52
830.764	9411.97
831.09	9454.68
831.417	9437.51
831.743	9418.3
832.069	9468.69
832.395	9421.69
832.722	9427.11
833.048	9402.7
833.374	9397.73
833.7	9398.41
834.026	9395.47
834.351	9383.04
834.677	9367
835.003	9373.33
835.329	9348.47
835.654	9376.49
835.98	9303.72
836.306	9362.48
836.631	9299.66
836.956	9317.28
837.282	9332.88
837.607	9214.91
837.932	9201.81
838.258	9212.65
838.583	9237.96
838.908	9220.56
839.233	9197.06
839.558	9219.21
839.883	9143.05
840.208	9111.64
840.533	9112.54
840.858	9091.98
841.182	9067.8
841.507	9080.68
841.832	9098.31
842.156	9050.17
842.481	9033.67
842.805	9065.54
843.13	8985.09
843.454	8939.44
843.778	8990.51
844.103	8911.42
844.427	8903.06
844.751	8911.64
845.075	8877.75
845.399	8861.7
845.723	8758.2
846.047	8862.38
846.371	8794.59
846.695	8735.83
847.019	8707.81
847.343	8672.33
847.666	8619.9
847.99	8573.35
848.313	8557.98
848.637	8513.01
848.96	8474.37
849.284	8502.39
849.607	8502.84
849.931	8416.29
850.254	8370.87
850.577	8357.99
850.9	8284.09
851.223	8340.59
851.546	8174.04
851.869	8179.91
852.192	8234.6
852.515	8116.18
852.838	8097.65
853.161	8116.86
853.483	8120.25
853.806	8015.85
854.129	7974.49
854.451	7967.49
854.774	7953.48
855.096	7933.59
855.419	7929.75
855.741	7878
856.063	7835.29
856.385	7816.31
856.708	7803.42
857.03	7787.61
857.352	7733.6
857.674	7751.9
857.996	7687.27
858.318	7717.78
858.64	7654.95
858.961	7642.07
859.283	7592.81
859.605	7548.29
859.926	7575.41
860.248	7608.18
860.57	7586.71
860.891	7507.61
861.212	7521.17
861.534	7452.47
861.855	7432.59
862.176	7520.04
862.498	7445.47
862.819	7473.72
863.14	7415.64
863.461	7405.02
863.782	7324.12
864.103	7406.15
864.424	7377.9
864.745	7359.82
865.065	7386.94
865.386	7309.2
865.707	7339.26
866.027	7312.82
866.348	7294.51
866.668	7349.43
866.989	7322.99
867.309	7318.24
867.63	7249.54
867.95	7208.41
868.27	7188.75
868.59	7217.9
868.91	7213.38
869.23	7212.25
869.55	7172.93
869.87	7241.41
870.19	7188.98
870.51	7141.75
870.83	7174.51
871.15	7134.74
871.469	7192.14
871.789	7112.14
872.109	7121.41
872.428	7061.98
872.748	7062.65
873.067	7051.58
873.386	7106.95
873.706	7043.22
874.025	6982.66
874.344	6946.95
874.663	6984.69
874.982	6957.8
875.301	7004.35
875.62	6932.71
875.939	6986.05
876.258	6961.19
876.577	6944.24
876.896	6940.85
877.214	6907.18
877.533	6911.92
877.852	6877.12
878.17	6886.61
878.489	6861.53
878.807	6859.95
879.125	6821.3
879.444	6848.65
879.762	6861.53
880.08	6838.48
880.398	6827.18
880.716	6775.88
881.034	6784.69
881.352	6807.07
881.67	6765.26
881.988	6762.32
882.306	6756.45
882.624	6691.36
882.941	6708.76
883.259	6645.94
883.577	6647.3
883.894	6637.13
884.212	6622.44
884.529	6668.54
884.846	6604.13
885.164	6599.84
885.481	6603
885.798	6554.42
886.115	6520.29
886.432	6557.36
886.75	6525.72
887.067	6558.94
887.383	6512.61
887.7	6512.16
888.017	6501.54
888.334	6436.68
888.651	6448.43
888.967	6461.99
889.284	6412.05
889.6	6363.01
889.917	6376.12
890.233	6378.38
890.55	6339.51
890.866	6306.97
891.182	6360.98
891.498	6257.48
891.815	6287.31
892.131	6194.2
892.447	6204.6
892.763	6236.23
893.079	6227.2
893.395	6186.07
893.71	6198.04
894.026	6144.26
894.342	6152.62
894.657	6124.15
894.973	6130.47
895.289	6100.19
895.604	6051.38
895.92	6062.91
896.235	5987.43
896.55	6005.73
896.865	5986.75
897.181	5943.59
897.496	5905.85
897.811	5884.15
898.126	5893.87
898.441	5848.22
898.756	5861.78
899.071	5786.98
899.386	5842.12
899.7	5807.77
900.015	5704.27
900.33	5701.56
900.644	5767.77
900.959	5697.72
901.273	5666.31
901.588	5650.26
901.902	5624.95
902.216	5603.48
902.531	5558.74
902.845	5601
903.159	5550.83
903.473	5517.61
903.787	5562.58
904.101	5485.97
904.415	5509.93
904.729	5457.95
905.042	5415.01
905.356	5433.77
905.67	5403.94
905.984	5385.86
906.297	5392.19
906.611	5316.26
906.924	5372.08
907.237	5313.32
907.551	5339.76
907.864	5221.8
908.177	5268.58
908.491	5197.62
908.804	5180.89
909.117	5203.95
909.43	5129.6
909.743	5135.7
910.056	5164.4
910.368	5097.73
910.681	5067.9
910.994	5042.82
911.307	5054.8
911.619	5039.2
911.932	5026.32
912.244	4999.88
912.557	4959.66
912.869	4954.69
913.181	4919.21
913.494	4921.92
913.806	4850.73
914.118	4907.23
914.43	4842.82
914.742	4851.64
915.054	4837.4
915.366	4759.89
915.678	4830.4
915.99	4752.88
916.302	4750.85
916.613	4740.68
916.925	4763.05
917.236	4695.26
917.548	4681.47
917.859	4710.85
918.171	4602.83
918.482	4613
918.794	4622.04
919.105	4604.86
919.416	4587.01
919.727	4567.8
920.038	4550.18
920.349	4466.11
920.66	4470.41
920.971	4446.68
921.282	4487.13
921.593	4433.8
921.903	4403.74
922.214	4421.82
922.525	4404.42
922.835	4371.42
923.146	4320.8
923.456	4352.22
923.767	4310.64
924.077	4306.79
924.387	4315.38
924.697	4228.83
925.008	4262.27
925.318	4225.21
925.628	4220.69
925.938	4233.8
926.248	4159.68
926.558	4126.01
926.867	4168.04
927.177	4149.74
927.487	4102.73
927.796	4079.91
928.106	4078.32
928.416	4051.43
928.725	4038.78
929.034	4018.21
929.344	4018.89
929.653	4014.15
929.962	3970.76
930.271	3964.43
930.581	3940.48
930.89	3933.92
931.199	3935.05
931.508	3909.52
931.817	3955.84
932.125	3886.24
932.434	3888.73
932.743	3877.88
933.051	3812.8
933.36	3834.72
933.669	3829.29
933.977	3826.81
934.286	3789.07
934.594	3787.94
934.902	3727.37
935.21	3750.65
935.519	3750.88
935.827	3680.37
936.135	3693.93
936.443	3663.42
936.751	3665
937.059	3646.25
937.367	3622.52
937.674	3620.03
937.982	3613.03
938.29	3582.52
938.597	3578.9
938.905	3507.27
939.213	3543.42
939.52	3485.8
939.827	3486.7
940.135	3491.22
940.442	3518.79
940.749	3462.52
941.056	3467.95
941.363	3392.69
941.67	3461.17
941.977	3414.16
942.284	3385.24
942.591	3361.73
942.898	3356.99
943.205	3360.6
943.511	3351.79
943.818	3342.07
944.125	3309.98
944.431	3277.44
944.738	3291.9
945.044	3246.26
945.35	3273.6
945.657	3227.95
945.963	3232.7
946.269	3226.14
946.575	3209.2
946.881	3163.09
947.187	3181.4
947.493	3171.68
947.799	3161.29
948.105	3148.86
948.41	3095.07
948.716	3117.22
949.022	3076.32
949.327	3092.36
949.633	3055.08
949.938	3052.82
950.244	3091.01
950.549	3014.17
950.854	3030.89
951.16	2994.06
951.465	3005.13
951.77	2996.09
952.075	2978.24
952.38	2956.09
952.685	2970.78
952.99	2939.15
953.294	2919.03
953.599	2943.67
953.904	2908.86
954.209	2902.08
954.513	2874.97
954.818	2847.85
955.122	2827.74
955.426	2863.44
955.731	2815.99
956.035	2812.14
956.339	2829.54
956.643	2841.97
956.948	2769.66
957.252	2801.97
957.556	2774.4
957.86	2731.47
958.163	2723.56
958.467	2721.3
958.771	2695.54
959.075	2697.12
959.378	2652.15
959.682	2700.28
959.985	2643.11
960.289	2671.13
960.592	2657.57
960.896	2652.83
961.199	2648.08
961.502	2629.1
961.805	2637.46
962.108	2614.86
962.411	2572.38
962.714	2589.1
963.017	2550.91
963.32	2581.42
963.623	2569.89
963.926	2550
964.228	2532.6
964.531	2504.13
964.833	2496.9
965.136	2478.82
965.438	2471.59
965.741	2470.68
966.043	2437.01
966.345	2453.96
966.648	2457.12
966.95	2473.17
967.252	2398.37
967.554	2396.11
967.856	2389.56
968.158	2381.42
968.46	2416.67
968.761	2359.5
969.063	2366.73
969.365	2363.79
969.666	2356.79
969.968	2343
970.269	2340.52
970.571	2318.15
970.872	2310.91
971.174	2290.35
971.475	2256.9
971.776	2281.08
972.077	2249.45
972.378	2229.56
972.679	2238.83
972.98	2225.94
973.281	2256.68
973.582	2233.18
973.883	2235.89
974.183	2203.35
974.484	2203.35
974.785	2178.71
975.085	2156.12
975.386	2119.05
975.686	2167.41
975.986	2139.17
976.287	2148.21
976.587	2151.6
976.887	2145.72
977.187	2141.65
977.487	2106.17
977.787	2098.04
978.087	2085.61
978.387	2089.45
978.687	2043.58
978.987	2032.73
979.286	2067.08
979.586	2044.25
979.885	2032.5
980.185	2030.47
980.484	2044.71
980.784	2046.51
981.083	2005.39
981.382	1997.48
981.682	1972.17
981.981	1969
982.28	1950.7
982.579	1940.53
982.878	1940.08
983.177	1928.1
983.475	1928.78
983.774	1939.17
984.073	1903.47
984.372	1920.19
984.67	1919.06
984.969	1895.56
985.267	1876.35
985.566	1908.21
985.864	1872.28
986.162	1882.68
986.461	1868.67
986.759	1803.81
987.057	1849.46
987.355	1820.53
987.653	1835.67
987.951	1824.82
988.249	1830.25
988.547	1789.57
988.844	1776.46
989.142	1793.87
989.44	1794.77
989.737	1784.37
990.035	1772.62
990.332	1758.61
990.63	1743.02
990.927	1773.98
991.224	1732.62
991.521	1705.96
991.819	1709.35
992.116	1718.84
992.413	1694.66
992.71	1712.51
993.006	1686.52
993.303	1693.75
993.6	1675.68
993.897	1697.82
994.193	1670.7
994.49	1670.25
994.787	1651.72
995.083	1653.3
995.379	1604.04
995.676	1640.87
995.972	1609.69
996.268	1633.64
996.565	1629.8
996.861	1589.12
997.157	1580.76
997.453	1606.3
997.749	1552.74
998.044	1550.71
998.34	1554.32
998.636	1564.04
998.932	1533.08
999.227	1541.67
999.523	1551.84
999.818	1516.81
1000.114	1524.72
1000.409	1514.1
1000.704	1480.2
1001	1494.66
1001.295	1504.61
1001.59	1460.54
1001.885	1492.63
1002.18	1441.78
1002.475	1437.04
1002.77	1445.63
1003.065	1437.94
1003.359	1462.35
1003.654	1409.69
1003.949	1444.5
1004.243	1412.63
1004.538	1399.98
1004.832	1402.46
1005.127	1415.57
1005.421	1364.95
1005.715	1392.97
1006.009	1362.24
1006.304	1377.61
1006.598	1338.06
1006.892	1350.71
1007.186	1346.42
1007.48	1338.96
1007.773	1358.17
1008.067	1315.01
1008.361	1315.01
1008.655	1316.14
1008.948	1288.57
1009.242	1286.31
1009.535	1293.77
1009.829	1286.76
1010.122	1270.72
1010.415	1229.59
1010.708	1251.51
1011.001	1241.34
1011.295	1248.34
1011.588	1238.63
1011.881	1239.98
1012.173	1227.1
1012.466	1209.93
1012.759	1221.68
1013.052	1217.84
1013.344	1187.55
1013.637	1197.27
1013.93	1210.83
1014.222	1182.13
1014.514	1174.45
1014.807	1187.33
1015.099	1171.06
1015.391	1141.91
1015.683	1188.91
1015.976	1159.53
1016.268	1140.32
1016.56	1133.77
1016.851	1106.43
1017.143	1150.72
1017.435	1117.27
1017.727	1116.59
1018.018	1089.03
1018.31	1092.87
1018.602	1091.06
1018.893	1092.19
1019.185	1078.18
1019.476	1068.23
1019.767	1074.56
1020.058	1087.9
1020.35	1068.23
1020.641	1044.51
1020.932	1050.61
1021.223	1068.01
1021.514	1050.16
1021.804	1001.12
1022.095	1025.3
1022.386	1017.61
1022.677	1009.93
1022.967	985.75
1023.258	976.49
1023.548	991.17
1023.839	980.1
1024.129	965.19
1024.419	993.66
1024.709	955.02
1025	954.34
1025.29	956.83
1025.58	932.19
1025.87	954.79
1026.16	957.73
1026.449	909.14
1026.739	908.46
1027.029	939.88
1027.319	925.41
1027.608	908.69
1027.898	926.32
1028.187	908.69
1028.477	889.71
1028.766	897.17
1029.055	878.41
1029.344	877.05
1029.634	879.09
1029.923	853.1
1030.212	856.26
1030.501	873.66
1030.79	858.52
1031.078	848.13
1031.367	842.03
1031.656	845.87
1031.945	848.58
1032.233	821.69
1032.522	842.48
1032.81	851.52
1033.099	821.01
1033.387	813.78
1033.675	813.1
1033.963	817.85
1034.251	782.37
1034.54	804.06
1034.828	795.93
1035.116	785.76
1035.403	799.09
1035.691	777.39
1035.979	771.07
1036.267	779.65
1036.554	771.52
1036.842	752.08
1037.129	769.71
1037.417	734.01
1037.704	743.05
1037.992	729.49
1038.279	731.75
1038.566	728.58
1038.853	728.58
1039.14	728.58
