Data from hue_180_FLMS001491_00006.txt Node
Date: Tue Feb 07 16:46:29 GMT 2017
User: dcchb
Spectrometer: FLMS00149
Trigger mode: 0
Integration Time (sec): 2.000000E-2
Scans to average: 10
Electric dark correction enabled: true
Nonlinearity correction enabled: false
Boxcar width: 0
XAxis mode: Wavelengths
Number of Pixels in Spectrum: 2048
>>>>>Begin Spectral Data<<<<<
341.393	-15.45
341.776	-15.45
342.16	-15.45
342.543	-85.73
342.927	-60.65
343.31	-82.12
343.693	-66.98
344.077	-62.68
344.46	-65.62
344.843	-31.5
345.226	-40.31
345.61	-45.28
345.993	-42.57
346.376	-27.65
346.759	5.79
347.142	46.92
347.525	46.02
347.908	68.84
348.291	74.94
348.674	100.25
349.057	121.95
349.44	139.35
349.823	136.41
350.206	163.98
350.588	198.1
350.971	224.32
351.354	239.23
351.737	241.04
352.119	242.85
352.502	268.16
352.884	267.25
353.267	274.03
353.65	280.36
354.032	295.05
354.414	297.53
354.797	308.61
355.179	307.7
355.562	312.22
355.944	328.49
356.326	311.55
356.709	324.88
357.091	334.82
357.473	334.6
357.855	346.35
358.238	347.02
358.62	347.93
359.002	342.96
359.384	326.46
359.766	347.25
360.148	351.54
360.53	338.44
360.912	328.49
361.294	328.95
361.676	329.4
362.057	330.75
362.439	325.56
362.821	324.43
363.203	327.82
363.584	323.52
363.966	325.1
364.348	331.66
364.729	316.07
365.111	328.49
365.493	313.13
365.874	331.21
366.256	314.71
366.637	314.94
367.019	316.52
367.4	335.5
367.781	311.09
368.163	316.52
368.544	302.73
368.925	325.1
369.306	297.53
369.688	306.35
370.069	328.04
370.45	303.18
370.831	306.57
371.212	311.32
371.593	305.22
371.974	307.03
372.355	312.9
372.736	318.78
373.117	326.91
373.498	303.41
373.879	334.37
374.26	294.82
374.641	311.09
375.021	327.59
375.402	327.36
375.783	321.26
376.163	313.35
376.544	314.03
376.925	321.49
377.305	324.88
377.686	312.68
378.066	350.19
378.447	318.78
378.827	308.38
379.208	340.47
379.588	330.3
379.968	341.83
380.349	317.2
380.729	295.27
381.109	342.05
381.489	336.18
381.87	344.76
382.25	345.44
382.63	363.75
383.01	345.67
383.39	351.09
383.77	334.37
384.15	332.79
384.53	347.25
384.91	332.34
385.29	353.58
385.67	344.99
386.049	345.22
386.429	358.55
386.809	356.29
387.189	365.33
387.568	352.67
387.948	359.45
388.328	361.49
388.707	358.55
389.087	346.8
389.466	358.1
389.846	363.75
390.225	377.98
390.605	350.41
390.984	368.27
391.363	362.39
391.743	380.7
392.122	368.72
392.501	376.18
392.881	374.37
393.26	382.5
393.639	371.88
394.018	395.39
394.397	397.87
394.776	371.88
395.155	395.84
395.534	375.27
395.913	404.42
396.292	404.88
396.671	392
397.05	393.58
397.429	404.88
397.808	398.32
398.186	413.24
398.565	402.16
398.944	411.2
399.323	418.44
399.701	408.27
400.08	386.35
400.458	411.2
400.837	434.03
401.215	421.6
401.594	435.38
401.972	412.79
402.351	430.86
402.729	431.54
403.107	427.47
403.486	436.97
403.864	432.9
404.242	455.95
404.62	447.36
404.999	440.58
405.377	454.59
405.755	474.03
406.133	472.67
406.511	472.9
406.889	479
407.267	472.9
407.645	486.91
408.023	490.52
408.401	510.64
408.779	507.47
409.156	477.19
409.534	515.16
409.912	504.99
410.29	526.46
410.667	517.19
411.045	532.56
411.422	522.61
411.8	572.78
412.178	567.58
412.555	586.57
412.933	555.38
413.31	571.2
413.687	591.54
414.065	599.22
414.442	613.68
414.819	625.66
415.197	644.87
415.574	657.3
415.951	629.5
416.328	644.64
416.705	659.56
417.082	663.17
417.46	645.1
417.837	677.86
418.214	687.58
418.591	675.6
418.967	699.78
419.344	715.38
419.721	700.24
420.098	738.88
420.475	739.1
420.852	734.13
421.228	735.04
421.605	788.14
421.982	795.37
422.358	784.53
422.735	820.23
423.111	810.06
423.488	837.86
423.864	818.65
424.241	846.22
424.617	886.45
424.994	890.29
425.37	868.37
425.746	896.61
426.123	906.78
426.499	939.1
426.875	915.82
427.251	955.14
427.627	972.77
428.003	979.55
428.379	985.88
428.756	977.74
429.132	1014.13
429.507	1003.05
429.883	1040.57
430.259	1041.47
430.635	1028.81
431.011	1052.09
431.387	1103.84
431.763	1104.07
432.138	1103.84
432.514	1108.59
432.89	1128.25
433.265	1164.86
433.641	1187.23
434.016	1204.18
434.392	1213.22
434.767	1233.1
435.143	1276.94
435.518	1276.27
435.894	1308.58
436.269	1296.15
436.644	1342.7
437.02	1380.22
437.395	1359.2
437.77	1431.29
438.145	1436.71
438.52	1426.09
438.895	1479.2
439.271	1478.97
439.646	1518.07
440.021	1521.46
440.395	1539.08
440.77	1547.22
441.145	1568.46
441.52	1600.33
441.895	1621.57
442.27	1622.47
442.645	1645.52
443.019	1671.96
443.394	1632.87
443.769	1679.19
444.143	1702.47
444.518	1713.09
444.892	1721
445.267	1732.98
445.641	1756.93
446.016	1783.82
446.39	1787.44
446.764	1787.89
447.139	1788.34
447.513	1836.48
447.887	1832.41
448.262	1854.56
448.636	1860.21
449.01	1869.92
449.384	1887.78
449.758	1921.45
450.132	1943.59
450.506	1953.08
450.88	1982.24
451.254	1972.52
451.628	1972.29
452.002	2034.44
452.376	2033.53
452.75	2061.56
453.123	2104.49
453.497	2103.14
453.871	2137.26
454.244	2181.1
454.618	2212.06
454.992	2245.96
455.365	2216.35
455.739	2316.92
456.112	2287.09
456.486	2307.43
456.859	2364.37
457.232	2396.24
457.606	2382.9
457.979	2393.3
458.352	2493.86
458.725	2529.79
459.099	2498.15
459.472	2600.52
459.845	2587.19
460.218	2610.24
460.591	2644.82
460.964	2682.56
461.337	2717.58
461.71	2742.89
462.083	2776.11
462.456	2845.26
462.829	2825.15
463.201	2881.87
463.574	2892.95
463.947	2933.62
464.32	3004.58
464.692	2997.58
465.065	3098.59
465.438	3064.47
465.81	3170.45
466.183	3201.64
466.555	3286.16
466.928	3318.7
467.3	3290.68
467.672	3386.94
468.045	3466.04
468.417	3473.72
468.789	3505.36
469.161	3612.93
469.534	3681.4
469.906	3740.83
470.278	3745.81
470.65	3795.75
471.022	3875.97
471.394	3961.39
471.766	3995.97
472.138	4032.35
472.51	4198.9
472.882	4229.63
473.253	4278.22
473.625	4330.87
473.997	4447.48
474.369	4463.53
474.74	4555.95
475.112	4651.54
475.484	4708.94
475.855	4787.13
476.227	4851.31
476.598	5070.97
476.97	5061.03
477.341	5167.24
477.713	5256.05
478.084	5309.15
478.455	5498.98
478.827	5519.32
479.198	5728.58
479.569	5721.35
479.94	5913.88
480.311	6000.66
480.682	6131.96
481.053	6286.3
481.424	6374.89
481.795	6465.73
482.166	6510.03
482.537	6622.11
482.908	6806.52
483.279	6925.16
483.65	7066.85
484.021	7202.21
484.391	7288.76
484.762	7368.76
485.133	7521.98
485.503	7644.01
485.874	7787.51
486.244	7828.86
486.615	8008.29
486.985	8149.08
487.356	8310.21
487.726	8357.21
488.097	8588.62
488.467	8568.73
488.837	8796.75
489.207	8943.41
489.578	9088.49
489.948	9162.84
490.318	9320.8
490.688	9321.7
491.058	9439.22
491.428	9692.09
491.798	9748.81
492.168	9969.6
492.538	9993.1
492.908	10084.62
493.278	10231.28
493.648	10260.89
494.017	10370.94
494.387	10589.47
494.757	10549.24
495.126	10692.52
495.496	10762.57
495.866	10795.11
496.235	10927.31
496.605	11039.62
496.974	11071.94
497.344	11174.76
497.713	11261.99
498.082	11376.79
498.452	11435.09
498.821	11499.73
499.19	11555.09
499.559	11654.98
499.928	11747.4
500.298	11756.67
500.667	11852.71
501.036	11889.32
501.405	11907.4
501.774	11957.79
502.143	12061.29
502.512	12092.93
502.88	12089.54
503.249	12156.66
503.618	12240.5
503.987	12259.03
504.356	12395.3
504.724	12417.22
505.093	12440.94
505.462	12487.5
505.83	12545.57
506.199	12596.42
506.567	12675.29
506.936	12670.32
507.304	12816.53
507.672	12835.06
508.041	12825.79
508.409	12957.31
508.777	13022.17
509.145	13021.04
509.514	12908.73
509.882	13082.28
510.25	13067.37
510.618	13165.44
510.986	13104.43
511.354	13285.44
511.722	13292.45
512.09	13267.36
512.458	13160.7
512.826	13331.09
513.193	13322.73
513.561	13342.39
513.929	13514.14
514.297	13576.06
514.664	13489.5
515.032	13477.08
515.4	13576.51
515.767	13569.5
516.135	13583.29
516.502	13491.31
516.869	13590.97
517.237	13718.42
517.604	13574.02
517.972	13627.13
518.339	13684.3
518.706	13674.58
519.073	13718.42
519.44	13749.38
519.808	13703.51
520.175	13754.81
520.542	13853.56
520.909	13864.18
521.276	13749.38
521.643	13882.94
522.009	13835.94
522.376	13883.62
522.743	13907.57
523.11	13985.54
523.477	14059.21
523.843	14106.21
524.21	14098.08
524.577	14028.25
524.943	14096.49
525.31	14037.06
525.676	14098.08
526.043	14080.9
526.409	14101.01
526.776	14226.21
527.142	14176.27
527.508	14168.13
527.874	14102.14
528.241	14133.55
528.607	14190.95
528.973	14186.43
529.339	14121.13
529.705	14136.49
530.071	14157.51
530.437	14108.02
530.803	14197.28
531.169	14145.98
531.535	14049.49
531.901	14015.14
532.267	13945.31
532.632	13983.05
532.998	13884.07
533.364	13925.88
533.73	13962.71
534.095	13913.45
534.461	13910.28
534.826	13818.53
535.192	13833.22
535.557	13800.46
535.923	13769.72
536.288	13689.27
536.653	13766.11
537.019	13605.66
537.384	13550.97
537.749	13516.17
538.114	13526.34
538.479	13394.37
538.845	13466.91
539.21	13254.48
539.575	13292
539.94	13234.82
540.305	13226.23
540.67	13176.97
541.034	13140.81
541.399	13120.02
541.764	13044.09
542.129	12988.95
542.494	12912.8
542.858	12946.92
543.223	12779.01
543.587	12773.82
543.952	12748.05
544.316	12662.86
544.681	12688.85
545.045	12619.24
545.41	12606.14
545.774	12536.53
546.138	12472.13
546.503	12437.33
546.867	12272.59
547.231	12313.94
547.595	12292.25
547.959	12238.92
548.324	12064
548.688	12087.06
549.052	12109.43
549.416	12002.76
549.779	11922.31
550.143	11964.8
550.507	11863.33
550.871	11860.39
551.235	11737.69
551.599	11768.42
551.962	11725.26
552.326	11661.98
552.689	11586.5
553.053	11575.66
553.417	11481.42
553.78	11650.23
554.143	11512.61
554.507	11473.29
554.87	11419.28
555.234	11487.07
555.597	11386.28
555.96	11300.64
556.323	11284.59
556.686	11230.81
557.05	11263.12
557.413	11192.62
557.776	11052.51
558.139	11162.11
558.502	11194.88
558.865	11154.88
559.228	11154.2
559.59	11104.71
559.953	11034.65
560.316	11171.82
560.679	11042.11
561.041	11044.14
561.404	11091.83
561.767	11011.15
562.129	11024.03
562.492	11080.3
562.854	10982.68
563.217	10997.37
563.579	10963.92
563.941	10999.17
564.304	11003.02
564.666	11012.51
565.028	10944.71
565.39	10881.21
565.753	10967.08
566.115	10911.94
566.477	10988.1
566.839	10974.32
567.201	10937.71
567.563	10904.71
567.925	10972.73
568.287	10940.19
568.648	11005.05
569.01	10959.18
569.372	11040.98
569.734	10996.01
570.095	10975.22
570.457	11029.91
570.819	10973.64
571.18	10974.54
571.542	10916.46
571.903	10982
572.265	10998.27
572.626	10998.72
572.987	10949.46
573.349	10960.76
573.71	10964.37
574.071	10995.56
574.432	11025.84
574.794	11045.95
575.155	11064.94
575.516	11019.96
575.877	11066.52
576.238	10968.89
576.599	11036.46
576.96	10972.73
577.32	10935.67
577.681	11002.56
578.042	11014.54
578.403	11007.76
578.763	11043.01
579.124	10974.77
579.485	11023.35
579.845	11040.3
580.206	10995.56
580.566	10932.06
580.927	11005.73
581.287	11005.28
581.648	10986.75
582.008	11004.37
582.368	10920.76
582.728	11036.24
583.089	10912.4
583.449	10883.7
583.809	10895.67
584.169	10923.24
584.529	10851.83
584.889	11001.43
585.249	10865.39
585.609	10870.59
585.969	10801.67
586.329	10782.68
586.688	10827.88
587.048	10753.98
587.408	10728.9
587.768	10741.33
588.127	10779.29
588.487	10663.59
588.846	10842.34
589.206	10661.1
589.565	10702.46
589.925	10782.91
590.284	10681.67
590.643	10780.87
591.003	10748.79
591.362	10699.29
591.721	10715.57
592.08	10704.27
592.44	10634.89
592.799	10722.35
593.158	10607.55
593.517	10677.83
593.876	10645.96
594.235	10605.29
594.593	10511.5
594.952	10546.76
595.311	10567.77
595.67	10612.29
596.029	10710.59
596.387	10640.31
596.746	10632.63
597.104	10562.12
597.463	10602.12
597.822	10587.43
598.18	10476.25
598.538	10556.25
598.897	10567.55
599.255	10449.81
599.613	10619.52
599.972	10530.94
600.33	10472.63
600.688	10599.86
601.046	10546.08
601.404	10577.26
601.762	10536.14
602.12	10572.29
602.478	10568.22
602.836	10513.76
603.194	10485.52
603.552	10509.47
603.91	10467.66
604.268	10507.89
604.625	10485.97
604.983	10538.62
605.341	10537.27
605.698	10455.69
606.056	10492.75
606.413	10394.9
606.771	10576.81
607.128	10527.77
607.485	10461.11
607.843	10475.57
608.2	10525.06
608.557	10613.2
608.914	10465.4
609.272	10557.6
609.629	10532.97
609.986	10508.11
610.343	10492.29
610.7	10576.59
611.057	10570.48
611.414	10555.57
611.771	10544.27
612.127	10603.7
612.484	10530.26
612.841	10659.97
613.198	10607.55
613.554	10570.48
613.911	10629.47
614.267	10622.91
614.624	10628.34
614.98	10599.18
615.337	10662.46
615.693	10622.91
616.05	10631.5
616.406	10680.99
616.762	10613.2
617.118	10605.29
617.475	10647.09
617.831	10688.22
618.187	10675.11
618.543	10679.63
618.899	10725.51
619.255	10753.08
619.611	10708.56
619.967	10712.18
620.323	10753.98
620.678	10788.78
621.034	10678.28
621.39	10705.62
621.746	10693.19
622.101	10812.74
622.457	10753.53
622.812	10727.77
623.168	10699.52
623.523	10755.34
623.879	10808.44
624.234	10707.88
624.589	10713.53
624.945	10684.83
625.3	10754.89
625.655	10701.1
626.01	10773.64
626.365	10671.73
626.72	10711.72
627.075	10728.9
627.43	10678.5
627.785	10652.06
628.14	10702.91
628.495	10666.98
628.85	10620.65
629.205	10599.41
629.559	10693.65
629.914	10596.02
630.269	10618.85
630.623	10624.04
630.978	10557.15
631.332	10586.3
631.687	10582.01
632.041	10514.22
632.396	10538.62
632.75	10516.02
633.104	10542.91
633.459	10493.42
633.813	10528.23
634.167	10518.96
634.521	10476.25
634.875	10519.86
635.229	10486.87
635.583	10455.23
635.937	10427.44
636.291	10375.01
636.645	10436.03
636.999	10391.96
637.352	10429.02
637.706	10327.55
638.06	10407.33
638.413	10382.02
638.767	10393.31
639.121	10375.24
639.474	10215.69
639.828	10288.91
640.181	10295.46
640.534	10317.38
640.888	10226.31
641.241	10238.74
641.594	10233.77
641.947	10286.65
642.301	10278.06
642.654	10191.06
643.007	10229.25
643.36	10222.25
643.713	10244.39
644.066	10287.78
644.419	10151.29
644.771	10033.32
645.124	10019.31
645.477	10029.03
645.83	9902.93
646.182	10018.63
646.535	9875.14
646.888	9905.64
647.24	9866.32
647.593	9914.23
647.945	9884.63
648.298	9910.62
648.65	9860.22
649.002	9875.14
649.355	9868.13
649.707	9849.83
650.059	9871.29
650.411	10028.8
650.763	10076.03
651.115	10171.63
651.467	10077.84
651.819	10086.66
652.171	10184.51
652.523	10142.93
652.875	10081.91
653.227	10080.33
653.578	10095.69
653.93	10130.04
654.282	10035.58
654.633	10074.23
654.985	10040.78
655.337	10057.73
655.688	10074.45
656.039	10138.41
656.391	10003.04
656.742	10062.02
657.094	10080.1
657.445	10168.24
657.796	10047.79
658.147	10112.87
658.498	10124.17
658.849	10116.94
659.2	10135.47
659.551	10098.86
659.902	10178.86
660.253	10117.16
660.604	10172.98
660.955	10099.31
661.306	10164.39
661.656	10145.86
662.007	10146.99
662.358	10198.74
662.708	10177.05
663.059	10179.08
663.409	10174.34
663.76	10177.27
664.11	10157.39
664.461	10232.64
664.811	10258.18
665.161	10200.55
665.511	10163.94
665.862	10112.42
666.212	10226.76
666.562	10205.3
666.912	10218.4
667.262	10270.83
667.612	10228.35
667.962	10196.03
668.312	10190.38
668.662	10298.85
669.011	10187.9
669.361	10212.53
669.711	10146.32
670.06	10123.04
670.41	10201.68
670.76	10168.24
671.109	10205.3
671.459	10185.18
671.808	10154.68
672.157	10205.3
672.507	10154.68
672.856	10083.49
673.205	10085.98
673.554	10076.26
673.904	10091.85
674.253	10170.27
674.602	10158.07
674.951	10026.09
675.3	9947.22
675.649	10091.18
675.998	10070.61
676.346	10099.54
676.695	10129.82
677.044	9959.88
677.393	10107.45
677.741	9992.19
678.09	10011.4
678.438	9952.87
678.787	10034.45
679.135	9978.64
679.484	9938.19
679.832	9992.87
680.181	9883.72
680.529	9873.33
680.877	9831.97
681.225	9867
681.573	9906.77
681.922	9831.75
682.27	9790.84
682.618	9830.39
682.966	9779.32
683.314	9788.13
683.661	9737.74
684.009	9746.1
684.357	9678.53
684.705	9648.02
685.053	9640.11
685.4	9681.69
685.748	9586.1
686.095	9554.47
686.443	9481.47
686.79	9495.94
687.138	9561.92
687.485	9587.91
687.832	9494.35
688.18	9446.67
688.527	9475.82
688.874	9392.21
689.221	9338.88
689.568	9350.86
689.915	9360.8
690.262	9303.17
690.609	9243.06
690.956	9198.32
691.303	9258.43
691.65	9210.29
691.997	9150.18
692.344	9119.45
692.69	9067.47
693.037	9127.36
693.383	9003.07
693.73	9016.85
694.077	9008.04
694.423	9048.49
694.769	8937.76
695.116	8846.01
695.462	8897.99
695.808	8870.64
696.155	8844.88
696.501	8783.87
696.847	8724.43
697.193	8650.76
697.539	8709.97
697.885	8593.59
698.231	8581.61
698.577	8556.3
698.923	8543.87
699.269	8537.32
699.614	8455.51
699.96	8420.71
700.306	8425.46
700.651	8362.41
700.997	8374.61
701.342	8313.82
701.688	8340.03
702.033	8300.94
702.379	8272.69
702.724	8249.87
703.069	8279.02
703.415	8136.88
703.76	8108.85
704.105	8109.76
704.45	8094.84
704.795	8039.25
705.14	7982.76
705.485	7999.93
705.83	7913.83
706.175	7970.78
706.52	7962.64
706.865	7903.89
707.209	7840.61
707.554	7840.84
707.899	7815.08
708.243	7773.72
708.588	7798.13
708.932	7725.81
709.277	7704.8
709.621	7693.27
709.966	7698.24
710.31	7710.22
710.654	7613.05
710.998	7607.62
711.342	7655.31
711.687	7580.96
712.031	7545.48
712.375	7515.65
712.719	7515.2
713.063	7536.89
713.407	7606.72
713.75	7521.3
714.094	7482.43
714.438	7459.61
714.782	7417.12
715.125	7371.25
715.469	7369.44
715.812	7379.61
716.156	7372.6
716.499	7339.16
716.843	7345.94
717.186	7306.84
717.53	7425.71
717.873	7355.65
718.216	7342.77
718.559	7293.51
718.902	7265.49
719.246	7266.16
719.589	7292.6
719.932	7256.22
720.275	7184.13
720.617	7254.41
720.96	7194.53
721.303	7203.12
721.646	7250.57
721.989	7194.53
722.331	7279.95
722.674	7170.35
723.016	7188.65
723.359	7188.88
723.701	7200.63
724.044	7141.42
724.386	7139.39
724.729	7159.73
725.071	7108.65
725.413	7153.4
725.755	7127.19
726.097	7109.11
726.439	7098.26
726.782	7083.34
727.124	7149.56
727.465	7112.72
727.807	7140.29
728.149	7092.84
728.491	7092.38
728.833	7134.64
729.175	7063.91
729.516	7057.81
729.858	7097.13
730.199	7135.32
730.541	7062.78
730.882	7083.34
731.224	7074.53
731.565	7099.16
731.906	7111.82
732.248	7078.37
732.589	7036.34
732.93	7059.16
733.271	7032.05
733.612	7060.07
733.953	7105.27
734.294	7068.66
734.635	7077.02
734.976	7143.68
735.317	7072.27
735.658	7095.55
735.999	7080.41
736.339	7078.37
736.68	7097.13
737.021	7156.56
737.361	7089.45
737.702	7118.37
738.042	7126.96
738.383	7150.69
738.723	7169.67
739.063	7128.99
739.404	7192.49
739.744	7168.31
740.084	7181.2
740.424	7206.28
740.764	7222.55
741.104	7221.19
741.444	7276.56
741.784	7227.3
742.124	7277.69
742.464	7246.73
742.804	7301.42
743.143	7324.47
743.483	7361.08
743.823	7366.28
744.162	7390.23
744.502	7400.62
744.841	7466.16
745.181	7582.54
745.52	7467.06
745.86	7570.56
746.199	7554.74
746.538	7594.07
746.877	7729.66
747.216	7792.25
747.556	7733.72
747.895	7805.59
748.234	7848.75
748.573	7936.2
748.911	8011.23
749.25	8152.7
749.589	8134.84
749.928	8230.21
750.267	8325.57
750.605	8331.67
750.944	8431.33
751.283	8441.5
751.621	8634.94
751.96	8681.95
752.298	8758.1
752.636	8909.74
752.975	8970.07
753.313	9054.14
753.651	9223.4
753.989	9342.04
754.327	9464.53
754.666	9541.59
755.004	9717.63
755.342	9916.49
755.679	10012.76
756.017	10106.77
756.355	10299.31
756.693	10511.96
757.031	10645.29
757.368	10736.58
757.706	10985.16
758.044	11062
758.381	11341.99
758.719	11458.82
759.056	11695.43
759.394	11739.04
759.731	11974.52
760.068	12178.58
760.405	12387.61
760.743	12484.56
761.08	12738.11
761.417	12848.84
761.754	13073.47
762.091	13328.38
762.428	13491.54
762.765	13600.91
763.102	13878.19
763.438	14016.27
763.775	14200.22
764.112	14420.1
764.449	14665.97
764.785	14839.07
765.122	15041.33
765.458	15085.62
765.795	15282
766.131	15580.97
766.467	15697.81
766.804	15920.63
767.14	16024.8
767.476	16244.46
767.812	16226.83
768.148	16620.27
768.485	16686.93
768.821	16792.47
769.157	16925.12
769.492	17091.9
769.828	17326.47
770.164	17310.65
770.5	17472.68
770.836	17628.83
771.171	17676.74
771.507	17794.7
771.842	17826.57
772.178	18042.6
772.513	18203.5
772.849	18257.29
773.184	18446.44
773.519	18572.08
773.855	18574.57
774.19	18663.38
774.525	18757.39
774.86	18878.74
775.195	19044.16
775.53	18980.89
775.865	19027.66
776.2	19021.11
776.535	19059.08
776.87	19075.57
777.205	19199.64
777.539	19235.57
777.874	19458.61
778.209	19289.8
778.543	19412.29
778.878	19333.42
779.212	19385.85
779.547	19396.69
779.881	19614.54
780.215	19453.87
780.55	19669.23
780.884	19592.85
781.218	19641.43
781.552	19763.01
781.886	19764.82
782.22	19575.9
782.554	19652.05
782.888	19543.58
783.222	19678.27
783.556	19543.36
783.889	19632.39
784.223	19579.51
784.557	19593.98
784.89	19652.96
785.224	19461.78
785.557	19541.77
785.891	19547.42
786.224	19526.63
786.558	19543.13
786.891	19499.29
787.224	19521.66
787.557	19429.69
787.891	19424.49
788.224	19630.59
788.557	19561.89
788.89	19470.36
789.223	19579.29
789.556	19430.36
789.888	19403.02
790.221	19388.56
790.554	19323.02
790.887	19376.81
791.219	19233.99
791.552	19221.33
791.884	19235.57
792.217	19209.13
792.549	19177.49
792.882	19051.84
793.214	19029.7
793.546	19078.96
793.879	18946.76
794.211	18853.43
794.543	19010.94
794.875	18937.27
795.207	18932.07
795.539	18794.45
795.871	18923.49
796.203	18722.36
796.535	18692.08
796.867	18619.54
797.198	18549.48
797.53	18670.16
797.862	18472.42
798.193	18539.54
798.525	18478.53
798.856	18582.03
799.188	18376.16
799.519	18258.42
799.85	18153.11
800.182	18224.29
800.513	18214.13
800.844	18064.07
801.175	18256.84
801.506	18296.84
801.837	18043.96
802.168	18032.44
802.499	17972.32
802.83	17915.83
803.161	17856.39
803.491	17958.77
803.822	17865.43
804.153	17807.58
804.483	17632.22
804.814	17741.14
805.145	17690.98
805.475	17620.24
805.805	17580.02
806.136	17558.55
806.466	17563.52
806.796	17600.36
807.126	17436.29
807.457	17427.71
807.787	17349.97
808.117	17308.84
808.447	17306.58
808.777	17399.68
809.107	17188.39
809.436	17158.56
809.766	17188.62
810.096	17063.2
810.426	17098
810.755	17077.88
811.085	16993.59
811.414	17079.24
811.744	16890.09
812.073	16877.21
812.403	16839.25
812.732	16830.89
813.061	16839.92
813.39	16707.27
813.719	16649.65
814.049	16770.1
814.378	16670.89
814.707	16735.97
815.036	16661.17
815.365	16563.1
815.693	16463.66
816.022	16561.74
816.351	16399.71
816.68	16348.19
817.008	16439.71
817.337	16284.68
817.665	16184.35
817.994	16319.94
818.322	16226.38
818.651	16258.24
818.979	16232.48
819.307	16194.97
819.636	16220.05
819.964	16098.02
820.292	16085.59
820.62	16116.55
820.948	16083.11
821.276	16108.19
821.604	16080.17
821.932	16142.32
822.259	16081.75
822.587	16028.65
822.915	15997.46
823.243	16118.36
823.57	16059.38
823.898	16050.34
824.225	15951.13
824.553	16025.03
824.88	16053.96
825.207	16135.08
825.535	16004.92
825.862	16109.1
826.189	15996.1
826.516	16253.27
826.843	16108.64
827.17	16133.05
827.497	16151.35
827.824	16099.83
828.151	16266.15
828.478	16049.21
828.805	16190.9
829.131	16130.56
829.458	16079.72
829.785	15991.36
830.111	16028.65
830.438	16142.77
830.764	16077.23
831.09	16191.13
831.417	16055.54
831.743	16191.13
832.069	16082.66
832.395	15990
832.722	16095.54
833.048	15999.95
833.374	16056.22
833.7	15983.45
834.026	15988.2
834.351	15975.54
834.677	15884.47
835.003	15979.83
835.329	15964.47
835.654	15886.5
835.98	15819.39
836.306	15901.42
836.631	15890.34
836.956	15846.96
837.282	15875.43
837.607	15848.31
837.932	15761.76
838.258	15791.82
838.583	15740.52
838.908	15699.84
839.233	15701.65
839.558	15639.28
839.883	15595.66
840.208	15581.88
840.533	15446.51
840.858	15605.38
841.182	15629.79
841.507	15498.04
841.832	15444.03
842.156	15437.93
842.481	15355.22
842.805	15372.39
843.13	15332.85
843.454	15327.65
843.778	15331.26
844.103	15209.46
844.427	15200.65
844.751	15198.16
845.075	15142.79
845.399	15036.81
845.723	14982.8
846.047	15118.61
846.371	14908.22
846.695	14883.59
847.019	14823.71
847.343	14704.61
847.666	14732.41
847.99	14620.32
848.313	14664.39
848.637	14639.98
848.96	14486.31
849.284	14532.64
849.607	14367
849.931	14306.21
850.254	14266.43
850.577	14179.88
850.9	14186.66
851.223	14064.63
851.546	14042.48
851.869	13915.26
852.192	13942.83
852.515	13783.28
852.838	13763.4
853.161	13765.65
853.483	13670.29
853.806	13666.67
854.129	13629.16
854.451	13555.94
854.774	13533.34
855.096	13534.47
855.419	13466.68
855.741	13440.24
856.063	13273.92
856.385	13282.05
856.708	13268.27
857.03	13201.6
857.352	13211.32
857.674	13132.23
857.996	13147.82
858.318	13037.09
858.64	13084.77
858.961	13052
859.283	12985.11
859.605	12898.33
859.926	12895.85
860.248	12795.51
860.57	12849.75
860.891	12810.43
861.212	12753.48
861.534	12776.98
861.855	12748.05
862.176	12633.93
862.498	12779.47
862.819	12637.32
863.14	12597.78
863.461	12582.41
863.782	12559.81
864.103	12608.85
864.424	12523.65
864.745	12639.13
865.065	12503.09
865.386	12420.61
865.707	12419.48
866.027	12427.16
866.348	12386.48
866.668	12375.41
866.989	12365.92
867.309	12261.97
867.63	12266.03
867.95	12302.42
868.27	12270.78
868.59	12262.64
868.91	12137.9
869.23	12197.33
869.55	12125.02
869.87	12258.12
870.19	12156.88
870.51	12061.52
870.83	12167.96
871.15	12059.03
871.469	11999.15
871.789	12036.43
872.109	12081.41
872.428	11983.78
872.748	11991.01
873.067	11934.97
873.386	11989.43
873.706	11948.3
874.025	11852.94
874.344	11793.73
874.663	11873.5
874.982	11829.43
875.301	11842.54
875.62	11806.84
875.939	11774.52
876.258	11754.86
876.577	11755.31
876.896	11711.7
877.214	11720.96
877.533	11696.56
877.852	11637.35
878.17	11657.24
878.489	11730.23
878.807	11622.21
879.125	11622.43
879.444	11596.45
879.762	11511.7
880.08	11520.52
880.398	11532.95
880.716	11499.05
881.034	11460.63
881.352	11459.05
881.67	11396.9
881.988	11431.93
882.306	11365.49
882.624	11285.27
882.941	11268.09
883.259	11236.23
883.577	11289.11
883.894	11176.57
884.212	11159.85
884.529	11177.93
884.846	11062
885.164	11112.39
885.481	11020.87
885.798	11111.26
886.115	10985.84
886.432	11096.12
886.75	11001.43
887.067	10973.86
887.383	10944.49
887.7	10974.54
888.017	10914.2
888.334	10855
888.651	10865.17
888.967	10821.1
889.284	10736.36
889.6	10730.48
889.917	10696.36
890.233	10751.27
890.55	10630.82
890.866	10626.3
891.182	10543.82
891.498	10622.46
891.815	10520.99
892.131	10442.13
892.447	10447.78
892.763	10429.92
893.079	10412.75
893.395	10417.49
893.71	10426.31
894.026	10348.8
894.342	10281.45
894.657	10216.37
894.973	10237.39
895.289	10196.71
895.604	10201.68
895.92	10082.81
896.235	10047.79
896.55	10067.45
896.865	10008.69
897.181	9987.9
897.496	10038.75
897.811	9955.81
898.126	9895.7
898.441	9824.52
898.756	9782.26
899.071	9765.53
899.386	9762.6
899.7	9634.24
900.015	9644.86
900.33	9521.92
900.644	9554.47
900.959	9567.35
901.273	9517.86
901.588	9456.16
901.902	9466.11
902.216	9367.13
902.531	9379.78
902.845	9387.69
903.159	9344.98
903.473	9262.5
903.787	9260.69
904.101	9174.14
904.415	9123.52
904.729	9099.34
905.042	9046.01
905.356	9074.93
905.67	9010.3
905.984	9047.81
906.297	9008.49
906.611	8913.35
906.924	8899.12
907.237	8923.3
907.551	8838.33
907.864	8784.54
908.177	8822.28
908.491	8765.11
908.804	8719.23
909.117	8649.41
909.43	8625.68
909.743	8538.22
910.056	8522.63
910.368	8508.84
910.681	8436.76
910.994	8444.89
911.307	8441.5
911.619	8317.44
911.932	8305.91
912.244	8222.75
912.557	8262.3
912.869	8194.5
913.181	8236.99
913.494	8147.72
913.806	8118.12
914.118	8104.79
914.43	8057.56
914.742	8028.86
915.054	8037.9
915.366	7934.62
915.678	7875.19
915.99	7916.77
916.302	7885.58
916.613	7819.14
916.925	7815.53
917.236	7703.44
917.548	7732.82
917.859	7742.08
918.171	7682.88
918.482	7630.9
918.794	7565.14
919.105	7611.01
919.416	7593.84
919.727	7523.11
920.038	7451.7
920.349	7408.76
920.66	7416.67
920.971	7433.17
921.282	7355.43
921.593	7306.16
921.903	7291.02
922.214	7294.19
922.525	7220.06
922.835	7159.05
923.146	7174.19
923.456	7173.51
923.767	7094.87
924.077	7057.81
924.387	7040.63
924.697	7054.87
925.008	7013.29
925.318	6959.51
925.628	6933.29
925.938	6923.12
926.248	6817.82
926.558	6796.57
926.867	6825.27
927.177	6787.76
927.487	6772.84
927.796	6633.87
928.106	6707.99
928.416	6716.8
928.725	6638.61
929.034	6636.35
929.344	6649.01
929.653	6604.04
929.962	6521.1
930.271	6505.51
930.581	6493.3
930.89	6431.16
931.199	6496.47
931.508	6402.23
931.817	6401.33
932.125	6394.1
932.434	6355.91
932.743	6288.79
933.051	6301.44
933.36	6268.9
933.669	6187.55
933.977	6222.35
934.286	6145.06
934.594	6198.85
934.902	6080.89
935.21	6142.13
935.519	6155.46
935.827	6080.43
936.135	6009.25
936.443	5979.19
936.751	6005.63
937.059	5976.03
937.367	5892.19
937.674	5921.57
937.982	5903.49
938.29	5846.32
938.597	5843.38
938.905	5808.35
939.213	5771.29
939.52	5746.2
939.827	5759.76
940.135	5717.51
940.442	5674.34
940.749	5654
941.056	5624.17
941.363	5595.7
941.67	5559.09
941.977	5557.06
942.284	5453.78
942.591	5539.66
942.898	5483.61
943.205	5449.26
943.511	5429.6
943.818	5422.37
944.125	5379.89
944.431	5361.13
944.738	5346.44
945.044	5313.9
945.35	5276.16
945.657	5265.99
945.963	5239.1
946.269	5157.75
946.575	5165.2
946.881	5174.47
947.187	5161.81
947.493	5107.13
947.799	5153
948.105	5056.05
948.41	5047.92
948.716	5061.25
949.022	4991.87
949.327	5022.16
949.633	4961.82
949.938	4998.2
950.244	4977.19
950.549	4916.17
950.854	4931.54
951.16	4857.87
951.465	4822.84
951.77	4832.33
952.075	4823.74
952.38	4820.13
952.685	4804.99
952.99	4746.01
953.294	4710.75
953.599	4680.92
953.904	4727.02
954.209	4661.71
954.513	4682.5
954.818	4651.54
955.122	4590.98
955.426	4619.45
955.731	4538.55
956.035	4534.94
956.339	4573.81
956.643	4511.44
956.948	4450.19
957.252	4449.52
957.556	4444.77
957.86	4405.22
958.163	4420.82
958.467	4375.62
958.771	4390.53
959.075	4355.05
959.378	4384.66
959.682	4309.41
959.985	4305.79
960.289	4310.99
960.592	4249.3
960.896	4251.33
961.199	4222.86
961.502	4194.16
961.805	4167.26
962.108	4141.5
962.411	4185.12
962.714	4144.89
963.017	4120.48
963.32	4135.85
963.623	4109.86
963.926	4087.94
964.228	4032.13
964.531	4033.03
964.833	4041.62
965.136	4001.62
965.438	3917.78
965.741	3949.42
966.043	3934.28
966.345	3882.07
966.648	3920.72
966.95	3890.89
967.252	3852.92
967.554	3867.16
967.856	3839.81
968.158	3842.53
968.46	3830.77
968.761	3810.89
969.063	3786.03
969.365	3741.06
969.666	3773.15
969.968	3690.67
970.269	3705.35
970.571	3737.67
970.872	3710.33
971.174	3671.68
971.475	3654.73
971.776	3627.62
972.077	3649.99
972.378	3637.33
972.679	3602.08
972.98	3582.65
973.281	3544.91
973.582	3546.94
973.883	3535.42
974.183	3519.6
974.484	3474.63
974.785	3489.54
975.085	3461.29
975.386	3480.05
975.686	3445.7
975.986	3447.73
976.287	3386.27
976.587	3386.49
976.887	3360.73
977.187	3395.31
977.487	3335.19
977.787	3340.62
978.087	3348.75
978.387	3277.57
978.687	3298.36
978.987	3234.41
979.286	3295.87
979.586	3221.07
979.885	3249.77
980.185	3203.45
980.484	3196.44
980.784	3179.04
981.083	3174.52
981.382	3135.88
981.682	3122.09
981.981	3108.53
982.28	3116.22
982.579	3051.59
982.878	3061.3
983.177	3063.34
983.475	3043.68
983.774	3039.38
984.073	3031.47
984.372	3000.29
984.67	2981.53
984.969	2941.98
985.267	2988.99
985.566	2975.2
985.864	2933.85
986.162	2922.32
986.461	2870.35
986.759	2902.66
987.057	2869.67
987.355	2865.6
987.653	2868.54
987.951	2833.74
988.249	2836.45
988.547	2815.66
988.844	2820.41
989.142	2774.08
989.44	2772.95
989.737	2732.95
990.035	2749.9
990.332	2739.05
990.63	2736.79
990.927	2719.39
991.224	2699.05
991.521	2663.8
991.819	2682.78
992.116	2676.46
992.413	2645.27
992.71	2635.55
993.006	2643.91
993.303	2601.88
993.6	2607.53
993.897	2623.8
994.193	2607.98
994.49	2566.85
994.787	2550.13
995.083	2556.23
995.379	2522.11
995.676	2532.28
995.972	2513.52
996.268	2484.6
996.565	2481.43
996.861	2469.91
997.157	2454.77
997.453	2479.17
997.749	2430.36
998.044	2390.59
998.34	2431.04
998.636	2405.28
998.932	2370.93
999.227	2364.82
999.523	2367.76
999.818	2344.71
1000.114	2299.06
1000.409	2294.77
1000.704	2351.27
1001	2299.52
1001.295	2269.23
1001.59	2254.55
1001.885	2247.09
1002.18	2246.86
1002.475	2278.5
1002.77	2210.03
1003.065	2209.35
1003.359	2177.71
1003.654	2197.82
1003.949	2160.31
1004.243	2144.72
1004.538	2113.76
1004.832	2123.02
1005.127	2099.07
1005.421	2097.71
1005.715	2085.51
1006.009	2089.8
1006.304	2092.52
1006.598	2070.14
1006.892	2055.23
1007.186	2043.93
1007.48	2019.3
1007.773	1989.24
1008.067	2019.3
1008.361	2002.57
1008.655	1983.82
1008.948	1969.58
1009.242	1973.2
1009.535	1970.48
1009.829	1913.09
1010.122	1922.12
1010.415	1897.94
1010.708	1919.86
1011.001	1854.78
1011.295	1847.78
1011.588	1900.43
1011.881	1831.05
1012.173	1857.49
1012.466	1860.43
1012.759	1829.25
1013.052	1827.21
1013.344	1764.16
1013.637	1783.6
1013.93	1760.09
1014.222	1752.64
1014.514	1744.73
1014.807	1756.25
1015.099	1714.22
1015.391	1739.08
1015.683	1692.53
1015.976	1728.01
1016.268	1684.39
1016.56	1655.46
1016.851	1647.56
1017.143	1671.28
1017.435	1638.29
1017.727	1660.89
1018.018	1624.28
1018.31	1632.64
1018.602	1600.55
1018.893	1587.9
1019.185	1612.98
1019.476	1597.16
1019.767	1545.64
1020.058	1541.57
1020.35	1520.1
1020.641	1563.49
1020.932	1521.68
1021.223	1507.45
1021.514	1508.12
1021.804	1486.2
1022.095	1493.66
1022.386	1494.79
1022.677	1469.71
1022.967	1463.83
1023.258	1451.63
1023.548	1434
1023.839	1443.95
1024.129	1425.64
1024.419	1446.2
1024.709	1419.31
1025	1389.48
1025.29	1348.35
1025.58	1361.01
1025.87	1351.97
1026.16	1381.8
1026.449	1366.21
1026.739	1327.11
1027.029	1340.67
1027.319	1288.92
1027.608	1310.62
1027.898	1317.17
1028.187	1295.02
1028.477	1300.9
1028.766	1290.05
1029.055	1248.47
1029.344	1260
1029.634	1237.17
1029.923	1222.03
1030.212	1216.15
1030.501	1222.26
1030.79	1212.54
1031.078	1215.93
1031.367	1178.19
1031.656	1183.84
1031.945	1177.74
1032.233	1163.73
1032.522	1154.69
1032.81	1189.26
1033.099	1129.38
1033.387	1155.59
1033.675	1158.3
1033.963	1137.74
1034.251	1143.84
1034.54	1120.56
1034.828	1103.84
1035.116	1114.91
1035.403	1100
1035.691	1092.09
1035.979	1087.8
1036.267	1079.43
1036.554	1075.59
1036.842	1059.32
1037.129	1063.39
1037.417	1021.13
1037.704	1052.77
1037.992	1008.93
1038.279	1021.58
1038.566	1010.96
1038.853	1010.96
1039.14	1010.96
