Data from hue_28_FLMS001491_00008.txt Node
Date: Tue Feb 07 17:16:48 GMT 2017
User: dcchb
Spectrometer: FLMS00149
Trigger mode: 0
Integration Time (sec): 2.000000E-2
Scans to average: 10
Electric dark correction enabled: true
Nonlinearity correction enabled: false
Boxcar width: 0
XAxis mode: Wavelengths
Number of Pixels in Spectrum: 2048
>>>>>Begin Spectral Data<<<<<
341.393	-13.4
341.776	-13.4
342.16	-13.4
342.543	-59.73
342.927	-43.69
343.31	-55.44
343.693	-72.39
344.077	-73.97
344.46	-67.41
344.843	-66.51
345.226	-30.35
345.61	-38.04
345.993	-28.09
346.376	15.75
346.759	17.33
347.142	29.53
347.525	42.41
347.908	41.06
348.291	61.85
348.674	105.92
349.057	118.34
349.44	129.87
349.823	151.79
350.206	178.23
350.588	216.87
350.971	217.32
351.354	228.62
351.737	232.69
352.119	254.61
352.502	272.24
352.884	294.61
353.267	283.09
353.65	312.69
354.032	293.48
354.414	315.18
354.797	329.19
355.179	330.32
355.562	322.18
355.944	352.69
356.326	316.76
356.709	334.84
357.091	356.53
357.473	340.03
357.855	347.49
358.238	350.2
358.62	342.07
359.002	353.37
359.384	361.73
359.766	359.24
360.148	359.47
360.53	363.31
360.912	351.56
361.294	321.5
361.676	347.72
362.057	317.21
362.439	354.27
362.821	328.73
363.203	334.38
363.584	314.95
363.966	347.04
364.348	338.68
364.729	324.21
365.111	341.39
365.493	306.81
365.874	325.34
366.256	327.83
366.637	318.34
367.019	327.6
367.4	300.26
367.781	337.1
368.163	329.64
368.544	325.34
368.925	328.06
369.306	319.69
369.688	339.58
370.069	307.27
370.45	321.05
370.831	328.06
371.212	304.33
371.593	328.73
371.974	303.42
372.355	305.01
372.736	315.85
373.117	333.03
373.498	338.9
373.879	327.6
374.26	304.1
374.641	303.88
375.021	322.18
375.402	319.24
375.783	330.99
376.163	328.96
376.544	319.47
376.925	342.07
377.305	333.71
377.686	331.45
378.066	325.34
378.447	315.18
378.827	335.06
379.208	333.03
379.588	365.12
379.968	350.43
380.349	322.18
380.729	355.63
381.109	343.42
381.489	356.98
381.87	364.44
382.25	331.45
382.63	360.82
383.01	346.13
383.39	337.77
383.77	379.13
384.15	354.5
384.53	361.73
384.91	367.83
385.29	357.89
385.67	356.53
386.049	348.85
386.429	349.98
386.809	383.87
387.189	372.57
387.568	364.89
387.948	361.95
388.328	359.02
388.707	360.82
389.087	374.83
389.466	368.73
389.846	379.81
390.225	380.03
390.605	366.47
390.984	357.89
391.363	372.35
391.743	380.71
392.122	365.57
392.501	385
392.881	387.49
393.26	401.95
393.639	380.94
394.018	363.76
394.397	384.78
394.776	402.63
395.155	404.89
395.534	410.31
395.913	397.89
396.292	413.03
396.671	396.98
397.05	400.6
397.429	399.01
397.808	418
398.186	406.92
398.565	402.63
398.944	396.98
399.323	428.84
399.701	410.09
400.08	419.81
400.458	411.44
400.837	399.24
401.215	428.17
401.594	413.03
401.972	406.47
402.351	429.3
402.729	425.91
403.107	436.75
403.486	437.66
403.864	420.26
404.242	438.79
404.62	444.44
404.999	425.68
405.377	453.93
405.755	428.62
406.133	427.94
406.511	452.12
406.889	472.01
407.267	440.6
407.645	449.18
408.023	471.78
408.401	454.15
408.779	483.98
409.156	451.67
409.534	464.55
409.912	460.93
410.29	495.51
410.667	477.66
411.045	483.08
411.422	486.92
411.8	481.27
412.178	499.8
412.555	518.33
412.933	486.47
413.31	477.88
413.687	506.13
414.065	502.29
414.442	495.51
414.819	521.72
415.197	513.59
415.574	525.34
415.951	513.81
416.328	507.49
416.705	534.83
417.082	530.76
417.46	536.41
417.837	551.1
418.214	551.55
418.591	523.53
418.967	559.24
419.344	546.13
419.721	557.43
420.098	528.96
420.475	551.55
420.852	563.53
421.228	568.95
421.605	557.65
421.982	584.09
422.358	598.56
422.735	605.34
423.111	582.06
423.488	581.83
423.864	605.79
424.241	614.6
424.617	606.02
424.994	586.81
425.37	601.5
425.746	612.12
426.123	608.05
426.499	608.5
426.875	633.13
427.251	623.87
427.627	637.43
428.003	641.49
428.379	645.11
428.756	654.15
429.132	653.92
429.507	672.45
429.883	672
430.259	681.95
430.635	674.26
431.011	678.78
431.387	693.24
431.763	716.97
432.138	676.3
432.514	715.16
432.89	699.57
433.265	733.24
433.641	734.6
434.016	709.06
434.392	737.76
434.767	745.67
435.143	736.63
435.518	781.15
435.894	771.21
436.269	768.72
436.644	796.97
437.02	792.45
437.395	788.61
437.77	785.45
438.145	800.36
438.52	801.94
438.895	818.21
439.271	796.07
439.646	833.13
440.021	823.41
440.395	835.61
440.77	830.19
441.145	845.56
441.52	845.78
441.895	847.14
442.27	844.43
442.645	869.29
443.019	879.45
443.394	852.11
443.769	881.49
444.143	874.03
444.518	891.43
444.892	872
445.267	882.39
445.641	874.26
446.016	924.2
446.39	921.49
446.764	904.76
447.139	906.12
447.513	944.54
447.887	937.08
448.262	940.92
448.636	967.14
449.01	962.62
449.384	937.98
449.758	950.41
450.132	969.4
450.506	972.11
450.88	992.67
451.254	957.64
451.628	999
452.002	980.47
452.376	1003.97
452.75	1022.5
453.123	1027.47
453.497	1035.38
453.871	1045.1
454.244	1069.73
454.618	1076.96
454.992	1096.4
455.365	1110.63
455.739	1106.57
456.112	1121.26
456.486	1146.79
456.859	1127.81
457.232	1133.91
457.606	1173.23
457.979	1154.93
458.352	1170.75
458.725	1180.01
459.099	1219.33
459.472	1222.72
459.845	1228.82
460.218	1243.06
460.591	1242.83
460.964	1233.57
461.337	1285.55
461.71	1305.21
462.083	1307.69
462.456	1321.48
462.829	1327.58
463.201	1336.84
463.574	1376.62
463.947	1379.78
464.32	1372.77
464.692	1409.38
465.065	1417.07
465.438	1448.25
465.81	1448.03
466.183	1481.7
466.555	1501.36
466.928	1510.17
467.3	1504.07
467.672	1510.17
468.045	1554.46
468.417	1542.94
468.789	1606.67
469.161	1603.96
469.534	1648.02
469.906	1669.26
470.278	1694.12
470.65	1720.56
471.022	1749.04
471.394	1767.11
471.766	1787.68
472.138	1814.57
472.51	1833.1
472.882	1876.94
473.253	1885.08
473.625	1877.17
473.997	1982.7
474.369	1992.87
474.74	2015.7
475.112	2039.65
475.484	2064.96
475.855	2136.82
476.227	2137.95
476.598	2184.96
476.97	2225.41
477.341	2277.38
477.713	2295.91
478.084	2333.43
478.455	2405.29
478.827	2417.04
479.198	2470.82
479.569	2527.77
479.94	2567.09
480.311	2612.06
480.682	2622.91
481.053	2667.43
481.424	2781.55
481.795	2783.59
482.166	2882.79
482.537	2943.58
482.908	2963.02
483.279	3017.93
483.65	3073.75
484.021	3111.03
484.391	3183.12
484.762	3255.44
485.133	3269.22
485.503	3347.19
485.874	3406.39
486.244	3461.76
486.615	3526.84
486.985	3575.2
487.356	3616.78
487.726	3674.18
488.097	3761.86
488.467	3813.61
488.837	3902.2
489.207	3939.49
489.578	3979.71
489.948	4023.33
490.318	4127.73
490.688	4164.34
491.058	4249.99
491.428	4256.77
491.798	4355.75
492.168	4454.05
492.538	4492.92
492.908	4505.8
493.278	4605.23
493.648	4620.15
494.017	4720.48
494.387	4725
494.757	4814.72
495.126	4901.5
495.496	4845.23
495.866	4953.25
496.235	4927.94
496.605	5021.72
496.974	5112.56
497.344	5114.6
497.713	5165.9
498.082	5216.29
498.452	5294.25
498.821	5300.13
499.19	5378.32
499.559	5369.28
499.928	5470.97
500.298	5479.56
500.667	5532.89
501.036	5525.43
501.405	5549.16
501.774	5590.29
502.143	5628.03
502.512	5694.47
502.88	5767.01
503.249	5765.65
503.618	5827.8
503.987	5830.28
504.356	5880.9
504.724	5937.85
505.093	5936.04
505.462	6017.17
505.83	5996.38
506.199	5998.42
506.567	6082.03
506.936	6150.05
507.304	6201.35
507.672	6219.2
508.041	6250.39
508.409	6324.06
508.777	6327.67
509.145	6426.88
509.514	6373.77
509.882	6463.71
510.25	6433.88
510.618	6463.49
510.986	6533.32
511.354	6593.65
511.722	6636.37
512.09	6668.91
512.458	6660.77
512.826	6759.53
513.193	6759.3
513.561	6759.98
513.929	6818.28
514.297	6902.12
514.664	6885.17
515.032	6935.11
515.4	6974.89
515.767	6985.06
516.135	7061.21
516.502	6978.28
516.869	7086.97
517.237	7111.61
517.604	7074.32
517.972	7168.33
518.339	7164.49
518.706	7201.1
519.073	7213.98
519.44	7285.16
519.808	7391.83
520.175	7301.21
520.542	7420.3
520.909	7444.25
521.276	7460.3
521.643	7581.65
522.009	7581.88
522.376	7650.12
522.743	7650.58
523.11	7712.72
523.477	7779.39
523.843	7806.05
524.21	7874.3
524.577	7924.69
524.943	7931.02
525.31	7993.39
525.676	8011.02
526.043	8102.54
526.409	8108.87
526.776	8247.4
527.142	8181.18
527.508	8236.77
527.874	8325.81
528.241	8402.19
528.607	8357.45
528.973	8481.29
529.339	8411.69
529.705	8551.79
530.071	8575.52
530.437	8597.44
530.803	8625.69
531.169	8694.84
531.535	8730.32
531.901	8797.21
532.267	8820.94
532.632	8889.64
532.998	8858.91
533.364	9001.27
533.73	8970.77
534.095	9022.07
534.461	9073.59
534.826	9095.51
535.192	9089.18
535.557	9246.92
535.923	9199.24
536.288	9212.12
536.653	9345.9
537.019	9276.75
537.384	9331.44
537.749	9467.03
538.114	9428.38
538.479	9439.91
538.845	9486.69
539.21	9490.08
539.575	9549.28
539.94	9563.52
540.305	9666.79
540.67	9616.85
541.034	9736.17
541.399	9756.28
541.764	9797.19
542.129	9838.54
542.494	9814.13
542.858	9883.74
543.223	9890.74
543.587	9995.15
543.952	9921.93
544.316	10034.69
544.681	10084.41
545.045	10095.48
545.41	10181.13
545.774	10230.39
546.138	10171.87
546.503	10253.9
546.867	10354.01
547.231	10371.18
547.595	10379.54
547.959	10444.17
548.324	10391.75
548.688	10442.59
549.052	10529.14
549.416	10588.35
549.779	10534.57
550.143	10589.93
550.507	10686.43
550.871	10741.34
551.235	10674
551.599	10770.27
551.962	10776.6
552.326	10838.51
552.689	10853.88
553.053	10849.14
553.417	10906.54
553.78	11014.56
554.143	10920.55
554.507	11024.5
554.87	11077.15
555.234	11162.35
555.597	11126.19
555.96	11088.9
556.323	11203.25
556.686	11219.52
557.05	11334.09
557.413	11332.29
557.776	11313.53
558.139	11370.93
558.502	11370.25
558.865	11502
559.228	11509.46
559.59	11577.48
559.953	11673.07
560.316	11714.2
560.679	11654.09
561.041	11716.68
561.404	11784.93
561.767	11859.05
562.129	11770.69
562.492	11940.63
562.854	11930.92
563.217	11923.46
563.579	11959.61
563.941	12079.39
564.304	12164.13
564.666	12170.91
565.028	12257.69
565.39	12247.29
565.753	12367.29
566.115	12352.15
566.477	12407.06
566.839	12391.24
567.201	12543.78
567.563	12448.87
567.925	12624.23
568.287	12692.25
568.648	12636.89
569.01	12699.26
569.372	12809.99
569.734	12796.43
570.095	12839.37
570.457	12931.11
570.819	12956.2
571.18	13026.71
571.542	13092.69
571.903	13110.55
572.265	13208.17
572.626	13219.02
572.987	13211.79
573.349	13324.1
573.71	13341.05
574.071	13460.14
574.432	13557.09
574.794	13667.59
575.155	13772
575.516	13692.68
575.877	13723.86
576.238	13878.89
576.599	13995.72
576.96	14083.4
577.32	14117.52
577.681	14293.56
578.042	14393.45
578.403	14408.82
578.763	14515.25
579.124	14638.64
579.485	14840.67
579.845	14884.51
580.206	14993.89
580.566	15174.67
580.927	15293.76
581.287	15437.26
581.648	15585.28
582.008	15720.19
582.368	15917.25
582.728	16038.38
583.089	16241.99
583.449	16373.96
583.809	16614.18
584.169	16770.56
584.529	16902.99
584.889	17228.4
585.249	17268.4
585.609	17474.95
585.969	17752.91
586.329	17890.98
586.688	18204.65
587.048	18355.15
587.408	18646.67
587.768	18811.86
588.127	19102.48
588.487	19287.33
588.846	19706.98
589.206	19876.69
589.565	20064.94
589.925	20434.65
590.284	20576.79
590.643	20886.61
591.003	21359.37
591.362	21619.25
591.721	21778.11
592.08	22105.11
592.44	22375.39
592.799	22677.98
593.158	22957.97
593.517	23197.96
593.876	23513.89
594.235	23715.01
594.593	23987.55
594.952	24486.07
595.311	24572.16
595.67	24940.29
596.029	25451.46
596.387	25814.39
596.746	26026.36
597.104	26142.74
597.463	26581.83
597.822	26959.45
598.18	27054.36
598.538	27374.35
598.897	27807.33
599.255	27859.54
599.613	28454.32
599.972	28709.01
600.33	28935.89
600.688	29071.48
601.046	29594.41
601.404	29896.32
601.762	30044.34
602.12	30591.44
602.478	30675.51
602.836	30985.1
603.194	31128.6
603.552	31601.13
603.91	31612.88
604.268	32057.39
604.625	32271.85
604.983	32476.36
605.341	32738.28
605.698	33030.93
606.056	33438.82
606.413	33511.36
606.771	33910.22
607.128	34011.24
607.485	34201.52
607.843	34528.51
608.2	34738
608.557	35194.48
608.914	35209.17
609.272	35459.56
609.629	35926.67
609.986	36062.03
610.343	36096.83
610.7	36665.18
611.057	36756.03
611.414	36757.15
611.771	37165.73
612.127	37371.83
612.484	37575.21
612.841	37856.11
613.198	37804.59
613.554	38026.05
613.911	38306.27
614.267	38682.3
614.624	38700.83
614.98	38855.86
615.337	39253.81
615.693	39362.28
616.05	39289.07
616.406	39595.95
616.762	39733.35
617.118	39694.7
617.475	39972.89
617.831	40220.11
618.187	40366.55
618.543	40428.92
618.899	40799.31
619.255	40763.38
619.611	40864.39
619.967	41038.85
620.323	41333.76
620.678	41105.74
621.034	41205.63
621.39	41325.4
621.746	41261.9
622.101	41980.07
622.457	41593.19
622.812	41873.4
623.168	42201.76
623.523	42040.86
623.879	42260.97
624.234	42129.22
624.589	42379.15
624.945	42400.17
625.3	42628.64
625.655	42543.22
626.01	42694.4
626.365	42872.25
626.72	42717.9
627.075	42821.18
627.43	42852.59
627.785	42946.82
628.14	42979.82
628.495	43007.39
628.85	43024.56
629.205	43031.11
629.559	43321.28
629.914	43134.61
630.269	43340.26
630.623	43304.33
630.978	43211.9
631.332	43480.37
631.687	43534.15
632.041	43427.94
632.396	43438.79
632.75	43448.5
633.104	43590.42
633.459	43364.44
633.813	43562.4
634.167	43426.81
634.521	43546.36
634.875	43670.19
635.229	43503.87
635.583	43322.63
635.937	43470.2
636.291	43305.91
636.645	43398.34
636.999	43422.52
637.352	43456.87
637.706	43465
638.06	43665
638.413	43528.28
638.767	43438.56
639.121	43508.16
639.474	43287.83
639.828	43328.28
640.181	43454.38
640.534	43418
640.888	43379.58
641.241	43097.55
641.594	43273.59
641.947	43435.4
642.301	43282.86
642.654	43381.84
643.007	43189.3
643.36	43322.86
643.713	43349.75
644.066	43192.69
644.419	43209.19
644.771	42909.99
645.124	42628.64
645.477	42588.64
645.83	42401.53
646.182	42252.15
646.535	42034.98
646.888	42142.32
647.24	41874.31
647.593	42243.56
647.945	42117.92
648.298	42028.43
648.65	42025.49
649.002	41811.71
649.355	42058.94
649.707	41999.73
650.059	42156.79
650.411	42617.11
650.763	42659.6
651.115	42982.75
651.467	42940.5
651.819	42899.14
652.171	42624.35
652.523	42716.77
652.875	42819.82
653.227	42613.72
653.578	42979.36
653.93	42756.09
654.282	42740.27
654.633	42527.62
654.985	42646.72
655.337	42619.83
655.688	42627.74
656.039	42849.2
656.391	42400.17
656.742	42642.88
657.094	42630.67
657.445	42754.29
657.796	42712.48
658.147	42546.83
658.498	42502.09
658.849	42723.78
659.2	42542.09
659.551	42531.47
659.902	42516.1
660.253	42541.41
660.604	42545.7
660.955	42442.2
661.306	42672.48
661.656	42548.19
662.007	42511.13
662.358	42556.55
662.708	42408.53
663.059	42541.18
663.409	42292.6
663.76	42558.13
664.11	42434.75
664.461	42485.59
664.811	42591.8
665.161	42436.78
665.511	42525.59
665.862	42397.46
666.212	42570.79
666.562	42482.2
666.912	42472.48
667.262	42300.06
667.612	42285.37
667.962	42440.85
668.312	42414.63
668.662	42601.3
669.011	42499.38
669.361	42488.76
669.711	42316.1
670.06	42252.38
670.41	42178.03
670.76	42204.02
671.109	42293.73
671.459	42275.65
671.808	42221.64
672.157	42264.35
672.507	42016.45
672.856	42157.92
673.205	42222.55
673.554	42294.64
673.904	42151.59
674.253	42258.48
674.602	42183
674.951	41618.04
675.3	41474.09
675.649	42060.52
675.998	42042.21
676.346	42119.27
676.695	42002.44
677.044	41693.97
677.393	41922.22
677.741	42041.31
678.09	41932.84
678.438	41875.66
678.787	41990.69
679.135	41894.2
679.484	41695.33
679.832	41775.78
680.181	41586.18
680.529	41687.65
680.877	41579.4
681.225	41484.04
681.573	41737.81
681.922	41652.62
682.27	41420.99
682.618	41363.81
682.966	41092.63
683.314	41335.11
683.661	41354.32
684.009	40999.53
684.357	40960.66
684.705	40899.64
685.053	41035.91
685.4	40912.07
685.748	40641.57
686.095	40683.38
686.443	40645.87
686.79	40515.47
687.138	40656.71
687.485	40623.04
687.832	40375.36
688.18	40476.83
688.527	40370.39
688.874	40349.38
689.221	40246.78
689.568	40171.3
689.915	40079.78
690.262	40033.23
690.609	39837.75
690.956	39736.06
691.303	39818.32
691.65	39543.52
691.997	39660.36
692.344	39393.47
692.69	39319.12
693.037	39467.37
693.383	39027.83
693.73	39059.92
694.077	39034.61
694.423	38890.88
694.769	38817.67
695.116	38669.2
695.462	38770.21
695.808	38597.11
696.155	38539.71
696.501	38316.66
696.847	38364.8
697.193	38101.07
697.539	38208.64
697.885	38020.17
698.231	37821.08
698.577	37828.99
698.923	37786.05
699.269	37765.49
699.614	37496.34
699.96	37400.3
700.306	37389.23
700.651	37318.04
700.997	37091.16
701.342	37131.16
701.688	37045.28
702.033	36997.15
702.379	36928.45
702.724	36784.95
703.069	36893.2
703.415	36462.02
703.76	36507.9
704.105	36492.98
704.45	36352.65
704.795	36249.82
705.14	36153.78
705.485	36053.67
705.83	36032.88
706.175	36128.02
706.52	35991.53
706.865	35806.22
707.209	35780.01
707.554	35698.88
707.899	35790.63
708.243	35570.07
708.588	35478.09
708.932	35284.2
709.277	35336.85
709.621	35300.02
709.966	34869.52
710.31	34955.17
710.654	34833.14
710.998	34765.34
711.342	34823.65
711.687	34683.76
712.031	34593.14
712.375	34467.05
712.719	34422.98
713.063	34344.79
713.407	34566.48
713.75	34331
714.094	34435.63
714.438	34073.61
714.782	34252.81
715.125	34009.43
715.469	34084
715.812	33904.57
716.156	33821.86
716.499	33829.55
716.843	33809.89
717.186	33646.28
717.53	33830.9
717.873	33739.16
718.216	33657.12
718.559	33543
718.902	33368.77
719.246	33353.18
719.589	33367.87
719.932	33095.33
720.275	33122
720.617	33137.14
720.96	33073.64
721.303	32995.67
721.646	33069.57
721.989	32789.12
722.331	32932.62
722.674	32780.76
723.016	32837.71
723.359	32701.89
723.701	32857.14
724.044	32469.81
724.386	32416.25
724.729	32649.01
725.071	32548.9
725.413	32559.07
725.755	32417.38
726.097	32278.63
726.439	32220.1
726.782	32175.81
727.124	32192.53
727.465	32134.45
727.807	32121.12
728.149	32058.75
728.491	31985.76
728.833	32043.83
729.175	31861.69
729.516	31735.59
729.858	31852.2
730.199	31717.74
730.541	31784.86
730.882	31635.71
731.224	31756.61
731.565	31550.96
731.906	31558.65
732.248	31505.99
732.589	31364.75
732.93	31298.77
733.271	31337.86
733.612	31443.4
733.953	31311.42
734.294	31276.85
734.635	31082.05
734.976	31236.62
735.317	31021.71
735.658	31065.55
735.999	30974.26
736.339	31009.51
736.68	31023.52
737.021	30912.11
737.361	30683.64
737.702	30904.88
738.042	30704.88
738.383	30862.62
738.723	30654.72
739.063	30559.13
739.404	30711.44
739.744	30612.01
740.084	30588.73
740.424	30455.85
740.764	30376.31
741.104	30573.36
741.444	30442.74
741.784	30165.69
742.124	30365.23
742.464	30211.11
742.804	30169.08
743.143	30178.12
743.483	30097.22
743.823	29937.45
744.162	30016.54
744.502	30174.96
744.841	29862.87
745.181	30021.29
745.52	29880.27
745.86	29838.01
746.199	29758.24
746.538	29748.3
746.877	29913.27
747.216	29829.2
747.556	29693.16
747.895	29600.06
748.234	29634.4
748.573	29611.13
748.911	29605.25
749.25	29394.64
749.589	29353.28
749.928	29379.5
750.267	29357.35
750.605	29380.17
750.944	29330.01
751.283	29240.74
751.621	29232.61
751.96	28911.49
752.298	29064.7
752.636	29159.84
752.975	28819.28
753.313	28813.41
753.651	28971.15
753.989	28742.45
754.327	28674.43
754.666	28667.88
755.004	28591.04
755.342	28639.4
755.679	28638.05
756.017	28452.51
756.355	28497.26
756.693	28412.74
757.031	28449.35
757.368	28293.87
757.706	28278.06
758.044	28191.73
758.381	28220.66
758.719	28081.22
759.056	27994.67
759.394	27951.06
759.731	27800.78
760.068	27777.5
760.405	27741.8
760.743	27650.95
761.08	27652.54
761.417	27479.66
761.754	27441.92
762.091	27231.53
762.428	27298.87
762.765	27148.14
763.102	27193.56
763.438	27022.95
763.775	26946.11
764.112	26991.76
764.449	26948.15
764.785	26803.07
765.122	26650.75
765.458	26555.39
765.795	26570.76
766.131	26592.22
766.467	26358.78
766.804	26268.17
767.14	26209.41
767.476	26223.87
767.812	26036.98
768.148	26086.93
768.485	25915.63
768.821	25775.75
769.157	25724.45
769.492	25707.73
769.828	25595.41
770.164	25404.69
770.5	25357.68
770.836	25418.02
771.171	25187.29
771.507	25158.14
771.842	24993.62
772.178	24962.89
772.513	24977.8
772.849	24840.63
773.184	24766.06
773.519	24707.08
773.855	24602.45
774.19	24495.56
774.525	24269.35
774.86	24369.91
775.195	24408.33
775.53	24278.84
775.865	24061.44
776.2	24025.29
776.535	23694.9
776.87	23825.07
777.205	23694.45
777.539	23597.95
777.874	23720.44
778.209	23422.59
778.543	23328.81
778.878	23217.4
779.212	23176.95
779.547	23035.71
779.881	23204.97
780.215	22830.06
780.55	22985.09
780.884	22806.34
781.218	22828.93
781.552	22717.07
781.886	22634.36
782.22	22567.02
782.554	22440.24
782.888	22221.94
783.222	22187.37
783.556	22089.29
783.889	22102.63
784.223	21943.99
784.557	21983.31
784.89	21917.55
785.224	21808.17
785.557	21618.34
785.891	21582.19
786.224	21495.18
786.558	21551.45
786.891	21211.58
787.224	21268.97
787.557	21170.45
787.891	21198.24
788.224	21164.34
788.557	21141.07
788.89	20930.68
789.223	21008.19
789.556	20793.51
789.888	20765.03
790.221	20677.8
790.554	20433.52
790.887	20444.14
791.219	20463.8
791.552	20374.08
791.884	20290.92
792.217	20198.72
792.549	20114.65
792.882	20019.29
793.214	19961.66
793.546	19985.39
793.879	19916.47
794.211	19728
794.543	19864.27
794.875	19590.15
795.207	19705.17
795.539	19615.23
795.871	19661.11
796.203	19387.67
796.535	19370.72
796.867	19260.21
797.198	19241.46
797.53	19298.63
797.862	19101.35
798.193	19165.75
798.525	19075.59
798.856	18953.56
799.188	18781.13
799.519	18710.85
799.85	18687.12
800.182	18646.44
800.513	18602.38
800.844	18435.83
801.175	18645.77
801.506	18491.42
801.837	18431.31
802.168	18371.2
802.499	18351.09
802.83	18154.25
803.161	18272.22
803.491	18209.17
803.822	18192.67
804.153	17987.03
804.483	17926.69
804.814	17866.13
805.145	17836.3
805.475	17844.88
805.805	17704.32
806.136	17781.83
806.466	17724.44
806.796	17586.13
807.126	17557.43
807.457	17469.07
807.787	17491.22
808.117	17449.19
808.447	17354.5
808.777	17390.21
809.107	17367.83
809.436	17267.72
809.766	17187.73
810.096	17219.59
810.426	17019.37
810.755	17094.85
811.085	16985.47
811.414	17032.93
811.744	16951.57
812.073	16828.87
812.403	16898.92
812.732	16728.76
813.061	16762.2
813.39	16732.14
813.719	16628.64
814.049	16678.36
814.378	16498.03
814.707	16500.51
815.036	16418.25
815.365	16390.01
815.693	16281.08
816.022	16322.21
816.351	16293.06
816.68	16230.69
817.008	16205.38
817.337	16073.41
817.665	15985.95
817.994	16107.08
818.322	15980.75
818.651	15948.21
818.979	15962.22
819.307	15971.94
819.636	15890.59
819.964	15760.19
820.292	15913.18
820.62	15816.24
820.948	15792.96
821.276	15791.15
821.604	15813.52
821.932	15784.37
822.259	15722.45
822.587	15730.82
822.915	15728.33
823.243	15814.2
823.57	15718.39
823.898	15682.68
824.225	15651.95
824.553	15672.51
824.88	15697.14
825.207	15656.47
825.535	15594.32
825.862	15688.1
826.189	15639.29
826.516	15668.67
826.843	15648.78
827.17	15700.53
827.497	15677.03
827.824	15719.74
828.151	15724.71
828.478	15705.05
828.805	15690.14
829.131	15614.66
829.458	15662.12
829.785	15577.6
830.111	15677.48
830.438	15741.21
830.764	15679.97
831.09	15686.97
831.417	15540.09
831.743	15684.04
832.069	15676.13
832.395	15518.39
832.722	15599.75
833.048	15537.83
833.374	15570.82
833.7	15494.66
834.026	15501.22
834.351	15495.12
834.677	15450.82
835.003	15528.79
835.329	15480.2
835.654	15428
835.98	15409.69
836.306	15377.6
836.631	15324.95
836.956	15386.87
837.282	15339.87
837.607	15294.22
837.932	15264.61
838.258	15217.38
838.583	15187.55
838.908	15104.84
839.233	15073.21
839.558	15226.42
839.883	15029.14
840.208	15015.81
840.533	15043.83
840.858	15073.88
841.182	15061.45
841.507	15014.22
841.832	14899.2
842.156	14924.96
842.481	14882.93
842.805	14867.79
843.13	14836.6
843.454	14797.96
843.778	14737.39
844.103	14694.23
844.427	14748.47
844.751	14716.6
845.075	14602.03
845.399	14634.8
845.723	14506.89
846.047	14480.45
846.371	14426.89
846.695	14399.32
847.019	14270.29
847.343	14184.64
847.666	14140.8
847.99	13986.68
848.313	14004.76
848.637	13899.22
848.96	13939
849.284	13901.71
849.607	13857.19
849.931	13821.94
850.254	13651.1
850.577	13567.71
850.9	13510.08
851.223	13534.26
851.546	13415.62
851.869	13337.66
852.192	13449.29
852.515	13277.32
852.838	13264.89
853.161	13209.3
853.483	13118.45
853.806	13132.01
854.129	13133.82
854.451	12954.84
854.774	12969.76
855.096	12883.21
855.419	12904.67
855.741	12885.47
856.063	12786.94
856.385	12791.23
856.708	12783.1
857.03	12731.57
857.352	12598.92
857.674	12525.7
857.996	12526.38
858.318	12477.34
858.64	12508.53
858.961	12454.29
859.283	12407.51
859.605	12365.93
859.926	12464.46
860.248	12454.97
860.57	12346.72
860.891	12398.02
861.212	12275.54
861.534	12155.32
861.855	12237.57
862.176	12197.57
862.498	12183.34
862.819	12143.34
863.14	12068.99
863.461	12146.28
863.782	12105.83
864.103	12040.74
864.424	11981.54
864.745	12113.51
865.065	12019.73
865.386	11903.57
865.707	11893.18
866.027	11873.06
866.348	11818.38
866.668	11889.79
866.989	11856.34
867.309	11753.97
867.63	11784.48
867.95	11738.15
868.27	11695.22
868.59	11706.74
868.91	11714.65
869.23	11633.52
869.55	11649.57
869.87	11683.24
870.19	11662.9
870.51	11678.94
870.83	11646.85
871.15	11544.48
871.469	11502.45
871.789	11547.42
872.109	11514.2
872.428	11426.52
872.748	11478.05
873.067	11476.24
873.386	11500.19
873.706	11401.21
874.025	11389.69
874.344	11306.3
874.663	11309.24
874.982	11323.02
875.301	11280.31
875.62	11307.43
875.939	11223.36
876.258	11280.54
876.577	11207.77
876.896	11162.12
877.214	11219.3
877.533	11181.33
877.852	11152.18
878.17	11145.63
878.489	11197.38
878.807	11148.79
879.125	11102.24
879.444	11144.72
879.762	11045.06
880.08	11065.63
880.398	10969.81
880.716	11044.38
881.034	10984.5
881.352	10994.22
881.67	10931.17
881.988	10964.16
882.306	10882.81
882.624	10898.4
882.941	10743.6
883.259	10743.6
883.577	10786.99
883.894	10771.17
884.212	10683.49
884.529	10692.98
884.846	10666.54
885.164	10599.65
885.481	10675.35
885.798	10640.55
886.115	10548.13
886.432	10572.76
886.75	10468.35
887.067	10480.33
887.383	10489.37
887.7	10508.13
888.017	10378.87
888.334	10478.52
888.651	10403.72
888.967	10377.74
889.284	10288.92
889.6	10279.89
889.917	10268.81
890.233	10236.72
890.55	10218.87
890.866	10235.82
891.182	10119.21
891.498	10144.97
891.815	10059.78
892.131	10005.99
892.447	10041.93
892.763	10020.91
893.079	10032.89
893.395	9961.02
893.71	9915.37
894.026	9889.16
894.342	9830.63
894.657	9859.33
894.973	9789.5
895.289	9789.28
895.604	9723.74
895.92	9664.76
896.235	9659.79
896.55	9600.81
896.865	9581.37
897.181	9554.93
897.496	9558.32
897.811	9564.2
898.126	9447.14
898.441	9455.05
898.756	9450.53
899.071	9360.59
899.386	9401.94
899.7	9275.39
900.015	9238.1
900.33	9237.43
900.644	9223.19
900.959	9203.08
901.273	9195.17
901.588	9115.85
901.902	9044.21
902.216	9068.62
902.531	9105.45
902.845	8971.67
903.159	8906.36
903.473	8880.37
903.787	8913.14
904.101	8802.64
904.415	8882.63
904.729	8801.28
905.042	8727.38
905.356	8698.91
905.67	8702.07
905.984	8701.17
906.297	8646.03
906.611	8590.44
906.924	8557.67
907.237	8577.56
907.551	8542.53
907.864	8489.2
908.177	8448.07
908.491	8459.37
908.804	8336.43
909.117	8314.96
909.43	8315.42
909.743	8282.65
910.056	8272.48
910.368	8173.95
910.681	8159.71
910.994	8091.47
911.307	8075.42
911.619	8013.28
911.932	8086.5
912.244	7974.86
912.557	7992.94
912.869	7910.91
913.181	7853.06
913.494	7908.65
913.806	7897.12
914.118	7780.06
914.43	7748.65
914.742	7764.7
915.054	7702.33
915.366	7651.03
915.678	7648.32
915.99	7620.07
916.302	7533.29
916.613	7534.87
916.925	7497.36
917.236	7496.46
917.548	7397.93
917.859	7446.06
918.171	7354.09
918.482	7326.06
918.794	7287.2
919.105	7353.41
919.416	7227.08
919.727	7210.59
920.038	7250.81
920.349	7157.71
920.66	7115.22
920.971	7100.31
921.282	7092.4
921.593	7021.89
921.903	7011.95
922.214	6934.66
922.525	6919.52
922.835	6917.94
923.146	6897.83
923.456	6855.57
923.767	6846.76
924.077	6872.97
924.387	6810.37
924.697	6715.23
925.008	6745.74
925.318	6682.47
925.628	6676.82
925.938	6620.32
926.248	6623.26
926.558	6610.38
926.867	6611.05
927.177	6524.96
927.487	6458.29
927.796	6437.5
928.106	6493.32
928.416	6448.57
928.725	6456.71
929.034	6366.09
929.344	6329.25
929.653	6341.23
929.962	6258.3
930.271	6215.36
930.581	6232.53
930.89	6175.81
931.199	6169.94
931.508	6138.75
931.817	6152.54
932.125	6139.65
932.434	6068.24
932.743	6006.55
933.051	5969.72
933.36	5941.24
933.669	5933.78
933.977	5895.82
934.286	5864.63
934.594	5882.49
934.902	5825.99
935.21	5820.34
935.519	5859.21
935.827	5759.33
936.135	5749.61
936.443	5691.08
936.751	5671.19
937.059	5649.27
937.367	5624.64
937.674	5636.84
937.982	5657.18
938.29	5537.86
938.597	5590.29
938.905	5517.3
939.213	5489.28
939.52	5489.73
939.827	5462.61
940.135	5407.47
940.442	5454.02
940.749	5416.28
941.056	5417.19
941.363	5354.36
941.67	5370.18
941.977	5302.16
942.284	5262.62
942.591	5235.5
942.898	5232.33
943.205	5239.79
943.511	5194.14
943.818	5162.51
944.125	5127.7
944.431	5155.27
944.738	5100.81
945.044	5037.31
945.35	5086.12
945.657	5053.36
945.963	5005.45
946.269	4983.3
946.575	5024.2
946.881	4952.34
947.187	4934.26
947.493	4926.35
947.799	4892.46
948.105	4884.77
948.41	4840.25
948.716	4859.46
949.022	4793.7
949.327	4793.7
949.633	4735.62
949.938	4781.72
950.244	4724.78
950.549	4671.9
950.854	4707.83
951.16	4651.33
951.465	4613.14
951.77	4633.25
952.075	4601.62
952.38	4591.22
952.685	4578.79
952.99	4538.57
953.294	4548.51
953.599	4473.94
953.904	4425.12
954.209	4412.92
954.513	4493.82
954.818	4447.27
955.122	4413.82
955.426	4411.34
955.731	4358.23
956.035	4347.61
956.339	4314.62
956.643	4278.23
956.948	4275.98
957.252	4232.81
957.556	4233.49
957.86	4219.93
958.163	4217.9
958.467	4158.69
958.771	4180.38
959.075	4139.93
959.378	4129.54
959.682	4135.41
959.985	4114.62
960.289	4087.73
960.592	4070.1
960.896	4012.71
961.199	4012.25
961.502	4044.34
961.805	4024
962.108	3969.99
962.411	3975.64
962.714	3955.08
963.017	3933.16
963.32	3961.63
963.623	3869.66
963.926	3919.15
964.228	3881.64
964.531	3833.73
964.833	3824.69
965.136	3809.09
965.438	3778.81
965.741	3772.03
966.043	3740.85
966.345	3717.35
966.648	3723
966.95	3723.67
967.252	3687.97
967.554	3687.97
967.856	3678.25
968.158	3685.93
968.46	3620.85
968.761	3592.6
969.063	3614.98
969.365	3609.78
969.666	3576.78
969.968	3534.98
970.269	3547.18
970.571	3541.76
970.872	3503.79
971.174	3490.01
971.475	3456.34
971.776	3453.85
972.077	3445.26
972.378	3482.78
972.679	3412.5
972.98	3385.38
973.281	3405.94
973.582	3382.21
973.883	3344.7
974.183	3335.89
974.484	3343.12
974.785	3298.83
975.085	3310.58
975.386	3316
975.686	3231.26
975.986	3248.21
976.287	3247.08
976.587	3208.66
976.887	3203.01
977.187	3173.63
977.487	3213.18
977.787	3174.08
978.087	3189.22
978.387	3120.3
978.687	3123.69
978.987	3079.17
979.286	3080.53
979.586	3071.04
979.885	3083.92
980.185	3092.96
980.484	3035.1
980.784	3033.75
981.083	3062
981.382	2961.66
981.682	2999.4
981.981	2963.69
982.28	2968.44
982.579	2965.05
982.878	2939.97
983.177	2942
983.475	2936.12
983.774	2931.38
984.073	2872.4
984.372	2883.24
984.67	2854.54
984.969	2846.41
985.267	2831.95
985.566	2817.93
985.864	2831.72
986.162	2819.74
986.461	2771.83
986.759	2798.05
987.057	2763.7
987.355	2756.24
987.653	2742.91
987.951	2725.73
988.249	2707.43
988.547	2699.52
988.844	2660.42
989.142	2690.25
989.44	2659.75
989.737	2658.84
990.035	2619.75
990.332	2600.76
990.63	2578.62
990.927	2591.73
991.224	2600.31
991.521	2582.91
991.819	2594.66
992.116	2569.13
992.413	2567.09
992.71	2509.92
993.006	2508.11
993.303	2530.48
993.6	2481.9
993.897	2489.81
994.193	2468.34
994.49	2418.62
994.787	2420.88
995.083	2470.15
995.379	2408
995.676	2446.19
995.972	2393.31
996.268	2357.83
996.565	2365.74
996.861	2378.17
997.157	2398.06
997.453	2325.97
997.749	2338.62
998.044	2304.95
998.34	2321.68
998.636	2278.06
998.932	2264.95
999.227	2272.41
999.523	2251.85
999.818	2241
1000.114	2217.5
1000.409	2225.86
1000.704	2239.42
1001	2214.79
1001.295	2217.72
1001.59	2195.8
1001.885	2172.08
1002.18	2168.23
1002.475	2124.85
1002.77	2114
1003.065	2120.33
1003.359	2103.83
1003.654	2088.24
1003.949	2090.04
1004.243	2063.6
1004.538	2087.78
1004.832	2040.1
1005.127	2048.01
1005.421	2034.23
1005.715	2046.66
1006.009	2028.58
1006.304	2016.83
1006.598	1941.12
1006.892	1979.99
1007.186	1977.73
1007.48	1969.37
1007.773	1953.1
1008.067	1937.96
1008.361	1894.57
1008.655	1891.86
1008.948	1908.35
1009.242	1906.32
1009.535	1852.76
1009.829	1870.61
1010.122	1831.52
1010.415	1808.02
1010.708	1810.73
1011.001	1818.86
1011.295	1820.45
1011.588	1815.02
1011.881	1819.99
1012.173	1793.78
1012.466	1797.62
1012.759	1773.44
1013.052	1758.08
1013.344	1768.92
1013.637	1771.63
1013.93	1700.68
1014.222	1720.56
1014.514	1722.14
1014.807	1670.39
1015.099	1695.7
1015.391	1669.04
1015.683	1635.37
1015.976	1654.58
1016.268	1646.89
1016.56	1605.76
1016.851	1626.78
1017.143	1615.71
1017.435	1633.56
1017.727	1582.26
1018.018	1571.41
1018.31	1586.33
1018.602	1513.34
1018.893	1555.59
1019.185	1555.37
1019.476	1496.61
1019.767	1516.27
1020.058	1485.31
1020.35	1502.04
1020.641	1488.93
1020.932	1485.54
1021.223	1473.11
1021.514	1461.36
1021.804	1446.22
1022.095	1444.41
1022.386	1430.63
1022.677	1402.15
1022.967	1396.05
1023.258	1395.15
1023.548	1395.82
1023.839	1354.02
1024.129	1382.49
1024.419	1379.1
1024.709	1367.13
1025	1357.63
1025.29	1343.85
1025.58	1353.11
1025.87	1341.59
1026.16	1337.97
1026.449	1320.35
1026.739	1302.27
1027.029	1286.68
1027.319	1302.04
1027.608	1256.17
1027.898	1262.04
1028.187	1282.38
1028.477	1255.04
1028.766	1253.46
1029.055	1251.42
1029.344	1226.79
1029.634	1220.69
1029.923	1210.97
1030.212	1217.75
1030.501	1196.06
1030.79	1199.22
1031.078	1179.79
1031.367	1169.39
1031.656	1176.17
1031.945	1160.8
1032.233	1147.92
1032.522	1155.38
1032.81	1104.53
1033.099	1107.92
1033.387	1113.12
1033.675	1095.49
1033.963	1138.2
1034.251	1106.34
1034.54	1083.74
1034.828	1081.93
1035.116	1075.38
1035.403	1065.66
1035.691	1050.3
1035.979	1051.65
1036.267	1044.42
1036.554	1031.09
1036.842	1049.85
1037.129	1022.95
1037.417	1035.61
1037.704	1027.02
1037.992	1017.08
1038.279	1003.07
1038.566	1010.52
1038.853	1010.52
1039.14	1010.52
