Data from hue_70_FLMS001491_27.txt Node
Date: Mon Feb 06 15:20:21 GMT 2017
User: dcchb
Spectrometer: FLMS00149
Trigger mode: 0
Integration Time (sec): 2.000000E-2
Scans to average: 10
Electric dark correction enabled: true
Nonlinearity correction enabled: false
Boxcar width: 0
XAxis mode: Wavelengths
Number of Pixels in Spectrum: 2048
>>>>>Begin Spectral Data<<<<<
341.393	-10.79
341.776	-10.79
342.16	-10.79
342.543	-57.12
342.927	-67.29
343.31	-67.96
343.693	-76.1
344.077	-73.39
344.46	-61.64
344.843	-70.9
345.226	-35.87
345.61	-30.68
345.993	-29.77
346.376	-0.4
346.759	14.29
347.142	32.82
347.525	59.04
347.908	57.91
348.291	63.56
348.674	95.87
349.057	123.22
349.44	106.95
349.823	160.73
350.206	174.97
350.588	191.92
350.971	207.73
351.354	207.96
351.737	228.3
352.119	236.89
352.502	258.35
352.884	268.07
353.267	275.98
353.65	288.41
354.032	285.02
354.414	333.16
354.797	306.26
355.179	311.69
355.562	319.82
355.944	325.25
356.326	344.68
356.709	334.51
357.091	336.54
357.473	351.01
357.855	333.16
358.238	335.19
358.62	350.56
359.002	340.39
359.384	322.76
359.766	340.84
360.148	329.31
360.53	329.77
360.912	340.16
361.294	337.22
361.676	332.48
362.057	332.03
362.439	331.12
362.821	324.79
363.203	307.17
363.584	341.74
363.966	324.34
364.348	325.92
364.729	317.34
365.111	321.18
365.493	333.61
365.874	324.57
366.256	319.14
366.637	337.67
367.019	308.75
367.4	314.17
367.781	341.06
368.163	329.77
368.544	318.01
368.925	323.44
369.306	327.96
369.688	327.05
370.069	311.46
370.45	306.94
370.831	306.72
371.212	310.1
371.593	320.5
371.974	331.57
372.355	302.42
372.736	310.78
373.117	307.85
373.498	315.98
373.879	324.57
374.26	322.76
374.641	311.23
375.021	338.58
375.402	331.35
375.783	320.95
376.163	319.37
376.544	307.62
376.925	303.1
377.305	307.39
377.686	343.1
378.066	321.86
378.447	353.72
378.827	336.09
379.208	320.5
379.588	304.23
379.968	329.99
380.349	344.45
380.729	315.53
381.109	350.1
381.489	332.48
381.87	336.77
382.25	328.41
382.63	326.83
383.01	325.7
383.39	342.65
383.77	328.64
384.15	350.56
384.53	355.53
384.91	320.27
385.29	372.25
385.67	362.76
386.049	363.66
386.429	332.93
386.809	341.06
387.189	351.01
387.568	353.95
387.948	352.82
388.328	337.9
388.707	331.35
389.087	371.12
389.466	360.95
389.846	339.71
390.225	354.85
390.605	383.78
390.984	334.28
391.363	344.23
391.743	366.83
392.122	355.3
392.501	361.63
392.881	352.36
393.26	394.85
393.639	369.31
394.018	360.72
394.397	362.08
394.776	354.85
395.155	372.93
395.534	362.98
395.913	384.91
396.292	367.05
396.671	372.48
397.05	370.22
397.429	384.91
397.808	374.28
398.186	375.41
398.565	377.9
398.944	373.15
399.323	390.1
399.701	377.22
400.08	407.05
400.458	398.92
400.837	372.7
401.215	373.83
401.594	383.1
401.972	370.22
402.351	391.23
402.729	407.5
403.107	406.83
403.486	408.18
403.864	397.79
404.242	407.96
404.62	396.88
404.999	444.79
405.377	392.59
405.755	406.15
406.133	435.3
406.511	395.75
406.889	421.06
407.267	424.68
407.645	428.29
408.023	426.03
408.401	411.8
408.779	452.7
409.156	428.52
409.534	430.55
409.912	440.27
410.29	411.57
410.667	447.73
411.045	433.49
411.422	457.45
411.8	427.84
412.178	451.34
412.555	440.5
412.933	433.49
413.31	456.54
413.687	438.92
414.065	458.12
414.442	471.46
414.819	457.45
415.197	464.68
415.574	464.9
415.951	483.21
416.328	489.54
416.705	471.23
417.082	480.5
417.46	470.78
417.837	486.6
418.214	492.47
418.591	499.7
418.967	493.15
419.344	491.34
419.721	477.11
420.098	485.47
420.475	488.41
420.852	478.01
421.228	490.67
421.605	507.84
421.982	508.29
422.358	528.18
422.735	536.99
423.111	507.61
423.488	513.72
423.864	529.53
424.241	525.69
424.617	540.16
424.994	529.31
425.37	520.72
425.746	539.93
426.123	520.72
426.499	533.6
426.875	570.44
427.251	554.39
427.627	571.57
428.003	569.99
428.379	549.19
428.756	544.9
429.132	580.83
429.507	587.39
429.883	570.89
430.259	585.8
430.635	565.01
431.011	576.54
431.387	589.65
431.763	621.51
432.138	607.72
432.514	593.04
432.89	599.59
433.265	627.61
433.641	606.59
434.016	639.81
434.392	622.86
434.767	639.36
435.143	638.01
435.518	652.47
435.894	656.76
436.269	658.12
436.644	682.75
437.02	651.34
437.395	659.93
437.77	671.9
438.145	661.06
438.52	684.78
438.895	682.75
439.271	673.71
439.646	731.11
440.021	704.22
440.395	685.24
440.77	700.83
441.145	711.22
441.52	719.59
441.895	711.45
442.27	713.71
442.645	751
443.019	719.36
443.394	715.97
443.769	759.58
444.143	723.88
444.518	717.55
444.892	731.34
445.267	742.64
445.641	764.78
446.016	749.87
446.39	729.75
446.764	758.91
447.139	769.75
447.513	758.91
447.887	794.39
448.262	773.6
448.636	789.41
449.01	784.67
449.384	800.26
449.758	802.75
450.132	802.97
450.506	796.65
450.88	831
451.254	821.96
451.628	841.16
452.002	823.99
452.376	852.46
452.75	857.21
453.123	841.84
453.497	883.42
453.871	850.88
454.244	886.36
454.618	876.19
454.992	908.51
455.365	876.42
455.739	923.65
456.112	916.87
456.486	905.12
456.859	942.63
457.232	937.66
457.606	935.17
457.979	977.43
458.352	964.32
458.725	980.37
459.099	1004.55
459.472	1012.46
459.845	1038.9
460.218	1028.05
460.591	1029.41
460.964	1060.14
461.337	1052.46
461.71	1085.9
462.083	1091.55
462.456	1082.74
462.829	1087.49
463.201	1115.28
463.574	1126.35
463.947	1143.53
464.32	1156.41
464.692	1158.67
465.065	1185.56
465.438	1206.35
465.81	1226.92
466.183	1245.22
466.555	1267.37
466.928	1256.97
467.3	1269.63
467.672	1296.07
468.045	1338.55
468.417	1360.92
468.789	1349.85
469.161	1355.5
469.534	1383.97
469.906	1416.97
470.278	1427.14
470.65	1487.02
471.022	1491.77
471.394	1521.6
471.766	1562.28
472.138	1581.94
472.51	1620.8
472.882	1689.28
473.253	1684.98
473.625	1703.74
473.997	1757.75
474.369	1769.95
474.74	1806.11
475.112	1893.57
475.484	1900.12
475.855	1969.5
476.227	1989.83
476.598	2058.31
476.97	2080
477.341	2157.97
477.713	2221.47
478.084	2243.84
478.455	2305.76
478.827	2379.2
479.198	2439.99
479.569	2477.28
479.94	2615.35
480.311	2668.23
480.682	2736.03
481.053	2804.05
481.424	2894.9
481.795	2976.93
482.166	3065.51
482.537	3134.44
482.908	3197.94
483.279	3326.3
483.65	3442.68
484.021	3512.96
484.391	3606.29
484.762	3706.17
485.133	3796.34
485.503	3866.17
485.874	4018.93
486.244	4078.82
486.615	4210.12
486.985	4294.63
487.356	4456.44
487.726	4552.48
488.097	4704.79
488.467	4769.2
488.837	4868.4
489.207	5053.26
489.578	5206.47
489.948	5310.2
490.318	5446.01
490.688	5549.29
491.058	5724.2
491.428	5799.68
491.798	5997.64
492.168	6215.03
492.538	6236.5
492.908	6408.48
493.278	6567.12
493.648	6646.66
494.017	6840.55
494.387	6959.42
494.757	7090.94
495.126	7288.9
495.496	7286.42
495.866	7438.28
496.235	7622.68
496.605	7754.88
496.974	7896.35
497.344	8055.44
497.713	8172.72
498.082	8327.3
498.452	8523.67
498.821	8567.74
499.19	8712.6
499.559	8905.81
499.928	8924.12
500.298	9156.88
500.667	9243.43
501.036	9333.14
501.405	9414.05
501.774	9535.85
502.143	9668.05
502.512	9853.36
502.88	9963.64
503.249	10024.2
503.618	10186.68
503.987	10337.19
504.356	10404.98
504.724	10491.31
505.093	10645.43
505.462	10756.61
505.83	10863.27
506.199	11007.9
506.567	11129.71
506.936	11172.64
507.304	11330.61
507.672	11381.23
508.041	11519.08
508.409	11654.44
508.777	11780.54
509.145	11904.83
509.514	11917.48
509.882	12016.46
510.25	12123.58
510.618	12227.98
510.986	12362.9
511.354	12426.4
511.722	12670.23
512.09	12820.28
512.458	12731.25
512.826	12883.33
513.193	13008.98
513.561	13123.78
513.929	13161.74
514.297	13324
514.664	13382.53
515.032	13495.07
515.4	13588.85
515.767	13683.09
516.135	13791.11
516.502	13726.02
516.869	13927.15
517.237	14035.62
517.604	14117.2
517.972	14223.86
518.339	14303.41
518.706	14332.79
519.073	14356.52
519.44	14491.43
519.808	14728.48
520.175	14629.73
520.542	14848.71
520.909	14932.77
521.276	14916.95
521.643	15029.04
522.009	15213.67
522.376	15255.25
522.743	15372.08
523.11	15523.94
523.477	15663.37
523.843	15702.24
524.21	15881.22
524.577	15942.01
524.943	16000.09
525.31	16015.45
525.676	16159.86
526.043	16297.26
526.409	16297.71
526.776	16524.82
527.142	16532.28
527.508	16622.44
527.874	16724.36
528.241	16720.29
528.607	16762.78
528.973	16953.74
529.339	17038.48
529.705	17158.48
530.071	17189.89
530.437	17210.68
530.803	17312.14
531.169	17375.64
531.535	17375.87
531.901	17447.96
532.267	17455.19
532.632	17649.99
532.998	17529.99
533.364	17656.09
533.73	17759.59
534.095	17811.79
534.461	17833.03
534.826	17863.77
535.192	17938.57
535.557	18085.68
535.923	17982.18
536.288	17982.41
536.653	18115.96
537.019	18054.5
537.384	18123.87
537.749	18137.66
538.114	18129.98
538.479	18231.89
538.845	18268.5
539.21	18149.18
539.575	18308.95
539.94	18324.32
540.305	18328.16
540.67	18296.75
541.034	18359.57
541.399	18420.14
541.764	18432.79
542.129	18445.45
542.494	18473.92
542.858	18492
543.223	18392.57
543.587	18600.25
543.952	18536.07
544.316	18619.23
544.681	18508.95
545.045	18629.17
545.41	18635.95
545.774	18672.56
546.138	18632.33
546.503	18671.2
546.867	18608.61
547.231	18813.35
547.595	18826.45
547.959	18816.96
548.324	18850.63
548.688	18810.86
549.052	18783.74
549.416	18804.76
549.779	18866.45
550.143	18933.34
550.507	18986.68
550.871	18964.98
551.235	18978.09
551.599	19026.22
551.962	19109.84
552.326	19004.08
552.689	19181.93
553.053	18956.39
553.417	19025.54
553.78	19218.08
554.143	19115.94
554.507	19139.89
554.87	19255.37
555.234	19342.6
555.597	19204.3
555.96	19343.28
556.323	19347.12
556.686	19307.35
557.05	19428.92
557.413	19505.76
557.776	19591.86
558.139	19565.64
558.502	19600.22
558.865	19582.37
559.228	19709.82
559.59	19768.35
559.953	19779.65
560.316	19912.98
560.679	19963.6
561.041	20009.25
561.404	20066.2
561.767	20167.66
562.129	20134.22
562.492	20231.39
562.854	20211.28
563.217	20226.64
563.579	20264.16
563.941	20402.46
564.304	20446.07
564.666	20512.06
565.028	20539.4
565.39	20654.88
565.753	20760.87
566.115	20723.81
566.477	20775.56
566.839	20780.08
567.201	20981.65
567.563	20957.25
567.925	20971.93
568.287	20957.02
568.648	21105.94
569.01	21176
569.372	21286.73
569.734	21131.48
570.095	21324.92
570.457	21323.11
570.819	21354.75
571.18	21442.88
571.542	21564.01
571.903	21512.26
572.265	21590.68
572.626	21663.89
572.987	21679.94
573.349	21712.03
573.71	21752.93
574.071	21886.49
574.432	21853.95
574.794	22006.48
575.155	21981.17
575.516	21910.89
575.877	22099.14
576.238	22093.71
576.599	22087.61
576.96	22194.5
577.32	22159.25
577.681	22078.8
578.042	22152.02
578.403	22235.63
578.763	22224.56
579.124	22284.67
579.485	22456.42
579.845	22425.91
580.206	22277.89
580.566	22305.91
580.927	22314.95
581.287	22449.86
581.648	22336.64
582.008	22437.43
582.368	22465.91
582.728	22434.27
583.089	22359.02
583.449	22461.84
583.809	22434.72
584.169	22540.93
584.529	22454.16
584.889	22620.03
585.249	22335.29
585.609	22358.11
585.969	22475.4
586.329	22354.72
586.688	22469.75
587.048	22372.12
587.408	22418.22
587.768	22372.12
588.127	22463.19
588.487	22417.55
588.846	22554.27
589.206	22307.04
589.565	22296.87
589.925	22488.96
590.284	22435.85
590.643	22394.04
591.003	22487.83
591.362	22615.06
591.721	22403.54
592.08	22413.7
592.44	22485.34
592.799	22540.93
593.158	22497.54
593.517	22388.39
593.876	22436.08
594.235	22491.22
594.593	22440.14
594.952	22458.45
595.311	22418.22
595.67	22559.46
596.029	22542.51
596.387	22567.37
596.746	22608.73
597.104	22427.26
597.463	22528.28
597.822	22525.34
598.18	22511.1
598.538	22540.03
598.897	22535.74
599.255	22423.2
599.613	22693.25
599.972	22603.3
600.33	22704.54
600.688	22625
601.046	22659.12
601.404	22682.17
601.762	22771.89
602.12	22702.74
602.478	22843.98
602.836	22728.72
603.194	22606.24
603.552	22662.51
603.91	22704.54
604.268	22838.78
604.625	22766.46
604.983	22779.57
605.341	22635.62
605.698	22790.64
606.056	22764.43
606.413	22737.09
606.771	22792.68
607.128	22964.65
607.485	22822.51
607.843	22760.36
608.2	22992.67
608.557	23059.79
608.914	22950.64
609.272	23059.11
609.629	23195.83
609.986	23148.15
610.343	23031.77
610.7	23244.87
611.057	23200.58
611.414	23180.69
611.771	23211.88
612.127	23345.66
612.484	23374.81
612.841	23379.33
613.198	23337.07
613.554	23217.75
613.911	23543.62
614.267	23513.79
614.624	23461.81
614.98	23513.56
615.337	23612.54
615.693	23613.67
616.05	23589.04
616.406	23646.44
616.762	23563.28
617.118	23642.37
617.475	23608.93
617.831	23654.12
618.187	23688.25
618.543	23761.01
618.899	23869.26
619.255	23794.46
619.611	23695.25
619.967	23806.44
620.323	23901.12
620.678	23760.11
621.034	23872.88
621.39	23853.21
621.746	23742.03
622.101	23937.51
622.457	23904.96
622.812	23971.63
623.168	24005.98
623.523	24060.89
623.879	24026.09
624.234	23905.87
624.589	24051.63
624.945	24057.73
625.3	24016.6
625.655	24082.14
626.01	24068.8
626.365	23991.06
626.72	24008.46
627.075	23923.04
627.43	24095.47
627.785	23919.43
628.14	23976.83
628.495	24064.73
628.85	24024.74
629.205	23977.28
629.559	24013.89
629.914	23966.88
630.269	23993.78
630.623	23969.6
630.978	23833.78
631.332	23982.25
631.687	24076.03
632.041	23904.74
632.396	24004.62
632.75	23914
633.104	23894.57
633.459	23719.43
633.813	23816.61
634.167	23803.05
634.521	23754.91
634.875	23844.63
635.229	23819.09
635.583	23693.44
635.937	23704.29
636.291	23742.71
636.645	23756.72
636.999	23621.13
637.352	23727.12
637.706	23592.66
638.06	23678.3
638.413	23648.7
638.767	23589.27
639.121	23563.96
639.474	23400.8
639.828	23408.25
640.181	23535.93
640.534	23402.6
640.888	23349.73
641.241	23298.43
641.594	23433.79
641.947	23401.25
642.301	23317.18
642.654	23389.27
643.007	23333
643.36	23410.06
643.713	23244.87
644.066	23333.68
644.419	23250.97
644.771	23045.33
645.124	22838.55
645.477	22821.6
645.83	22774.37
646.182	22663.19
646.535	22534.83
646.888	22643.53
647.24	22428.62
647.593	22738.22
647.945	22592.46
648.298	22485.79
648.65	22497.32
649.002	22373.48
649.355	22438.79
649.707	22461.39
650.059	22537.09
650.411	22811.43
650.763	22835.61
651.115	23017.98
651.467	22965.55
651.819	22981.83
652.171	23013.69
652.523	22882.39
652.875	22915.84
653.227	22747.93
653.578	22968.27
653.93	22910.64
654.282	22852.11
654.633	22814.15
654.985	22861.83
655.337	22749.74
655.688	22934.14
656.039	23001.71
656.391	22729.4
656.742	22797.88
657.094	22855.95
657.445	22949.74
657.796	22871.32
658.147	22938.89
658.498	22883.97
658.849	22938.21
659.2	22875.84
659.551	22718.78
659.902	22845.33
660.253	22832
660.604	22941.37
660.955	22902.05
661.306	22958.1
661.656	22745
662.007	22801.04
662.358	22875.39
662.708	22846.91
663.059	22973.24
663.409	22731.44
663.76	22816.41
664.11	22904.31
664.461	22941.6
664.811	22877.42
665.161	22884.65
665.511	22773.92
665.862	22848.04
666.212	22918.1
666.562	22870.87
666.912	22914.93
667.262	22761.27
667.612	22817.76
667.962	22843.75
668.312	22787.03
668.662	22890.08
669.011	22734.83
669.361	22783.86
669.711	22683.08
670.06	22643.08
670.41	22668.16
670.76	22808.5
671.109	22693.02
671.459	22712.91
671.808	22697.09
672.157	22713.58
672.507	22532.35
672.856	22587.71
673.205	22667.48
673.554	22707.71
673.904	22672
674.253	22633.36
674.602	22630.42
674.951	22396.3
675.3	22199.47
675.649	22434.04
675.998	22577.54
676.346	22538.67
676.695	22639.01
677.044	22377.32
677.393	22432.01
677.741	22524.21
678.09	22408.96
678.438	22380.26
678.787	22404.67
679.135	22468.17
679.484	22213.48
679.832	22360.82
680.181	22181.39
680.529	22240.38
680.877	22172.13
681.225	22149.98
681.573	22265.01
681.922	22116.31
682.27	22032.92
682.618	22008.52
682.966	21981.85
683.314	22024.11
683.661	21994.05
684.009	21803.1
684.357	21778.69
684.705	21798.35
685.053	21741.41
685.4	21650.56
685.748	21575.08
686.095	21498.02
686.443	21536.44
686.79	21538.93
687.138	21526.72
687.485	21499.15
687.832	21433.84
688.18	21587.51
688.527	21385.48
688.874	21401.3
689.221	21300.97
689.568	21147.3
689.915	21100.07
690.262	21187.97
690.609	21118.37
690.956	21015.32
691.303	20822.56
691.65	20835.44
691.997	20805.84
692.344	20838.83
692.69	20637.93
693.037	20720.19
693.383	20581.66
693.73	20612.62
694.077	20366.75
694.423	20443.36
694.769	20410.14
695.116	20331.05
695.462	20279.52
695.808	20217.6
696.155	20284.49
696.501	20042.92
696.847	20051.05
697.193	19889.7
697.539	19958.18
697.885	19778.97
698.231	19833.21
698.577	19607.45
698.923	19628.24
699.269	19534.46
699.614	19496.27
699.96	19451.75
700.306	19442.71
700.651	19389.6
700.997	19183.28
701.342	19242.49
701.688	19156.61
702.033	19081.59
702.379	19025.54
702.724	19031.42
703.069	19053.79
703.415	18885.44
703.76	18822.16
704.105	18911.42
704.45	18752.78
704.795	18601.38
705.14	18623.52
705.485	18552.79
705.83	18542.39
706.175	18505.33
706.52	18426.92
706.865	18477.31
707.209	18388.73
707.554	18308.05
707.899	18349.4
708.243	18280.25
708.588	18165
708.932	18027.61
709.277	18060.82
709.621	18023.09
709.966	17893.37
710.31	18019.02
710.654	17834.39
710.998	17800.72
711.342	17823.77
711.687	17782.19
712.031	17675.3
712.375	17622.42
712.719	17620.38
713.063	17544.23
713.407	17582.65
713.75	17417.68
714.094	17545.58
714.438	17430.56
714.782	17460.84
715.125	17354.63
715.469	17410.67
715.812	17299.04
716.156	17174.52
716.499	17232.15
716.843	17179.49
717.186	17091.58
717.53	17134.07
717.873	17098.14
718.216	17131.13
718.559	17119.61
718.902	16955.99
719.246	17007.29
719.589	16966.62
719.932	16825.15
720.275	16895.43
720.617	16866.96
720.96	16920.74
721.303	16813.85
721.646	16863.34
721.989	16730.24
722.331	16804.36
722.674	16836.45
723.016	16768.88
723.359	16602.56
723.701	16710.8
724.044	16679.39
724.386	16582.45
724.729	16590.58
725.071	16584.03
725.413	16598.94
725.755	16572.95
726.097	16622.9
726.439	16445.05
726.782	16364.37
727.124	16530.47
727.465	16398.95
727.807	16374.99
728.149	16380.42
728.491	16335.22
728.833	16325.28
729.175	16341.77
729.516	16293.19
729.858	16318.27
730.199	16278.72
730.541	16230.36
730.882	16277.82
731.224	16271.72
731.565	16094.1
731.906	16239.86
732.248	16123.93
732.589	16159.63
732.93	16160.76
733.271	16108.56
733.612	16136.58
733.953	16178.84
734.294	16100.2
734.635	15960.09
734.976	16062.01
735.317	16005.29
735.658	16052.52
735.999	15990.6
736.339	15975.23
736.68	16058.62
737.021	16010.48
737.361	15976.36
737.702	16060.43
738.042	16000.09
738.383	16021.56
738.723	16097.49
739.063	15948.79
739.404	16024.49
739.744	15998.73
740.084	15902.46
740.424	15986.08
740.764	16000.99
741.104	15909.24
741.444	15914.21
741.784	15951.05
742.124	15930.71
742.464	15970.03
742.804	15939.07
743.143	15942.01
743.483	16060.2
743.823	15959.18
744.162	15969.58
744.502	15975.23
744.841	15956.47
745.181	16067.43
745.52	16066.98
745.86	16057.94
746.199	16107.2
746.538	16072.63
746.877	16162.57
747.216	16117.37
747.556	16182
747.895	16230.59
748.234	16198.05
748.573	16263.13
748.911	16237.37
749.25	16263.81
749.589	16275.11
749.928	16338.84
750.267	16487.98
750.605	16423.13
750.944	16547.19
751.283	16489.34
751.621	16593.97
751.96	16636.46
752.298	16650.92
752.636	16760.07
752.975	16774.76
753.313	16799.39
753.651	16943.79
753.989	16917.8
754.327	17039.38
754.666	16932.72
755.004	17121.87
755.342	17166.84
755.679	17221.98
756.017	17302.43
756.355	17401.18
756.693	17455.19
757.031	17528.41
757.368	17492.7
757.706	17625.81
758.044	17633.27
758.381	17751.45
758.719	17800.27
759.056	17899.25
759.394	17949.64
759.731	17927.95
760.068	18033.25
760.405	18019.02
760.743	18137.21
761.08	18223.53
761.417	18214.49
761.754	18250.42
762.091	18402.06
762.428	18358.67
762.765	18258.56
763.102	18433.47
763.438	18425.56
763.775	18480.7
764.112	18575.39
764.449	18663.07
764.785	18641.15
765.122	18606.8
765.458	18663.07
765.795	18728.83
766.131	18804.53
766.467	18736.51
766.804	18700.36
767.14	18770.86
767.476	18751.43
767.812	18769.96
768.148	18865.55
768.485	18819.9
768.821	18762.28
769.157	18872.1
769.492	18840.69
769.828	18885.89
770.164	18644.99
770.5	18608.61
770.836	18787.81
771.171	18792.1
771.507	18719.56
771.842	18636.63
772.178	18742.61
772.513	18639.34
772.849	18647.7
773.184	18593.47
773.519	18607.25
773.855	18617.65
774.19	18549.63
774.525	18534.94
774.86	18556.4
775.195	18494.94
775.53	18399.8
775.865	18386.69
776.2	18285.68
776.535	18189.18
776.87	18332.23
777.205	18191.89
777.539	18189.63
777.874	18188.73
778.209	18110.77
778.543	18121.39
778.878	18030.99
779.212	17973.14
779.547	17910.77
779.881	17994.39
780.215	17885.01
780.55	17865.8
780.884	17754.62
781.218	17797.33
781.552	17711.23
781.886	17655.19
782.22	17636.88
782.554	17519.14
782.888	17417.45
783.222	17377
783.556	17390.33
783.889	17359.15
784.223	17218.81
784.557	17235.54
784.89	17177.46
785.224	17209.32
785.557	17140.17
785.891	17170.68
786.224	17037.35
786.558	17042.55
786.891	16874.19
787.224	16874.19
787.557	16844.36
787.891	16714.42
788.224	16725.72
788.557	16734.53
788.89	16658.15
789.223	16728.66
789.556	16495.89
789.888	16446.18
790.221	16568.21
790.554	16314.2
790.887	16308.78
791.219	16352.17
791.552	16234.21
791.884	16207.31
792.217	16033.53
792.549	16206.64
792.882	15912.41
793.214	15892.97
793.546	15897.27
793.879	15822.92
794.211	15734.33
794.543	15809.36
794.875	15746.76
795.207	15844.84
795.539	15624.28
795.871	15667.89
796.203	15526.65
796.535	15453.44
796.867	15480.33
797.198	15450.95
797.53	15349.71
797.862	15212.76
798.193	15340.67
798.525	15162.6
798.856	15196.04
799.188	15133.9
799.519	15107.91
799.85	14957.4
800.182	14932.32
800.513	15019.77
800.844	14795.83
801.175	14922.15
801.506	14896.39
801.837	14761.02
802.168	14665.21
802.499	14721.7
802.83	14646.23
803.161	14636.73
803.491	14630.63
803.822	14641.93
804.153	14448.04
804.483	14441.94
804.814	14377.31
805.145	14381.15
805.475	14326.01
805.805	14260.92
806.136	14353.13
806.466	14320.81
806.796	14283.07
807.126	14118.1
807.457	14105.45
807.787	14079.69
808.117	14072.23
808.447	14027.94
808.777	13975.73
809.107	13920.14
809.436	13919.01
809.766	13840.37
810.096	13823.42
810.426	13757.89
810.755	13715.63
811.085	13789.3
811.414	13689.41
811.744	13620.72
812.073	13649.19
812.403	13608.29
812.732	13519.02
813.061	13472.47
813.39	13453.71
813.719	13349.99
814.049	13453.71
814.378	13471.34
814.707	13382.98
815.036	13376.88
815.365	13319.71
815.693	13177.79
816.022	13167.17
816.351	13053.95
816.68	13089.43
817.008	13137.11
817.337	13022.99
817.665	12977.57
817.994	13075.42
818.322	13018.7
818.651	12892.6
818.979	12914.52
819.307	12954.74
819.636	12893.95
819.964	12722.89
820.292	12897.8
820.62	12798.82
820.948	12706.16
821.276	12901.19
821.604	12750.91
821.932	12801.98
822.259	12724.24
822.587	12812.15
822.915	12716.11
823.243	12743.22
823.57	12631.59
823.898	12680.63
824.225	12629.1
824.553	12633.17
824.88	12746.61
825.207	12725.82
825.535	12676.56
825.862	12697.12
826.189	12661.42
826.516	12708.65
826.843	12773.96
827.17	12707.52
827.497	12675.88
827.824	12727.18
828.151	12794.3
828.478	12659.84
828.805	12726.5
829.131	12746.39
829.458	12652.61
829.785	12671.14
830.111	12682.66
830.438	12698.93
830.764	12702.32
831.09	12620.52
831.417	12667.52
831.743	12662.55
832.069	12602.21
832.395	12590.46
832.722	12645.6
833.048	12617.8
833.374	12615.09
833.7	12561.53
834.026	12591.36
834.351	12633.85
834.677	12596.56
835.003	12569.44
835.329	12581.42
835.654	12529.67
835.98	12461.88
836.306	12530.8
836.631	12461.65
836.956	12560.86
837.282	12468.43
837.607	12360.18
837.932	12331.48
838.258	12434.31
838.583	12329.45
838.908	12243.8
839.233	12328.55
839.558	12244.48
839.883	12260.75
840.208	12260.3
840.533	12182.56
840.858	12251.03
841.182	12220.98
841.507	12181.21
841.832	12102.56
842.156	12072.73
842.481	12078.83
842.805	12021.89
843.13	11990.25
843.454	12017.37
843.778	11921.32
844.103	11953.64
844.427	11844.72
844.751	11941.66
845.075	11833.19
845.399	11773.53
845.723	11767.88
846.047	11731.27
846.371	11709.13
846.695	11642.24
847.019	11601.33
847.343	11595.68
847.666	11540.09
847.99	11495.12
848.313	11453.77
848.637	11307.33
848.96	11335.13
849.284	11334.9
849.607	11179.65
849.931	11257.84
850.254	11092.87
850.577	11138.29
850.9	11027.79
851.223	11007.68
851.546	10975.59
851.869	10847.23
852.192	10871.86
852.515	10817.17
852.838	10815.82
853.161	10822.6
853.483	10721.36
853.806	10718.42
854.129	10692.88
854.451	10595.03
854.774	10586.44
855.096	10524.53
855.419	10474.36
855.741	10515.49
856.063	10363.63
856.385	10336.06
856.708	10308.71
857.03	10342.38
857.352	10323.63
857.674	10309.62
857.996	10290.41
858.318	10184.42
858.64	10219.9
858.961	10144.65
859.283	10116.63
859.605	10039.79
859.926	10079.11
860.248	10108.27
860.57	10001.15
860.891	9975.16
861.212	9966.35
861.534	10017.19
861.855	9991.21
862.176	9926.35
862.498	9978.1
862.819	9900.81
863.14	9872.79
863.461	9843.87
863.782	9816.97
864.103	9724.09
864.424	9755.51
864.745	9818.56
865.065	9753.47
865.386	9745.34
865.707	9651.55
866.027	9696.75
866.348	9557.32
866.668	9650.2
866.989	9654.94
867.309	9577.43
867.63	9587.83
867.95	9587.15
868.27	9544.21
868.59	9563.42
868.91	9481.16
869.23	9573.36
869.55	9471.22
869.87	9585.79
870.19	9461.28
870.51	9470.09
870.83	9482.07
871.15	9414.95
871.469	9407.94
871.789	9465.34
872.109	9462.86
872.428	9356.87
872.748	9391.22
873.067	9383.54
873.386	9369.75
873.706	9314.16
874.025	9229.42
874.344	9260.15
874.663	9273.48
874.982	9226.93
875.301	9204.56
875.62	9164.11
875.939	9128.18
876.258	9124.56
876.577	9137.44
876.896	9122.3
877.214	9144.67
877.533	9149.87
877.852	9069.87
878.17	9144
878.489	9111.46
878.807	9065.58
879.125	9066.03
879.444	9020.38
879.762	9020.84
880.08	9037.78
880.398	9009.76
880.716	8979.48
881.034	8906.94
881.352	8961.4
881.67	8943.1
881.988	8898.58
882.306	8921.86
882.624	8829.65
882.941	8806.38
883.259	8813.84
883.577	8783.55
883.894	8740.17
884.212	8763.44
884.529	8704.23
884.846	8706.27
885.164	8682.99
885.481	8680.05
885.798	8669.43
886.115	8617.91
886.432	8584.01
886.75	8607.29
887.067	8582.2
887.383	8570.9
887.7	8553.28
888.017	8506.73
888.334	8508.31
888.651	8471.92
888.967	8438.03
889.284	8423.11
889.6	8395.32
889.917	8294.08
890.233	8374.98
890.55	8320.29
890.866	8350.35
891.182	8327.3
891.498	8263.12
891.815	8239.39
892.131	8230.35
892.447	8198.94
892.763	8175.89
893.079	8119.62
893.395	8073.29
893.71	8094.08
894.026	8025.61
894.342	8060.41
894.657	7984.25
894.973	7990.81
895.289	7974.31
895.604	7948.77
895.92	7873.75
896.235	7863.13
896.55	7886.63
896.865	7840.53
897.181	7784.48
897.496	7770.25
897.811	7761.43
898.126	7729.8
898.441	7659.29
898.756	7647.99
899.071	7692.28
899.386	7625.62
899.7	7500.65
900.015	7580.42
900.33	7505.4
900.644	7499.52
900.959	7454.32
901.273	7455.91
901.588	7400.09
901.902	7383.82
902.216	7300.43
902.531	7320.77
902.845	7320.99
903.159	7315.57
903.473	7248.91
903.787	7243.48
904.101	7191.28
904.415	7182.47
904.729	7175.01
905.042	7101.34
905.356	7049.59
905.67	7078.29
905.984	7131.17
906.297	7065.86
906.611	7010.04
906.924	6957.39
907.237	6939.08
907.551	6925.3
907.864	6874.9
908.177	6899.99
908.491	6903.83
908.804	6861.35
909.117	6803.49
909.43	6673.55
909.743	6681.01
910.056	6659.09
910.368	6745.19
910.681	6640.56
910.994	6621.8
911.307	6603.27
911.619	6535.7
911.932	6585.19
912.244	6476.72
912.557	6492.09
912.869	6429.27
913.181	6416.16
913.494	6408.93
913.806	6383.84
914.118	6369.38
914.43	6345.88
914.742	6307.01
915.054	6241.93
915.366	6246.9
915.678	6250.74
915.99	6228.82
916.302	6173.68
916.613	6118.31
916.925	6113.12
917.236	6164.19
917.548	6078.77
917.859	6077.41
918.171	6003.51
918.482	5983.18
918.794	5947.02
919.105	5959.22
919.416	5926.91
919.727	5916.29
920.038	5894.59
920.349	5860.24
920.66	5838.32
920.971	5849.62
921.282	5813.91
921.593	5729.62
921.903	5724.65
922.214	5727.82
922.525	5696.4
922.835	5636.52
923.146	5632
923.456	5624.77
923.767	5637.87
924.077	5644.2
924.387	5611.89
924.697	5559.68
925.008	5529.63
925.318	5503.87
925.628	5518.33
925.938	5449.4
926.248	5449.18
926.558	5359.01
926.867	5410.99
927.177	5367.37
927.487	5336.19
927.796	5245.79
928.106	5234.95
928.416	5237.66
928.725	5281.05
929.034	5222.29
929.344	5220.94
929.653	5208.51
929.962	5175.51
930.271	5139.13
930.581	5098.68
930.89	5071.11
931.199	5040.6
931.508	5093.26
931.817	5040.15
932.125	5046.7
932.434	5025.69
932.743	4962.41
933.051	4925.58
933.36	4920.38
933.669	4905.69
933.977	4906.14
934.286	4852.58
934.594	4867.05
934.902	4821.62
935.21	4811.68
935.519	4772.36
935.827	4716.32
936.135	4725.36
936.443	4749.54
936.751	4654.17
937.059	4677.45
937.367	4661.63
937.674	4652.59
937.982	4620.5
938.29	4568.98
938.597	4617.11
938.905	4542.99
939.213	4523.55
939.52	4517.9
939.827	4528.3
940.135	4458.7
940.442	4476.55
940.749	4444.69
941.056	4446.49
941.363	4389.32
941.67	4409.43
941.977	4382.54
942.284	4288.53
942.591	4324.01
942.898	4267.06
943.205	4325.59
943.511	4283.11
943.818	4264.35
944.125	4205.37
944.431	4207.18
944.738	4206.95
945.044	4218.25
945.35	4180.51
945.657	4155.2
945.963	4110
946.269	4168.76
946.575	4119.95
946.881	4088.31
947.187	4078.82
947.493	3987.3
947.799	4033.85
948.105	4007.63
948.41	4005.83
948.716	3992.95
949.022	3957.92
949.327	3976.9
949.633	3893.06
949.938	3959.27
950.244	3903.46
950.549	3865.72
950.854	3833.18
951.16	3853.97
951.465	3809.67
951.77	3794.98
952.075	3840.86
952.38	3745.27
952.685	3773.29
952.99	3720.18
953.294	3732.84
953.599	3694.87
953.904	3720.64
954.209	3658.94
954.513	3678.83
954.818	3695.55
955.122	3640.64
955.426	3610.58
955.731	3615.78
956.035	3550.25
956.339	3564.26
956.643	3557.48
956.948	3552.73
957.252	3535.1
957.556	3530.81
957.86	3544.14
958.163	3542.11
958.467	3483.58
958.771	3450.36
959.075	3451.49
959.378	3453.98
959.682	3445.39
959.985	3382.34
960.289	3402.68
960.592	3353.64
960.896	3385.5
961.199	3347.54
961.502	3326.3
961.805	3321.33
962.108	3317.03
962.411	3294.66
962.714	3237.03
963.017	3265.28
963.32	3236.13
963.623	3210.59
963.926	3248.11
964.228	3227.09
964.531	3204.04
964.833	3189.35
965.136	3142.8
965.438	3143.25
965.741	3071.39
966.043	3128.79
966.345	3116.81
966.648	3099.64
966.95	3075.46
967.252	3065.74
967.554	3063.93
967.856	3041.78
968.158	3035.68
968.46	3012.86
968.761	2993.65
969.063	2973.54
969.365	2980.09
969.666	2959.75
969.968	2936.7
970.269	2983.25
970.571	2884.5
970.872	2931.96
971.174	2867.55
971.475	2875.01
971.776	2886.08
972.077	2870.72
972.378	2863.26
972.679	2861
972.98	2825.07
973.281	2813.32
973.582	2774.22
973.883	2805.86
974.183	2768.8
974.484	2792.53
974.785	2765.86
975.085	2722.7
975.386	2731.96
975.686	2700.32
975.986	2701.68
976.287	2715.01
976.587	2678.63
976.887	2652.64
977.187	2642.47
977.487	2648.8
977.787	2619.2
978.087	2610.16
978.387	2606.77
978.687	2600.67
978.987	2601.57
979.286	2564.28
979.586	2580.33
979.885	2563.83
980.185	2539.2
980.484	2526.32
980.784	2493.32
981.083	2504.17
981.382	2506.43
981.682	2484.51
981.981	2468.69
982.28	2487.67
982.579	2430.5
982.878	2452.2
983.177	2449.26
983.475	2458.97
983.774	2411.97
984.073	2395.47
984.372	2422.59
984.67	2359.54
984.969	2365.19
985.267	2362.93
985.566	2343.95
985.864	2353.44
986.162	2352.54
986.461	2332.88
986.759	2309.37
987.057	2279.54
987.355	2300.56
987.653	2296.27
987.951	2298.75
988.249	2274.12
988.547	2259.66
988.844	2227.57
989.142	2240.68
989.44	2212.65
989.737	2192.99
990.035	2231.86
990.332	2200.68
990.63	2185.31
990.927	2176.04
991.224	2185.31
991.521	2167.68
991.819	2151.41
992.116	2179.21
992.413	2132.88
992.71	2118.87
993.006	2091.98
993.303	2066.67
993.6	2066.67
993.897	2051.75
994.193	2057.86
994.49	2054.47
994.787	2054.01
995.083	2003.62
995.379	2018.76
995.676	1987.8
995.972	2001.36
996.268	1994.35
996.565	2015.14
996.861	1973.11
997.157	1983.73
997.453	1974.02
997.749	1999.55
998.044	1920.91
998.34	1940.57
998.636	1908.48
998.932	1898.76
999.227	1889.27
999.523	1873
999.818	1892.21
1000.114	1864.19
1000.409	1860.35
1000.704	1887.69
1001	1856.73
1001.295	1815.15
1001.59	1818.31
1001.885	1811.53
1002.18	1793.68
1002.475	1810.18
1002.77	1797.52
1003.065	1772.89
1003.359	1796.39
1003.654	1734.02
1003.949	1760.01
1004.243	1764.3
1004.538	1743.74
1004.832	1746.45
1005.127	1731.76
1005.421	1691.31
1005.715	1703.29
1006.009	1698.77
1006.304	1670.3
1006.598	1677.07
1006.892	1672.78
1007.186	1649.73
1007.48	1660.35
1007.773	1627.58
1008.067	1612.9
1008.361	1608.6
1008.655	1603.86
1008.948	1575.61
1009.242	1573.35
1009.535	1573.8
1009.829	1545.55
1010.122	1567.7
1010.415	1574.03
1010.708	1570.64
1011.001	1529.73
1011.295	1541.26
1011.588	1534.93
1011.881	1536.74
1012.173	1516.17
1012.466	1519.11
1012.759	1490.41
1013.052	1491.54
1013.344	1472.33
1013.637	1467.36
1013.93	1442.28
1014.222	1468.49
1014.514	1446.12
1014.807	1435.72
1015.099	1424.88
1015.391	1398.21
1015.683	1410.19
1015.976	1379.23
1016.268	1410.41
1016.56	1390.53
1016.851	1367.03
1017.143	1382.39
1017.435	1352.34
1017.727	1354.82
1018.018	1353.24
1018.31	1338.55
1018.602	1329.51
1018.893	1307.59
1019.185	1310.98
1019.476	1278.44
1019.767	1297.42
1020.058	1280.02
1020.35	1284.99
1020.641	1241.38
1020.932	1250.65
1021.223	1244.09
1021.514	1242.74
1021.804	1247.03
1022.095	1221.04
1022.386	1235.73
1022.677	1205.9
1022.967	1214.71
1023.258	1206.35
1023.548	1200.02
1023.839	1182.17
1024.129	1206.35
1024.419	1169.52
1024.709	1155.51
1025	1167.48
1025.29	1162.51
1025.58	1152.57
1025.87	1114.6
1026.16	1161.38
1026.449	1117.09
1026.739	1102.63
1027.029	1110.99
1027.319	1083.42
1027.608	1088.62
1027.898	1094.27
1028.187	1073.47
1028.477	1078.45
1028.766	1072.8
1029.055	1042.29
1029.344	1057.2
1029.634	1021.05
1029.923	1063.53
1030.212	1048.62
1030.501	1043.64
1030.79	1041.16
1031.078	1027.37
1031.367	1001.61
1031.656	1028.05
1031.945	1010.43
1032.233	989.41
1032.522	980.6
1032.81	989.18
1033.099	970.2
1033.387	987.38
1033.675	971.56
1033.963	967.26
1034.251	960.48
1034.54	948.73
1034.828	961.61
1035.116	953.48
1035.403	922.07
1035.691	953.25
1035.979	892.91
1036.267	914.83
1036.554	900.82
1036.842	928.39
1037.129	877.55
1037.417	890.88
1037.704	892.69
1037.992	904.44
1038.279	864.44
1038.566	877.77
1038.853	877.77
1039.14	877.77
