Data from hue_320_FLMS001491_18.txt Node
Date: Mon Feb 06 15:46:48 GMT 2017
User: dcchb
Spectrometer: FLMS00149
Trigger mode: 0
Integration Time (sec): 2.000000E-2
Scans to average: 10
Electric dark correction enabled: true
Nonlinearity correction enabled: false
Boxcar width: 0
XAxis mode: Wavelengths
Number of Pixels in Spectrum: 2048
>>>>>Begin Spectral Data<<<<<
341.393	-12.6
341.776	-12.6
342.16	-12.6
342.543	-62.99
342.927	-80.39
343.31	-60.28
343.693	-63.22
344.077	-58.7
344.46	-75.2
344.843	-76.33
345.226	-37.46
345.61	-31.81
345.993	-25.71
346.376	-20.51
346.759	14.29
347.142	26.27
347.525	54.97
347.908	56.1
348.291	81.86
348.674	93.84
349.057	121.86
349.44	127.51
349.823	148.98
350.206	160.73
350.588	182.2
350.971	209.99
351.354	208.41
351.737	230.33
352.119	250.22
352.502	287.05
352.884	278.02
353.267	269.43
353.65	292.48
354.032	300.61
354.414	306.04
354.797	309.88
355.179	319.14
355.562	301.97
355.944	319.6
356.326	325.25
356.709	324.12
357.091	326.38
357.473	355.08
357.855	342.65
358.238	351.23
358.62	330.44
359.002	334.51
359.384	325.47
359.766	332.48
360.148	340.16
360.53	330.9
360.912	329.54
361.294	344.23
361.676	321.18
362.057	300.61
362.439	317.34
362.821	320.95
363.203	331.12
363.584	329.09
363.966	321.86
364.348	333.83
364.729	309.43
365.111	313.72
365.493	320.5
365.874	306.04
366.256	322.31
366.637	293.83
367.019	300.84
367.4	327.28
367.781	318.69
368.163	308.52
368.544	305.36
368.925	309.2
369.306	311.23
369.688	298.81
370.069	296.77
370.45	302.87
370.831	317.56
371.212	307.62
371.593	310.33
371.974	313.72
372.355	321.4
372.736	299.26
373.117	332.48
373.498	318.24
373.879	294.96
374.26	300.84
374.641	322.76
375.021	315.08
375.402	298.13
375.783	315.08
376.163	320.05
376.544	338.13
376.925	337.45
377.305	324.12
377.686	340.84
378.066	318.92
378.447	320.73
378.827	338.35
379.208	320.27
379.588	321.86
379.968	338.8
380.349	337.9
380.729	312.59
381.109	330.67
381.489	340.16
381.87	314.62
382.25	351.46
382.63	332.7
383.01	335.41
383.39	356.88
383.77	325.92
384.15	344
384.53	328.18
384.91	327.51
385.29	348.3
385.67	339.93
386.049	346.26
386.429	363.89
386.809	345.58
387.189	357.79
387.568	376.54
387.948	363.66
388.328	375.19
388.707	344.91
389.087	341.52
389.466	337.22
389.846	370.22
390.225	346.94
390.605	367.5
390.984	363.21
391.363	358.01
391.743	381.06
392.122	375.64
392.501	367.5
392.881	383.1
393.26	363.66
393.639	365.92
394.018	383.78
394.397	367.73
394.776	361.4
395.155	369.54
395.534	384.45
395.913	381.06
396.292	392.36
396.671	390.78
397.05	373.38
397.429	400.5
397.808	369.31
398.186	374.28
398.565	407.28
398.944	374.74
399.323	386.26
399.701	408.86
400.08	382.87
400.458	411.12
400.837	392.36
401.215	412.48
401.594	403.89
401.972	397.11
402.351	409.31
402.729	402.31
403.107	428.07
403.486	424.68
403.864	416.32
404.242	423.32
404.62	412.02
404.999	414.06
405.377	447.95
405.755	427.16
406.133	426.94
406.511	442.08
406.889	455.64
407.267	449.76
407.645	444.56
408.023	453.6
408.401	457.45
408.779	467.84
409.156	462.64
409.534	456.32
409.912	480.04
410.29	468.52
410.667	498.57
411.045	491.12
411.422	508.29
411.8	513.04
412.178	516.2
412.555	525.47
412.933	521.62
413.31	516.2
413.687	533.6
414.065	536.31
414.442	524.11
414.819	551.45
415.197	547.84
415.574	563.43
415.951	550.78
416.328	571.57
416.705	571.79
417.082	588.74
417.46	568.18
417.837	593.26
418.214	599.81
418.591	598.46
418.967	614.96
419.344	623.54
419.721	625.58
420.098	648.63
420.475	643.88
420.852	632.36
421.228	663.54
421.605	669.87
421.982	674.39
422.358	671.9
422.735	686.82
423.111	659.7
423.488	696.76
423.864	709.64
424.241	701.73
424.617	732.92
424.994	717.55
425.37	708.74
425.746	702.18
426.123	722.52
426.499	742.86
426.875	736.31
427.251	740.83
427.627	761.84
428.003	773.37
428.379	785.35
428.756	770.21
429.132	815.4
429.507	788.28
429.883	818.34
430.259	832.13
430.635	849.98
431.011	832.35
431.387	863.99
431.763	856.53
432.138	879.36
432.514	868.73
432.89	874.16
433.265	881.62
433.641	894.72
434.016	882.75
434.392	913.93
434.767	933.14
435.143	961.61
435.518	963.87
435.894	977.66
436.269	987.15
436.644	989.63
437.02	1011.78
437.395	995.74
437.77	962.07
438.145	988.28
438.52	1018.79
438.895	1049.75
439.271	1013.82
439.646	1050.2
440.021	1075.51
440.395	1061.27
440.77	1065.11
441.145	1058.11
441.52	1088.84
441.895	1075.51
442.27	1078.45
442.645	1082.74
443.019	1107.37
443.394	1097.2
443.769	1097.65
444.143	1083.19
444.518	1111.21
444.892	1125.9
445.267	1111.21
445.641	1127.71
446.016	1135.39
446.39	1149.4
446.764	1130.87
447.139	1130.87
447.513	1156.86
447.887	1157.77
448.262	1164.32
448.636	1177.88
449.01	1190.53
449.384	1175.84
449.758	1183.75
450.132	1217.65
450.506	1213.13
450.88	1215.17
451.254	1194.38
451.628	1200.25
452.002	1200.48
452.376	1218.78
452.75	1234.37
453.123	1226.01
453.497	1238.89
453.871	1255.39
454.244	1274.6
454.618	1272.57
454.992	1299.91
455.365	1276.86
455.739	1307.82
456.112	1325.45
456.486	1312.11
456.859	1336.74
457.232	1357.99
457.606	1340.81
457.979	1356.41
458.352	1367.25
458.725	1403.64
459.099	1384.2
459.472	1411.77
459.845	1452.9
460.218	1456.06
460.591	1462.62
460.964	1452.9
461.337	1490.41
461.71	1479.57
462.083	1484.99
462.456	1468.72
462.829	1499.9
463.201	1560.47
463.574	1537.64
463.947	1551.65
464.32	1530.19
464.692	1558.89
465.065	1566.12
465.438	1600.01
465.81	1597.98
466.183	1633.69
466.555	1674.36
466.928	1656.51
467.3	1666.23
467.672	1662.61
468.045	1693.57
468.417	1730.18
468.789	1684.31
469.161	1727.92
469.534	1745.55
469.906	1784.64
470.278	1792.1
470.65	1786.22
471.022	1821.03
471.394	1827.81
471.766	1840.69
472.138	1878.2
472.51	1914.13
472.882	1908.25
473.253	1918.2
473.625	1947.35
473.997	1964.98
474.369	2002.04
474.74	2033.22
475.112	2043.62
475.484	2043.84
475.855	2089.95
476.227	2106.22
476.598	2149.83
476.97	2136.05
477.341	2180.34
477.713	2227.79
478.084	2246.33
478.455	2244.97
478.827	2276.15
479.198	2337.85
479.569	2319.54
479.94	2380.33
480.311	2422.37
480.682	2432.08
481.053	2453.55
481.424	2506.43
481.795	2538.07
482.166	2569.25
482.537	2586.88
482.908	2589.82
483.279	2625.98
483.65	2656.48
484.021	2708.46
484.391	2741.91
484.762	2733.32
485.133	2779.64
485.503	2787.78
485.874	2839.53
486.244	2826.65
486.615	2880.43
486.985	2920.66
487.356	2953.43
487.726	2962.69
488.097	3002.69
488.467	3028.68
488.837	3075.68
489.207	3080.65
489.578	3139.41
489.948	3126.08
490.318	3153.42
490.688	3227.09
491.058	3231.84
491.428	3281.55
491.798	3331.04
492.168	3363.81
492.538	3358.39
492.908	3389.8
493.278	3421.21
493.648	3420.31
494.017	3489.23
494.387	3481.55
494.757	3515.44
495.126	3482.68
495.496	3507.99
495.866	3556.57
496.235	3595.67
496.605	3599.28
496.974	3626.18
497.344	3651.26
497.713	3658.72
498.082	3698.26
498.452	3740.98
498.821	3735.55
499.19	3707.53
499.559	3775.1
499.928	3784.36
500.298	3793.4
500.667	3796.11
501.036	3825.94
501.405	3831.82
501.774	3849.45
502.143	3892.84
502.512	3862.78
502.88	3922.44
503.249	3898.03
503.618	3939.16
503.987	3947.98
504.356	4024.81
504.724	3985.94
505.093	3998.14
505.462	3989.1
505.83	3998.82
506.199	4038.59
506.567	4126.28
506.936	4056.9
507.304	4119.04
507.672	4079.72
508.041	4094.86
508.409	4163.11
508.777	4156.56
509.145	4142.32
509.514	4189.32
509.882	4208.76
510.25	4251.24
510.618	4246.05
510.986	4264.13
511.354	4208.99
511.722	4281.07
512.09	4350.45
512.458	4343.22
512.826	4297.12
513.193	4333.5
513.561	4315.42
513.929	4384.8
514.297	4382.99
514.664	4398.36
515.032	4447.62
515.4	4425.25
515.767	4442.88
516.135	4422.09
516.502	4406.95
516.869	4489.88
517.237	4489.88
517.604	4503.44
517.972	4527.62
518.339	4528.3
518.706	4514.06
519.073	4514.06
519.44	4512.71
519.808	4570.11
520.175	4560.39
520.542	4613.72
520.909	4633.38
521.276	4624.79
521.643	4667.28
522.009	4669.31
522.376	4672.25
522.743	4740.5
523.11	4708.18
523.477	4766.71
523.843	4749.08
524.21	4832.7
524.577	4864.79
524.943	4817.56
525.31	4845.13
525.676	4916.31
526.043	4921.28
526.409	4916.09
526.776	4980.04
527.142	4977.55
527.508	5027.49
527.874	5062.07
528.241	5063.65
528.607	5057.32
528.973	5095.97
529.339	5086.7
529.705	5155.85
530.071	5178
530.437	5194.5
530.803	5201.28
531.169	5288.05
531.535	5283.08
531.901	5250.09
532.267	5290.99
532.632	5354.04
532.998	5362.85
533.364	5358.79
533.73	5380.25
534.095	5400.37
534.461	5432.23
534.826	5452.57
535.192	5473.13
535.557	5541.38
535.923	5524.66
536.288	5532.79
536.653	5557.88
537.019	5576.86
537.384	5637.42
537.749	5657.76
538.114	5652.11
538.479	5682.84
538.845	5716.29
539.21	5658.44
539.575	5718.78
539.94	5707.03
540.305	5831.54
540.67	5791.09
541.034	5836.51
541.399	5845.78
541.764	5855.72
542.129	5850.3
542.494	5891.65
542.858	5952.89
543.223	5950.63
543.587	5984.31
543.952	6048.03
544.316	6058.2
544.681	6018.66
545.045	6109.5
545.41	6079.22
545.774	6121.03
546.138	6165.54
546.503	6187.69
546.867	6199.89
547.231	6184.75
547.595	6237.41
547.959	6245.09
548.324	6339.32
548.688	6378.65
549.052	6365.31
549.416	6353.11
549.779	6387.69
550.143	6392.43
550.507	6447.57
550.871	6463.62
551.235	6494.35
551.599	6507.91
551.962	6547
552.326	6565.31
552.689	6578.41
553.053	6543.16
553.417	6575.02
553.78	6637.4
554.143	6588.36
554.507	6610.05
554.87	6655.02
555.234	6713.78
555.597	6646.21
555.96	6734.79
556.323	6740.22
556.686	6725.98
557.05	6815.7
557.413	6829.03
557.776	6810.72
558.139	6937.28
558.502	6850.95
558.865	6871.29
559.228	6898.63
559.59	6919.87
559.953	6924.39
560.316	7038.52
560.679	6990.16
561.041	7033.32
561.404	7114.67
561.767	7161.22
562.129	7033.54
562.492	7169.36
562.854	7134.78
563.217	7152.18
563.579	7154.22
563.941	7224.05
564.304	7186.53
564.666	7250.71
565.028	7283.48
565.39	7318.06
565.753	7310.82
566.115	7391.5
566.477	7342.46
566.839	7391.95
567.201	7448.22
567.563	7422.01
567.925	7505.62
568.287	7519.63
568.648	7535.9
569.01	7550.59
569.372	7616.35
569.734	7607.31
570.095	7707.2
570.457	7704.71
570.819	7747.88
571.18	7705.84
571.542	7797.14
571.903	7881.21
572.265	7927.98
572.626	7873.52
572.987	7982.45
573.349	7970.92
573.71	8078.94
574.071	8108.77
574.432	8144.93
574.794	8242.33
575.155	8256.34
575.516	8225.38
575.877	8314.64
576.238	8430.12
576.599	8486.61
576.96	8578.14
577.32	8635.31
577.681	8755.98
578.042	8801.86
578.403	8920.27
578.763	8984.68
579.124	9028.97
579.485	9134.51
579.845	9236.88
580.206	9385.8
580.566	9506.7
580.927	9655.85
581.287	9718.67
581.648	9773.58
582.008	9986.01
582.368	10160.69
582.728	10280.24
583.089	10378.77
583.449	10553.9
583.809	10721.58
584.169	10909.83
584.529	11098.52
584.889	11315.47
585.249	11507.1
585.609	11578.51
585.969	11881.33
586.329	12037.03
586.688	12348.21
587.048	12505.26
587.408	12723.79
587.768	12975.53
588.127	13251.01
588.487	13426.82
588.846	13747.04
589.206	14017.54
589.565	14205.11
589.925	14507.92
590.284	14763.06
590.643	15113.78
591.003	15436.49
591.362	15693.2
591.721	15904.95
592.08	16128.45
592.44	16450.7
592.799	16704.25
593.158	17017.69
593.517	17343.33
593.876	17565.24
594.235	17891.79
594.593	18179.92
594.952	18570.19
595.311	18812.9
595.67	19075.26
596.029	19512.76
596.387	19771.97
596.746	20070.04
597.104	20285.62
597.463	20647.2
597.822	20975.55
598.18	21173.51
598.538	21486.27
598.897	21951.8
599.255	21978.69
599.613	22694.83
599.972	22786.8
600.33	23109.96
600.688	23377.75
601.046	23781.35
601.404	24019.76
601.762	24331.17
602.12	24626.75
602.478	24963.47
602.836	25116.91
603.194	25358.94
603.552	25625.15
603.91	25792.6
604.268	26249.31
604.625	26527.27
604.983	26790.31
605.341	26824.44
605.698	27180.58
606.056	27561.14
606.413	27733.79
606.771	28159.32
607.128	28359.31
607.485	28301.69
607.843	28728.57
608.2	28961.55
608.557	29356.12
608.914	29423.69
609.272	29827.97
609.629	30057.35
609.986	30356.55
610.343	30414.17
610.7	30766.93
611.057	30898.23
611.414	31156.3
611.771	31410.3
612.127	31618.66
612.484	31808.94
612.841	31947.47
613.198	32094.35
613.554	32238.98
613.911	32472.65
614.267	32669.48
614.624	32742.47
614.98	33068.57
615.337	33305.62
615.693	33541.1
616.05	33592.17
616.406	33808.89
616.762	33913.29
617.118	34075.09
617.475	34207.29
617.831	34319.61
618.187	34484.12
618.543	34690.67
618.899	35079.59
619.255	35121.39
619.611	35113.48
619.967	35411.55
620.323	35500.14
620.678	35605.22
621.034	35622.4
621.39	35729.51
621.746	35832.33
622.101	36309.38
622.457	36090.86
622.812	36298.09
623.168	36424.64
623.523	36601.13
623.879	36811.97
624.234	36548.93
624.589	36827.79
624.945	36907.33
625.3	36990.95
625.655	36912.98
626.01	37053.55
626.365	37177.16
626.72	37194.78
627.075	37251.96
627.43	37232.75
627.785	37266.65
628.14	37472.52
628.495	37579.63
628.85	37554.55
629.205	37514.32
629.559	37781.44
629.914	37724.71
630.269	37856.01
630.623	37678.39
630.978	37661.44
631.332	37841.32
631.687	37933.07
632.041	37834.54
632.396	37991.6
632.75	37942.56
633.104	38070.02
633.459	37820.3
633.813	38046.74
634.167	37826.41
634.521	37931.49
634.875	38034.31
635.229	38030.69
635.583	37984.14
635.937	37870.25
636.291	37906.63
636.645	37935.78
636.999	38011.49
637.352	38203.12
637.706	37976.69
638.06	37991.83
638.413	38095.78
638.767	37987.31
639.121	38025.05
639.474	37928.78
639.828	37859.4
640.181	37996.12
640.534	37896.01
640.888	37879.29
641.241	37840.42
641.594	37919.29
641.947	38074.99
642.301	37914.54
642.654	37940.98
643.007	38062.78
643.36	37918.38
643.713	37863.47
644.066	38053.07
644.419	37826.86
644.771	37667.99
645.124	37381.22
645.477	37165.41
645.83	37083.6
646.182	36903.72
646.535	36910.5
646.888	37099.87
647.24	36789.37
647.593	36905.3
647.945	36901.69
648.298	36665.99
648.65	36646.78
649.002	36615.82
649.355	36732.42
649.707	36680.22
650.059	36900.33
650.411	37231.62
650.763	37201.79
651.115	37657.15
651.467	37568.56
651.819	37585.28
652.171	37471.39
652.523	37364.72
652.875	37456.92
653.227	37352.97
653.578	37480.65
653.93	37404.5
654.282	37286.31
654.633	37299.41
654.985	37436.81
655.337	37325.4
655.688	37380.54
656.039	37440.43
656.391	37143.94
656.742	37194.33
657.094	37263.26
657.445	37310.71
657.796	37199.3
658.147	37149.14
658.498	37204.5
658.849	37306.42
659.2	37168.57
659.551	37083.6
659.902	37411.5
660.253	37284.5
660.604	37263.71
660.955	37068.01
661.306	37245.4
661.656	37198.63
662.007	37122.92
662.358	37178.29
662.708	37137.84
663.059	37201.56
663.409	36931.74
663.76	37166.54
664.11	37226.87
664.461	37123.15
664.811	37138.06
665.161	37175.12
665.511	36943.27
665.862	36976.03
666.212	37225.29
666.562	37217.61
666.912	37086.99
667.262	36957.5
667.612	37087.67
667.962	37085.86
668.312	37090.83
668.662	37142.13
669.011	37013.55
669.361	37082.92
669.711	36976.49
670.06	36877.05
670.41	36949.37
670.76	36863.27
671.109	36915.47
671.459	36997.73
671.808	36873.66
672.157	37031.17
672.507	36742.59
672.856	36670.5
673.205	36865.53
673.554	36876.15
673.904	36823.95
674.253	36949.14
674.602	36891.06
674.951	36409.72
675.3	36143.51
675.649	36728.36
675.998	36620.11
676.346	36747.34
676.695	36772.42
677.044	36552.09
677.393	36701.24
677.741	36655.36
678.09	36574.24
678.438	36475.26
678.787	36615.14
679.135	36597.06
679.484	36392.77
679.832	36464.63
680.181	36274.13
680.529	36410.62
680.877	36273.68
681.225	36327.91
681.573	36526.33
681.922	36165.43
682.27	36136.51
682.618	36173.34
682.966	36139.9
683.314	36046.11
683.661	35994.82
684.009	35799.34
684.357	35871.43
684.705	35714.6
685.053	35639.35
685.4	35705.78
685.748	35507.82
686.095	35501.5
686.443	35389.86
686.79	35367.94
687.138	35354.83
687.485	35468.95
687.832	35195.29
688.18	35409.97
688.527	35105.8
688.874	35192.35
689.221	35094.27
689.568	35074.16
689.915	34914.17
690.262	34864.68
690.609	34776.32
690.956	34728.18
691.303	34590.79
691.65	34525.48
691.997	34592.82
692.344	34297.01
692.69	34342.2
693.037	34277.35
693.383	34039.16
693.73	34238.7
694.077	34024.47
694.423	34054.53
694.769	33793.29
695.116	33844.59
695.462	33697.25
695.808	33527.76
696.155	33774.31
696.501	33440.76
696.847	33449.8
697.193	33182.91
697.539	33315.56
697.885	33099.75
698.231	32962.35
698.577	33028.11
698.923	33020.21
699.269	32726.88
699.614	32745.18
699.96	32700.67
700.306	32737.95
700.651	32450.73
700.997	32359.66
701.342	32301.13
701.688	32371.86
702.033	32216.16
702.379	32205.99
702.724	32109.95
703.069	32252.99
703.415	31769.39
703.76	31837.19
704.105	31848.03
704.45	31877.41
704.795	31594.48
705.14	31480.36
705.485	31497.76
705.83	31340.25
706.175	31421.15
706.52	31280.59
706.865	31263.42
707.209	31129.18
707.554	30928.51
707.899	31096.87
708.243	30932.8
708.588	30895.29
708.932	30690.1
709.277	30742.98
709.621	30722.19
709.966	30591.12
710.31	30584.34
710.654	30443.32
710.998	30338.24
711.342	30448.3
711.687	30242.88
712.031	30048.53
712.375	30015.09
712.719	30056.44
713.063	30043.11
713.407	29944.35
713.75	29896.67
714.094	29789.78
714.438	29783.68
714.782	29872.27
715.125	29709.56
715.469	29638.37
715.812	29387.98
716.156	29353.63
716.499	29425.72
716.843	29465.5
717.186	29343.47
717.53	29388.66
717.873	29302.34
718.216	29354.76
718.559	29137.6
718.902	28933.08
719.246	29034.1
719.589	29028.9
719.932	28869.58
720.275	28764.27
720.617	28820.54
720.96	28755.23
721.303	28747.1
721.646	28712.3
721.989	28547.33
722.331	28794.33
722.674	28600.21
723.016	28482.25
723.359	28531.06
723.701	28497.61
724.044	28344.85
724.386	28111.18
724.729	28355.7
725.071	28260.56
725.413	28186.89
725.755	28182.37
726.097	28047.91
726.439	27947.34
726.782	27979.21
727.124	27950.73
727.465	27911.41
727.807	27762.49
728.149	27766.56
728.491	27720.01
728.833	27710.97
729.175	27686.33
729.516	27578.99
729.858	27622.16
730.199	27615.15
730.541	27533.34
730.882	27525.89
731.224	27574.47
731.565	27257.64
731.906	27457.87
732.248	27301.03
732.589	27202.73
732.93	27125.44
733.271	27178.32
733.612	27316.17
733.953	27193.01
734.294	27007.93
734.635	27030.31
734.976	27120.47
735.317	26908.95
735.658	26856.98
735.999	26832.57
736.339	26841.38
736.68	26844.32
737.021	26829.18
737.361	26661.73
737.702	26842.51
738.042	26752.8
738.383	26554.39
738.723	26582.41
739.063	26540.83
739.404	26569.98
739.744	26592.8
740.084	26510.77
740.424	26483.2
740.764	26436.65
741.104	26457.67
741.444	26271.68
741.784	26146.26
742.124	26212.02
742.464	26303.32
742.804	26161.63
743.143	26156.88
743.483	26204.11
743.823	26057.9
744.162	25951.01
744.502	26028.52
744.841	25929.54
745.181	26079.82
745.52	25787.4
745.86	25861.3
746.199	25886.16
746.538	25729.1
746.877	25798.93
747.216	25757.57
747.556	25603.68
747.895	25609.33
748.234	25551.7
748.573	25495.66
748.911	25460.63
749.25	25507.86
749.589	25382.21
749.928	25458.37
750.267	25439.84
750.605	25230.58
750.944	25236.23
751.283	25075.78
751.621	25254.76
751.96	25053.64
752.298	25075.56
752.636	25152.39
752.975	24801.89
753.313	24755.11
753.651	24929.34
753.989	24760.99
754.327	24740.65
754.666	24511.73
755.004	24596.25
755.342	24662.68
755.679	24500.88
756.017	24431.96
756.355	24503.82
756.693	24364.61
757.031	24362.81
757.368	24229.48
757.706	24236.03
758.044	24137.05
758.381	24099.08
758.719	24104.96
759.056	23993.32
759.394	23904.06
759.731	23793.1
760.068	23790.39
760.405	23737.29
760.743	23660.45
761.08	23554.92
761.417	23550.85
761.754	23381.59
762.091	23441.25
762.428	23354.7
762.765	23195.6
763.102	23195.38
763.438	23142.27
763.775	22919.91
764.112	23002.16
764.449	22961.26
764.785	22825.67
765.122	22787.03
765.458	22685.34
765.795	22580.93
766.131	22640.37
766.467	22554.49
766.804	22448.96
767.14	22323.99
767.476	22411.67
767.812	22250.32
768.148	22275.85
768.485	22135.97
768.821	22045.8
769.157	21971.46
769.492	21909.31
769.828	21853.04
770.164	21657.57
770.5	21698.47
770.836	21647.85
771.171	21515.42
771.507	21458.25
771.842	21312.72
772.178	21342.09
772.513	21217.13
772.849	21290.12
773.184	21053.74
773.519	21002.22
773.855	20945.72
774.19	20828.44
774.525	20685.16
774.86	20745.27
775.195	20804.71
775.53	20597.71
775.865	20531.49
776.2	20270.48
776.535	20336.92
776.87	20233.87
777.205	20225.74
777.539	20108.23
777.874	20157.49
778.209	19938.97
778.543	19923.83
778.878	19813.55
779.212	19716.83
779.547	19719.99
779.881	19707.79
780.215	19462.6
780.55	19591.41
780.884	19409.94
781.218	19471.18
781.552	19380.56
781.886	19174.02
782.22	19147.8
782.554	19027.58
782.888	18894.25
783.222	18857.41
783.556	18718.21
783.889	18686.57
784.223	18632.56
784.557	18593.01
784.89	18653.58
785.224	18507.14
785.557	18470.31
785.891	18409.52
786.224	18255.4
786.558	18256.53
786.891	18160.03
787.224	18105.8
787.557	18038.68
787.891	18039.58
788.224	18008.17
788.557	17938.57
788.89	17845.24
789.223	17764.11
789.556	17720.04
789.888	17759.14
790.221	17609.99
790.554	17410.9
790.887	17545.58
791.219	17361.18
791.552	17351.24
791.884	17295.42
792.217	17306.72
792.549	17156.89
792.882	17047.97
793.214	16983.11
793.546	17059.49
793.879	16871.03
794.211	16821.76
794.543	16829.9
794.875	16778.82
795.207	16880.29
795.539	16667.64
795.871	16683.69
796.203	16504.48
796.535	16388.33
796.867	16384.48
797.198	16390.81
797.53	16385.61
797.862	16193.53
798.193	16213.64
798.525	16213.64
798.856	16195.34
799.188	16016.13
799.519	15954.21
799.85	15850.94
800.182	15844.84
800.513	15836.02
800.844	15751.28
801.175	15793.31
801.506	15792.64
801.837	15591.96
802.168	15718.97
802.499	15526.2
802.83	15522.81
803.161	15555.13
803.491	15399.65
803.822	15333.89
804.153	15346.55
804.483	15262.25
804.814	15168.02
805.145	15099.09
805.475	15075.37
805.805	15194.01
806.136	15091.64
806.466	15098.87
806.796	14984.07
807.126	14864.75
807.457	14928.48
807.787	14883.05
808.117	14789.5
808.447	14789.72
808.777	14791.08
809.107	14745.21
809.436	14648.94
809.766	14661.59
810.096	14600.8
810.426	14663.4
810.755	14556.06
811.085	14440.35
811.414	14422.95
811.744	14352.67
812.073	14309.74
812.403	14329.4
812.732	14182.51
813.061	14276.07
813.39	14187.93
813.719	14128.5
814.049	14154.03
814.378	14115.84
814.707	14100.93
815.036	14053.25
815.365	13906.81
815.693	13864.55
816.022	13866.13
816.351	13827.49
816.68	13645.57
817.008	13788.85
817.337	13629.75
817.665	13651.22
817.994	13683.99
818.322	13582.07
818.651	13608.74
818.979	13524.67
819.307	13573.94
819.636	13549.53
819.964	13469.76
820.292	13503.66
820.62	13451.91
820.948	13373.94
821.276	13328.97
821.604	13389.31
821.932	13363.77
822.259	13433.83
822.587	13403.77
822.915	13388.18
823.243	13376.43
823.57	13266.83
823.898	13378.46
824.225	13287.39
824.553	13289.88
824.88	13419.14
825.207	13356.54
825.535	13312.47
825.862	13411.68
826.189	13318.8
826.516	13404
826.843	13327.16
827.17	13400.16
827.497	13330.55
827.824	13290.1
828.151	13281.52
828.478	13279.03
828.805	13330.55
829.131	13279.03
829.458	13255.3
829.785	13224.12
830.111	13257.11
830.438	13309.09
830.764	13289.2
831.09	13317.45
831.417	13244
831.743	13287.39
832.069	13279.71
832.395	13234.51
832.722	13251.23
833.048	13208.97
833.374	13208.07
833.7	13087.85
834.026	13142.31
834.351	13197
834.677	13265.02
835.003	13186.6
835.329	13196.32
835.654	13201.97
835.98	13062.99
836.306	13014.18
836.631	13094.18
836.956	13057.11
837.282	13072.03
837.607	12985.03
837.932	12975.53
838.258	12964.91
838.583	12970.11
838.908	12956.55
839.233	12895.76
839.558	12891.92
839.883	12848.98
840.208	12762.43
840.533	12820.28
840.858	12763.34
841.182	12766.95
841.507	12799.95
841.832	12667.75
842.156	12651.48
842.481	12621.42
842.805	12602.44
843.13	12630.91
843.454	12577.8
843.778	12523.79
844.103	12483.8
844.427	12459.84
844.751	12528.77
845.075	12404.02
845.399	12407.41
845.723	12345.49
846.047	12429.11
846.371	12223.01
846.695	12270.02
847.019	12143.47
847.343	12044.94
847.666	11985.5
847.99	11970.59
848.313	11938.27
848.637	11796.36
848.96	11863.02
849.284	11872.51
849.607	11708.68
849.931	11752.74
850.254	11576.48
850.577	11623.48
850.9	11484.05
851.223	11447.67
851.546	11403.6
851.869	11337.61
852.192	11432.75
852.515	11318.63
852.838	11220.78
853.161	11297.16
853.483	11189.37
853.806	11187.56
854.129	11154.57
854.451	11037.96
854.774	10990.28
855.096	11016.49
855.419	10985.08
855.741	10866.44
856.063	10931.75
856.385	10809.04
856.708	10836.83
857.03	10823.27
857.352	10798.87
857.674	10722.26
857.996	10762.94
858.318	10637.97
858.64	10639.55
858.961	10661.47
859.283	10559.78
859.605	10509.61
859.926	10537.86
860.248	10502.83
860.57	10496.96
860.891	10501.7
861.212	10386.9
861.534	10389.84
861.855	10321.82
862.176	10392.33
862.498	10394.36
862.819	10395.26
863.14	10340.8
863.461	10340.35
863.782	10161.82
864.103	10273.68
864.424	10220.58
864.745	10253.12
865.065	10148.72
865.386	10139.45
865.707	10138.55
866.027	10127.02
866.348	10090.19
866.668	10123.86
866.989	10100.36
867.309	10031.88
867.63	10000.25
867.95	10046.35
868.27	9899.23
868.59	9990.3
868.91	9975.84
869.23	9915.73
869.55	9941.04
869.87	9991.43
870.19	9848.84
870.51	9842.74
870.83	9902.39
871.15	9830.08
871.469	9891.77
871.789	9913.47
872.109	9815.17
872.428	9743.3
872.748	9834.6
873.067	9765.22
873.386	9743.08
873.706	9847.26
874.025	9641.84
874.344	9750.76
874.663	9717.09
874.982	9694.94
875.301	9630.31
875.62	9671.67
875.939	9540.6
876.258	9595.96
876.577	9533.82
876.896	9605.45
877.214	9596.64
877.533	9541.73
877.852	9528.39
878.17	9480.26
878.489	9499.24
878.807	9497.43
879.125	9452.92
879.444	9440.49
879.762	9445.91
880.08	9401.17
880.398	9380.37
880.716	9343.54
881.034	9367.95
881.352	9343.09
881.67	9289.3
881.988	9313.48
882.306	9222.19
882.624	9270.55
882.941	9268.29
883.259	9188.52
883.577	9118.01
883.894	9179.7
884.212	9146.71
884.529	9055.41
884.846	9075.75
885.164	9065.35
885.481	9060.61
885.798	8982.19
886.115	8979.03
886.432	8977.45
886.75	8981.97
887.067	9009.76
887.383	8911.46
887.7	8929.77
888.017	8932.48
888.334	8869.2
888.651	8876.66
888.967	8804.57
889.284	8776.55
889.6	8742.65
889.917	8695.87
890.233	8687.06
890.55	8631.92
890.866	8708.98
891.182	8657.23
891.498	8634.18
891.815	8635.31
892.131	8578.81
892.447	8457.01
892.763	8458.59
893.079	8501.98
893.395	8501.08
893.71	8394.19
894.026	8398.93
894.342	8432.38
894.657	8404.58
894.973	8345.15
895.289	8269.44
895.604	8331.81
895.92	8279.16
896.235	8198.71
896.55	8286.17
896.865	8218.37
897.181	8240.74
897.496	8176.56
897.811	8084.36
898.126	8085.72
898.441	8059.51
898.756	8044.59
899.071	7939.51
899.386	8061.77
899.7	7929.79
900.015	7930.7
900.33	7878.49
900.644	7874.43
900.959	7824.94
901.273	7884.59
901.588	7848.89
901.902	7748.55
902.216	7693.19
902.531	7739.51
902.845	7686.63
903.159	7632.17
903.473	7567.77
903.787	7576.13
904.101	7549.69
904.415	7608.22
904.729	7490.71
905.042	7391.05
905.356	7439.86
905.67	7454.78
905.984	7333.42
906.297	7367.55
906.611	7318.73
906.924	7265.63
907.237	7290.03
907.551	7255.23
907.864	7274.89
908.177	7192.86
908.491	7151.73
908.804	7126.65
909.117	7100.21
909.43	7113.54
909.743	7106.76
910.056	7019.53
910.368	6962.59
910.681	6951.51
910.994	6900.89
911.307	6937.05
911.619	6873.55
911.932	6878.07
912.244	6864.73
912.557	6820.89
912.869	6782.93
913.181	6776.38
913.494	6673.78
913.806	6675.14
914.118	6661.8
914.43	6605.76
914.742	6591.75
915.054	6556.27
915.366	6577.51
915.678	6539.55
915.99	6498.87
916.302	6396.95
916.613	6494.35
916.925	6400.11
917.236	6393.11
917.548	6394.24
917.859	6318.76
918.171	6284.86
918.482	6205.32
918.794	6252.77
919.105	6229.5
919.416	6211.19
919.727	6188.14
920.038	6189.05
920.349	6111.76
920.66	6119.44
920.971	6070.18
921.282	6030.86
921.593	5986.57
921.903	6022.27
922.214	6008.26
922.525	5956.28
922.835	5908.15
923.146	5874.93
923.456	5917.64
923.767	5877.64
924.077	5878.55
924.387	5827.02
924.697	5752.22
925.008	5795.84
925.318	5758.55
925.628	5730.98
925.938	5733.92
926.248	5652.79
926.558	5639.68
926.867	5595.62
927.177	5526.24
927.487	5619.34
927.796	5547.93
928.106	5520.82
928.416	5495.51
928.725	5463.87
929.034	5404.66
929.344	5444.89
929.653	5436.07
929.962	5354.49
930.271	5339.8
930.581	5351.55
930.89	5300.71
931.199	5258.45
931.508	5234.04
931.817	5221.16
932.125	5222.29
932.434	5215.74
932.743	5183.2
933.051	5163.76
933.36	5127.15
933.669	5088.28
933.977	5096.87
934.286	5082.41
934.594	5029.75
934.902	4985.69
935.21	4978.46
935.519	4975.74
935.827	4940.04
936.135	4957.67
936.443	4864.79
936.751	4924.22
937.059	4863.43
937.367	4858.23
937.674	4834.28
937.982	4813.49
938.29	4756.54
938.597	4797.22
938.905	4735.75
939.213	4712.47
939.52	4743.89
939.827	4726.03
940.135	4695.53
940.442	4643.1
940.749	4677.45
941.056	4670.67
941.363	4632.48
941.67	4617.79
941.977	4545.93
942.284	4518.58
942.591	4518.81
942.898	4488.07
943.205	4489.66
943.511	4462.76
943.818	4446.27
944.125	4428.64
944.431	4421.64
944.738	4394.74
945.044	4377.79
945.35	4339.38
945.657	4309.55
945.963	4308.42
946.269	4306.38
946.575	4299.83
946.881	4281.75
947.187	4238.14
947.493	4245.59
947.799	4236.33
948.105	4218.93
948.41	4161.75
948.716	4159.04
949.022	4103.45
949.327	4150.46
949.633	4022.1
949.938	4076.79
950.244	4085.82
950.549	4087.86
950.854	4051.93
951.16	3955.66
951.465	3978.26
951.77	3957.69
952.075	3928.99
952.38	3940.97
952.685	3944.59
952.99	3935.77
953.294	3922.89
953.599	3862.1
953.904	3882.89
954.209	3825.04
954.513	3875.89
954.818	3809
955.122	3806.28
955.426	3758.6
955.731	3789.11
956.035	3773.97
956.339	3750.92
956.643	3731.48
956.948	3698.04
957.252	3670.24
957.556	3684.48
957.86	3669.11
958.163	3640.41
958.467	3608.78
958.771	3643.35
959.075	3657.14
959.378	3580.98
959.682	3580.98
959.985	3544.82
960.289	3518.83
960.592	3496.46
960.896	3495.78
961.199	3451.94
961.502	3484.03
961.805	3482.22
962.108	3427.09
962.411	3444.49
962.714	3381.44
963.017	3351.83
963.32	3359.29
963.623	3361.32
963.926	3346.64
964.228	3340.08
964.531	3312.06
964.833	3312.51
965.136	3274.32
965.438	3301.21
965.741	3250.14
966.043	3247.65
966.345	3232.97
966.648	3220.99
966.95	3201.55
967.252	3157.04
967.554	3186.64
967.856	3180.99
968.158	3145.06
968.46	3133.99
968.761	3094.21
969.063	3115.68
969.365	3079.3
969.666	3068.22
969.968	3062.8
970.269	3028
970.571	3016.7
970.872	3023.03
971.174	2998.4
971.475	2998.17
971.776	3014.89
972.077	2993.88
972.378	2978.06
972.679	2971.28
972.98	2947.78
973.281	2930.83
973.582	2906.65
973.883	2887.21
974.183	2884.95
974.484	2852.64
974.785	2888.79
975.085	2846.31
975.386	2814.9
975.686	2834.33
975.986	2798.18
976.287	2778.97
976.587	2789.59
976.887	2785.29
977.187	2780.1
977.487	2772.41
977.787	2754.56
978.087	2717.27
978.387	2734
978.687	2691.51
978.987	2690.83
979.286	2668.23
979.586	2672.53
979.885	2660.55
980.185	2645.41
980.484	2597.05
980.784	2609.03
981.083	2603.6
981.382	2604.06
981.682	2603.6
981.981	2592.76
982.28	2569.25
982.579	2542.59
982.878	2524.96
983.177	2508.92
983.475	2526.32
983.774	2513.66
984.073	2512.08
984.372	2507.11
984.67	2475.02
984.969	2476.83
985.267	2456.26
985.566	2448.13
985.864	2456.26
986.162	2452.87
986.461	2442.48
986.759	2387.11
987.057	2348.47
987.355	2376.04
987.653	2408.81
987.951	2382.59
988.249	2360.67
988.547	2352.54
988.844	2321.8
989.142	2327.23
989.44	2319.54
989.737	2301.24
990.035	2298.75
990.332	2290.62
990.63	2279.32
990.927	2269.15
991.224	2242.48
991.521	2245.42
991.819	2214.46
992.116	2200
992.413	2207.68
992.71	2187.8
993.006	2184.18
993.303	2168.14
993.6	2151.86
993.897	2165.42
994.193	2130.62
994.49	2157.97
994.787	2104.41
995.083	2135.37
995.379	2141.24
995.676	2067.8
995.972	2075.48
996.268	2071.19
996.565	2059.66
996.861	2059.66
997.157	2028.7
997.453	2028.7
997.749	2022.83
998.044	1985.99
998.34	2047.46
998.636	2025.31
998.932	1989.38
999.227	1978.31
999.523	1957.52
999.818	1971.76
1000.114	1930.18
1000.409	1950.51
1000.704	1930.85
1001	1901.7
1001.295	1898.31
1001.59	1923.85
1001.885	1893.79
1002.18	1887.92
1002.475	1868.26
1002.77	1869.84
1003.065	1844.98
1003.359	1821.48
1003.654	1830.52
1003.949	1823.96
1004.243	1796.85
1004.538	1777.41
1004.832	1793.23
1005.127	1765.21
1005.421	1767.92
1005.715	1764.53
1006.009	1783.96
1006.304	1778.09
1006.598	1711.42
1006.892	1731.76
1007.186	1692.44
1007.48	1720.24
1007.773	1683.85
1008.067	1677.98
1008.361	1693.8
1008.655	1672.33
1008.948	1651.54
1009.242	1642.5
1009.535	1668.71
1009.829	1647.7
1010.122	1634.82
1010.415	1591.2
1010.708	1593.01
1011.001	1581.26
1011.295	1582.39
1011.588	1554.37
1011.881	1553.46
1012.173	1534.25
1012.466	1549.62
1012.759	1547.81
1013.052	1541.48
1013.344	1513.46
1013.637	1528.38
1013.93	1499
1014.222	1506.01
1014.514	1503.75
1014.807	1487.7
1015.099	1459.68
1015.391	1442.5
1015.683	1439.34
1015.976	1450.87
1016.268	1447.48
1016.56	1430.53
1016.851	1429.85
1017.143	1396.18
1017.435	1385.56
1017.727	1394.6
1018.018	1391.88
1018.31	1400.47
1018.602	1375.16
1018.893	1381.94
1019.185	1350.3
1019.476	1349.63
1019.767	1347.82
1020.058	1333.81
1020.35	1307.59
1020.641	1333.13
1020.932	1313.24
1021.223	1308.5
1021.514	1282.51
1021.804	1286.58
1022.095	1261.49
1022.386	1278.89
1022.677	1269.18
1022.967	1263.53
1023.258	1244.09
1023.548	1234.6
1023.839	1219.23
1024.129	1227.14
1024.419	1220.14
1024.709	1206.8
1025	1204.54
1025.29	1197.77
1025.58	1160.25
1025.87	1163.19
1026.16	1177.2
1026.449	1161.38
1026.739	1153.02
1027.029	1120.7
1027.319	1132
1027.608	1135.85
1027.898	1125.9
1028.187	1110.99
1028.477	1101.04
1028.766	1113.7
1029.055	1100.82
1029.344	1089.97
1029.634	1102.4
1029.923	1060.59
1030.212	1061.27
1030.501	1082.29
1030.79	1047.71
1031.078	1061.95
1031.367	1027.83
1031.656	1041.61
1031.945	1035.96
1032.233	1023.08
1032.522	1013.14
1032.81	1012.23
1033.099	988.73
1033.387	1007.04
1033.675	985.34
1033.963	1013.36
1034.251	983.31
1034.54	962.97
1034.828	955.96
1035.116	948.28
1035.403	957.09
1035.691	941.27
1035.979	941.95
1036.267	946.02
1036.554	943.08
1036.842	913.7
1037.129	911.44
1037.417	918.68
1037.704	902.86
1037.992	889.75
1038.279	920.48
1038.566	893.82
1038.853	893.82
1039.14	893.82
