Data from hue_280_FLMS001491_00074.txt Node
Date: Tue Feb 07 15:55:44 GMT 2017
User: dcchb
Spectrometer: FLMS00149
Trigger mode: 0
Integration Time (sec): 2.000000E-2
Scans to average: 10
Electric dark correction enabled: true
Nonlinearity correction enabled: false
Boxcar width: 0
XAxis mode: Wavelengths
Number of Pixels in Spectrum: 2048
>>>>>Begin Spectral Data<<<<<
341.393	-4.99
341.776	-4.99
342.16	-4.99
342.543	-50.18
342.927	-84.53
343.31	-57.87
343.693	-71.42
344.077	-58.09
344.46	-86.57
344.843	-53.12
345.226	-56.74
345.61	-16.06
345.993	-15.83
346.376	-6.57
346.759	8.57
347.142	18.06
347.525	38.63
347.908	66.42
348.291	95.8
348.674	100.77
349.057	93.99
349.44	120.66
349.823	155.91
350.206	167.21
350.588	195.23
350.971	186.2
351.354	206.53
351.737	245.18
352.119	262.58
352.502	255.12
352.884	256.48
353.267	277.27
353.65	278.85
354.032	286.53
354.414	285.4
354.797	286.08
355.179	301.22
355.562	315.91
355.944	316.81
356.326	317.72
356.709	329.02
357.091	326.53
357.473	331.73
357.855	332.18
358.238	334.44
358.62	340.32
359.002	331.28
359.384	314.55
359.766	327.21
360.148	316.59
360.53	347.1
360.912	335.57
361.294	325.85
361.676	339.19
362.057	317.94
362.439	342.8
362.821	326.76
363.203	326.3
363.584	321.11
363.966	314.78
364.348	321.79
364.729	298.51
365.111	304.16
365.493	302.58
365.874	323.59
366.256	326.3
366.637	320.2
367.019	295.57
367.4	330.37
367.781	298.74
368.163	311.84
368.544	284.5
368.925	289.7
369.306	300.77
369.688	309.81
370.069	338.28
370.45	312.29
370.831	320.2
371.212	314.33
371.593	312.07
371.974	310.03
372.355	305.29
372.736	305.51
373.117	289.7
373.498	308.45
373.879	302.12
374.26	331.05
374.641	320.88
375.021	306.87
375.402	323.59
375.783	326.3
376.163	331.05
376.544	326.76
376.925	330.15
377.305	308.68
377.686	318.4
378.066	335.8
378.447	344.16
378.827	313.42
379.208	345.29
379.588	327.66
379.968	329.69
380.349	337.38
380.729	354.78
381.109	313.88
381.489	338.96
381.87	330.82
382.25	343.25
382.63	349.58
383.01	346.87
383.39	326.08
383.77	344.16
384.15	338.06
384.53	344.61
384.91	326.76
385.29	349.13
385.67	355.91
386.049	339.19
386.429	343.25
386.809	342.8
387.189	351.16
387.568	354.78
387.948	369.47
388.328	364.27
388.707	354.1
389.087	369.69
389.466	368.34
389.846	365.85
390.225	361.11
390.605	356.13
390.984	376.7
391.363	376.7
391.743	357.04
392.122	381.44
392.501	359.52
392.881	376.47
393.26	392.07
393.639	380.77
394.018	373.31
394.397	370.37
394.776	387.32
395.155	391.84
395.534	402.01
395.913	388
396.292	386.42
396.671	385.96
397.05	397.49
397.429	407.43
397.808	400.43
398.186	374.67
398.565	409.47
398.944	396.36
399.323	405.85
399.701	399.75
400.08	412.18
400.458	409.69
400.837	417.6
401.215	419.86
401.594	406.08
401.972	416.7
402.351	423.03
402.729	445.17
403.107	419.64
403.486	433.42
403.864	446.98
404.242	451.73
404.62	460.09
404.999	451.73
405.377	447.88
405.755	456.25
406.133	456.92
406.511	459.41
406.889	445.85
407.267	467.77
407.645	483.14
408.023	476.13
408.401	481.78
408.779	474.78
409.156	496.02
409.534	494.89
409.912	517.94
410.29	544.15
410.667	501.22
411.045	544.83
411.422	535.34
411.8	508
412.178	551.38
412.555	535.57
412.933	557.71
413.31	550.25
413.687	570.59
414.065	589.57
414.442	595
414.819	556.58
415.197	587.09
415.574	611.5
415.951	613.53
416.328	626.86
416.705	626.41
417.082	639.74
417.46	640.42
417.837	637.26
418.214	657.37
418.591	667.76
418.967	673.87
419.344	697.14
419.721	686.75
420.098	679.74
420.475	705.28
420.852	694.43
421.228	714.09
421.605	713.41
421.982	731.94
422.358	751.83
422.735	735.33
423.111	764.26
423.488	783.47
423.864	769.46
424.241	803.13
424.617	791.38
424.994	805.84
425.37	816.24
425.746	797.25
426.123	832.05
426.499	818.04
426.875	849.46
427.251	856.91
427.627	881.32
428.003	874.54
428.379	883.58
428.756	885.39
429.132	938.72
429.507	884.93
429.883	938.72
430.259	932.39
430.635	941.2
431.011	965.61
431.387	953.86
431.763	954.99
432.138	983.69
432.514	982.11
432.89	1004.48
433.265	1023.46
433.641	1035.89
434.016	1035.44
434.392	1067.98
434.767	1107.3
435.143	1100.75
435.518	1132.61
435.894	1090.58
436.269	1122.44
436.644	1142.1
437.02	1170.12
437.395	1173.74
437.77	1202.67
438.145	1213.06
438.52	1219.39
438.895	1234.08
439.271	1237.24
439.646	1244.02
440.021	1278.37
440.395	1284.02
440.77	1274.75
441.145	1291.03
441.52	1329.67
441.895	1328.31
442.27	1320.4
442.645	1335.77
443.019	1345.49
443.394	1381.42
443.769	1370.8
444.143	1333.28
444.518	1378.48
444.892	1358.59
445.267	1381.19
445.641	1404.47
446.016	1411.47
446.39	1401.98
446.764	1449.89
447.139	1416.67
447.513	1418.48
447.887	1470.46
448.262	1439.04
448.636	1448.76
449.01	1472.04
449.384	1493.28
449.758	1484.69
450.132	1481.3
450.506	1550.23
450.88	1511.13
451.254	1541.19
451.628	1533.5
452.002	1535.54
452.376	1547.52
452.75	1574.41
453.123	1590
453.497	1610.34
453.871	1599.27
454.244	1660.96
454.618	1615.31
454.992	1630.45
455.365	1686.95
455.739	1702.77
456.112	1692.37
456.486	1708.19
456.859	1743.22
457.232	1747.06
457.606	1745.48
457.979	1739.38
458.352	1777.79
458.725	1829.09
459.099	1819.37
459.472	1856.89
459.845	1851.69
460.218	1854.4
460.591	1886.49
460.964	1898.02
461.337	1941.86
461.71	1927.62
462.083	1984.57
462.456	1946.15
462.829	1964.68
463.201	1998.58
463.574	1963.55
463.947	2016.43
464.32	2066.37
464.692	2065.92
465.065	2072.02
465.438	2087.61
465.81	2108.63
466.183	2119.48
466.555	2174.84
466.928	2154.96
467.3	2191.57
467.672	2198.35
468.045	2222.75
468.417	2236.54
468.789	2261.85
469.161	2306.14
469.534	2322.86
469.906	2323.99
470.278	2344.11
470.65	2382.07
471.022	2404.44
471.394	2457.32
471.766	2490.09
472.138	2491.45
472.51	2503.87
472.882	2532.57
473.253	2592.46
473.625	2581.61
473.997	2616.64
474.369	2631.33
474.74	2622.74
475.112	2691.21
475.484	2707.49
475.855	2784.55
476.227	2770.08
476.598	2848.5
476.97	2856.18
477.341	2915.84
477.713	2913.81
478.084	2910.42
478.455	3003.3
478.827	2999.68
479.198	3060.7
479.569	3104.31
479.94	3166.46
480.311	3224.53
480.682	3264.08
481.053	3274.02
481.424	3301.37
481.795	3358.09
482.166	3349.5
482.537	3430.86
482.908	3456.62
483.279	3456.17
483.65	3542.72
484.021	3610.29
484.391	3608.25
484.762	3576.84
485.133	3631.75
485.503	3659.78
485.874	3735.71
486.244	3759.44
486.615	3794.01
486.985	3846.66
487.356	3926.44
487.726	3953.1
488.097	4048.24
488.467	3990.62
488.837	4064.74
489.207	4139.99
489.578	4169.37
489.948	4176.6
490.318	4191.97
490.688	4228.8
491.058	4271.96
491.428	4350.61
491.798	4348.12
492.168	4438.29
492.538	4460.66
492.908	4438.97
493.278	4529.36
493.648	4527.78
494.017	4529.81
494.387	4580.88
494.757	4605.06
495.126	4631.95
495.496	4662.69
495.866	4691.39
496.235	4751.05
496.605	4756.02
496.974	4771.39
497.344	4798.05
497.713	4834.44
498.082	4798.73
498.452	4867.2
498.821	4920.31
499.19	4907.43
499.559	4926.86
499.928	4956.24
500.298	4991.95
500.667	5032.85
501.036	5012.28
501.405	5054.09
501.774	5022.45
502.143	5074.2
502.512	5113.98
502.88	5119.4
503.249	5099.06
503.618	5157.36
503.987	5183.58
504.356	5138.61
504.724	5232.62
505.093	5173.64
505.462	5169.12
505.83	5247.53
506.199	5252.5
506.567	5318.72
506.936	5340.41
507.304	5359.62
507.672	5350.35
508.041	5418.83
508.409	5439.39
508.777	5418.37
509.145	5457.47
509.514	5459.5
509.882	5479.16
510.25	5453.85
510.618	5518.26
510.986	5473.51
511.354	5579.95
511.722	5620.63
512.09	5611.59
512.458	5624.02
512.826	5613.62
513.193	5653.17
513.561	5629.89
513.929	5684.36
514.297	5689.1
514.664	5675.32
515.032	5704.92
515.4	5766.61
515.767	5735.43
516.135	5725.71
516.502	5734.3
516.869	5803.9
517.237	5837.8
517.604	5806.61
517.972	5813.39
518.339	5870.11
518.706	5831.7
519.073	5818.82
519.44	5877.35
519.808	5917.8
520.175	5915.08
520.542	5971.13
520.909	6000.96
521.276	5986.72
521.643	6026.95
522.009	6024.46
522.376	6064.23
522.743	6122.54
523.11	6129.77
523.477	6186.72
523.843	6155.76
524.21	6246.15
524.577	6268.97
524.943	6205.25
525.31	6293.15
525.676	6343.77
526.043	6350.1
526.409	6355.75
526.776	6426.26
527.142	6417.9
527.508	6385.35
527.874	6484.11
528.241	6501.51
528.607	6538.8
528.973	6559.36
529.339	6488.18
529.705	6580.38
530.071	6603.65
530.437	6613.37
530.803	6588.51
531.169	6689.53
531.535	6623.09
531.901	6678
532.267	6709.19
532.632	6714.39
532.998	6733.14
533.364	6768.62
533.73	6734.05
534.095	6855.17
534.461	6790.99
534.826	6835.29
535.192	6875.29
535.557	6886.36
535.923	6900.14
536.288	6893.36
536.653	6856.98
537.019	6899.47
537.384	6878.68
537.749	6949.86
538.114	7002.29
538.479	7012.68
538.845	6995.96
539.21	7019.91
539.575	7021.04
539.94	6996.41
540.305	7050.87
540.67	7072.79
541.034	7066.47
541.399	7125
541.764	7109.18
542.129	7113.47
542.494	7186.01
542.858	7150.98
543.223	7157.54
543.587	7267.14
543.952	7202.73
544.316	7218.78
544.681	7238.21
545.045	7242.06
545.41	7340.58
545.774	7304.88
546.138	7237.08
546.503	7343.75
546.867	7281.15
547.231	7338.1
547.595	7361.83
547.959	7412.22
548.324	7356.85
548.688	7325.22
549.052	7410.86
549.416	7360.24
549.779	7383.07
550.143	7408.15
550.507	7495.38
550.871	7498.77
551.235	7399.34
551.599	7479.34
551.962	7538.54
552.326	7536.74
552.689	7547.36
553.053	7521.6
553.417	7535.38
553.78	7629.39
554.143	7612.89
554.507	7677.07
554.87	7607.7
555.234	7738.31
555.597	7639.11
555.96	7731.76
556.323	7645.66
556.686	7716.85
557.05	7818.99
557.413	7739.67
557.776	7803.17
558.139	7780.57
558.502	7762.95
558.865	7784.19
559.228	7894.69
559.59	7842.27
559.953	7935.14
560.316	7963.17
560.679	7934.92
561.041	7994.58
561.404	7995.71
561.767	8022.15
562.129	8018.76
562.492	8164.97
562.854	8097.4
563.217	8022.6
563.579	8067.57
563.941	8121.58
564.304	8174.69
564.666	8253.78
565.028	8199.54
565.39	8234.8
565.753	8287.68
566.115	8267.79
566.477	8340.78
566.839	8335.13
567.201	8367.9
567.563	8458.29
567.925	8448.13
568.287	8497.62
568.648	8439.99
569.01	8515.24
569.372	8566.54
569.734	8582.81
570.095	8643.6
570.457	8673.88
570.819	8646.31
571.18	8713.2
571.542	8799.98
571.903	8804.95
572.265	8743.94
572.626	8821
572.987	8856.93
573.349	8835.46
573.71	8924.05
574.071	8942.58
574.432	8948.68
574.794	9056.02
575.155	9045.4
575.516	9004.95
575.877	9110.71
576.238	9175.34
576.599	9206.3
576.96	9202.23
577.32	9213.08
577.681	9287.88
578.042	9333.98
578.403	9368.1
578.763	9338.72
579.124	9439.29
579.485	9499.4
579.845	9600.19
580.206	9560.86
580.566	9583.69
580.927	9625.95
581.287	9695.32
581.648	9676.57
582.008	9812.84
582.368	9873.4
582.728	9890.8
583.089	9895.09
583.449	9978.25
583.809	10037.69
584.169	10084.47
584.529	10145.48
584.889	10275.65
585.249	10204.24
585.609	10167.63
585.969	10305.93
586.329	10453.04
586.688	10448.3
587.048	10567.84
587.408	10509.77
587.768	10656.65
588.127	10690.78
588.487	10738.91
588.846	10931.68
589.206	10849.19
589.565	10891.68
589.925	11083.76
590.284	11158.11
590.643	11207.83
591.003	11292.34
591.362	11422.96
591.721	11373.7
592.08	11509.74
592.44	11541.83
592.799	11604.43
593.158	11633.58
593.517	11773.69
593.876	11836.06
594.235	11887.36
594.593	11927.36
594.952	11998.09
595.311	12087.58
595.67	12069.73
596.029	12247.8
596.387	12325.54
596.746	12405.76
597.104	12384.07
597.463	12420.45
597.822	12542.25
598.18	12554.46
598.538	12594.23
598.897	12743.38
599.255	12658.64
599.613	12940.21
599.972	12960.55
600.33	12973.66
600.688	13022.24
601.046	13020.21
601.404	13144.05
601.762	13159.19
602.12	13266.76
602.478	13375.91
602.836	13375.68
603.194	13415.23
603.552	13384.49
603.91	13462.91
604.268	13460.65
604.625	13519.4
604.983	13659.97
605.341	13590.14
605.698	13688.67
606.056	13829.23
606.413	13840.3
606.771	13838.27
607.128	13890.02
607.485	13888.21
607.843	13893.18
608.2	14014.53
608.557	14088.43
608.914	14042.1
609.272	14145.15
609.629	14222.89
609.986	14302.21
610.343	14179.05
610.7	14316.9
611.057	14304.02
611.414	14287.52
611.771	14337.69
612.127	14388.08
612.484	14453.62
612.841	14521.19
613.198	14505.14
613.554	14539.49
613.911	14626.27
614.267	14636.66
614.624	14569.55
614.98	14630.34
615.337	14701.07
615.693	14717.11
616.05	14781.29
616.406	14798.69
616.762	14808.86
617.118	14833.95
617.475	14760.5
617.831	14877.56
618.187	14881.85
618.543	14959.14
618.899	15041.4
619.255	14958.69
619.611	15003.43
619.967	15040.04
620.323	15080.95
620.678	15070.32
621.034	15062.64
621.39	15072.13
621.746	15009.53
622.101	15142.64
622.457	15089.53
622.812	15139.93
623.168	15193.03
623.523	15257.66
623.879	15186.48
624.234	15071.23
624.589	15196.42
624.945	15147.38
625.3	15237.33
625.655	15236.2
626.01	15193.71
626.365	15310.54
626.72	15277.1
627.075	15216.31
627.43	15355.51
627.785	15219.92
628.14	15273.03
628.495	15213.15
628.85	15355.06
629.205	15246.36
629.559	15269.41
629.914	15133.15
630.269	15218.79
630.623	15227.83
630.978	15138.34
631.332	15235.74
631.687	15247.95
632.041	15221.51
632.396	15218.79
632.75	15203.88
633.104	15196.2
633.459	15113.71
633.813	15168.63
634.167	15123.2
634.521	15125.24
634.875	15076.65
635.229	15093.6
635.583	15033.49
635.937	15158.23
636.291	15045.01
636.645	15076.2
636.999	14941.97
637.352	15046.6
637.706	14994.39
638.06	14994.85
638.413	15014.28
638.767	14989.2
639.121	15003.66
639.474	14894.74
639.828	14874.17
640.181	14920.95
640.534	14951.68
640.888	14960.04
641.241	14900.61
641.594	14824.91
641.947	14920.95
642.301	14897
642.654	14847.28
643.007	14871.69
643.36	14823.1
643.713	14815.64
644.066	14792.14
644.419	14764.12
644.771	14661.07
645.124	14559.38
645.477	14547.4
645.83	14423.11
646.182	14465.82
646.535	14259.72
646.888	14403.45
647.24	14287.29
647.593	14398.93
647.945	14372.49
648.298	14277.58
648.65	14230.57
649.002	14291.14
649.355	14390.79
649.707	14347.86
650.059	14396.9
650.411	14567.06
650.763	14506.72
651.115	14701.75
651.467	14747.62
651.819	14673.05
652.171	14682.76
652.523	14678.02
652.875	14552.37
653.227	14626.27
653.578	14659.71
653.93	14637.79
654.282	14664.23
654.633	14557.57
654.985	14702.42
655.337	14703.78
655.688	14647.06
656.039	14701.29
656.391	14593.73
656.742	14693.38
657.094	14687.28
657.445	14749.2
657.796	14601.18
658.147	14616.1
658.498	14763.67
658.849	14704.01
659.2	14612.26
659.551	14614.74
659.902	14734.97
660.253	14709.66
660.604	14727.28
660.955	14701.97
661.306	14702.2
661.656	14718.24
662.007	14702.42
662.358	14719.6
662.708	14704.68
663.059	14797.56
663.409	14652.71
663.76	14779.94
664.11	14708.98
664.461	14792.14
664.811	14762.54
665.161	14727.28
665.511	14703.33
665.862	14737.45
666.212	14793.27
666.562	14746.04
666.912	14800.73
667.262	14673.72
667.612	14764.12
667.962	14747.39
668.312	14837.11
668.662	14810.9
669.011	14751.46
669.361	14766.15
669.711	14716.44
670.06	14670.11
670.41	14630.11
670.76	14711.24
671.109	14712.82
671.459	14701.29
671.808	14716.89
672.157	14731.12
672.507	14614.97
672.856	14658.36
673.205	14644.8
673.554	14777.68
673.904	14628.3
674.253	14727.51
674.602	14704.68
674.951	14421.98
675.3	14270.35
675.649	14609.77
675.998	14597.79
676.346	14595.99
676.695	14672.14
677.044	14534.74
677.393	14519.83
677.741	14586.27
678.09	14539.72
678.438	14439.15
678.787	14440.51
679.135	14412.04
679.484	14340.17
679.832	14477.12
680.181	14351.25
680.529	14339.72
680.877	14339.04
681.225	14265.37
681.573	14388.99
681.922	14251.36
682.27	14228.54
682.618	14227.63
682.966	14222.21
683.314	14245.49
683.661	14178.6
684.009	14099.73
684.357	14099.5
684.705	14083.01
685.053	13960.97
685.4	14066.06
685.748	14006.85
686.095	13994.42
686.443	13925.72
686.79	13870.13
687.138	13906.96
687.485	13879.85
687.832	13799.62
688.18	13812.96
688.527	13723.69
688.874	13676.91
689.221	13692.28
689.568	13680.08
689.915	13623.36
690.262	13584.71
690.609	13477.82
690.956	13412.74
691.303	13416.81
691.65	13393.98
691.997	13373.65
692.344	13301.11
692.69	13279.18
693.037	13301.78
693.383	13125.29
693.73	13216.81
694.077	13158.28
694.423	13130.71
694.769	12973.43
695.116	13035.8
695.462	13034.67
695.808	12907.22
696.155	13005.97
696.501	12789.03
696.847	12824.51
697.193	12649.37
697.539	12805.3
697.885	12614.34
698.231	12523.27
698.577	12702.48
698.923	12555.81
699.269	12474.91
699.614	12451.41
699.96	12437.62
700.306	12366.67
700.651	12348.14
700.997	12259.55
701.342	12264.07
701.688	12223.62
702.033	12212.55
702.379	12116.5
702.724	12038.99
703.069	12163.06
703.415	11945.21
703.76	11952.21
704.105	11989.05
704.45	11895.27
704.795	11724.88
705.14	11805.78
705.485	11813.46
705.83	11705.89
706.175	11748.15
706.52	11669.06
706.865	11647.14
707.209	11631.09
707.554	11524.43
707.899	11626.57
708.243	11470.19
708.588	11518.78
708.932	11477.65
709.277	11424.09
709.621	11431.55
709.966	11293.47
710.31	11412.34
710.654	11222.97
710.998	11160.37
711.342	11279.24
711.687	11193.36
712.031	11117.66
712.375	11147.72
712.719	11050.32
713.063	11065.91
713.407	11230.43
713.75	11124.44
714.094	11110.88
714.438	10998.57
714.782	11053.25
715.125	10983.2
715.469	10963.99
715.812	10909.98
716.156	10878.57
716.499	10904.78
716.843	10920.38
717.186	10782.53
717.53	10823.43
717.873	10821.4
718.216	10865.01
718.559	10769.65
718.902	10720.83
719.246	10733.94
719.589	10689.2
719.932	10749.99
720.275	10633.6
720.617	10658.01
720.96	10679.03
721.303	10661.85
721.646	10653.49
721.989	10659.59
722.331	10660.27
722.674	10644.45
723.016	10596.54
723.359	10603.1
723.701	10649.88
724.044	10552.02
724.386	10575.98
724.729	10568.07
725.071	10560.16
725.413	10546.6
725.755	10498.01
726.097	10504.57
726.439	10463.67
726.782	10413.27
727.124	10480.16
727.465	10451.46
727.807	10475.19
728.149	10416.89
728.491	10405.14
728.833	10424.8
729.175	10422.31
729.516	10387.96
729.858	10350.67
730.199	10359.49
730.541	10368.75
730.882	10352.93
731.224	10449.88
731.565	10354.29
731.906	10366.72
732.248	10350.9
732.589	10354.97
732.93	10324.69
733.271	10307.06
733.612	10297.57
733.953	10398.58
734.294	10327.17
734.635	10301.64
734.976	10335.53
735.317	10331.01
735.658	10413.27
735.999	10355.65
736.339	10345.25
736.68	10326.04
737.021	10344.57
737.361	10375.76
737.702	10399.26
738.042	10399.49
738.383	10367.62
738.723	10356.32
739.063	10361.3
739.404	10479.03
739.744	10414.63
740.084	10359.71
740.424	10418.69
740.764	10397.45
741.104	10495.98
741.444	10387.74
741.784	10485.81
742.124	10466.15
742.464	10451.91
742.804	10465.93
743.143	10491.91
743.483	10530.56
743.823	10508.86
744.162	10543.89
744.502	10564.91
744.841	10560.84
745.181	10625.24
745.52	10707.27
745.86	10766.26
746.199	10731
746.538	10824.33
746.877	10866.82
747.216	10907.27
747.556	10897.1
747.895	11023.2
748.234	10991.34
748.573	11010.09
748.911	11146.13
749.25	11193.14
749.589	11233.14
749.928	11330.76
750.267	11401.27
750.605	11386.81
750.944	11610.98
751.283	11488.95
751.621	11701.83
751.96	11668.83
752.298	11801.26
752.636	11975.26
752.975	11997.86
753.313	12080.8
753.651	12273.11
753.989	12282.15
754.327	12456.83
754.666	12428.13
755.004	12648.69
755.342	12808.24
755.679	12934.79
756.017	13012.53
756.355	13147.66
756.693	13240.54
757.031	13395.57
757.368	13441.67
757.706	13542
758.044	13753.3
758.381	13836.01
758.719	13959.84
759.056	14178.14
759.394	14315.54
759.731	14351.7
760.068	14549.66
760.405	14648.19
760.743	14897.45
761.08	15036.43
761.417	15172.47
761.754	15296.31
762.091	15379.92
762.428	15514.15
762.765	15655.85
763.102	15831.43
763.438	15886.12
763.775	16056.51
764.112	16165.66
764.449	16383.96
764.785	16492.43
765.122	16494.02
765.458	16712.54
765.795	16792.09
766.131	16980.1
766.467	17061.68
766.804	17182.81
767.14	17211.28
767.476	17329.25
767.812	17417.83
768.148	17609.69
768.485	17580.54
768.821	17619.86
769.157	17699.63
769.492	17860.31
769.828	18051.94
770.164	17965.39
770.5	18019.85
770.836	18162.67
771.171	18149.34
771.507	18199.96
771.842	18209
772.178	18321.99
772.513	18413.74
772.849	18482.66
773.184	18425.26
773.519	18570.12
773.855	18547.52
774.19	18538.93
774.525	18590.91
774.86	18642.21
775.195	18665.26
775.53	18622.1
775.865	18672.04
776.2	18602.89
776.535	18547.29
776.87	18707.74
777.205	18729.89
777.539	18737.12
777.874	18736.22
778.209	18636.33
778.543	18725.37
778.878	18581.42
779.212	18703.45
779.547	18665.26
779.881	18771.47
780.215	18645.6
780.55	18793.39
780.884	18696.9
781.218	18596.79
781.552	18670.91
781.886	18640.4
782.22	18589.1
782.554	18577.35
782.888	18449.67
783.222	18445.15
783.556	18518.82
783.889	18519.5
784.223	18318.6
784.557	18434.3
784.89	18473.62
785.224	18452.83
785.557	18294.65
785.891	18259.84
786.224	18332.84
786.558	18287.64
786.891	18201.99
787.224	18125.38
787.557	18021.66
787.891	18033.64
788.224	18082.22
788.557	18093.07
788.89	18064.14
789.223	17978.72
789.556	17953.86
789.888	17910.02
790.221	17848.56
790.554	17791.83
790.887	17737.6
791.219	17666.19
791.552	17703.02
791.884	17621.22
792.217	17625.06
792.549	17596.36
792.882	17424.61
793.214	17427.78
793.546	17483.14
793.879	17390.49
794.211	17259.65
794.543	17304.39
794.875	17250.38
795.207	17362.02
795.539	17282.02
795.871	17192.3
796.203	17150.95
796.535	17002.93
796.867	16997.05
797.198	17060.33
797.53	16906.66
797.862	16861.69
798.193	16892.42
798.525	16801.58
798.856	16810.62
799.188	16613.11
799.519	16621.02
799.85	16439.33
800.182	16553.22
800.513	16534.92
800.844	16416.96
801.175	16545.31
801.506	16541.02
801.837	16375.83
802.168	16411.76
802.499	16247.92
802.83	16270.07
803.161	16212.21
803.491	16237.3
803.822	16156.17
804.153	16092.67
804.483	16021.94
804.814	15995.5
805.145	15984.88
805.475	15953.69
805.805	15862.39
806.136	15954.37
806.466	15817.42
806.796	15837.08
807.126	15748.95
807.457	15665.79
807.787	15664.43
808.117	15542.4
808.447	15564.1
808.777	15682.06
809.107	15581.05
809.436	15507.6
809.766	15584.89
810.096	15416.53
810.426	15349.41
810.755	15362.07
811.085	15342.41
811.414	15323.65
811.744	15296.98
812.073	15253.14
812.403	15177.67
812.732	15096.99
813.061	15187.16
813.39	15089.08
813.719	15071.91
814.049	15097.44
814.378	15028.52
814.707	14872.59
815.036	14910.33
815.365	14863.78
815.693	14678.92
816.022	14812.25
816.351	14778.13
816.68	14581.3
817.008	14738.58
817.337	14611.13
817.665	14578.13
817.994	14593.95
818.322	14619.71
818.651	14441.19
818.979	14453.84
819.307	14471.24
819.636	14472.37
819.964	14364.58
820.292	14443
820.62	14409.1
820.948	14339.72
821.276	14399.83
821.604	14344.92
821.932	14365.71
822.259	14447.52
822.587	14398.48
822.915	14272.83
823.243	14414.97
823.57	14229.44
823.898	14330.46
824.225	14276.67
824.553	14402.09
824.88	14364.81
825.207	14383.34
825.535	14316.45
825.862	14330
826.189	14231.02
826.516	14288.65
826.843	14395.54
827.17	14388.99
827.497	14390.79
827.824	14355.31
828.151	14356.22
828.478	14355.54
828.805	14342.66
829.131	14401.64
829.458	14363.22
829.785	14247.52
830.111	14309.89
830.438	14378.36
830.764	14332.26
831.09	14353.28
831.417	14261.31
831.743	14344.47
832.069	14318.25
832.395	14240.52
832.722	14320.29
833.048	14260.4
833.374	14247.29
833.7	14153.06
834.026	14270.35
834.351	14243.91
834.677	14233.28
835.003	14183.57
835.329	14185.6
835.654	14137.47
835.98	14118.03
836.306	14098.37
836.631	14090.46
836.956	14080.75
837.282	14031.71
837.607	14044.59
837.932	14037.81
838.258	14066.51
838.583	13937.7
838.908	13978.83
839.233	13939.73
839.558	13953.07
839.883	13882.78
840.208	13875.78
840.533	13857.7
840.858	13793.52
841.182	13777.25
841.507	13753.07
841.832	13701.55
842.156	13699.96
842.481	13710.81
842.805	13642.57
843.13	13629.01
843.454	13573.41
843.778	13595.56
844.103	13459.74
844.427	13501.33
844.751	13466.98
845.075	13402.57
845.399	13384.04
845.723	13336.36
846.047	13332.74
846.371	13304.72
846.695	13200.09
847.019	13183.14
847.343	13116.7
847.666	12919.87
847.99	13012.75
848.313	12945.63
848.637	12924.17
848.96	12798.52
849.284	12711.97
849.607	12675.13
849.931	12696.38
850.254	12590.84
850.577	12483.73
850.9	12481.47
851.223	12419.77
851.546	12465.42
851.869	12389.04
852.192	12403.95
852.515	12253
852.838	12123.06
853.161	12236.73
853.483	12171.64
853.806	12092.55
854.129	12086
854.451	12095.94
854.774	12004.64
855.096	11944.53
855.419	11914.47
855.741	11877.41
856.063	11886.68
856.385	11798.09
856.708	11825.21
857.03	11659.34
857.352	11722.16
857.674	11669.06
857.996	11605.33
858.318	11571.88
858.64	11564.2
858.961	11493.24
859.283	11468.61
859.605	11421.15
859.926	11390.19
860.248	11389.52
860.57	11375.96
860.891	11376.18
861.212	11249.18
861.534	11250.54
861.855	11243.76
862.176	11234.49
862.498	11239.24
862.819	11230.2
863.14	11193.36
863.461	11170.99
863.782	11069.75
864.103	11147.26
864.424	11118.34
864.745	11178.67
865.065	11067.94
865.386	11003.31
865.707	10981.39
866.027	10948.85
866.348	10995.18
866.668	11029.07
866.989	10970.54
867.309	10883.77
867.63	10904.11
867.95	10876.99
868.27	10834.73
868.59	10846.93
868.91	10787.95
869.23	10803.09
869.55	10729.2
869.87	10862.07
870.19	10749.53
870.51	10803.32
870.83	10690.78
871.15	10690.78
871.469	10699.59
871.789	10627.05
872.109	10660.72
872.428	10648.52
872.748	10683.77
873.067	10611.01
873.386	10566.04
873.706	10625.92
874.025	10566.04
874.344	10559.03
874.663	10589.76
874.982	10447.17
875.301	10434.74
875.62	10483.55
875.939	10463.44
876.258	10536.21
876.577	10371.92
876.896	10412.37
877.214	10411.69
877.533	10467.06
877.852	10350.9
878.17	10326.04
878.489	10337.57
878.807	10336.89
879.125	10318.58
879.444	10288.53
879.762	10250.79
880.08	10301.64
880.398	10237.68
880.716	10210.79
881.034	10174.86
881.352	10238.13
881.67	10120.85
881.988	10185.03
882.306	10068.42
882.624	10101.87
882.941	10018.71
883.259	10014.86
883.577	9980.29
883.894	9998.82
884.212	9962.89
884.529	9877.92
884.846	9976.67
885.164	9906.39
885.481	9877.01
885.798	9827.98
886.115	9802.44
886.432	9766.28
886.75	9770.35
887.067	9771.71
887.383	9687.64
887.7	9706.17
888.017	9651.94
888.334	9669.79
888.651	9584.37
888.967	9621.2
889.284	9534.42
889.6	9537.36
889.917	9506.18
890.233	9451.71
890.55	9440.64
890.866	9429.79
891.182	9419.85
891.498	9380.76
891.815	9342.11
892.131	9324.94
892.447	9331.27
892.763	9296.01
893.079	9236.35
893.395	9202
893.71	9195
894.026	9173.08
894.342	9193.87
894.657	9157.26
894.973	9046.08
895.289	9074.32
895.604	9006.98
895.92	8942.12
896.235	8832.07
896.55	8887.89
896.865	8930.15
897.181	8828.23
897.496	8822.35
897.811	8743.71
898.126	8743.94
898.441	8772.41
898.756	8744.16
899.071	8582.36
899.386	8693.77
899.7	8573.32
900.015	8564.28
900.33	8491.06
900.644	8478.18
900.959	8504.17
901.273	8437.28
901.588	8343.5
901.902	8361.8
902.216	8290.62
902.531	8311.41
902.845	8298.07
903.159	8258.3
903.473	8232.31
903.787	8191.63
904.101	8139.21
904.415	8152.99
904.729	8110.73
905.042	8011.3
905.356	8001.36
905.67	8011.53
905.984	8019.89
906.297	8016.5
906.611	7949.61
906.924	7874.58
907.237	7892.43
907.551	7832.77
907.864	7834.81
908.177	7785.09
908.491	7768.82
908.804	7762.04
909.117	7670.52
909.43	7620.58
909.743	7597.98
910.056	7524.99
910.368	7587.58
910.681	7497.42
910.994	7537.64
911.307	7491.54
911.619	7433.01
911.932	7390.07
912.244	7364.99
912.557	7383.07
912.869	7260.36
913.181	7219.01
913.494	7277.99
913.806	7196.41
914.118	7176.07
914.43	7120.93
914.742	7113.92
915.054	7047.71
915.366	7053.13
915.678	7099.91
915.99	6974.49
916.302	6970.2
916.613	6974.27
916.925	6907.83
917.236	6953.02
917.548	6889.52
917.859	6845.91
918.171	6760.71
918.482	6809.98
918.794	6764.33
919.105	6703.99
919.416	6655.86
919.727	6680.94
920.038	6586.03
920.349	6605.24
920.66	6535.63
920.971	6558.01
921.282	6557.33
921.593	6520.27
921.903	6493.37
922.214	6474.84
922.525	6466.71
922.835	6379.93
923.146	6362.53
923.456	6334.73
923.767	6333.15
924.077	6319.82
924.387	6312.81
924.697	6226.71
925.008	6193.95
925.318	6178.35
925.628	6118.47
925.938	6108.53
926.248	6097.9
926.558	6069.66
926.867	6141.29
927.177	5985.82
927.487	6005.03
927.796	5996.21
928.106	5947.4
928.416	5923.9
928.725	5927.06
929.034	5926.84
929.344	5831.02
929.653	5864.69
929.962	5803
930.271	5775.65
930.581	5751.47
930.89	5710.34
931.199	5745.6
931.508	5667.86
931.817	5687.75
932.125	5662.44
932.434	5628.09
932.743	5610.69
933.051	5565.94
933.36	5530.69
933.669	5544.02
933.977	5510.35
934.286	5510.8
934.594	5496.34
934.902	5408.21
935.21	5388.54
935.519	5396
935.827	5381.31
936.135	5371.37
936.443	5293.86
936.751	5310.58
937.059	5313.07
937.367	5275.55
937.674	5298.83
937.982	5242.56
938.29	5203.46
938.597	5188.55
938.905	5119.85
939.213	5132.96
939.52	5098.83
939.827	5126.86
940.135	5074.43
940.442	5042.34
940.749	5001.89
941.056	5021.32
941.363	4976.35
941.67	4953.98
941.977	4931.61
942.284	4888.9
942.591	4938.39
942.898	4875.79
943.205	4866.3
943.511	4786.98
943.818	4824.27
944.125	4791.95
944.431	4746.08
944.738	4745.17
945.044	4716.02
945.35	4726.19
945.657	4655.91
945.963	4665.17
946.269	4619.3
946.575	4627.89
946.881	4546.53
947.187	4597.83
947.493	4567.32
947.799	4543.37
948.105	4533.65
948.41	4531.84
948.716	4472.86
949.022	4491.39
949.327	4446.2
949.633	4436.25
949.938	4426.54
950.244	4425.18
950.549	4361
950.854	4353.54
951.16	4300.66
951.465	4308.57
951.77	4263.83
952.075	4295.47
952.38	4262.25
952.685	4241
952.99	4252.76
953.294	4169.37
953.599	4124.85
953.904	4162.36
954.209	4129.14
954.513	4126.88
954.818	4087.11
955.122	4094.12
955.426	4068.58
955.731	4099.99
956.035	4020.45
956.339	4043.72
956.643	4003.27
956.948	3950.39
957.252	3954.46
957.556	3922.82
957.86	3952.2
958.163	3905.87
958.467	3889.83
958.771	3896.15
959.075	3871.3
959.378	3862.26
959.682	3864.07
959.985	3839.21
960.289	3813.22
960.592	3775.25
960.896	3802.37
961.199	3701.36
961.502	3743.84
961.805	3720.79
962.108	3707.01
962.411	3667.46
962.714	3674.01
963.017	3657.29
963.32	3702.49
963.623	3601.25
963.926	3611.42
964.228	3594.92
964.531	3563.73
964.833	3560.8
965.136	3548.37
965.438	3557.41
965.741	3491.65
966.043	3479.67
966.345	3475.15
966.648	3482.38
966.95	3455.49
967.252	3432.89
967.554	3441.48
967.856	3384.08
968.158	3373.23
968.46	3413.46
968.761	3358.77
969.063	3348.6
969.365	3346.11
969.666	3337.3
969.968	3298.66
970.269	3271.31
970.571	3282.84
970.872	3264.53
971.174	3250.97
971.475	3259.56
971.776	3244.65
972.077	3210.75
972.378	3165.55
972.679	3157.42
972.98	3172.78
973.281	3154.48
973.582	3159.9
973.883	3119.68
974.183	3102.05
974.484	3080.13
974.785	3079.23
975.085	3112.22
975.386	3085.1
975.686	3032
975.986	3033.58
976.287	3029.74
976.587	2998.1
976.887	2989.51
977.187	3007.14
977.487	2985.9
977.787	2963.52
978.087	2953.35
978.387	2916.52
978.687	2931.89
978.987	2926.46
979.286	2893.47
979.586	2887.59
979.885	2873.81
980.185	2832.23
980.484	2806.01
980.784	2822.96
981.083	2839.01
981.382	2788.39
981.682	2818.67
981.981	2769.18
982.28	2772.12
982.579	2744.32
982.878	2739.57
983.177	2718.56
983.475	2700.71
983.774	2739.8
984.073	2683.76
984.372	2675.85
984.67	2659.8
984.969	2668.62
985.267	2655.74
985.566	2622.06
985.864	2610.09
986.162	2582.52
986.461	2584.1
986.759	2565.12
987.057	2593.14
987.355	2567.83
987.653	2558.11
987.951	2502.07
988.249	2531.67
988.547	2501.39
988.844	2509.75
989.142	2530.77
989.44	2488.73
989.737	2460.26
990.035	2458.45
990.332	2443.54
990.63	2441.05
990.927	2429.3
991.224	2395.86
991.521	2408.74
991.819	2413.26
992.116	2391.11
992.413	2361.28
992.71	2366.03
993.006	2356.53
993.303	2356.31
993.6	2330.55
993.897	2291.9
994.193	2333.26
994.49	2302.07
994.787	2259.81
995.083	2263.2
995.379	2254.39
995.676	2217.33
995.972	2220.49
996.268	2215.29
996.565	2193.37
996.861	2173.94
997.157	2191.79
997.453	2151.12
997.749	2173.26
998.044	2142.98
998.34	2114.51
998.636	2140.72
998.932	2117.9
999.227	2119.93
999.523	2099.14
999.818	2076.77
1000.114	2067.05
1000.409	2079.48
1000.704	2067.28
1001	2050.1
1001.295	2076.77
1001.59	2033.38
1001.885	2034.06
1002.18	1972.36
1002.475	2005.13
1002.77	2015.07
1003.065	1966.94
1003.359	1974.17
1003.654	1975.98
1003.949	1952.25
1004.243	1912.93
1004.538	1906.83
1004.832	1910.9
1005.127	1909.99
1005.421	1902.08
1005.715	1848.07
1006.009	1837.68
1006.304	1826.38
1006.598	1862.54
1006.892	1834.29
1007.186	1830.45
1007.48	1790.9
1007.773	1805.59
1008.067	1795.64
1008.361	1798.58
1008.655	1770.33
1008.948	1765.14
1009.242	1795.64
1009.535	1726.95
1009.829	1717.68
1010.122	1762.88
1010.415	1702.31
1010.708	1694.63
1011.001	1691.24
1011.295	1707.29
1011.588	1659.38
1011.881	1628.19
1012.173	1625.25
1012.466	1644.69
1012.759	1606.95
1013.052	1647.4
1013.344	1623.22
1013.637	1618.02
1013.93	1586.61
1014.222	1578.48
1014.514	1572.83
1014.807	1569.21
1015.099	1567.4
1015.391	1531.47
1015.683	1568.08
1015.976	1524.92
1016.268	1526.73
1016.56	1484.92
1016.851	1519.27
1017.143	1510.45
1017.435	1435.65
1017.727	1457.57
1018.018	1466.61
1018.31	1465.03
1018.602	1473.17
1018.893	1417.12
1019.185	1454.86
1019.476	1393.4
1019.767	1420.74
1020.058	1404.47
1020.35	1404.47
1020.641	1342.32
1020.932	1367.18
1021.223	1348.88
1021.514	1344.81
1021.804	1363.79
1022.095	1343.45
1022.386	1334.64
1022.677	1310.46
1022.967	1329.22
1023.258	1295.09
1023.548	1300.29
1023.839	1321.99
1024.129	1283.34
1024.419	1270.46
1024.709	1260.97
1025	1263.46
1025.29	1258.48
1025.58	1239.05
1025.87	1237.69
1026.16	1210.35
1026.449	1239.5
1026.739	1194.3
1027.029	1202.89
1027.319	1198.82
1027.608	1162.44
1027.898	1166.73
1028.187	1139.16
1028.477	1172.38
1028.766	1179.39
1029.055	1127.64
1029.344	1138.26
1029.634	1156.34
1029.923	1129.67
1030.212	1122.22
1030.501	1112.27
1030.79	1102.33
1031.078	1077.92
1031.367	1080.64
1031.656	1065.04
1031.945	1086.74
1032.233	1068.88
1032.522	1059.62
1032.81	1051.26
1033.099	1053.07
1033.387	1058.26
1033.675	1021.43
1033.963	1013.52
1034.251	1026.85
1034.54	1014.2
1034.828	1010.58
1035.116	1003.8
1035.403	992.73
1035.691	1013.97
1035.979	978.49
1036.267	967.87
1036.554	991.37
1036.842	977.36
1037.129	952.05
1037.417	942.33
1037.704	959.06
1037.992	920.87
1038.279	925.39
1038.566	927.42
1038.853	927.42
1039.14	927.42
