Data from hue_28_FLMS001491_00057.txt Node
Date: Tue Feb 07 17:17:28 GMT 2017
User: dcchb
Spectrometer: FLMS00149
Trigger mode: 0
Integration Time (sec): 2.000000E-2
Scans to average: 10
Electric dark correction enabled: true
Nonlinearity correction enabled: false
Boxcar width: 0
XAxis mode: Wavelengths
Number of Pixels in Spectrum: 2048
>>>>>Begin Spectral Data<<<<<
341.393	-12.33
341.776	-12.33
342.16	-12.33
342.543	-72.22
342.927	-85.55
343.31	-71.76
343.693	-80.13
344.077	-63.85
344.46	-69.5
344.843	-41.71
345.226	-50.97
345.61	-30.86
345.993	-32.67
346.376	15.69
346.759	1.68
347.142	28.35
347.525	48.69
347.908	42.13
348.291	70.83
348.674	111.51
349.057	122.58
349.44	137.5
349.823	119.19
350.206	150.15
350.588	195.8
350.971	198.96
351.354	249.81
351.737	217.04
352.119	249.13
352.502	252.07
352.884	271.5
353.267	281
353.65	289.36
354.032	289.81
354.414	309.47
354.797	311.96
355.179	326.64
355.562	323.93
355.944	310.37
356.326	334.55
356.709	346.98
357.091	317.6
357.473	331.62
357.855	334.1
358.238	338.4
358.62	332.97
359.002	332.07
359.384	343.59
359.766	330.94
360.148	328.9
360.53	332.52
360.912	331.62
361.294	331.39
361.676	336.81
362.057	329.58
362.439	333.2
362.821	316.25
363.203	348.34
363.584	311.05
363.966	320.32
364.348	318.28
364.729	325.51
365.111	325.74
365.493	305.85
365.874	322.8
366.256	297.49
366.637	316.7
367.019	302.69
367.4	288
367.781	306.53
368.163	304.27
368.544	326.19
368.925	304.72
369.306	321.9
369.688	320.54
370.069	316.93
370.45	295.68
370.831	312.63
371.212	322.35
371.593	311.96
371.974	311.28
372.355	305.4
372.736	310.6
373.117	319.86
373.498	329.36
373.879	315.57
374.26	313.08
374.641	307.89
375.021	308.11
375.402	308.79
375.783	308.11
376.163	314.21
376.544	334.55
376.925	346.3
377.305	305.4
377.686	313.08
378.066	330.49
378.447	329.81
378.827	339.3
379.208	310.15
379.588	305.4
379.968	347.43
380.349	346.98
380.729	339.07
381.109	342.46
381.489	340.65
381.87	331.16
382.25	337.49
382.63	316.7
383.01	364.84
383.39	349.47
383.77	353.99
384.15	337.27
384.53	343.59
384.91	337.04
385.29	351.73
385.67	332.75
386.049	355.34
386.429	356.47
386.809	336.14
387.189	340.2
387.568	354.67
387.948	369.58
388.328	340.2
388.707	369.35
389.087	355.34
389.466	350.6
389.846	351.05
390.225	352.18
390.605	380.88
390.984	366.42
391.363	364.84
391.743	341.33
392.122	354.89
392.501	377.72
392.881	355.57
393.26	382.46
393.639	366.87
394.018	386.76
394.397	378.85
394.776	365.74
395.155	376.59
395.534	362.12
395.913	368.22
396.292	375
396.671	372.74
397.05	378.39
397.429	373.87
397.808	386.76
398.186	385.17
398.565	371.39
398.944	386.3
399.323	374.1
399.701	397.15
400.08	372.97
400.458	382.46
400.837	407.77
401.215	407.77
401.594	392.18
401.972	399.41
402.351	404.83
402.729	397.6
403.107	399.64
403.486	405.51
403.864	406.64
404.242	417.26
404.62	393.76
404.999	409.13
405.377	422.23
405.755	424.49
406.133	413.42
406.511	415.23
406.889	419.07
407.267	422.46
407.645	451.16
408.023	425.17
408.401	427.66
408.779	446.19
409.156	424.95
409.534	434.66
409.912	442.57
410.29	439.41
410.667	422.69
411.045	428.79
411.422	433.99
411.8	468.79
412.178	480.31
412.555	446.41
412.933	455.91
413.31	467.43
413.687	450.48
414.065	466.75
414.442	459.3
414.819	464.72
415.197	442.8
415.574	483.48
415.951	443.48
416.328	485.96
416.705	455.68
417.082	508.79
417.46	473.31
417.837	493.65
418.214	472.18
418.591	502.46
418.967	495.91
419.344	526.19
419.721	489.8
420.098	497.49
420.475	519.18
420.852	510.37
421.228	495
421.605	526.64
421.982	530.93
422.358	541.33
422.735	541.33
423.111	519.86
423.488	539.97
423.864	542.91
424.241	560.31
424.617	526.19
424.994	548.33
425.37	542.01
425.746	537.71
426.123	552.17
426.499	559.41
426.875	548.33
427.251	557.15
427.627	588.11
428.003	574.77
428.379	588.11
428.756	575.9
429.132	575.9
429.507	573.64
429.883	613.87
430.259	591.72
430.635	602.57
431.011	587.2
431.387	607.09
431.763	605.51
432.138	622
432.514	604.83
432.89	627.88
433.265	650.7
433.641	658.61
434.016	643.7
434.392	670.82
434.767	656.8
435.143	648.22
435.518	626.3
435.894	663.58
436.269	674.43
436.644	669.46
437.02	690.02
437.395	673.98
437.77	670.14
438.145	699.06
438.52	708.55
438.895	704.49
439.271	715.33
439.646	711.27
440.021	730.48
440.395	729.8
440.77	721.66
441.145	742.23
441.52	721.89
441.895	726.18
442.27	733.41
442.645	734.54
443.019	770.02
443.394	754.66
443.769	763.92
444.143	758.27
444.518	737.93
444.892	779.74
445.267	758.05
445.641	757.82
446.016	763.47
446.39	813.86
446.764	755.33
447.139	788.55
447.513	782.68
447.887	780.42
448.262	805.05
448.636	775.9
449.01	795.78
449.384	825.61
449.758	818.16
450.132	819.74
450.506	820.42
450.88	816.57
451.254	818.83
451.628	832.85
452.002	840.53
452.376	825.16
452.75	872.17
453.123	870.81
453.497	895.89
453.871	885.27
454.244	880.75
454.618	911.71
454.992	884.14
455.365	926.63
455.739	931.37
456.112	935.67
456.486	931.15
456.859	943.58
457.232	948.55
457.606	966.85
457.979	980.86
458.352	969.34
458.725	1004.37
459.099	1017.93
459.472	994.2
459.845	1010.24
460.218	1026.29
460.591	1019.96
460.964	1040.3
461.337	1076.91
461.71	1081.2
462.083	1083.23
462.456	1101.76
462.829	1087.75
463.201	1108.77
463.574	1123.23
463.947	1121.43
464.32	1152.38
464.692	1162.78
465.065	1168.2
465.438	1178.37
465.81	1189.45
466.183	1192.84
466.555	1215.21
466.928	1258.6
467.3	1250.01
467.672	1257.24
468.045	1293.4
468.417	1313.06
468.789	1285.26
469.161	1329.78
469.534	1359.84
469.906	1356.45
470.278	1381.98
470.65	1391.02
471.022	1417.46
471.394	1442.32
471.766	1480.74
472.138	1448.2
472.51	1511.02
472.882	1545.37
473.253	1541.75
473.625	1583.79
473.997	1634.63
474.369	1601.86
474.74	1661.07
475.112	1700.17
475.484	1713.5
475.855	1723.22
476.227	1751.69
476.598	1794.85
476.97	1853.84
477.341	1885.25
477.713	1908.3
478.084	1928.18
478.455	1974.28
478.827	2012.93
479.198	2067.62
479.569	2075.52
479.94	2174.96
480.311	2176.54
480.682	2208.18
481.053	2305.35
481.424	2339.7
481.795	2373.6
482.166	2414.05
482.537	2440.49
482.908	2519.13
483.279	2543.53
483.65	2589.64
484.021	2666.7
484.391	2725.22
484.762	2758.67
485.133	2795.28
485.503	2895.84
485.874	2953.92
486.244	2963.64
486.615	3027.14
486.985	3054.48
487.356	3165.67
487.726	3165.44
488.097	3283.18
488.467	3324.98
488.837	3354.59
489.207	3440.91
489.578	3482.27
489.948	3494.47
490.318	3605.43
490.688	3627.35
491.058	3710.96
491.428	3792.54
491.798	3814.91
492.168	3895.14
492.538	3920.67
492.908	3969.49
493.278	4037.96
493.648	4066.88
494.017	4134.45
494.387	4255.81
494.757	4231.4
495.126	4317.73
495.496	4377.16
495.866	4381.68
496.235	4444.05
496.605	4444.28
496.974	4507.1
497.344	4576.02
497.713	4628.9
498.082	4643.59
498.452	4710.26
498.821	4724.27
499.19	4773.53
499.559	4835.45
499.928	4849.01
500.298	4911.16
500.667	4915.68
501.036	4955.22
501.405	4958.39
501.774	5006.07
502.143	5068.67
502.512	5090.36
502.88	5126.97
503.249	5154.77
503.618	5231.6
503.987	5226.63
504.356	5253.75
504.724	5298.94
505.093	5298.49
505.462	5366.06
505.83	5381.2
506.199	5406.28
506.567	5533.29
506.936	5468.2
507.304	5557.47
507.672	5551.82
508.041	5608.76
508.409	5637.92
508.777	5679.95
509.145	5688.31
509.514	5730.57
509.882	5719.04
510.25	5795.43
510.618	5860.51
510.986	5832.26
511.354	5895.54
511.722	5900.51
512.09	5975.08
512.458	5902.09
512.826	5948.64
513.193	5976.21
513.561	6031.58
513.929	6068.87
514.297	6140.95
514.664	6136.66
515.032	6162.65
515.4	6179.82
515.767	6183.21
516.135	6232.03
516.502	6216.66
516.869	6267.5
517.237	6321.51
517.604	6284
517.972	6336.2
518.339	6385.24
518.706	6425.69
519.073	6385.02
519.44	6429.31
519.808	6549.08
520.175	6534.84
520.542	6563.99
520.909	6577.55
521.276	6596.99
521.643	6655.74
522.009	6626.14
522.376	6638.12
522.743	6726.25
523.11	6728.06
523.477	6782.97
523.843	6838.11
524.21	6890.31
524.577	6965.34
524.943	6934.15
525.31	6978.67
525.676	7034.72
526.043	7035.62
526.409	7072.68
526.776	7200.36
527.142	7180.7
527.508	7201.72
527.874	7243.52
528.241	7355.39
528.607	7304.09
528.973	7359.68
529.339	7419.11
529.705	7444.65
530.071	7451.2
530.437	7538.21
530.803	7601.03
531.169	7584.53
531.535	7555.61
531.901	7618.88
532.267	7634.02
532.632	7700.69
532.998	7729.61
533.364	7740.01
533.73	7810.97
534.095	7867.01
534.461	7901.59
534.826	7919.89
535.192	7974.8
535.557	7977.29
535.923	8050.51
536.288	8041.47
536.653	8057.29
537.019	8083.73
537.384	8129.38
537.749	8194.91
538.114	8184.74
538.479	8227.23
538.845	8253.67
539.21	8284.85
539.575	8267.9
539.94	8333.44
540.305	8405.3
540.67	8361.69
541.034	8414.11
541.399	8513.77
541.764	8514.45
542.129	8531.63
542.494	8581.57
542.858	8579.08
543.223	8641.23
543.587	8717.61
543.952	8683.03
544.316	8759.19
544.681	8818.62
545.045	8803.94
545.41	8865.4
545.774	8876.7
546.138	8922.8
546.503	8983.82
546.867	9022.46
547.231	9104.94
547.595	9021.56
547.959	9053.42
548.324	9112.63
548.688	9160.54
549.052	9180.42
549.416	9174.77
549.779	9288.22
550.143	9213.19
550.507	9309.01
550.871	9377.71
551.235	9348.1
551.599	9415.67
551.962	9409.79
552.326	9444.6
552.689	9520.75
553.053	9459.74
553.417	9498.38
553.78	9682.56
554.143	9563.46
554.507	9609.11
554.87	9701.99
555.234	9817.02
555.597	9690.24
555.96	9711.48
556.323	9786.73
556.686	9784.7
557.05	9840.52
557.413	9803.23
557.776	9867.41
558.139	9914.41
558.502	9962.1
558.865	10027.63
559.228	10001.64
559.59	10106.27
559.953	10122.54
560.316	10167.06
560.679	10238.47
561.041	10219.49
561.404	10233.73
561.767	10380.62
562.129	10232.6
562.492	10431.69
562.854	10407.28
563.217	10389.66
563.579	10482.99
563.941	10492.25
564.304	10524.34
564.666	10577.67
565.028	10626.71
565.39	10699.93
565.753	10658.12
566.115	10713.49
566.477	10743.77
566.839	10749.65
567.201	10854.28
567.563	10893.6
567.925	10900.38
568.287	11037.77
568.648	10938.57
569.01	11009.98
569.372	11115.74
569.734	11078.23
570.095	11181.95
570.457	11196.41
570.819	11319.35
571.18	11325
571.542	11340.82
571.903	11406.13
572.265	11459.91
572.626	11525.67
572.987	11532.45
573.349	11620.58
573.71	11707.59
574.071	11784.42
574.432	11778.55
574.794	11930.63
575.155	11938.77
575.516	12059.89
575.877	12171.53
576.238	12131.98
576.599	12378.08
576.96	12388.47
577.32	12439.55
577.681	12586.66
578.042	12708.47
578.403	12765.41
578.763	12948.01
579.124	13033.43
579.485	13209.7
579.845	13318.84
580.206	13437.94
580.566	13527.2
580.927	13713.18
581.287	13892.61
581.648	14026.4
582.008	14256.9
582.368	14301.64
582.728	14565.14
583.089	14685.36
583.449	14960.61
583.809	15091.91
584.169	15301.39
584.529	15499.58
584.889	15875.61
585.249	15916.06
585.609	16130.3
585.969	16493.9
586.329	16681.92
586.688	16989.03
587.048	17220.21
587.408	17394.67
587.768	17704.04
588.127	17960.53
588.487	18251.37
588.846	18608.42
589.206	18699.04
589.565	19109.2
589.925	19440.72
590.284	19686.13
590.643	19965.9
591.003	20483.85
591.362	20775.37
591.721	21000.68
592.08	21333.1
592.44	21680.43
592.799	21864.61
593.158	22396.12
593.517	22623.68
593.876	22934.86
594.235	23275.87
594.593	23607.39
594.952	24043.08
595.311	24302.96
595.67	24616.17
596.029	25104.3
596.387	25380.67
596.746	25836.93
597.104	26006.42
597.463	26351.27
597.822	26799.85
598.18	27032.83
598.538	27286.16
598.897	27745.13
599.255	27926.82
599.613	28621.27
599.972	28717.31
600.33	29151.42
600.688	29340.8
601.046	29719.32
601.404	30243.15
601.762	30451.05
602.12	30897.82
602.478	31223.68
602.836	31428.2
603.194	31472.27
603.552	31893.72
603.91	32298.68
604.268	32449.87
604.625	32717.66
604.983	33197.19
605.341	33253.46
605.698	33687.35
606.056	34032.42
606.413	34217.05
606.771	34627.44
607.128	34860.88
607.485	34944.04
607.843	35214.31
608.2	35589.22
608.557	36001.19
608.914	35995.31
609.272	36568.63
609.629	36730.88
609.986	36970.43
610.343	37047.71
610.7	37659.45
611.057	37736.28
611.414	37917.75
611.771	38160.68
612.127	38518.18
612.484	38619.42
612.841	38866.65
613.198	38922.24
613.554	39003.37
613.911	39501.21
614.267	39623.69
614.624	39746.62
614.98	40051.7
615.337	40340.73
615.693	40410.34
616.05	40531.91
616.406	40910.89
616.762	40941.62
617.118	40957.89
617.475	41254.61
617.831	41418.22
618.187	41569.85
618.543	41844.87
618.899	42069.95
619.255	42084.64
619.611	42220.68
619.967	42472.43
620.323	42553.56
620.678	42468.81
621.034	42607.11
621.39	42655.25
621.746	42774.79
622.101	43269.24
622.457	43022.24
622.812	43183.37
623.168	43376.13
623.523	43497.71
623.879	43646.41
624.234	43410.48
624.589	43673.98
624.945	43833.97
625.3	43992.61
625.655	43902.67
626.01	44059.28
626.365	44336.33
626.72	44160.07
627.075	44147.41
627.43	44245.26
627.785	44186.06
628.14	44436.44
628.495	44433.96
628.85	44461.53
629.205	44215.66
629.559	44698.36
629.914	44495.43
630.269	44733.16
630.623	44766.61
630.978	44686.38
631.332	44830.78
631.687	44882.08
632.041	44848.41
632.396	44997.56
632.75	44809.54
633.104	44939.71
633.459	44659.94
633.813	44761.41
634.167	44901.52
634.521	44831.01
634.875	44903.55
635.229	44957.56
635.583	44868.07
635.937	44980.16
636.291	44937.67
636.645	44920.95
636.999	44837.79
637.352	45078.01
637.706	44740.84
638.06	44954.62
638.413	44959.14
638.767	44765.48
639.121	44933.83
639.474	44683.22
639.828	44757.34
640.181	44904
640.534	44859.03
640.888	44739.94
641.241	44598.02
641.594	44724.8
641.947	44969.76
642.301	44774.97
642.654	44792.59
643.007	44751.24
643.36	44692.03
643.713	44780.39
644.066	44864.68
644.419	44614.29
644.771	44426.73
645.124	44068.54
645.477	43845.27
645.83	43735.45
646.182	43628.1
646.535	43515.34
646.888	43651.15
647.24	43505.85
647.593	43676.46
647.945	43473.98
648.298	43285.97
648.65	43334.55
649.002	43179.3
649.355	43392.18
649.707	43310.15
650.059	43596.69
650.411	44090.46
650.763	43934.76
651.115	44473.51
651.467	44376.11
651.819	44365.26
652.171	44377.01
652.523	44123.23
652.875	44186.06
653.227	43901.77
653.578	44210.01
653.93	44134.08
654.282	43989.22
654.633	43806.86
654.985	44044.14
655.337	44257.47
655.688	44088.66
656.039	44209.11
656.391	43864.71
656.742	43917.36
657.094	44048.43
657.445	44194.87
657.796	44059.05
658.147	43990.58
658.498	43892.96
658.849	44050.69
659.2	43843.24
659.551	43749.46
659.902	44043.23
660.253	44026.51
660.604	43968.66
660.955	43665.84
661.306	43998.26
661.656	43872.62
662.007	43954.65
662.358	43910.58
662.708	43905.16
663.059	43907.64
663.409	43713.75
663.76	43986.06
664.11	43846.86
664.461	43949.9
664.811	43948.32
665.161	43962.33
665.511	43852.96
665.862	43814.31
666.212	43923.69
666.562	43952.39
666.912	43743.81
667.262	43708.33
667.612	43793.75
667.962	43788.33
668.312	43752.85
668.662	43991.94
669.011	43697.93
669.361	43742.23
669.711	43783.58
670.06	43652.51
670.41	43564.83
670.76	43564.38
671.109	43824.48
671.459	43763.24
671.808	43505.85
672.157	43677.59
672.507	43462.46
672.856	43487.77
673.205	43490.03
673.554	43565.96
673.904	43464.27
674.253	43630.36
674.602	43558.5
674.951	42971.17
675.3	42699.77
675.649	43452.97
675.998	43412.29
676.346	43322.8
676.695	43536.36
677.044	43142.47
677.393	43310.37
677.741	43452.06
678.09	43123.48
678.438	43073.99
678.787	43189.02
679.135	43276.93
679.484	42872.19
679.832	43044.16
680.181	42942.7
680.529	42891.4
680.877	42795.58
681.225	42884.17
681.573	43114.67
681.922	42810.27
682.27	42639.43
682.618	42674.46
682.966	42611.63
683.314	42626.32
683.661	42528.02
684.009	42417.51
684.357	42363.73
684.705	42284.41
685.053	42386.33
685.4	42255.26
685.748	42087.35
686.095	42142.04
686.443	41879.45
686.79	41888.26
687.138	42009.84
687.485	41914.48
687.832	41820.92
688.18	41677.65
688.527	41710.41
688.874	41547.48
689.221	41635.39
689.568	41423.19
689.915	41337.32
690.262	41298.22
690.609	41323.31
690.956	41109.75
691.303	41003.54
691.65	40799.93
691.997	40963.77
692.344	40688.52
692.69	40534.4
693.037	40599.94
693.383	40350
693.73	40460.5
694.077	40328.98
694.423	40178.48
694.769	40021.19
695.116	40049.67
695.462	39862.78
695.808	39911.14
696.155	39900.07
696.501	39553.18
696.847	39607.19
697.193	39345.05
697.539	39554.54
697.885	39173.53
698.231	39270.7
698.577	39169.69
698.923	39202.01
699.269	38933.09
699.614	38660.1
699.96	38706.2
700.306	38592.08
700.651	38477.51
700.997	38397.96
701.342	38381.01
701.688	38475.02
702.033	38244.97
702.379	38129.04
702.724	38021.47
703.069	38126.1
703.415	37772.67
703.76	37889.5
704.105	37735.83
704.45	37635.27
704.795	37485.89
705.14	37354.82
705.485	37273.7
705.83	37164.77
706.175	37324.32
706.52	37105.79
706.865	37037.09
707.209	36911.67
707.554	36882.52
707.899	36941.95
708.243	36690.43
708.588	36736.08
708.932	36415.64
709.277	36410.44
709.621	36439.82
709.966	36148.3
710.31	36235.53
710.654	36092.48
710.998	36028.98
711.342	36058.59
711.687	35839.16
712.031	35745.37
712.375	35614.3
712.719	35668.54
713.063	35770.23
713.407	35746.05
713.75	35588.77
714.094	35491.6
714.438	35334.31
714.782	35339.06
715.125	35239.62
715.469	35277.82
715.812	35190.13
716.156	34936.36
716.499	34898.16
716.843	35069.01
717.186	34825.4
717.53	34936.58
717.873	34897.03
718.216	34628.79
718.559	34613.65
718.902	34377.5
719.246	34466.99
719.589	34339.08
719.932	34301.8
720.275	34275.36
720.617	34186.09
720.96	34235.58
721.303	34111.29
721.646	34073.78
721.989	33992.2
722.331	34040.33
722.674	33968.47
723.016	33949.26
723.359	33959.88
723.701	33855.25
724.044	33660
724.386	33420.01
724.729	33636.73
725.071	33628.37
725.413	33585.66
725.755	33458.88
726.097	33337.53
726.439	33270.18
726.782	33214.82
727.124	33286
727.465	33166.23
727.807	33025.45
728.149	33057.76
728.491	33003.98
728.833	33065.67
729.175	32898.67
729.516	32745
729.858	32830.2
730.199	32811.67
730.541	32689.18
730.882	32805.34
731.224	32823.19
731.565	32576.64
731.906	32563.31
732.248	32693.02
732.589	32370.55
732.93	32249.65
733.271	32354.05
733.612	32544.33
733.953	32363.32
734.294	32278.8
734.635	32200.16
734.976	32141.85
735.317	31936.66
735.658	32031.12
735.999	32126.49
736.339	31978.24
736.68	32098.01
737.021	31999.94
737.361	31738.7
737.702	31935.08
738.042	31881.29
738.383	31693.05
738.723	31954.51
739.063	31646.05
739.404	31755.2
739.744	31684.92
740.084	31390.69
740.424	31549.33
740.764	31463.9
741.104	31469.1
741.444	31384.58
741.784	31323.12
742.124	31317.24
742.464	31271.82
742.804	31239.28
743.143	31109.56
743.483	31011.94
743.823	30836.12
744.162	30895.78
744.502	31155.66
744.841	30810.36
745.181	30779.4
745.52	30769.91
745.86	30971.26
746.199	30763.81
746.538	30698.5
746.877	30676.81
747.216	30726.07
747.556	30479.52
747.895	30516.81
748.234	30437.04
748.573	30489.69
748.911	30390.71
749.25	30435
749.589	30183.03
749.928	30150.27
750.267	30305.29
750.605	30231.62
750.944	30218.29
751.283	29992.76
751.621	30208.34
751.96	29934.9
752.298	29940.33
752.636	30071.62
752.975	29710.05
753.313	29725.64
753.651	29823.5
753.989	29652.43
754.327	29637.74
754.666	29356.16
755.004	29544.63
755.342	29517.29
755.679	29385.54
756.017	29452.43
756.355	29463.96
756.693	29235.49
757.031	29269.39
757.368	29050.41
757.706	29089.73
758.044	29042.5
758.381	29011.77
758.719	28840.47
759.056	28917.76
759.394	28804.99
759.731	28605.22
760.068	28534.49
760.405	28529.07
760.743	28378.34
761.08	28406.81
761.417	28309.86
761.754	28275.06
762.091	28175.4
762.428	28194.61
762.765	27911.68
763.102	27984.22
763.438	27817.9
763.775	27764.11
764.112	27764.57
764.449	27685.92
764.785	27557.57
765.122	27343.56
765.458	27253.85
765.795	27415.88
766.131	27266.73
766.467	27218.14
766.804	27080.06
767.14	26813.86
767.476	26979.5
767.812	26757.81
768.148	26790.13
768.485	26548.55
768.821	26505.84
769.157	26400.76
769.492	26329.58
769.828	26366.64
770.164	26169.58
770.5	26116.7
770.836	26101.11
771.171	25911.28
771.507	25862.24
771.842	25630.39
772.178	25732.98
772.513	25592.65
772.849	25503.38
773.184	25492.76
773.519	25280.56
773.855	25250.28
774.19	25136.39
774.525	25032.44
774.86	25072.66
775.195	24983.62
775.53	24989.27
775.865	24761.93
776.2	24642.61
776.535	24396.29
776.87	24416.18
777.205	24294.83
777.539	24255.73
777.874	24171.44
778.209	23948.4
778.543	23930.77
778.878	23875.4
779.212	23859.36
779.547	23740.94
779.881	23841.28
780.215	23604.22
780.55	23643.77
780.884	23430.44
781.218	23343.89
781.552	23457.11
781.886	23264.35
782.22	23152.26
782.554	23058.25
782.888	22888.99
783.222	22799.95
783.556	22757.47
783.889	22595.89
784.223	22583.69
784.557	22417.14
784.89	22492.39
785.224	22302.79
785.557	22144.15
785.891	22150.25
786.224	22175.56
786.558	22031.84
786.891	21961.78
787.224	21792.07
787.557	21763.59
787.891	21718.62
788.224	21663.94
788.557	21674.78
788.89	21468.69
789.223	21570.61
789.556	21287
789.888	21205.87
790.221	21221.24
790.554	21111.86
790.887	21035.48
791.219	21085.65
791.552	20889.04
791.884	20731.98
792.217	20817.4
792.549	20612.89
792.882	20470.75
793.214	20526.34
793.546	20566.79
793.879	20430.75
794.211	20189.17
794.543	20339.9
794.875	20200.7
795.207	20283.63
795.539	20198.89
795.871	20183.07
796.203	19912.12
796.535	19925.45
796.867	19822.63
797.198	19703.99
797.53	19739.92
797.862	19571.11
798.193	19683.88
798.525	19583.99
798.856	19529.3
799.188	19377.67
799.519	19311.68
799.85	19203.89
800.182	19187.16
800.513	19233.72
800.844	18992.37
801.175	19088.41
801.506	19035.3
801.837	18924.12
802.168	18907.85
802.499	18925.93
802.83	18765.93
803.161	18669.21
803.491	18696.33
803.822	18690.91
804.153	18523.91
804.483	18356.23
804.814	18339.5
805.145	18329.56
805.475	18322.33
805.805	18203.69
806.136	18172.28
806.466	18091.37
806.796	18123.01
807.126	17973.19
807.457	17908.78
807.787	18001.43
808.117	17896.8
808.447	17749.24
808.777	17847.54
809.107	17754.89
809.436	17685.51
809.766	17686.64
810.096	17555.12
810.426	17550.6
810.755	17585.4
811.085	17509.92
811.414	17418.85
811.744	17329.36
812.073	17348.8
812.403	17384.73
812.732	17210.27
813.061	17170.72
813.39	17126.2
813.719	17112.19
814.049	17068.58
814.378	17007.56
814.707	16919.65
815.036	16995.58
815.365	16837.85
815.693	16788.13
816.022	16758.08
816.351	16650.73
816.68	16602.37
817.008	16548.59
817.337	16465.43
817.665	16450.29
817.994	16484.86
818.322	16493.45
818.651	16301.14
818.979	16247.36
819.307	16291.65
819.636	16341.36
819.964	16194.48
820.292	16360.12
820.62	16286.9
820.948	16160.35
821.276	16164.87
821.604	16187.7
821.932	16217.3
822.259	16136.62
822.587	16125.78
822.915	16144.08
823.243	16154.7
823.57	16116.06
823.898	16146.34
824.225	15991.09
824.553	16108.83
824.88	16076.06
825.207	16047.36
825.535	15984.54
825.862	16141.82
826.189	15948.15
826.516	16074.25
826.843	16084.87
827.17	16060.02
827.497	16104.53
827.824	16031.77
828.151	16190.86
828.478	16056.85
828.805	16140.24
829.131	16093.46
829.458	16064.76
829.785	15916.74
830.111	16048.72
830.438	16081.71
830.764	16105.44
831.09	16102.05
831.417	15998.1
831.743	16066.8
832.069	16005.55
832.395	15993.8
832.722	15915.39
833.048	15995.16
833.374	15961.26
833.7	15880.81
834.026	15860.25
834.351	15876.29
834.677	15890.98
835.003	15914.26
835.329	15889.85
835.654	15800.81
835.98	15711.55
836.306	15787.71
836.631	15758.78
836.956	15726.24
837.282	15789.74
837.607	15668.84
837.932	15602.85
838.258	15658.67
838.583	15644.21
838.908	15543.19
839.233	15521.95
839.558	15483.99
839.883	15469.75
840.208	15372.58
840.533	15453.03
840.858	15427.04
841.182	15413.03
841.507	15378.9
841.832	15277.44
842.156	15225.01
842.481	15218.46
842.805	15225.91
843.13	15217.78
843.454	15184.56
843.778	15090.55
844.103	15032.47
844.427	15029.31
844.751	15062.98
845.075	14972.59
845.399	14973.94
845.723	14868.41
846.047	14861.85
846.371	14766.72
846.695	14782.08
847.019	14562.88
847.343	14553.84
847.666	14466.61
847.99	14407.86
848.313	14420.06
848.637	14348.87
848.96	14336.67
849.284	14270.68
849.607	14091.71
849.931	14130.12
850.254	14035.21
850.577	13905.95
850.9	13888.1
851.223	13880.64
851.546	13810.36
851.869	13734.65
852.192	13751.15
852.515	13637.25
852.838	13615.11
853.161	13624.83
853.483	13520.2
853.806	13445.85
854.129	13397.71
854.451	13352.29
854.774	13323.36
855.096	13277.72
855.419	13246.53
855.741	13212.86
856.063	13108.91
856.385	13131.96
856.708	13050.38
857.03	13072.98
857.352	13019.64
857.674	12975.35
857.996	12890.61
858.318	12835.69
858.64	12876.6
858.961	12863.49
859.283	12790.27
859.605	12677.51
859.926	12818.74
860.248	12642.93
860.57	12658.98
860.891	12630.28
861.212	12531.75
861.534	12543.5
861.855	12516.15
862.176	12514.57
862.498	12537.85
862.819	12473.44
863.14	12430.96
863.461	12439.55
863.782	12444.07
864.103	12413.78
864.424	12396.61
864.745	12352.09
865.065	12284.97
865.386	12282.04
865.707	12188.25
866.027	12218.31
866.348	12129.95
866.668	12138.54
866.989	12133.34
867.309	12108.93
867.63	12146.9
867.95	12170.4
868.27	11996.39
868.59	12030.52
868.91	12009.27
869.23	12038.88
869.55	11944.64
869.87	11950.97
870.19	11945.32
870.51	11922.95
870.83	11900.12
871.15	11829.17
871.469	11814.25
871.789	11801.82
872.109	11760.02
872.428	11802.27
872.748	11800.01
873.067	11771.09
873.386	11702.39
873.706	11709.4
874.025	11666.01
874.344	11599.79
874.663	11681.15
874.982	11681.37
875.301	11627.14
875.62	11557.31
875.939	11548.27
876.258	11509.17
876.577	11541.26
876.896	11572.9
877.214	11454.49
877.533	11503.3
877.852	11479.57
878.17	11468.5
878.489	11426.69
878.807	11467.37
879.125	11359.57
879.444	11370.65
879.762	11332.91
880.08	11363.87
880.398	11334.72
880.716	11281.16
881.034	11284.77
881.352	11258.79
881.67	11204.78
881.988	11218.56
882.306	11168.62
882.624	11110.09
882.941	11080.49
883.259	11019.7
883.577	11039.36
883.894	11053.82
884.212	10973.6
884.529	11000.71
884.846	10976.99
885.164	10935.18
885.481	10869.42
885.798	10971.79
886.115	10852.02
886.432	10834.84
886.75	10733.38
887.067	10791.68
887.383	10778.12
887.7	10787.16
888.017	10652.25
888.334	10675.3
888.651	10637.33
888.967	10597.79
889.284	10548.07
889.6	10570.22
889.917	10562.08
890.233	10531.35
890.55	10469.88
890.866	10419.49
891.182	10358.92
891.498	10396.21
891.815	10400.05
892.131	10273.95
892.447	10283.22
892.763	10205.48
893.079	10202.54
893.395	10188.76
893.71	10135.43
894.026	10151.7
894.342	10093.84
894.657	10076.44
894.973	10058.59
895.289	10099.27
895.604	10015.65
895.92	9931.14
896.235	9850.24
896.55	9880.97
896.865	9854.98
897.181	9868.09
897.496	9834.19
897.811	9772.05
898.126	9697.47
898.441	9671.93
898.756	9678.71
899.071	9594.65
899.386	9620.41
899.7	9583.58
900.015	9479.4
900.33	9387.65
900.644	9436.46
900.959	9392.39
901.273	9417.48
901.588	9362.11
901.902	9268.33
902.216	9314.43
902.531	9311.49
902.845	9212.29
903.159	9198.73
903.473	9122.8
903.787	9030.37
904.101	9009.58
904.415	9050.71
904.729	9034.44
905.042	8960.32
905.356	8939.3
905.67	8896.14
905.984	8901.11
906.297	8836.25
906.611	8820.66
906.924	8789.7
907.237	8718.74
907.551	8778.63
907.864	8659.31
908.177	8655.92
908.491	8617.73
908.804	8525.07
909.117	8507.67
909.43	8520.33
909.743	8444.4
910.056	8399.2
910.368	8419.31
910.681	8334.79
910.994	8332.54
911.307	8291.41
911.619	8269.94
911.932	8254.57
912.244	8200.56
912.557	8163.27
912.869	8061.13
913.181	8092.32
913.494	8113.56
913.806	7982.71
914.118	8016.39
914.43	7943.17
914.742	7909.04
915.054	7878.54
915.366	7887.58
915.678	7798.99
915.99	7781.82
916.302	7755.38
916.613	7755.83
916.925	7702.72
917.236	7685.32
917.548	7618.43
917.859	7584.98
918.171	7518.32
918.482	7586.34
918.794	7478.32
919.105	7511.09
919.416	7361.94
919.727	7443.29
920.038	7367.14
920.349	7281.04
920.66	7308.38
920.971	7283.75
921.282	7248.95
921.593	7188.38
921.903	7119.23
922.214	7143.19
922.525	7138.89
922.835	7090.31
923.146	6973.47
923.456	7027.71
923.767	7003.08
924.077	7008.5
924.387	6894.15
924.697	6917.88
925.008	6899.8
925.318	6843.53
925.628	6832.69
925.938	6740.94
926.248	6766.47
926.558	6698.23
926.867	6686.48
927.177	6661.84
927.487	6643.54
927.796	6624.56
928.106	6604.9
928.416	6585.69
928.725	6566.48
929.034	6535.75
929.344	6452.81
929.653	6420.04
929.962	6412.59
930.271	6392.02
930.581	6347.28
930.89	6354.28
931.199	6303.21
931.508	6316.77
931.817	6283.78
932.125	6266.83
932.434	6211.91
932.743	6131.46
933.051	6125.14
933.36	6108.86
933.669	6065.02
933.977	6029.32
934.286	6060.28
934.594	6025.48
934.902	5979.83
935.21	5977.57
935.519	5971.02
935.827	5901.64
936.135	5916.55
936.443	5843.79
936.751	5780.29
937.059	5829.1
937.367	5832.04
937.674	5775.99
937.982	5778.48
938.29	5699.38
938.597	5707.75
938.905	5676.79
939.213	5636.79
939.52	5637.69
939.827	5674.53
940.135	5554.98
940.442	5600.18
940.749	5528.77
941.056	5519.05
941.363	5491.48
941.67	5482.89
941.977	5419.84
942.284	5370.81
942.591	5346.17
942.898	5396.34
943.205	5289.9
943.511	5288.55
943.818	5253.29
944.125	5232.73
944.431	5236.12
944.738	5231.37
945.044	5204.03
945.35	5154.09
945.657	5197.93
945.963	5118.16
946.269	5068.67
946.575	5054.66
946.881	5080.87
947.187	5040.19
947.493	5032.73
947.799	4983.47
948.105	4981.66
948.41	4911.16
948.716	4943.7
949.022	4947.54
949.327	4873.64
949.633	4859.41
949.938	4817.83
950.244	4823.02
950.549	4821.22
950.854	4762.91
951.16	4717.04
951.465	4720.43
951.77	4714.55
952.075	4660.77
952.38	4655.57
952.685	4656.47
952.99	4611.28
953.294	4625.74
953.599	4583.48
953.904	4519.98
954.209	4544.16
954.513	4512.07
954.818	4531.51
955.122	4472.07
955.426	4453.09
955.731	4407.67
956.035	4439.98
956.339	4394.11
956.643	4424.62
956.948	4376.71
957.252	4348.01
957.556	4356.14
957.86	4380.55
958.163	4317.5
958.467	4299.42
958.771	4279.31
959.075	4257.16
959.378	4251.29
959.682	4283.83
959.985	4197.73
960.289	4173.55
960.592	4173.32
960.896	4146.88
961.199	4162.93
961.502	4108.01
961.805	4090.84
962.108	4055.59
962.411	4035.02
962.714	3978.53
963.017	4018.52
963.32	4004.97
963.623	3979.88
963.926	3985.3
964.228	3974.68
964.531	3920.9
964.833	3914.12
965.136	3900.11
965.438	3882.26
965.741	3808.81
966.043	3793.9
966.345	3807.68
966.648	3827.34
966.95	3824.41
967.252	3797.51
967.554	3742.37
967.856	3724.75
968.158	3723.84
968.46	3721.36
968.761	3713
969.063	3654.24
969.365	3691.3
969.666	3648.14
969.968	3590.96
970.269	3579.89
970.571	3595.94
970.872	3546.45
971.174	3557.52
971.475	3547.12
971.776	3537.86
972.077	3466.22
972.378	3499.44
972.679	3515.71
972.98	3461.93
973.281	3448.37
973.582	3463.06
973.883	3423.74
974.183	3432.55
974.484	3376.73
974.785	3384.64
975.085	3364.08
975.386	3351.2
975.686	3284.76
975.986	3294.93
976.287	3309.84
976.587	3228.71
976.887	3277.75
977.187	3254.7
977.487	3245.21
977.787	3233.46
978.087	3180.81
978.387	3183.97
978.687	3195.72
978.987	3163.41
979.286	3143.29
979.586	3162.95
979.885	3115.27
980.185	3100.13
980.484	3061.71
980.784	3091.32
981.083	3063.3
981.382	3083.41
981.682	3078.44
981.981	3018.32
982.28	3036.18
982.579	3009.06
982.878	3030.08
983.177	2957.08
983.475	2951.21
983.774	2951.66
984.073	2928.38
984.372	2937.2
984.67	2878.22
984.969	2880.93
985.267	2879.57
985.566	2882.28
985.864	2851.32
986.162	2828.05
986.461	2832.57
986.759	2829.85
987.057	2788.5
987.355	2806.13
987.653	2796.41
987.951	2750.99
988.249	2760.7
988.547	2798.67
988.844	2749.41
989.142	2715.51
989.44	2684.55
989.737	2727.03
990.035	2682.74
990.332	2646.36
990.63	2640.93
990.927	2614.04
991.224	2662.18
991.521	2624.44
991.819	2602.06
992.116	2600.93
992.413	2548.73
992.71	2560.26
993.006	2539.47
993.303	2558.22
993.6	2563.65
993.897	2542.86
994.193	2525.91
994.49	2507.38
994.787	2508.51
995.083	2474.38
995.379	2480.03
995.676	2467.15
995.972	2459.7
996.268	2449.3
996.565	2397.32
996.861	2410.88
997.157	2417.21
997.453	2388.06
997.749	2385.8
998.044	2368.85
998.34	2312.81
998.636	2337.66
998.932	2326.37
999.227	2317.33
999.523	2327.95
999.818	2298.57
1000.114	2260.83
1000.409	2275.29
1000.704	2254.95
1001	2233.71
1001.295	2224
1001.59	2224.9
1001.885	2224.67
1002.18	2179.48
1002.475	2185.8
1002.77	2143.55
1003.065	2106.26
1003.359	2125.92
1003.654	2139.03
1003.949	2133.38
1004.243	2118.01
1004.538	2081.17
1004.832	2071.91
1005.127	2061.97
1005.421	2098.8
1005.715	2051.34
1006.009	2054.73
1006.304	2032.59
1006.598	2026.94
1006.892	2002.31
1007.186	1976.54
1007.48	1984.91
1007.773	1953.95
1008.067	1959.37
1008.361	1964.57
1008.655	1944.45
1008.948	1919.6
1009.242	1915.98
1009.535	1889.99
1009.829	1916.43
1010.122	1855.64
1010.415	1909.88
1010.708	1861.29
1011.001	1881.41
1011.295	1844.8
1011.588	1837.11
1011.881	1811.8
1012.173	1812.03
1012.466	1797.79
1012.759	1778.58
1013.052	1805.02
1013.344	1758.02
1013.637	1758.47
1013.93	1743.56
1014.222	1731.8
1014.514	1711.01
1014.807	1715.53
1015.099	1679.38
1015.391	1688.42
1015.683	1683.67
1015.976	1668.3
1016.268	1672.6
1016.56	1663.33
1016.851	1621.98
1017.143	1598.47
1017.435	1618.36
1017.727	1593.5
1018.018	1598.25
1018.31	1574.07
1018.602	1554.41
1018.893	1584.46
1019.185	1575.2
1019.476	1545.82
1019.767	1563.67
1020.058	1548.08
1020.35	1549.66
1020.641	1521.19
1020.932	1508.08
1021.223	1463.34
1021.514	1495.43
1021.804	1474.64
1022.095	1473.05
1022.386	1470.79
1022.677	1438.03
1022.967	1438.93
1023.258	1408.42
1023.548	1424.47
1023.839	1399.84
1024.129	1380.63
1024.419	1395.32
1024.709	1371.59
1025	1376.79
1025.29	1370.91
1025.58	1364.13
1025.87	1348.99
1026.16	1339.05
1026.449	1360.74
1026.739	1327.07
1027.029	1316
1027.319	1284.13
1027.608	1298.37
1027.898	1306.96
1028.187	1266.73
1028.477	1246.62
1028.766	1261.99
1029.055	1229.67
1029.344	1236.22
1029.634	1236.45
1029.923	1209.78
1030.212	1185.6
1030.501	1200.07
1030.79	1208.65
1031.078	1186.96
1031.367	1172.05
1031.656	1175.89
1031.945	1162.55
1032.233	1177.92
1032.522	1186.06
1032.81	1159.39
1033.099	1163.46
1033.387	1122.1
1033.675	1103.35
1033.963	1097.02
1034.251	1118.49
1034.54	1097.47
1034.828	1106.51
1035.116	1087.08
1035.403	1052.95
1035.691	1062.44
1035.979	1070.35
1036.267	1052.95
1036.554	1071.94
1036.842	1053.63
1037.129	1062.22
1037.417	1047.98
1037.704	993.75
1037.992	1018.38
1038.279	1026.29
1038.566	992.84
1038.853	992.84
1039.14	992.84
