Data from hue_00_FLMS001491_64.txt Node
Date: Mon Feb 06 15:30:03 GMT 2017
User: dcchb
Spectrometer: FLMS00149
Trigger mode: 0
Integration Time (sec): 2.000000E-2
Scans to average: 10
Electric dark correction enabled: true
Nonlinearity correction enabled: false
Boxcar width: 0
XAxis mode: Wavelengths
Number of Pixels in Spectrum: 2048
>>>>>Begin Spectral Data<<<<<
341.393	-2.33
341.776	-2.33
342.16	-2.33
342.543	-75.32
342.927	-52.72
343.31	-52.72
343.693	-66.74
344.077	-74.42
344.46	-64.7
344.843	-52.27
345.226	-35.55
345.61	-15.89
345.993	-22.89
346.376	-1.88
346.759	12.81
347.142	17.56
347.525	22.3
347.908	55.52
348.291	76.76
348.674	84.45
349.057	117.67
349.44	108.18
349.823	124.45
350.206	148.17
350.588	187.5
350.971	196.99
351.354	225.01
351.737	229.08
352.119	258.68
352.502	262.3
352.884	268.4
353.267	272.69
353.65	283.54
354.032	304.78
354.414	295.29
354.797	310.88
355.179	312.24
355.562	334.38
355.944	326.25
356.326	335.29
356.709	330.54
357.091	323.99
357.473	321.73
357.855	335.29
358.238	333.48
358.62	337.55
359.002	341.62
359.384	321.73
359.766	307.49
360.148	344.1
360.53	341.62
360.912	328.96
361.294	332.35
361.676	325.12
362.057	324.67
362.439	337.1
362.821	316.98
363.203	320.37
363.584	332.58
363.966	320.37
364.348	327.38
364.729	329.19
365.111	302.29
365.493	307.04
365.874	308.4
366.256	304.55
366.637	295.29
367.019	329.19
367.4	320.6
367.781	311.11
368.163	304.55
368.544	293.71
368.925	315.18
369.306	330.77
369.688	309.3
370.069	302.75
370.45	323.99
370.831	311.33
371.212	312.46
371.593	311.33
371.974	293.48
372.355	305.01
372.736	330.77
373.117	314.95
373.498	322.86
373.879	305.68
374.26	316.98
374.641	325.12
375.021	312.92
375.402	321.95
375.783	315.4
376.163	311.56
376.544	324.44
376.925	299.13
377.305	340.03
377.686	324.21
378.066	315.85
378.447	321.73
378.827	326.93
379.208	322.18
379.588	321.28
379.968	325.12
380.349	299.13
380.729	325.8
381.109	327.83
381.489	328.51
381.87	317.66
382.25	351.56
382.63	330.77
383.01	349.07
383.39	346.36
383.77	336.87
384.15	328.96
384.53	322.41
384.91	346.59
385.29	340.49
385.67	346.36
386.049	355.63
386.429	334.16
386.809	333.03
387.189	350.88
387.568	348.62
387.948	341.84
388.328	338.68
388.707	339.13
389.087	345.01
389.466	354.95
389.846	369.86
390.225	370.32
390.605	338.9
390.984	349.07
391.363	343.88
391.743	357.89
392.122	346.59
392.501	361.05
392.881	360.37
393.26	366.02
393.639	350.2
394.018	361.73
394.397	372.57
394.776	356.76
395.155	370.09
395.534	369.19
395.913	368.51
396.292	377.32
396.671	369.86
397.05	370.77
397.429	362.63
397.808	361.28
398.186	353.14
398.565	371.67
398.944	383.2
399.323	382.52
399.701	397.66
400.08	398.34
400.458	378.22
400.837	398.34
401.215	395.85
401.594	388.85
401.972	370.32
402.351	382.52
402.729	397.21
403.107	373.7
403.486	383.65
403.864	393.14
404.242	390.2
404.62	411.44
404.999	391.33
405.377	422.74
405.755	392.69
406.133	411.44
406.511	402.4
406.889	412.35
407.267	395.85
407.645	408.73
408.023	425.23
408.401	436.98
408.779	424.33
409.156	431.56
409.534	422.97
409.912	423.42
410.29	418.68
410.667	436.53
411.045	434.27
411.422	420.71
411.8	434.72
412.178	440.82
412.555	448.28
412.933	445.57
413.31	457.09
413.687	457.54
414.065	451.89
414.442	481.72
414.819	463.87
415.197	460.93
415.574	455.06
415.951	480.14
416.328	484.89
416.705	481.05
417.082	455.06
417.46	498.67
417.837	502.29
418.214	474.72
418.591	475.85
418.967	487.37
419.344	486.02
419.721	474.95
420.098	483.76
420.475	534.15
420.852	506.81
421.228	523.53
421.605	512.23
421.982	518.33
422.358	512.68
422.735	524.66
423.111	516.3
423.488	513.59
423.864	512.23
424.241	537.99
424.617	513.59
424.994	544.55
425.37	541.84
425.746	539.12
426.123	534.38
426.499	543.64
426.875	535.06
427.251	546.13
427.627	550.2
428.003	580.03
428.379	575.51
428.756	583.42
429.132	567.6
429.507	569.63
429.883	575.73
430.259	577.09
430.635	585
431.011	592.91
431.387	581.16
431.763	612.57
432.138	607.37
432.514	641.95
432.89	635.62
433.265	616.41
433.641	648.95
434.016	634.49
434.392	627.71
434.767	647.37
435.143	629.74
435.518	652.79
435.894	662.51
436.269	665.67
436.644	666.35
437.02	672
437.395	666.58
437.77	695.73
438.145	683.53
438.52	694.37
438.895	692.57
439.271	674.94
439.646	701.15
440.021	725.11
440.395	724.66
440.77	702.74
441.145	714.71
441.52	714.71
441.895	731.21
442.27	714.94
442.645	732.79
443.019	742.06
443.394	744.32
443.769	766.01
444.143	756.52
444.518	747.48
444.892	746.35
445.267	736.41
445.641	753.58
446.016	770.3
446.39	773.24
446.764	775.95
447.139	760.36
447.513	759.91
447.887	788.38
448.262	802.85
448.636	803.75
449.01	827.03
449.384	769.4
449.758	807.82
450.132	795.61
450.506	785.9
450.88	821.38
451.254	810.08
451.628	823.64
452.002	825.22
452.376	824.99
452.75	814.15
453.123	827.48
453.497	873.13
453.871	849.62
454.244	872.9
454.618	850.53
454.992	894.37
455.365	905.89
455.739	892.56
456.112	871.77
456.486	893.69
456.859	926.23
457.232	905.22
457.606	918.1
457.979	917.19
458.352	960.81
458.725	950.41
459.099	979.56
459.472	970.07
459.845	981.6
460.218	989.73
460.591	987.25
460.964	993.58
461.337	996.29
461.71	1043.07
462.083	1069.28
462.456	1004.65
462.829	1047.36
463.201	1086.68
463.574	1066.34
463.947	1085.78
464.32	1104.31
464.692	1107.47
465.065	1121.26
465.438	1140.92
465.81	1140.92
466.183	1158.54
466.555	1186.11
466.928	1193.12
467.3	1170.75
467.672	1191.31
468.045	1205.1
468.417	1235.15
468.789	1254.81
469.161	1249.61
469.534	1280.35
469.906	1311.99
470.278	1286.22
470.65	1316.05
471.022	1355.83
471.394	1357.63
471.766	1319.67
472.138	1374.58
472.51	1401.25
472.882	1416.16
473.253	1439.89
473.625	1466.78
473.997	1509.27
474.369	1504.07
474.74	1518.31
475.112	1535.26
475.484	1579.77
475.855	1618.87
476.227	1617.51
476.598	1629.27
476.97	1688.02
477.341	1725.53
477.713	1748.36
478.084	1758.53
478.455	1777.74
478.827	1785.42
479.198	1834.68
479.569	1884.85
479.94	1911.07
480.311	1916.72
480.682	1974.57
481.053	2024.28
481.424	2028.8
481.795	2066.54
482.166	2111.29
482.537	2140.66
482.908	2159.65
483.279	2186.54
483.65	2243.49
484.021	2298.63
484.391	2310.6
484.762	2333.88
485.133	2380.21
485.503	2423.59
485.874	2449.58
486.244	2509.47
486.615	2516.93
486.985	2561.9
487.356	2587.88
487.726	2626.08
488.097	2667.66
488.467	2670.14
488.837	2743.36
489.207	2790.82
489.578	2850.7
489.948	2863.58
490.318	2902.9
490.688	2946.29
491.058	2982.68
491.428	3041.21
491.798	3067.87
492.168	3151.03
492.538	3110.81
492.908	3152.16
493.278	3202.56
493.648	3184.25
494.017	3275.1
494.387	3294.53
494.757	3340.41
495.126	3356.68
495.496	3358.94
495.866	3408.2
496.235	3445.49
496.605	3486.62
496.974	3508.99
497.344	3543.79
497.713	3546.5
498.082	3568.88
498.452	3648.87
498.821	3627.4
499.19	3648.2
499.559	3664.24
499.928	3694.97
500.298	3722.32
500.667	3790.34
501.036	3754.41
501.405	3802.99
501.774	3757.57
502.143	3820.62
502.512	3851.58
502.88	3863.78
503.249	3879.6
503.618	3930.67
503.987	3896.55
504.356	3951.46
504.724	3954.18
505.093	3985.14
505.462	4005.7
505.83	4020.16
506.199	4067.17
506.567	4085.7
506.936	4066.04
507.304	4130.44
507.672	4135.64
508.041	4192.81
508.409	4188.97
508.777	4184
509.145	4214.51
509.514	4233.04
509.882	4243.43
510.25	4221.74
510.618	4268.74
510.986	4310.55
511.354	4326.14
511.722	4376.09
512.09	4368.18
512.458	4365.24
512.826	4411.34
513.193	4401.4
513.561	4449.76
513.929	4451.56
514.297	4493.82
514.664	4517.1
515.032	4513.26
515.4	4572.24
515.767	4519.58
516.135	4552.13
516.502	4545.35
516.869	4579.92
517.237	4621.5
517.604	4604.1
517.972	4636.64
518.339	4643.2
518.706	4692.91
519.073	4643.88
519.44	4692.46
519.808	4773.59
520.175	4676.42
520.542	4754.61
520.909	4790.09
521.276	4779.01
521.643	4815.85
522.009	4840.25
522.376	4856.75
522.743	4881.83
523.11	4910.08
523.477	4960.25
523.843	4979.23
524.21	4993.02
524.577	5062.4
524.943	5026.24
525.31	5093.13
525.676	5103.3
526.043	5081.83
526.409	5125.44
526.776	5154.14
527.142	5182.39
527.508	5190.53
527.874	5199.79
528.241	5262.84
528.607	5223.75
528.973	5328.15
529.339	5328.83
529.705	5414.02
530.071	5342.39
530.437	5389.39
530.803	5428.26
531.169	5451.09
531.535	5440.01
531.901	5535.6
532.267	5502.61
532.632	5564.75
532.998	5563.4
533.364	5572.21
533.73	5670.74
534.095	5665.54
534.461	5676.62
534.826	5686.56
535.192	5678.88
535.557	5783.96
535.923	5718.88
536.288	5788.03
536.653	5789.61
537.019	5797.07
537.384	5833.22
537.749	5862.6
538.114	5854.24
538.479	5925.88
538.845	5957.29
539.21	5945.99
539.575	5940.34
539.94	6013.78
540.305	6080
540.67	6059.21
541.034	6049.94
541.399	6117.06
541.764	6097.85
542.129	6141.91
542.494	6127
542.858	6191.18
543.223	6200.44
543.587	6270.95
543.952	6247.45
544.316	6298.97
544.681	6310.72
545.045	6322.25
545.41	6318.63
545.774	6415.58
546.138	6354.56
546.503	6454.67
546.867	6417.39
547.231	6446.09
547.595	6403.15
547.959	6521.11
548.324	6528.12
548.688	6554.56
549.052	6568.12
549.416	6626.42
549.779	6637.95
550.143	6600.89
550.507	6661.68
550.871	6706.65
551.235	6702.58
551.599	6750.03
551.962	6745.06
552.326	6734.89
552.689	6839.75
553.053	6771.73
553.417	6832.74
553.78	6897.6
554.143	6896.47
554.507	6934.21
554.87	6923.82
555.234	7018.05
555.597	6964.49
555.96	7028.9
556.323	7037.48
556.686	7034.55
557.05	7060.76
557.413	7068.67
557.776	7103.92
558.139	7121.55
558.502	7159.29
558.865	7154.77
559.228	7187.31
559.59	7243.13
559.953	7255.56
560.316	7282.45
560.679	7310.47
561.041	7309.79
561.404	7311.38
561.767	7355.89
562.129	7416.01
562.492	7440.19
562.854	7450.35
563.217	7421.43
563.579	7445.38
563.941	7473.18
564.304	7537.13
564.666	7583.23
565.028	7568.09
565.39	7653.29
565.753	7593.4
566.115	7716.79
566.477	7686.05
566.839	7785.49
567.201	7749.33
567.563	7808.99
567.925	7774.87
568.287	7801.76
568.648	7877.46
569.01	7908.65
569.372	7952.49
569.734	7977.12
570.095	8011.24
570.457	8015.31
570.819	8083.56
571.18	8103.9
571.542	8110.9
571.903	8166.04
572.265	8223.67
572.626	8246.27
572.987	8286.49
573.349	8301.86
573.71	8392.03
574.071	8409.43
574.432	8474.73
574.794	8561.74
575.155	8618.23
575.516	8584.79
575.877	8637.89
576.238	8707.27
576.599	8825.46
576.96	8887.15
577.32	8908.62
577.681	8996.75
578.042	9114.04
578.403	9132.57
578.763	9204.66
579.124	9343.64
579.485	9484.43
579.845	9510.19
580.206	9659.11
580.566	9748.83
580.927	9795.83
581.287	10002.15
581.648	10059.78
582.008	10236.27
582.368	10321.47
582.728	10477.85
583.089	10511.52
583.449	10701.12
583.809	10898.17
584.169	11098.62
584.529	11215
584.889	11440.08
585.249	11546.74
585.609	11681.2
585.969	11920.75
586.329	12141.53
586.688	12278.7
587.048	12539.49
587.408	12687.05
587.768	12951.23
588.127	13104.9
588.487	13337.66
588.846	13625.11
589.206	13725.44
589.565	14073.01
589.925	14262.15
590.284	14633.22
590.643	14772.65
591.003	15093.09
591.362	15366.53
591.721	15561.33
592.08	15878.16
592.44	16136.23
592.799	16364.47
593.158	16565.82
593.517	16986.6
593.876	17225.24
594.235	17408.96
594.593	17627.71
594.952	18031.32
595.311	18318.32
595.67	18608.03
596.029	18915.36
596.387	19137.05
596.746	19528.68
597.104	19589.7
597.463	19904.26
597.822	20237.59
598.18	20574.3
598.538	20812.72
598.897	21213.83
599.255	21249.09
599.613	21820.15
599.972	21944.89
600.33	22270.76
600.688	22442.05
601.046	22874.81
601.404	23231.86
601.762	23455.58
602.12	23737.61
602.478	23877.27
602.836	24182.8
603.194	24249.46
603.552	24648.55
603.91	24761.99
604.268	25158.59
604.625	25410.56
604.983	25639.71
605.341	25820.27
605.698	26110.88
606.056	26362.63
606.413	26637.65
606.771	26955.83
607.128	27090.06
607.485	27341.36
607.843	27591.52
608.2	27742.93
608.557	28158.06
608.914	28241.9
609.272	28520.76
609.629	28661.77
609.986	29066.96
610.343	28971.6
610.7	29499.94
611.057	29464.92
611.414	29697.68
611.771	29887.96
612.127	30118.01
612.484	30377.21
612.841	30600.03
613.198	30557.54
613.554	30683.87
613.911	31152.1
614.267	31291.31
614.624	31337.41
614.98	31583.28
615.337	31833.89
615.693	31914.57
616.05	31943.04
616.406	32343.26
616.762	32265.97
617.118	32539.86
617.475	32701.44
617.831	32889.01
618.187	33106.86
618.543	33258.26
618.899	33409.22
619.255	33435.89
619.611	33543.91
619.967	33681.98
620.323	33839.49
620.678	33788.42
621.034	33782.09
621.39	33952.93
621.746	33998.58
622.101	34474.5
622.457	34323.77
622.812	34433.6
623.168	34626.82
623.523	34479.25
623.879	34709.75
624.234	34648.28
624.589	34920.59
624.945	35013.25
625.3	35055.28
625.655	35085.56
626.01	35400.58
626.365	35336.18
626.72	35253.47
627.075	35352.45
627.43	35408.94
627.785	35447.58
628.14	35689.61
628.495	35700.91
628.85	35705.66
629.205	35556.73
629.559	35803.51
629.914	35754.7
630.269	35826.78
630.623	35870.17
630.978	35698.65
631.332	35925.09
631.687	35976.16
632.041	35980
632.396	36092.54
632.75	35932.09
633.104	36031.07
633.459	35866.33
633.813	35876.73
634.167	35975.93
634.521	36109.71
634.875	36061.81
635.229	36034.46
635.583	35846.67
635.937	35894.8
636.291	35983.39
636.645	36119.88
636.999	35976.16
637.352	36132.09
637.706	35890.06
638.06	36045.54
638.413	36063.61
638.767	36062.48
639.121	36018.42
639.474	35815.03
639.828	35991.75
640.181	35973.67
640.534	36081.24
640.888	35948.14
641.241	35845.31
641.594	35925.31
641.947	35929.15
642.301	35763.96
642.654	35940.23
643.007	35813.68
643.36	35810.29
643.713	35893.22
644.066	35941.81
644.419	35702.04
644.771	35629.5
645.124	35180.25
645.477	35158.78
645.83	35039.91
646.182	34858.22
646.535	34838.34
646.888	34872.46
647.24	34758.56
647.593	34906.58
647.945	34846.24
648.298	34740.48
648.65	34634.95
649.002	34555.18
649.355	34617.1
649.707	34690.77
650.059	34843.53
650.411	35154.03
650.763	35231.09
651.115	35457.08
651.467	35417.53
651.819	35385.21
652.171	35501.82
652.523	35338.21
652.875	35288.27
653.227	35097.54
653.578	35467.47
653.93	35412.78
654.282	35285.1
654.633	35075.17
654.985	35154.71
655.337	35227.25
655.688	35333.01
656.039	35348.38
656.391	35112.45
656.742	35149.51
657.094	35190.19
657.445	35292.56
657.796	35214.14
658.147	35112
658.498	35162.85
658.849	35155.62
659.2	35161.26
659.551	35074.49
659.902	35179.8
660.253	35081.04
660.604	35135.28
660.955	34957.65
661.306	35324.42
661.656	35055.73
662.007	35040.59
662.358	35144.54
662.708	34974.15
663.059	35036.97
663.409	34877.2
663.76	35152
664.11	34863.87
664.461	35167.59
664.811	34994.04
665.161	35012.34
665.511	34905.45
665.862	35055.96
666.212	34997.2
666.562	35067.03
666.912	34956.07
667.262	34982.96
667.612	35039.01
667.962	35055.28
668.312	34818.9
668.662	35109.51
669.011	34961.72
669.361	34978.67
669.711	34869.52
670.06	34959.24
670.41	34772.35
670.76	34749.52
671.109	35047.14
671.459	34892.57
671.808	34716.08
672.157	34863.65
672.507	34531.45
672.856	34649.87
673.205	34633.37
673.554	34730.09
673.904	34663.88
674.253	34723.99
674.602	34740.03
674.951	34178.92
675.3	34107.73
675.649	34657.55
675.998	34571
676.346	34654.61
676.695	34770.31
677.044	34477.67
677.393	34638.79
677.741	34627.27
678.09	34522.41
678.438	34471.34
678.787	34489.42
679.135	34471.57
679.484	34299.37
679.832	34399.25
680.181	34183.66
680.529	34282.42
680.877	34288.29
681.225	34125.59
681.573	34285.36
681.922	34163.55
682.27	33966.27
682.618	33933.27
682.966	33834.07
683.314	34077.23
683.661	33809.21
684.009	33748.42
684.357	33547.97
684.705	33526.73
685.053	33698.25
685.4	33549.33
685.748	33504.36
686.095	33394.31
686.443	33387.75
686.79	33304.36
687.138	33395.66
687.485	33229.79
687.832	33099.85
688.18	33289.45
688.527	33047.65
688.874	33086.52
689.221	33090.58
689.568	32882
689.915	32924.71
690.262	32854.43
690.609	32805.17
690.956	32650.82
691.303	32719.97
691.65	32462.35
691.997	32445.4
692.344	32286.76
692.69	32275.46
693.037	32363.15
693.383	32003.16
693.73	32168.12
694.077	32028.92
694.423	32000.44
694.769	31821.24
695.116	31811.52
695.462	31774.46
695.808	31697.85
696.155	31686.55
696.501	31438.2
696.847	31396.84
697.193	31342.38
697.539	31342.61
697.885	31130.41
698.231	30998.66
698.577	31024.42
698.923	31027.36
699.269	30836.18
699.614	30753.47
699.96	30562.74
700.306	30748.95
700.651	30480.26
700.997	30408.17
701.342	30382.86
701.688	30421.73
702.033	30200.04
702.379	30095.86
702.724	30170.66
703.069	30162.07
703.415	29825.81
703.76	29825.13
704.105	29961.85
704.45	29802.76
704.795	29590.11
705.14	29507.85
705.485	29511.02
705.83	29470.79
706.175	29411.36
706.52	29319.61
706.865	29234.41
707.209	29078.94
707.554	29149.67
707.899	29230.57
708.243	29012.05
708.588	28918.27
708.932	28830.58
709.277	28769.34
709.621	28785.16
709.966	28606.86
710.31	28773.86
710.654	28343.36
710.998	28422.68
711.342	28388.34
711.687	28307.21
712.031	28218.17
712.375	28053.66
712.719	28244.61
713.063	28097.27
713.407	28207.32
713.75	28016.37
714.094	27967.1
714.438	27925.3
714.782	27977.05
715.125	27746.77
715.469	27791.29
715.812	27547.91
716.156	27515.36
716.499	27547.91
716.843	27673.55
717.186	27452.31
717.53	27474.24
717.873	27570.96
718.216	27482.14
718.559	27332.09
718.902	27218.87
719.246	27237.86
719.589	27152.66
719.932	27074.92
720.275	27092.55
720.617	27051.87
720.96	26935.94
721.303	26936.85
721.646	27006.9
721.989	26827.02
722.331	26864.99
722.674	26807.81
723.016	26873.8
723.359	26740.92
723.701	26747.93
724.044	26625.22
724.386	26506.13
724.729	26606.24
725.071	26432
725.413	26411.21
725.755	26322.63
726.097	26335.96
726.439	26254.83
726.782	26351.33
727.124	26340.25
727.465	26145.23
727.807	26163.31
728.149	26127.83
728.491	25965.8
728.833	26072.01
729.175	25908.85
729.516	25845.35
729.858	25970.09
730.199	25951.79
730.541	25865.92
730.882	25794.05
731.224	25822.98
731.565	25614.4
731.906	25595.19
732.248	25705.47
732.589	25598.8
732.93	25461.63
733.271	25515.19
733.612	25535.53
733.953	25458.47
734.294	25427.96
734.635	25490.33
734.976	25417.57
735.317	25217.57
735.658	25247.85
735.999	25273.16
736.339	25235.65
736.68	25199.72
737.021	25086.28
737.361	25073.62
737.702	25177.8
738.042	25021.19
738.383	25035.66
738.723	25079.72
739.063	24893.74
739.404	25013.28
739.744	24770.13
740.084	24747.3
740.424	24865.72
740.764	24723.57
741.104	24798.6
741.444	24722.67
741.784	24671.6
742.124	24603.8
742.464	24617.14
742.804	24462.11
743.143	24537.59
743.483	24552.96
743.823	24474.09
744.162	24481.09
744.502	24450.81
744.841	24313.41
745.181	24442.68
745.52	24317.71
745.86	24375.11
746.199	24251.72
746.538	24142.35
746.877	24239.74
747.216	24249.91
747.556	24075
747.895	24142.57
748.234	24009.47
748.573	23920.66
748.911	23937.83
749.25	23857.61
749.589	23855.35
749.928	23777.38
750.267	23840.21
750.605	23837.95
750.944	23673.66
751.283	23611.06
751.621	23775.35
751.96	23560.21
752.298	23507.11
752.636	23526.77
752.975	23442.93
753.313	23329.49
753.651	23430.73
753.989	23338.3
754.327	23352.08
754.666	23126.33
755.004	23345.08
755.342	23190.96
755.679	23221.69
756.017	23049.27
756.355	23198.19
756.693	22917.97
757.031	22994.58
757.368	22816.73
757.706	22779.44
758.044	22715.26
758.381	22720.69
758.719	22679.79
759.056	22708.94
759.394	22601.59
759.731	22462.39
760.068	22458.77
760.405	22378.55
760.743	22334.48
761.08	22330.64
761.417	22276.41
761.754	22141.04
762.091	22166.58
762.428	22006.36
762.765	21872.8
763.102	22031.67
763.438	21853.37
763.775	21708.51
764.112	21780.83
764.449	21778.57
764.785	21718.45
765.122	21514.39
765.458	21424.22
765.795	21475.97
766.131	21395.07
766.467	21267.39
766.804	21180.39
767.14	21134.97
767.476	21086.83
767.812	20951.24
768.148	21045.03
768.485	20962.09
768.821	20750.34
769.157	20799.61
769.492	20729.55
769.828	20645.26
770.164	20531.37
770.5	20462.22
770.836	20480.29
771.171	20316.23
771.507	20266.29
771.842	20139.06
772.178	20110.36
772.513	20118.72
772.849	19932.29
773.184	19883.7
773.519	19997.37
773.855	19766.87
774.19	19737.49
774.525	19487.78
774.86	19675.34
775.195	19523.26
775.53	19488.91
775.865	19387.67
776.2	19292.53
776.535	19175.7
776.87	19189.03
777.205	19089.14
777.539	18978.87
777.874	19033.1
778.209	18944.29
778.543	18937.06
778.878	18720.79
779.212	18794.69
779.547	18661.13
779.881	18678.76
780.215	18614.13
780.55	18509.27
780.884	18385.89
781.218	18302.5
781.552	18334.81
781.886	18228.6
782.22	18195.16
782.554	18107.7
782.888	17912.23
783.222	17818.22
783.556	17843.08
783.889	17747.03
784.223	17613.03
784.557	17667.49
784.89	17622.97
785.224	17546.81
785.557	17373.94
785.891	17333.71
786.224	17391.79
786.558	17362.41
786.891	17210.78
787.224	17048.75
787.557	17092.36
787.891	17079.93
788.224	17013.04
788.557	17022.76
788.89	16852.14
789.223	16889.2
789.556	16732.6
789.888	16728.98
790.221	16635.2
790.554	16552.94
790.887	16492.15
791.219	16399.5
791.552	16467.97
791.884	16421.19
792.217	16390.01
792.549	16275.21
792.882	16218.26
793.214	16133.97
793.546	16140.3
793.879	15939.85
794.211	15905.73
794.543	15918.83
794.875	15788.89
795.207	15857.59
795.539	15756.13
795.871	15744.83
796.203	15599.29
796.535	15492.18
796.867	15488.56
797.198	15481.1
797.53	15477.71
797.862	15389.81
798.193	15460.09
798.525	15175.12
798.856	15283.82
799.188	15114.79
799.519	15122.92
799.85	15033.21
800.182	15076.82
800.513	15013.32
800.844	14820.33
801.175	14929.93
801.506	14910.95
801.837	14844.51
802.168	14837.73
802.499	14737.62
802.83	14657.4
803.161	14630.51
803.491	14685.19
803.822	14607.23
804.153	14616.72
804.483	14419.44
804.814	14315.26
805.145	14375.14
805.475	14402.26
805.805	14223.74
806.136	14262.15
806.466	14279.55
806.796	14179.9
807.126	14088.15
807.457	14116.85
807.787	14075.04
808.117	13931.99
808.447	13940.58
808.777	13936.74
809.107	13890.64
809.436	13840.7
809.766	13764.54
810.096	13866.46
810.426	13685.9
810.755	13800.47
811.085	13640.02
811.414	13703.98
811.744	13561.83
812.073	13498.56
812.403	13590.53
812.732	13402.74
813.061	13489.29
813.39	13435.73
813.719	13404.32
814.049	13431.21
814.378	13431.67
814.707	13305.57
815.036	13236.87
815.365	13200.49
815.693	13113.48
816.022	13072.35
816.351	13041.39
816.68	12961.17
817.008	13070.55
817.337	12951.91
817.665	12960.49
817.994	12935.18
818.322	12889.31
818.651	12896.09
818.979	12868.97
819.307	12955.75
819.636	12801.63
819.964	12634.4
820.292	12744.91
820.62	12784.68
820.948	12706.49
821.276	12738.13
821.604	12686.38
821.932	12777.45
822.259	12774.51
822.587	12661.29
822.915	12616.77
823.243	12727.5
823.57	12589.2
823.898	12668.75
824.225	12590.11
824.553	12620.84
824.88	12687.05
825.207	12678.92
825.535	12682.08
825.862	12642.31
826.189	12665.36
826.516	12596.89
826.843	12702.65
827.17	12709.88
827.497	12664
827.824	12646.38
828.151	12657.22
828.478	12637.11
828.805	12677.56
829.131	12537.68
829.458	12621.52
829.785	12558.7
830.111	12593.95
830.438	12685.02
830.764	12614.29
831.09	12664.68
831.417	12519.15
831.743	12523.22
832.069	12570.45
832.395	12524.35
832.722	12555.98
833.048	12486.15
833.374	12515.08
833.7	12400.51
834.026	12475.99
834.351	12541.97
834.677	12441.18
835.003	12445.25
835.329	12441.18
835.654	12424.91
835.98	12316.67
836.306	12306.05
836.631	12308.76
836.956	12358.25
837.282	12322.77
837.607	12334.52
837.932	12290
838.258	12362.99
838.583	12259.72
838.908	12137.92
839.233	12175.43
839.558	12157.35
839.883	12117.58
840.208	12074.19
840.533	12043.91
840.858	12103.79
841.182	12021.31
841.507	12027.18
841.832	12038.26
842.156	11915.32
842.481	11923.46
842.805	11938.37
843.13	11887.53
843.454	11859.73
843.778	11849.34
844.103	11904.48
844.427	11847.53
844.751	11755.78
845.075	11699.73
845.399	11733.63
845.723	11607.31
846.047	11674.65
846.371	11557.82
846.695	11534.09
847.019	11500.42
847.343	11431.27
847.666	11392.4
847.99	11294.1
848.313	11301.55
848.637	11292.97
848.96	11282.12
849.284	11199.18
849.607	11132.29
849.931	11155.12
850.254	11041.45
850.577	10991.5
850.9	10888.91
851.223	10902.24
851.546	10847.78
851.869	10805.75
852.192	10809.81
852.515	10759.19
852.838	10687.56
853.161	10586.32
853.483	10532.31
853.806	10570.72
854.129	10577.73
854.451	10521.01
854.774	10435.36
855.096	10377.96
855.419	10370.05
855.741	10380.45
856.063	10327.79
856.385	10249.15
856.708	10271.3
857.03	10175.71
857.352	10237.17
857.674	10215.71
857.996	10161.7
858.318	10136.84
858.64	10126.89
858.961	10086.22
859.283	10079.66
859.605	10008.93
859.926	10011.42
860.248	9873.12
860.57	9933.45
860.891	9866.34
861.212	9911.31
861.534	9901.82
861.855	9796.73
862.176	9873.34
862.498	9828.6
862.819	9816.62
863.14	9764.87
863.461	9745.21
863.782	9740.69
864.103	9681.48
864.424	9699.56
864.745	9684.87
865.065	9658.66
865.386	9593.58
865.707	9691.88
866.027	9616.63
866.348	9620.02
866.668	9572.33
866.989	9541.83
867.309	9476.06
867.63	9501.83
867.95	9443.52
868.27	9437.87
868.59	9454.82
868.91	9447.59
869.23	9423.18
869.55	9384.32
869.87	9394.26
870.19	9342.73
870.51	9417.99
870.83	9312.45
871.15	9259.8
871.469	9339.57
871.789	9367.37
872.109	9279.69
872.428	9279.23
872.748	9281.95
873.067	9298.89
873.386	9269.29
873.706	9200.59
874.025	9160.82
874.344	9181.16
874.663	9181.38
874.982	9130.99
875.301	9139.58
875.62	9084.21
875.939	9091.44
876.258	9055.96
876.577	9076.98
876.896	9076.53
877.214	9043.08
877.533	9011.22
877.852	9008.73
878.17	9010.77
878.489	8999.92
878.807	8971.44
879.125	8935.97
879.444	8947.49
879.762	8953.59
880.08	8985.91
880.398	8864.56
880.716	8904.78
881.034	8906.81
881.352	8905.68
881.67	8869.75
881.988	8824.33
882.306	8759.25
882.624	8767.38
882.941	8728.74
883.259	8702.75
883.577	8641.28
883.894	8672.02
884.212	8616.2
884.529	8716.08
884.846	8624.11
885.164	8535.75
885.481	8538.69
885.798	8505.92
886.115	8505.92
886.432	8522.42
886.75	8541.63
887.067	8479.25
887.383	8475.19
887.7	8434.74
888.017	8449.65
888.334	8406.71
888.651	8334.17
888.967	8374.4
889.284	8302.76
889.6	8307.06
889.917	8200.39
890.233	8231.35
890.55	8200.62
890.866	8255.98
891.182	8164.69
891.498	8162.43
891.815	8172.14
892.131	8093.5
892.447	8133.5
892.763	8107.29
893.079	7991.81
893.395	8018.48
893.71	8015.31
894.026	7991.81
894.342	7966.73
894.657	7935.09
894.973	7914.75
895.289	7911.13
895.604	7887.18
895.92	7824.81
896.235	7816.45
896.55	7859.38
896.865	7724.25
897.181	7725.6
897.496	7755.21
897.811	7695.32
898.126	7645.83
898.441	7640.86
898.756	7561.76
899.071	7588.43
899.386	7543.01
899.7	7508.43
900.015	7421.43
900.33	7408.55
900.644	7389.57
900.959	7470.69
901.273	7394.54
901.588	7355.22
901.902	7329.45
902.216	7294.88
902.531	7225.28
902.845	7253.75
903.159	7198.84
903.473	7159.06
903.787	7147.31
904.101	7133.53
904.415	7169.46
904.729	7112.28
905.042	7058.73
905.356	7023.7
905.67	7031.61
905.984	7009.69
906.297	6967.88
906.611	6921.56
906.924	6940.31
907.237	6911.84
907.551	6891.27
907.864	6825.29
908.177	6811.73
908.491	6776.93
908.804	6731.5
909.117	6739.19
909.43	6638.85
909.743	6717.49
910.056	6646.99
910.368	6581
910.681	6612.64
910.994	6547.55
911.307	6512.98
911.619	6486.54
911.932	6497.84
912.244	6461.68
912.557	6438.18
912.869	6422.81
913.181	6383.04
913.494	6397.95
913.806	6359.99
914.118	6277.5
914.43	6324.96
914.742	6249.71
915.054	6260.56
915.366	6230.95
915.678	6181.91
915.99	6115.47
916.302	6086.1
916.613	6059.21
916.925	6109.83
917.236	6115.25
917.548	6010.84
917.859	6042.93
918.171	5970.85
918.482	5923.62
918.794	6015.36
919.105	6009.71
919.416	5876.16
919.727	5905.99
920.038	5801.58
920.349	5825.54
920.66	5745.54
920.971	5810.4
921.282	5764.75
921.593	5737.41
921.903	5727.69
922.214	5703.51
922.525	5607.69
922.835	5626.22
923.146	5627.8
923.456	5587.13
923.767	5504.42
924.077	5553.23
924.387	5534.02
924.697	5496.06
925.008	5548.26
925.318	5413.8
925.628	5431.42
925.938	5409.73
926.248	5374.48
926.558	5364.08
926.867	5375.61
927.177	5265.1
927.487	5258.77
927.796	5260.36
928.106	5260.81
928.416	5203.63
928.725	5235.72
929.034	5155.95
929.344	5149.4
929.653	5124.77
929.962	5095.39
930.271	5107.59
930.581	5070.98
930.89	4990.31
931.199	5047.48
931.508	5000.02
931.817	4973.58
932.125	4971.78
932.434	4954.6
932.743	4870.76
933.051	4866.47
933.36	4889.97
933.669	4844.55
933.977	4858.78
934.286	4800.48
934.594	4785.57
934.902	4815.17
935.21	4760.26
935.519	4729.3
935.827	4725
936.135	4674.38
936.443	4636.64
936.751	4611.11
937.059	4623.54
937.367	4617.44
937.674	4621.73
937.982	4602.52
938.29	4583.09
938.597	4565.91
938.905	4500.15
939.213	4501.51
939.52	4505.57
939.827	4472.35
940.135	4447.5
940.442	4451.11
940.749	4392.81
941.056	4402.3
941.363	4349.65
941.67	4337.89
941.977	4329.53
942.284	4277.78
942.591	4297.22
942.898	4303.77
943.205	4288.4
943.511	4224.68
943.818	4230.33
944.125	4215.86
944.431	4163.89
944.738	4185.58
945.044	4148.75
945.35	4093.83
945.657	4149.88
945.963	4130.44
946.269	4027.39
946.575	4064.46
946.881	4043.21
947.187	4083.44
947.493	4021.74
947.799	3973.84
948.105	4012.03
948.41	3937.45
948.716	3942.2
949.022	3900.17
949.327	3923.67
949.633	3860.39
949.938	3904.91
950.244	3870.11
950.549	3833.05
950.854	3837.57
951.16	3803.67
951.465	3788.08
951.77	3753.5
952.075	3736.55
952.38	3741.53
952.685	3755.76
952.99	3736.55
953.294	3701.75
953.599	3713.96
953.904	3667.4
954.209	3676.67
954.513	3602.09
954.818	3630.79
955.122	3580.4
955.426	3627.18
955.731	3571.36
956.035	3534.3
956.339	3581.53
956.643	3550.12
956.948	3504.47
957.252	3496.33
957.556	3481.65
957.86	3452.27
958.163	3462.44
958.467	3423.34
958.771	3447.52
959.075	3413.85
959.378	3388.99
959.682	3398.48
959.985	3379.05
960.289	3341.76
960.592	3354.64
960.896	3357.13
961.199	3303.8
961.502	3294.08
961.805	3305.38
962.108	3292.95
962.411	3237.81
962.714	3244.36
963.017	3242.56
963.32	3217.25
963.623	3186.06
963.926	3182.67
964.228	3161.43
964.531	3141.54
964.833	3137.25
965.136	3140.41
965.438	3080.53
965.741	3080.53
966.043	3097.02
966.345	3055.67
966.648	3091.6
966.95	3057.48
967.252	3058.15
967.554	3047.53
967.856	2997.59
968.158	2998.04
968.46	2979.29
968.761	2973.18
969.063	2978.38
969.365	2936.12
969.666	2939.06
969.968	2879.85
970.269	2930.25
970.571	2934.54
970.872	2905.16
971.174	2892.96
971.475	2882.57
971.776	2820.65
972.077	2827.2
972.378	2842.79
972.679	2815.9
972.98	2837.14
973.281	2747.43
973.582	2776.81
973.883	2743.81
974.183	2724.38
974.484	2746.98
974.785	2744.49
975.085	2720.99
975.386	2711.04
975.686	2720.31
975.986	2664.72
976.287	2669.69
976.587	2690.25
976.887	2632.85
977.187	2650.48
977.487	2635.57
977.787	2605.06
978.087	2610.71
978.387	2549.24
978.687	2587.88
978.987	2574.55
979.286	2535.91
979.586	2536.13
979.885	2525.74
980.185	2503.82
980.484	2506.08
980.784	2485.51
981.083	2481.9
981.382	2489.81
981.682	2492.97
981.981	2445.97
982.28	2493.88
982.579	2441
982.878	2459.53
983.177	2428.79
983.475	2407.55
983.774	2366.42
984.073	2356.25
984.372	2363.26
984.67	2388.79
984.969	2349.47
985.267	2353.54
985.566	2344.5
985.864	2318.06
986.162	2303.6
986.461	2305.18
986.759	2311.51
987.057	2281.9
987.355	2278.06
987.653	2282.36
987.951	2278.97
988.249	2239.42
988.547	2269.25
988.844	2234.22
989.142	2198.97
989.44	2194.45
989.737	2201.23
990.035	2179.99
990.332	2181.79
990.63	2160.78
990.927	2187.67
991.224	2168.46
991.521	2151.06
991.819	2142.7
992.116	2119.42
992.413	2091.17
992.71	2091.63
993.006	2073.32
993.303	2062.25
993.6	2043.04
993.897	2050.72
994.193	2039.65
994.49	1987.22
994.787	2039.65
995.083	2013.66
995.379	1991.52
995.676	1994.45
995.972	1992.19
996.268	2005.98
996.565	1981.12
996.861	1967.56
997.157	1938.86
997.453	1934.12
997.749	1937.05
998.044	1916.72
998.34	1919.43
998.636	1896.83
998.932	1913.1
999.227	1913.33
999.523	1859.09
999.818	1888.92
1000.114	1862.93
1000.409	1855.93
1000.704	1856.83
1001	1822.25
1001.295	1817.73
1001.59	1812.31
1001.885	1787.45
1002.18	1793.55
1002.475	1783.39
1002.77	1775.93
1003.065	1785.19
1003.359	1741.35
1003.654	1722.82
1003.949	1717.62
1004.243	1749.04
1004.538	1703.61
1004.832	1711.52
1005.127	1686.44
1005.421	1696.38
1005.715	1671.75
1006.009	1695.25
1006.304	1672.65
1006.598	1648.7
1006.892	1632.2
1007.186	1609.6
1007.48	1636.27
1007.773	1619.77
1008.067	1633.78
1008.361	1637.17
1008.655	1622.49
1008.948	1572.09
1009.242	1575.48
1009.535	1576.84
1009.829	1563.5
1010.122	1559.66
1010.415	1524.86
1010.708	1540
1011.001	1550.62
1011.295	1529.38
1011.588	1513.11
1011.881	1476.73
1012.173	1474.01
1012.466	1465.65
1012.759	1479.21
1013.052	1484.86
1013.344	1482.38
1013.637	1434.92
1013.93	1428.59
1014.222	1446.22
1014.514	1448.93
1014.807	1434.24
1015.099	1406.67
1015.391	1415.94
1015.683	1395.15
1015.976	1401.7
1016.268	1381.36
1016.56	1365.09
1016.851	1361.93
1017.143	1360.12
1017.435	1323.96
1017.727	1323.51
1018.018	1326
1018.31	1337.3
1018.602	1338.2
1018.893	1288.71
1019.185	1302.04
1019.476	1323.96
1019.767	1288.26
1020.058	1282.38
1020.35	1267.24
1020.641	1278.77
1020.932	1249.39
1021.223	1249.16
1021.514	1252.33
1021.804	1207.36
1022.095	1228.82
1022.386	1233.57
1022.677	1217.07
1022.967	1213
1023.258	1212.78
1023.548	1190.18
1023.839	1192.89
1024.129	1162.61
1024.419	1185.43
1024.709	1151.99
1025	1126.23
1025.29	1124.42
1025.58	1164.42
1025.87	1122.61
1026.16	1113.35
1026.449	1133.91
1026.739	1131.2
1027.029	1109.73
1027.319	1080.8
1027.608	1072.22
1027.898	1097.3
1028.187	1076.29
1028.477	1050.98
1028.766	1080.13
1029.055	1032.22
1029.344	1039.68
1029.634	1036.96
1029.923	1032.22
1030.212	1039.45
1030.501	1021.15
1030.79	1016.4
1031.078	1006
1031.367	968.04
1031.656	992.67
1031.945	997.42
1032.233	992.67
1032.522	972.56
1032.81	985.21
1033.099	977.3
1033.387	951.99
1033.675	961.71
1033.963	924.65
1034.251	963.07
1034.54	954.71
1034.828	932.56
1035.116	933.46
1035.403	916.97
1035.691	916.29
1035.979	920.58
1036.267	901.37
1036.554	884.88
1036.842	903.63
1037.129	904.99
1037.417	894.14
1037.704	861.83
1037.992	903.86
1038.279	855.27
1038.566	889.85
1038.853	889.85
1039.14	889.85
