Data from hue_50_FLMS001491_25.txt Node
Date: Mon Feb 06 15:09:49 GMT 2017
User: dcchb
Spectrometer: FLMS00149
Trigger mode: 0
Integration Time (sec): 2.000000E-2
Scans to average: 10
Electric dark correction enabled: true
Nonlinearity correction enabled: false
Boxcar width: 0
XAxis mode: Wavelengths
Number of Pixels in Spectrum: 2048
>>>>>Begin Spectral Data<<<<<
341.393	-8.15
341.776	-8.15
342.16	-8.15
342.543	-55.38
342.927	-71.88
343.31	-72.55
343.693	-77.98
344.077	-47.47
344.46	-38.43
344.843	-66.91
345.226	-41.59
345.61	-38.66
345.993	-19.67
346.376	-18.54
346.759	6.31
347.142	45.63
347.525	45.63
347.908	51.28
348.291	90.38
348.674	73.2
349.057	109.36
349.44	130.15
349.823	133.09
350.206	160.43
350.588	174.9
350.971	217.61
351.354	216.03
351.737	236.36
352.119	250.37
352.502	274.78
352.884	271.39
353.267	285.4
353.65	289.7
354.032	310.26
354.414	303.03
354.797	312.29
355.179	301.67
355.562	333.76
355.944	321.33
356.326	333.76
356.709	346.19
357.091	314.55
357.473	330.15
357.855	337.6
358.238	350.03
358.62	333.54
359.002	319.53
359.384	344.38
359.766	346.19
360.148	328.11
360.53	328.79
360.912	340.32
361.294	345.97
361.676	331.05
362.057	321.33
362.439	338.51
362.821	315.46
363.203	319.98
363.584	328.56
363.966	307.32
364.348	329.47
364.729	330.82
365.111	323.37
365.493	316.81
365.874	306.42
366.256	321.79
366.637	308
367.019	316.14
367.4	319.07
367.781	306.64
368.163	311.84
368.544	310.03
368.925	326.53
369.306	312.75
369.688	302.12
370.069	301.45
370.45	306.42
370.831	311.16
371.212	318.85
371.593	314.1
371.974	315.46
372.355	299.19
372.736	322.24
373.117	324.5
373.498	309.36
373.879	296.48
374.26	296.02
374.641	296.25
375.021	315.68
375.402	329.69
375.783	335.34
376.163	311.39
376.544	300.32
376.925	335.8
377.305	302.8
377.686	310.49
378.066	321.56
378.447	334.67
378.827	311.84
379.208	348
379.588	336.93
379.968	338.51
380.349	323.82
380.729	331.95
381.109	333.99
381.489	315.91
381.87	329.24
382.25	333.08
382.63	343.48
383.01	343.03
383.39	318.85
383.77	338.28
384.15	345.51
384.53	345.06
384.91	319.53
385.29	341.67
385.67	327.66
386.049	347.77
386.429	350.94
386.809	352.74
387.189	321.33
387.568	342.8
387.948	356.13
388.328	348.9
388.707	353.65
389.087	347.1
389.466	370.6
389.846	350.94
390.225	364.27
390.605	359.75
390.984	337.6
391.363	356.36
391.743	357.26
392.122	369.02
392.501	353.2
392.881	371.5
393.26	340.09
393.639	352.74
394.018	375.8
394.397	355.91
394.776	374.89
395.155	372.63
395.534	352.29
395.913	370.6
396.292	359.07
396.671	374.67
397.05	366.98
397.429	370.15
397.808	365.63
398.186	366.98
398.565	391.39
398.944	372.41
399.323	380.77
399.701	355
400.08	373.99
400.458	402.91
400.837	379.18
401.215	401.56
401.594	396.81
401.972	393.2
402.351	380.31
402.729	386.87
403.107	404.5
403.486	383.7
403.864	409.92
404.242	393.87
404.62	400.43
404.999	404.72
405.377	403.14
405.755	407.88
406.133	399.07
406.511	398.17
406.889	415.34
407.267	414.89
407.645	415.12
408.023	412.4
408.401	416.02
408.779	410.82
409.156	439.52
409.534	427.09
409.912	413.76
410.29	446.08
410.667	443.36
411.045	430.71
411.422	438.39
411.8	429.13
412.178	445.62
412.555	437.26
412.933	450.14
413.31	464.83
413.687	441.33
414.065	436.81
414.442	447.66
414.819	464.61
415.197	454.89
415.574	473.19
415.951	448.56
416.328	474.78
416.705	471.61
417.082	482.01
417.46	446.98
417.837	490.59
418.214	492.85
418.591	480.2
418.967	461.89
419.344	460.31
419.721	496.24
420.098	483.36
420.475	496.7
420.852	496.92
421.228	515.45
421.605	518.62
421.982	506.64
422.358	513.19
422.735	511.61
423.111	498.28
423.488	513.42
423.864	525.4
424.241	524.04
424.617	524.72
424.994	526.3
425.37	526.53
425.746	531.72
426.123	533.31
426.499	551.38
426.875	531.72
427.251	538.95
427.627	547.77
428.003	525.85
428.379	576.92
428.756	552.51
429.132	548.45
429.507	564.94
429.883	562.46
430.259	585.06
430.635	588.44
431.011	580.99
431.387	586.41
431.763	569.24
432.138	604.04
432.514	585.28
432.89	585.73
433.265	605.62
433.641	619.86
434.016	612.17
434.392	626.18
434.767	637.71
435.143	630.93
435.518	624.38
435.894	640.42
436.269	639.52
436.644	663.02
437.02	656.92
437.395	642.68
437.77	637.03
438.145	667.54
438.52	672.51
438.895	666.64
439.271	677.03
439.646	692.85
440.021	673.19
440.395	697.82
440.77	700.31
441.145	697.59
441.52	693.98
441.895	708.44
442.27	726.52
442.645	702.11
443.019	737.82
443.394	703.02
443.769	712.74
444.143	728.55
444.518	719.06
444.892	756.8
445.267	744.15
445.641	758.84
446.016	751.83
446.39	753.64
446.764	757.03
447.139	748.21
447.513	744.83
447.887	743.02
448.262	744.15
448.636	766.52
449.01	763.58
449.384	753.86
449.758	773.98
450.132	791.83
450.506	792.73
450.88	796.8
451.254	818.5
451.628	803.13
452.002	827.76
452.376	842.22
452.75	825.95
453.123	815.11
453.497	811.94
453.871	831.15
454.244	887.19
454.618	856.01
454.992	875.44
455.365	874.09
455.739	893.75
456.112	872.28
456.486	900.3
456.859	919.28
457.232	933.97
457.606	923.58
457.979	927.19
458.352	954.76
458.725	962.22
459.099	958.38
459.472	984.37
459.845	978.04
460.218	974.65
460.591	1011.26
460.964	1030.24
461.337	1031.82
461.71	1012.84
462.083	1047.42
462.456	1059.17
462.829	1052.39
463.201	1074.31
463.574	1081.99
463.947	1101.2
464.32	1113.18
464.692	1134.42
465.065	1138.26
465.438	1184.81
465.81	1162.67
466.183	1173.97
466.555	1241.99
466.928	1225.49
467.3	1241.99
467.672	1242.21
468.045	1266.85
468.417	1288.99
468.789	1292.83
469.161	1328.09
469.534	1340.29
469.906	1381.87
470.278	1383.9
470.65	1404.02
471.022	1447.86
471.394	1474.07
471.766	1479.04
472.138	1484.69
472.51	1571.47
472.882	1605.37
473.253	1674.52
473.625	1637.23
473.997	1679.72
474.369	1721.97
474.74	1751.13
475.112	1785.7
475.484	1810.33
475.855	1864.12
476.227	1882.2
476.598	1985.92
476.97	1998.13
477.341	2059.82
477.713	2143.43
478.084	2134.17
478.455	2203.54
478.827	2239.02
479.198	2338.46
479.569	2374.84
479.94	2417.1
480.311	2516.3
480.682	2589.07
481.053	2646.92
481.424	2763.76
481.795	2789.29
482.166	2880.14
482.537	2949.96
482.908	3053.92
483.279	3124.2
483.65	3174.82
484.021	3344.08
484.391	3409.39
484.762	3444.19
485.133	3557.63
485.503	3638.76
485.874	3732.54
486.244	3850.73
486.615	3984.51
486.985	4050.73
487.356	4204.62
487.726	4296.37
488.097	4434.22
488.467	4471.05
488.837	4652.52
489.207	4783.36
489.578	4879.63
489.948	4997.37
490.318	5137.93
490.688	5222.45
491.058	5353.29
491.428	5475.1
491.798	5551.7
492.168	5783.79
492.538	5840.28
492.908	5973.16
493.278	6116.21
493.648	6230.56
494.017	6379.03
494.387	6470.1
494.757	6639.36
495.126	6710.77
495.496	6873.03
495.866	6948.96
496.235	7114.6
496.605	7235.73
496.974	7339.45
497.344	7430.07
497.713	7564.98
498.082	7705.55
498.452	7856.73
498.821	7960.68
499.19	8002.71
499.559	8174.23
499.928	8305.08
500.298	8337.62
500.667	8550.27
501.036	8620.1
501.405	8743.94
501.774	8817.61
502.143	8960.2
502.512	9046.53
502.88	9256.01
503.249	9243.13
503.618	9331.04
503.987	9516.57
504.356	9613.97
504.724	9721.09
505.093	9824.81
505.462	9880.4
505.83	9971.48
506.199	10127.18
506.567	10255.08
506.936	10286.95
507.304	10457.79
507.672	10523.32
508.041	10626.6
508.409	10738.23
508.777	10941.62
509.145	11021.17
509.514	10990.43
509.882	11123.08
510.25	11218.45
510.618	11326.92
510.986	11386.81
511.354	11543.19
511.722	11687.59
512.09	11833.12
512.458	11815.49
512.826	11958.09
513.193	12086.45
513.561	12093
513.929	12229.27
514.297	12345.88
514.664	12418.19
515.032	12448.92
515.4	12653.89
515.767	12681.01
516.135	12798.07
516.502	12794.45
516.869	12994.22
517.237	13051.85
517.604	13125.97
517.972	13193.54
518.339	13372.97
518.706	13383.81
519.073	13433.98
519.44	13547.88
519.808	13616.8
520.175	13679.85
520.542	13946.06
520.909	14041.88
521.276	14027.87
521.643	14199.39
522.009	14272.6
522.376	14339.04
522.743	14545.82
523.11	14663.56
523.477	14794.4
523.843	14851.8
524.21	15075.07
524.577	15124.11
524.943	15186.93
525.31	15370.66
525.676	15415.85
526.043	15591.89
526.409	15633.7
526.776	15772
527.142	15844.09
527.508	15929.96
527.874	16097.42
528.241	16179.45
528.607	16186.23
528.973	16363.17
529.339	16442.49
529.705	16550.29
530.071	16695.82
530.437	16796.15
530.803	16734.24
531.169	16967.22
531.535	16993.21
531.901	17082.02
532.267	17081.34
532.632	17209.7
532.998	17267.55
533.364	17379.42
533.73	17402.24
534.095	17603.59
534.461	17658.28
534.826	17656.02
535.192	17778.95
535.557	17951.38
535.923	17951.15
536.288	18142.33
536.653	18174.42
537.019	18103.01
537.384	18282.44
537.749	18404.25
538.114	18424.81
538.479	18439.5
538.845	18518.37
539.21	18563.34
539.575	18600.63
539.94	18641.98
540.305	18758.59
540.67	18820.73
541.034	18904.12
541.399	18959.26
541.764	18942.76
542.129	19150.44
542.494	19194.06
542.858	19144.12
543.223	19190.89
543.587	19409.87
543.952	19350.89
544.316	19473.37
544.681	19479.02
545.045	19495.07
545.41	19708.85
545.774	19753.82
546.138	19709.3
546.503	19897.54
546.867	19836.53
547.231	20100.47
547.595	19973.92
547.959	20162.39
548.324	20111.1
548.688	20232.22
549.052	20262.05
549.416	20345.67
549.779	20525.1
550.143	20460.92
550.507	20549.28
550.871	20586.34
551.235	20670.85
551.599	20818.65
551.962	20854.35
552.326	20929.61
552.689	21024.07
553.053	20911.98
553.417	21067.45
553.78	21303.38
554.143	21267.68
554.507	21355.13
554.87	21493.66
555.234	21639.42
555.597	21452.53
555.96	21561.9
556.323	21717.61
556.686	21781.79
557.05	21939.52
557.413	22006.64
557.776	21998.5
558.139	22244.82
558.502	22107.2
558.865	22184.49
559.228	22459.28
559.59	22521.43
559.953	22588.77
560.316	22754.87
560.679	22775.21
561.041	22906.73
561.404	23044.35
561.767	23061.98
562.129	23105.37
562.492	23180.17
562.854	23320.95
563.217	23268.75
563.579	23446.83
563.941	23532.47
564.304	23710.55
564.666	23906.02
565.028	23887.49
565.39	23907.38
565.753	24035.74
566.115	24183.98
566.477	24271.21
566.839	24249.07
567.201	24469.17
567.563	24456.97
567.925	24649.51
568.287	24638.89
568.648	24778.32
569.01	24864.64
569.372	25012.89
569.734	25024.19
570.095	25110.06
570.457	25203.16
570.819	25467.34
571.18	25393.44
571.542	25461.46
571.903	25592.53
572.265	25670.95
572.626	25749.82
572.987	25948.46
573.349	25994.1
573.71	26073.88
574.071	26119.53
574.432	26193.65
574.794	26397.48
575.155	26486.52
575.516	26493.3
575.877	26578.72
576.238	26671.6
576.599	26805.16
576.96	26940.29
577.32	26918.37
577.681	27001.76
578.042	27225.03
578.403	27121.53
578.763	27235.2
579.124	27287.4
579.485	27486.04
579.845	27584.35
580.206	27573.05
580.566	27658.92
580.927	27820.95
581.287	27855.98
581.648	28069.76
582.008	28169.41
582.368	28095.74
582.728	28204.89
583.089	28290.77
583.449	28302.07
583.809	28482.85
584.169	28623.19
584.529	28659.57
584.889	28986.34
585.249	28877.87
585.609	28857.53
585.969	29248.48
586.329	29182.72
586.688	29252.78
587.048	29364.64
587.408	29444.86
587.768	29488.25
588.127	29513.79
588.487	29705.65
588.846	29960.1
589.206	29833.33
589.565	29930.05
589.925	30266.31
590.284	30186.99
590.643	30329.58
591.003	30504.27
591.362	30586.53
591.721	30561.44
592.08	30709.46
592.44	30912.17
592.799	30946.52
593.158	31048.44
593.517	31134.08
593.876	31178.83
594.235	31194.42
594.593	31384.25
594.952	31416.11
595.311	31521.87
595.67	31682.77
596.029	31907.85
596.387	31902.88
596.746	32065.13
597.104	31985.13
597.463	32083.44
597.822	32322.53
598.18	32302.19
598.538	32263.09
598.897	32555.74
599.255	32420.83
599.613	32784.66
599.972	32702.4
600.33	32884.77
600.688	32917.09
601.046	33004.32
601.404	33144.43
601.762	33120.92
602.12	33308.94
602.478	33345.32
602.836	33359.11
603.194	33375.61
603.552	33472.33
603.91	33468.03
604.268	33557.07
604.625	33643.85
604.983	33907.79
605.341	33684.3
605.698	34027.79
606.056	34077.51
606.413	33940.11
606.771	34190.73
607.128	34355.01
607.485	34148.69
607.843	34296.26
608.2	34590.49
608.557	34726.3
608.914	34539.19
609.272	34788
609.629	34987.99
609.986	35057.14
610.343	34978.73
610.7	35301.2
611.057	35146.41
611.414	35231.6
611.771	35276.35
612.127	35384.59
612.484	35507.98
612.841	35575.1
613.198	35605.15
613.554	35461.43
613.911	35852.83
614.267	35749.1
614.624	35684.7
614.98	35786.16
615.337	36099.15
615.693	35947.29
616.05	35901.87
616.406	36140.05
616.762	36161.97
617.118	36261.63
617.475	36187.06
617.831	36491.23
618.187	36350.22
618.543	36564.9
618.899	36669.98
619.255	36684.45
619.611	36766.93
619.967	36906.59
620.323	36864.33
620.678	36748.4
621.034	36754.73
621.39	36670.21
621.746	36789.75
622.101	37220.48
622.457	36968.51
622.812	37168.95
623.168	37069.07
623.523	37140.7
623.879	37292.56
624.234	37066.81
624.589	37249.18
624.945	37400.58
625.3	37426.8
625.655	37442.39
626.01	37429.96
626.365	37460.7
626.72	37346.57
627.075	37523.74
627.43	37338.67
627.785	37319
628.14	37401.04
628.495	37485.55
628.85	37368.04
629.205	37475.84
629.559	37543.18
629.914	37306.35
630.269	37470.64
630.623	37324.65
630.978	37330.53
631.332	37482.39
631.687	37370.08
632.041	37356.29
632.396	37563.29
632.75	37271.32
633.104	37442.84
633.459	37298.67
633.813	37315.16
634.167	37321.49
634.521	37275.39
634.875	37377.76
635.229	37359.91
635.583	37237.88
635.937	37052.34
636.291	37078.33
636.645	37281.04
636.999	37079.46
637.352	37286.01
637.706	36999.92
638.06	37154.04
638.413	36993.14
638.767	37061.38
639.121	37099.12
639.474	36738.68
639.828	36895.29
640.181	36975.28
640.534	36941.61
640.888	36848.06
641.241	36777.55
641.594	36799.02
641.947	36827.72
642.301	36685.8
642.654	36731.45
643.007	36779.58
643.36	36658.01
643.713	36777.78
644.066	36827.94
644.419	36632.92
644.771	36281.07
645.124	36036.78
645.477	36082.65
645.83	35806.95
646.182	35635.21
646.535	35513.18
646.888	35629.11
647.24	35419.17
647.593	35637.69
647.945	35672.72
648.298	35383.46
648.65	35385.5
649.002	35253.52
649.355	35333.52
649.707	35294.43
650.059	35452.16
650.411	35968.98
650.763	35983.9
651.115	36350.44
651.467	36068.42
651.819	36182.99
652.171	36109.09
652.523	35943.45
652.875	36200.39
653.227	35800.4
653.578	36247.17
653.93	36073.84
654.282	35997.68
654.633	35771.47
654.985	35886.95
655.337	35879.04
655.688	35778.25
656.039	36025.25
656.391	35626.62
656.742	35675.21
657.094	35878.14
657.445	35931.02
657.796	35929.21
658.147	35753.62
658.498	35734.41
658.849	35731.25
659.2	35646.05
659.551	35640.4
659.902	35820.96
660.253	35744.81
660.604	35650.35
660.955	35534.42
661.306	35764.02
661.656	35594.53
662.007	35635.43
662.358	35584.36
662.708	35549.11
663.059	35508.43
663.409	35412.84
663.76	35668.2
664.11	35619.61
664.461	35734.19
664.811	35680.18
665.161	35588.88
665.511	35563.8
665.862	35488.54
666.212	35727.86
666.562	35690.35
666.912	35604.47
667.262	35552.5
667.612	35520.63
667.962	35580.75
668.312	35617.58
668.662	35605.83
669.011	35506.62
669.361	35374.65
669.711	35492.61
670.06	35302.79
670.41	35263.92
670.76	35350.02
671.109	35468.21
671.459	35391.37
671.808	35302.11
672.157	35369
672.507	35143.69
672.856	35157.93
673.205	35250.13
673.554	35386.17
673.904	35328.1
674.253	35370.36
674.602	35283.8
674.951	34776.47
675.3	34569.25
675.649	35155.45
675.998	35279.96
676.346	35165.39
676.695	35238.38
677.044	35079.97
677.393	35089.46
677.741	35175.11
678.09	35062.11
678.438	35036.13
678.787	34972.17
679.135	35046.75
679.484	34710.49
679.832	34914.1
680.181	34644.05
680.529	34804.49
680.877	34645.85
681.225	34635.69
681.573	34806.08
681.922	34718.17
682.27	34545.29
682.618	34513.65
682.966	34478.4
683.314	34569.47
683.661	34390.95
684.009	34300.55
684.357	34165.64
684.705	34075.25
685.053	34232.76
685.4	34135.59
685.748	33982.6
686.095	34035.25
686.443	33941.69
686.79	33777.63
687.138	33812.66
687.485	33843.84
687.832	33707.12
688.18	33849.94
688.527	33548.26
688.874	33566.33
689.221	33623.28
689.568	33485.21
689.915	33425.55
690.262	33258.77
690.609	33273.46
690.956	33092.68
691.303	33247.7
691.65	32998.67
691.997	32943.07
692.344	32866.24
692.69	32734.94
693.037	32741.5
693.383	32468.74
693.73	32669.41
694.077	32521.16
694.423	32465.35
694.769	32326.59
695.116	32250.66
695.462	32240.95
695.808	32128.63
696.155	32224.68
696.501	31917.56
696.847	32094.74
697.193	31740.39
697.539	31843.89
697.885	31485.49
698.231	31623.34
698.577	31592.6
698.923	31496.33
699.269	31312.16
699.614	31244.81
699.96	31063.58
700.306	31108.09
700.651	30981.32
700.997	30789.91
701.342	30932.96
701.688	30953.97
702.033	30692.74
702.379	30724.38
702.724	30613.64
703.069	30661.55
703.415	30263.14
703.76	30320.32
704.105	30311.73
704.45	30257.72
704.795	30088.46
705.14	29948.58
705.485	29922.81
705.83	29985.64
706.175	29836.94
706.52	29716.27
706.865	29639.21
707.209	29679.43
707.554	29617.51
707.899	29685.31
708.243	29380.91
708.588	29421.81
708.932	29170.52
709.277	29219.33
709.621	29333.9
709.966	29017.75
710.31	29111.99
710.654	28885.1
710.998	28904.76
711.342	28919.9
711.687	28805.56
712.031	28653.24
712.375	28558.78
712.719	28787.7
713.063	28659.12
713.407	28678.33
713.75	28486.47
714.094	28458.45
714.438	28293.71
714.782	28389.52
715.125	28223.65
715.469	28356.75
715.812	28149.08
716.156	28019.59
716.499	27938.23
716.843	28084.9
717.186	27930.78
717.53	28091
717.873	27967.39
718.216	27922.87
718.559	27735.3
718.902	27597
719.246	27690.11
719.589	27623.44
719.932	27498.47
720.275	27482.88
720.617	27526.04
720.96	27387.97
721.303	27400.62
721.646	27343.9
721.989	27263
722.331	27237.01
722.674	27190.91
723.016	27121.76
723.359	27065.94
723.701	27058.94
724.044	26860.75
724.386	26725.61
724.729	26987.52
725.071	26913.18
725.413	26707.53
725.755	26818.04
726.097	26696.23
726.439	26559.06
726.782	26619.85
727.124	26650.81
727.465	26493.75
727.807	26565.39
728.149	26610.13
728.491	26246.75
728.833	26460.31
729.175	26321.55
729.516	26221.44
729.858	26363.13
730.199	26322.68
730.541	26192.07
730.882	26212.4
731.224	26112.75
731.565	25973.77
731.906	26108.23
732.248	26163.37
732.589	25891.28
732.93	25776.94
733.271	25968.57
733.612	25814
733.953	25857.61
734.294	25642.93
734.635	25617.17
734.976	25757.73
735.317	25585.98
735.658	25631.85
735.999	25640.67
736.339	25416.94
736.68	25632.98
737.021	25475.93
737.361	25324.07
737.702	25489.26
738.042	25495.36
738.383	25392.54
738.723	25440.45
739.063	25283.39
739.404	25228.93
739.744	25223.28
740.084	25114.58
740.424	25244.52
740.764	25205.2
741.104	25233.67
741.444	24993
741.784	24965.43
742.124	24979.89
742.464	24955.26
742.804	25006.33
743.143	24842.95
743.483	24915.94
743.823	24641.15
744.162	24617.42
744.502	24717.3
744.841	24595.27
745.181	24773.12
745.52	24561.15
745.86	24648.15
746.199	24531.32
746.538	24541.26
746.877	24542.62
747.216	24498.1
747.556	24381.04
747.895	24424.88
748.234	24360.02
748.573	24316.86
748.911	24223.3
749.25	24298.33
749.589	24053.82
749.928	24148.73
750.267	24140.14
750.605	24035.96
750.944	24078.45
751.283	24018.34
751.621	24073.03
751.96	23792.13
752.298	23890.21
752.636	23799.81
752.975	23684.11
753.313	23743.54
753.651	23815.86
753.989	23630.55
754.327	23479.37
754.666	23420.16
755.004	23405.25
755.342	23433.72
755.679	23397.11
756.017	23266.72
756.355	23413.16
756.693	23248.87
757.031	23357.56
757.368	23148.3
757.706	23052.49
758.044	22986.27
758.381	22996.67
758.719	22926.16
759.056	22904.24
759.394	22853.4
759.731	22673.51
760.068	22682.55
760.405	22623.12
760.743	22556
761.08	22561.43
761.417	22372.96
761.754	22309.23
762.091	22301.55
762.428	22229.23
762.765	22085.28
763.102	22163.92
763.438	22015.45
763.775	21902.91
764.112	21812.29
764.449	21937.94
764.785	21810.03
765.122	21615.01
765.458	21609.14
765.795	21525.52
766.131	21573.88
766.467	21456.37
766.804	21344.51
767.14	21236.94
767.476	21325.3
767.812	21186.55
768.148	21236.04
768.485	21003.73
768.821	20942.03
769.157	20909.72
769.492	20868.14
769.828	20842.83
770.164	20627.01
770.5	20615.26
770.836	20597.86
771.171	20578.2
771.507	20391.77
771.842	20253.69
772.178	20268.15
772.513	20225.67
772.849	20123.07
773.184	20103.64
773.519	19973.25
773.855	19985.9
774.19	19944.55
774.525	19837.88
774.86	19829.52
775.195	19754.27
775.53	19707.49
775.865	19512.02
776.2	19454.39
776.535	19240.16
776.87	19368.97
777.205	19268.41
777.539	19060.05
777.874	19251.23
778.209	19016.89
778.543	19064.34
778.878	18840.39
779.212	18845.37
779.547	18750.68
779.881	18738.25
780.215	18632.26
780.55	18714.07
780.884	18581.42
781.218	18520.85
781.552	18449.22
781.886	18336
782.22	18218.26
782.554	18216.91
782.888	18063.92
783.222	18020.98
783.556	17810.37
783.889	17913.64
784.223	17771.5
784.557	17694.21
784.89	17685.62
785.224	17701.89
785.557	17508.9
785.891	17606.08
786.224	17430.04
786.558	17420.77
786.891	17258.29
787.224	17216.26
787.557	17206.99
787.891	17176.94
788.224	17055.36
788.557	17054.68
788.89	17036.83
789.223	16967.68
789.556	16832.76
789.888	16768.81
790.221	16766.55
790.554	16642.03
790.887	16714.8
791.219	16556.16
791.552	16470.51
791.884	16604.75
792.217	16423.28
792.549	16284.76
792.882	16244.53
793.214	16091.31
793.546	16204.08
793.879	16071.88
794.211	15944.2
794.543	16056.51
794.875	15920.02
795.207	16023.52
795.539	15838.21
795.871	15836.41
796.203	15720.7
796.535	15669.63
796.867	15641.61
797.198	15589.18
797.53	15518.67
797.862	15454.04
798.193	15393.25
798.525	15432.57
798.856	15401.84
799.188	15224.67
799.519	15184.67
799.85	15102.87
800.182	15101.06
800.513	15084.11
800.844	14915.98
801.175	15045.47
801.506	15007.73
801.837	14890.67
802.168	14946.03
802.499	14864.45
802.83	14783.78
803.161	14697.9
803.491	14688.41
803.822	14668.53
804.153	14595.76
804.483	14515.31
804.814	14485.03
805.145	14472.83
805.475	14395.31
805.805	14414.3
806.136	14336.11
806.466	14355.77
806.796	14285.03
807.126	14236.67
807.457	14134.98
807.787	14133.17
808.117	14108.32
808.447	13991.93
808.777	14069.67
809.107	14013.18
809.436	13858.15
809.766	13920.98
810.096	13808.21
810.426	13855.89
810.755	13805.5
811.085	13729.34
811.414	13745.16
811.744	13673.3
812.073	13664.71
812.403	13642.57
812.732	13549.23
813.061	13471.5
813.39	13485.51
813.719	13460.2
814.049	13386.75
814.378	13469.46
814.707	13313.76
815.036	13324.38
815.365	13295.91
815.693	13236.02
816.022	13175.01
816.351	13131.62
816.68	13069.02
817.008	13164.39
817.337	12984.73
817.665	12997.16
817.994	13024.05
818.322	13029.02
818.651	12912.64
818.979	12863.6
819.307	12858.4
819.636	12901.34
819.964	12736.15
820.292	12812.08
820.62	12786.32
820.948	12671.29
821.276	12860.89
821.604	12788.12
821.932	12758.52
822.259	12736.37
822.587	12739.99
822.915	12716.04
823.243	12789.03
823.57	12684.17
823.898	12777.73
824.225	12612.31
824.553	12668.13
824.88	12697.96
825.207	12779.99
825.535	12659.99
825.862	12766.66
826.189	12628.81
826.516	12763.27
826.843	12711.06
827.17	12728.24
827.497	12737.5
827.824	12674.23
828.151	12804.85
828.478	12660.44
828.805	12765.75
829.131	12705.64
829.458	12624.06
829.785	12595.59
830.111	12599.43
830.438	12693.21
830.764	12649.37
831.09	12669.71
831.417	12566.44
831.743	12684.17
832.069	12622.25
832.395	12550.62
832.722	12588.58
833.048	12567.34
833.374	12576.6
833.7	12497.96
834.026	12434.01
834.351	12463.39
834.677	12566.44
835.003	12619.99
835.329	12573.89
835.654	12466.78
835.98	12418.87
836.306	12443.73
836.631	12496.15
836.956	12448.25
837.282	12363.05
837.607	12381.58
837.932	12299.32
838.258	12330.74
838.583	12301.81
838.908	12249.61
839.233	12222.04
839.558	12216.16
839.883	12149.04
840.208	12094.36
840.533	12083.96
840.858	12187.01
841.182	12095.94
841.507	12108.82
841.832	12070.85
842.156	11994.02
842.481	11979.11
842.805	11996.73
843.13	11904.31
843.454	11912.44
843.778	11904.76
844.103	11818.43
844.427	11827.7
844.751	11801.48
845.075	11768.49
845.399	11719.68
845.723	11671.77
846.047	11695.5
846.371	11635.61
846.695	11626.57
847.019	11527.59
847.343	11475.62
847.666	11384.32
847.99	11354.26
848.313	11363.08
848.637	11305.45
848.96	11312.23
849.284	11229.75
849.607	11194.72
849.931	11217.77
850.254	11075.17
850.577	10902.52
850.9	10944.1
851.223	10969.19
851.546	10858.23
851.869	10769.19
852.192	10837.89
852.515	10710.21
852.838	10716.09
853.161	10692.81
853.483	10717.44
853.806	10636.09
854.129	10587.05
854.451	10485.59
854.774	10472.93
855.096	10415.76
855.419	10476.55
855.741	10460.95
856.063	10302.54
856.385	10405.14
856.708	10340.05
857.03	10311.13
857.352	10294.4
857.674	10245.37
857.996	10159.94
858.318	10182.99
858.64	10137.57
858.961	10129.44
859.283	10106.16
859.605	10037.46
859.926	10095.77
860.248	9966.73
860.57	10039.95
860.891	9964.02
861.212	9906.62
861.534	9848.77
861.855	9874.53
862.176	9860.52
862.498	9870.46
862.819	9840.86
863.14	9852.61
863.461	9842.89
863.782	9704.82
864.103	9755.66
864.424	9690.58
864.745	9689.9
865.065	9663.23
865.386	9694.87
865.707	9566.06
866.027	9639.73
866.348	9543.69
866.668	9558.83
866.989	9556.12
867.309	9504.14
867.63	9563.8
867.95	9530.36
868.27	9486.74
868.59	9477.7
868.91	9552.28
869.23	9462.34
869.55	9422.56
869.87	9474.31
870.19	9451.26
870.51	9395.9
870.83	9353.86
871.15	9330.14
871.469	9342.11
871.789	9366.52
872.109	9357.25
872.428	9292.17
872.748	9335.79
873.067	9320.87
873.386	9340.53
873.706	9298.72
874.025	9227.77
874.344	9230.25
874.663	9206.98
874.982	9159.07
875.301	9139.86
875.62	9115.9
875.939	9130.82
876.258	9103.93
876.577	9136.92
876.896	9081.1
877.214	9056.24
877.533	9027.55
877.852	9041.33
878.17	9042.46
878.489	9047.43
878.807	8995.91
879.125	8959.3
879.444	8955.91
879.762	8926.76
880.08	8931.05
880.398	8841.34
880.716	8944.84
881.034	8884.72
881.352	8842.69
881.67	8826.42
881.988	8835.46
882.306	8823.26
882.624	8743.94
882.941	8752.07
883.259	8725.41
883.577	8700.1
883.894	8747.33
884.212	8648.57
884.529	8686.76
884.846	8667.78
885.164	8664.39
885.481	8657.84
885.798	8618.29
886.115	8502.81
886.432	8555.47
886.75	8503.27
887.067	8562.25
887.383	8485.86
887.7	8521.8
888.017	8513.89
888.334	8430.95
888.651	8382.14
888.967	8383.95
889.284	8274.57
889.6	8321.8
889.917	8240
890.233	8263.5
890.55	8233.44
890.866	8216.49
891.182	8183.27
891.498	8212.88
891.815	8157.51
892.131	8201.35
892.447	8098.3
892.763	8081.36
893.079	8048.81
893.395	8030.74
893.71	8004.97
894.026	8050.62
894.342	8003.84
894.657	7897.18
894.973	7956.84
895.289	7892.89
895.604	7920.68
895.92	7894.24
896.235	7833
896.55	7821.02
896.865	7794.36
897.181	7742.83
897.496	7754.13
897.811	7679.33
898.126	7676.39
898.441	7648.82
898.756	7580.58
899.071	7553.23
899.386	7578.32
899.7	7543.06
900.015	7541.71
900.33	7426.46
900.644	7441.6
900.959	7421.71
901.273	7433.24
901.588	7361.83
901.902	7346.46
902.216	7300.81
902.531	7283.41
902.845	7223.52
903.159	7228.5
903.473	7179.68
903.787	7189.4
904.101	7111.44
904.415	7159.12
904.729	7097.88
905.042	7110.31
905.356	7088.61
905.67	7053.59
905.984	6993.47
906.297	6994.15
906.611	6920.48
906.924	6979.46
907.237	6913.7
907.551	6898.56
907.864	6882.74
908.177	6896.08
908.491	6872.8
908.804	6763.42
909.117	6714.84
909.43	6740.83
909.743	6713.48
910.056	6655.63
910.368	6701.5
910.681	6653.14
910.994	6608.63
911.307	6617.89
911.619	6585.8
911.932	6574.5
912.244	6473.49
912.557	6522.75
912.869	6401.4
913.181	6473.04
913.494	6409.53
913.806	6378.12
914.118	6318.46
914.43	6298.35
914.742	6332.47
915.054	6261.97
915.366	6237.56
915.678	6183.33
915.99	6193.72
916.302	6159.82
916.613	6096.77
916.925	6113.27
917.236	6082.54
917.548	6042.09
917.859	6050
918.171	5973.61
918.482	5965.03
918.794	5939.04
919.105	5897.46
919.416	5904.24
919.727	5836.22
920.038	5852.04
920.349	5785.82
920.66	5790.79
920.971	5800.51
921.282	5755.77
921.593	5734.98
921.903	5698.82
922.214	5678.71
922.525	5626.5
922.835	5635.54
923.146	5582.66
923.456	5611.82
923.767	5552.38
924.077	5566.39
924.387	5518.48
924.697	5501.76
925.008	5457.02
925.318	5469.45
925.628	5429.67
925.938	5429.22
926.248	5332.95
926.558	5358.26
926.867	5333.4
927.177	5363.01
927.487	5324.37
927.796	5231.03
928.106	5276.01
928.416	5220.87
928.725	5261.77
929.034	5198.72
929.344	5181.77
929.653	5141.55
929.962	5152.62
930.271	5127.31
930.581	5064.26
930.89	4986.97
931.199	5035.11
931.508	5019.06
931.817	4972.06
932.125	4982.23
932.434	4978.61
932.743	4938.84
933.051	4883.93
933.36	4918.27
933.669	4824.72
933.977	4813.64
934.286	4826.98
934.594	4773.87
934.902	4778.84
935.21	4764.15
935.519	4756.47
935.827	4701.78
936.135	4673.99
936.443	4623.59
936.751	4619.98
937.059	4644.16
937.367	4631.73
937.674	4579.53
937.982	4577.94
938.29	4548.11
938.597	4536.36
938.905	4520.54
939.213	4483.71
939.52	4481.45
939.827	4523.48
940.135	4450.72
940.442	4425.41
940.749	4424.5
941.056	4415.69
941.363	4347.67
941.67	4376.82
941.977	4304.51
942.284	4296.6
942.591	4292.53
942.898	4298.4
943.205	4274.68
943.511	4240.78
943.818	4205.98
944.125	4184.73
944.431	4193.1
944.738	4160.1
945.044	4150.84
945.35	4214.34
945.657	4108.35
945.963	4069.26
946.269	4090.05
946.575	4089.14
946.881	4047.79
947.187	4026.55
947.493	3995.36
947.799	3954.91
948.105	4024.29
948.41	3937.28
948.716	3947
949.022	3932.99
949.327	3926.44
949.633	3921.92
949.938	3892.09
950.244	3885.31
950.549	3847.34
950.854	3855.7
951.16	3822.48
951.465	3777.74
951.77	3772.09
952.075	3754.01
952.38	3744.75
952.685	3733.9
952.99	3715.14
953.294	3727.12
953.599	3687.35
953.904	3652.55
954.209	3646.22
954.513	3661.58
954.818	3618.42
955.122	3589.27
955.426	3608.25
955.731	3566.45
956.035	3579.55
956.339	3526.9
956.643	3545.88
956.948	3545.2
957.252	3529.84
957.556	3519.22
957.86	3447.58
958.163	3437.18
958.467	3476.5
958.771	3496.62
959.075	3419.11
959.378	3417.52
959.682	3377.07
959.985	3396.51
960.289	3324.64
960.592	3350.63
960.896	3317.41
961.199	3330.07
961.502	3326.68
961.805	3271.76
962.108	3249.17
962.411	3248.71
962.714	3220.47
963.017	3221.6
963.32	3234.93
963.623	3206.68
963.926	3178.43
964.228	3151.99
964.531	3140.24
964.833	3166.91
965.136	3124.65
965.438	3111.54
965.741	3149.28
966.043	3098.89
966.345	3067.7
966.648	3068.83
966.95	3075.84
967.252	3067.7
967.554	3028.61
967.856	3029.96
968.158	2999.68
968.46	2961.72
968.761	3001.49
969.063	2949.74
969.365	2965.11
969.666	2935.95
969.968	2907.71
970.269	2902.73
970.571	2892.34
970.872	2896.86
971.174	2864.09
971.475	2875.16
971.776	2862.96
972.077	2833.58
972.378	2843.3
972.679	2852.34
972.98	2795.84
973.281	2829.29
973.582	2805.79
973.883	2777.31
974.183	2756.07
974.484	2761.27
974.785	2734.6
975.085	2712.68
975.386	2733.47
975.686	2705.23
975.986	2665.45
976.287	2647.6
976.587	2662.97
976.887	2658.45
977.187	2650.99
977.487	2615.06
977.787	2607.6
978.087	2583.42
978.387	2633.14
978.687	2603.99
978.987	2554.72
979.286	2580.03
979.586	2559.69
979.885	2526.47
980.185	2509.75
980.484	2507.04
980.784	2518.79
981.083	2504.1
981.382	2473.82
981.682	2458.68
981.981	2440.83
982.28	2448.74
982.579	2437.66
982.878	2410.32
983.177	2413.26
983.475	2396.53
983.774	2394.27
984.073	2351.56
984.372	2358.12
984.67	2392.01
984.969	2379.58
985.267	2357.44
985.566	2331.45
985.864	2347.27
986.162	2332.58
986.461	2305.24
986.759	2302.52
987.057	2261.4
987.355	2259.81
987.653	2266.82
987.951	2273.15
988.249	2258.01
988.547	2233.15
988.844	2259.14
989.142	2216.65
989.44	2219.36
989.737	2182.75
990.035	2207.39
990.332	2178.23
990.63	2171
990.927	2149.53
991.224	2146.37
991.521	2126.94
991.819	2147.5
992.116	2116.54
992.413	2108.18
992.71	2075.41
993.006	2077.22
993.303	2089.87
993.6	2076.09
993.897	2059.37
994.193	2105.69
994.49	2053.72
994.787	2020.72
995.083	2028.18
995.379	2016.66
995.676	2000.61
995.972	2020.5
996.268	1990.89
996.565	1973.49
996.861	1966.49
997.157	1951.12
997.453	1939.82
997.749	1936.88
998.044	1933.27
998.34	1915.19
998.636	1914.96
998.932	1887.17
999.227	1860.95
999.523	1876.55
999.818	1852.82
1000.114	1855.98
1000.409	1849.2
1000.704	1837.68
1001	1835.64
1001.295	1829.32
1001.59	1810.79
1001.885	1817.34
1002.18	1785.93
1002.475	1776.21
1002.77	1797.9
1003.065	1777.57
1003.359	1757.45
1003.654	1764.01
1003.949	1752.48
1004.243	1692.82
1004.538	1705.03
1004.832	1728.53
1005.127	1694.63
1005.421	1711.58
1005.715	1700.73
1006.009	1682.65
1006.304	1669.55
1006.598	1662.77
1006.892	1652.6
1007.186	1602.43
1007.48	1602.66
1007.773	1625.71
1008.067	1599.27
1008.361	1589.32
1008.655	1591.36
1008.948	1606.05
1009.242	1568.31
1009.535	1591.13
1009.829	1544.58
1010.122	1569.66
1010.415	1551.36
1010.708	1541.64
1011.001	1517.91
1011.295	1533.96
1011.588	1542.54
1011.881	1501.19
1012.173	1483.56
1012.466	1496.67
1012.759	1483.79
1013.052	1486.95
1013.344	1477.69
1013.637	1446.5
1013.93	1460.74
1014.222	1426.16
1014.514	1450.8
1014.807	1432.49
1015.099	1413.73
1015.391	1395.2
1015.683	1408.54
1015.976	1363.79
1016.268	1421.42
1016.56	1369.44
1016.851	1356.79
1017.143	1354.75
1017.435	1335.32
1017.727	1336.22
1018.018	1325.6
1018.31	1353.62
1018.602	1325.37
1018.893	1290.12
1019.185	1305.49
1019.476	1305.49
1019.767	1259.61
1020.058	1270.23
1020.35	1288.54
1020.641	1259.16
1020.932	1272.49
1021.223	1258.03
1021.514	1214.19
1021.804	1246.51
1022.095	1213.51
1022.386	1211.93
1022.677	1217.13
1022.967	1221.87
1023.258	1167.19
1023.548	1179.84
1023.839	1180.75
1024.129	1173.97
1024.419	1140.97
1024.709	1152.27
1025	1142.55
1025.29	1138.71
1025.58	1163.12
1025.87	1127.64
1026.16	1116.57
1026.449	1114.98
1026.739	1109.34
1027.029	1105.95
1027.319	1087.41
1027.608	1103.01
1027.898	1084.93
1028.187	1062.33
1028.477	1063.69
1028.766	1067.08
1029.055	1038.15
1029.344	1047.42
1029.634	1023.24
1029.923	1040.64
1030.212	1050.35
1030.501	990.24
1030.79	1029.56
1031.078	997.02
1031.367	1009.9
1031.656	1018.72
1031.945	1001.99
1032.233	987.53
1032.522	991.6
1032.81	976.91
1033.099	947.53
1033.387	953.41
1033.675	958.15
1033.963	960.41
1034.251	925.39
1034.54	929
1034.828	934.65
1035.116	940.75
1035.403	906.85
1035.691	914.31
1035.979	903.92
1036.267	911.37
1036.554	898.72
1036.842	904.37
1037.129	902.79
1037.417	880.87
1037.704	863.92
1037.992	908.89
1038.279	874.99
1038.566	851.26
1038.853	851.26
1039.14	851.26
