Data from hue_32_FLMS001491_00072.txt Node
Date: Tue Feb 07 17:23:52 GMT 2017
User: dcchb
Spectrometer: FLMS00149
Trigger mode: 0
Integration Time (sec): 2.000000E-2
Scans to average: 10
Electric dark correction enabled: true
Nonlinearity correction enabled: false
Boxcar width: 0
XAxis mode: Wavelengths
Number of Pixels in Spectrum: 2048
>>>>>Begin Spectral Data<<<<<
341.393	-8.09
341.776	-8.09
342.16	-8.09
342.543	-79.05
342.927	-61.65
343.31	-81.99
343.693	-66.17
344.077	-55.78
344.46	-60.3
344.843	-58.49
345.226	-32.5
345.61	-21.2
345.993	-28.21
346.376	-21.88
346.759	29.19
347.142	8.86
347.525	56.76
347.908	75.29
348.291	73.71
348.674	78.23
349.057	104.45
349.44	111.68
349.823	149.19
350.206	158.23
350.588	205.46
350.971	207.04
351.354	219.92
351.737	242.07
352.119	258.34
352.502	281.62
352.884	287.94
353.267	278
353.65	292.24
354.032	301.73
354.414	310.99
354.797	318.45
355.179	316.64
355.562	328.17
355.944	340.82
356.326	322.29
356.709	353.71
357.091	321.62
357.473	357.32
357.855	368.85
358.238	339.92
358.62	333.14
359.002	357.77
359.384	341.73
359.766	352.35
360.148	347.15
360.53	345.12
360.912	355.06
361.294	339.24
361.676	350.09
362.057	324.33
362.439	347.38
362.821	325.46
363.203	323.2
363.584	344.44
363.966	333.14
364.348	337.89
364.729	330.66
365.111	343.76
365.493	341.5
365.874	311.22
366.256	313.93
366.637	348.73
367.019	308.06
367.4	333.37
367.781	323.65
368.163	332.46
368.544	315.74
368.925	320.26
369.306	328.62
369.688	329.75
370.069	319.58
370.45	313.25
370.831	321.39
371.212	313.48
371.593	332.91
371.974	362.29
372.355	313.25
372.736	317.55
373.117	332.01
373.498	332.01
373.879	330.43
374.26	316.87
374.641	307.38
375.021	318.23
375.402	350.77
375.783	317.77
376.163	336.53
376.544	360.26
376.925	335.85
377.305	326.59
377.686	318
378.066	367.04
378.447	321.62
378.827	336.3
379.208	332.01
379.588	320.71
379.968	322.07
380.349	348.28
380.729	353.25
381.109	341.28
381.489	346.7
381.87	334.72
382.25	340.15
382.63	339.24
383.01	341.05
383.39	367.04
383.77	351.67
384.15	375.63
384.53	353.25
384.91	347.15
385.29	360.26
385.67	351.67
386.049	355.97
386.429	366.13
386.809	371.56
387.189	348.73
387.568	330.2
387.948	363.87
388.328	367.26
388.707	359.81
389.087	371.11
389.466	365.46
389.846	375.4
390.225	367.04
390.605	379.02
390.984	350.54
391.363	380.15
391.743	373.14
392.122	378.11
392.501	380.37
392.881	350.99
393.26	386.02
393.639	370.65
394.018	376.76
394.397	370.88
394.776	384.67
395.155	384.21
395.534	385.57
395.913	375.4
396.292	390.09
396.671	391.9
397.05	402.97
397.429	374.72
397.808	395.06
398.186	388.05
398.565	414.49
398.944	379.69
399.323	405.46
399.701	385.12
400.08	400.94
400.458	409.98
400.837	413.82
401.215	402.74
401.594	404.33
401.972	411.56
402.351	410.88
402.729	405.23
403.107	404.55
403.486	426.92
403.864	427.38
404.242	433.25
404.62	421.73
404.999	408.17
405.377	427.15
405.755	424.44
406.133	431.67
406.511	431.22
406.889	439.8
407.267	436.64
407.645	434.61
408.023	432.12
408.401	425.34
408.779	437.54
409.156	456.3
409.534	429.41
409.912	452.69
410.29	473.25
410.667	466.92
411.045	455.62
411.422	448.62
411.8	458.11
412.178	470.09
412.555	463.53
412.933	480.26
413.31	478.45
413.687	492.46
414.065	475.96
414.442	476.87
414.819	493.14
415.197	485.91
415.574	515.28
415.951	523.19
416.328	503.98
416.705	479.13
417.082	493.81
417.46	486.58
417.837	517.99
418.214	541.72
418.591	511.44
418.967	504.44
419.344	514.15
419.721	519.58
420.098	513.7
420.475	543.76
420.852	518.45
421.228	515.74
421.605	534.49
421.982	555.51
422.358	556.64
422.735	535.4
423.111	549.86
423.488	556.86
423.864	563.64
424.241	552.57
424.617	543.76
424.994	560.03
425.37	586.69
425.746	573.81
426.123	571.33
426.499	566.36
426.875	577.2
427.251	587.6
427.627	584.89
428.003	592.57
428.379	591.89
428.756	589.18
429.132	604.55
429.507	620.37
429.883	611.78
430.259	612.46
430.635	621.72
431.011	630.08
431.387	633.02
431.763	637.99
432.138	644.77
432.514	640.93
432.89	669.86
433.265	662.62
433.641	662.4
434.016	662.85
434.392	665.79
434.767	664.43
435.143	678.22
435.518	692
435.894	666.24
436.269	698.33
436.644	701.72
437.02	716.18
437.395	696.3
437.77	706.01
438.145	757.54
438.52	739.23
438.895	735.39
439.271	720.25
439.646	732
440.021	743.98
440.395	756.86
440.77	754.15
441.145	753.24
441.52	761.83
441.895	779
442.27	779.91
442.645	794.6
443.019	780.36
443.394	809.06
443.769	822.62
444.143	799.12
444.518	803.86
444.892	760.02
445.267	777.2
445.641	819.68
446.016	797.08
446.39	802.06
446.764	811.32
447.139	825.33
447.513	844.54
447.887	833.47
448.262	846.12
448.636	848.38
449.01	837.08
449.384	871.66
449.758	871.88
450.132	866.01
450.506	866.91
450.88	874.37
451.254	867.36
451.628	907.36
452.002	870.98
452.376	891.09
452.75	916.4
453.123	944.88
453.497	923.18
453.871	924.76
454.244	945.55
454.618	945.1
454.992	962.05
455.365	967.02
455.739	942.39
456.112	988.94
456.486	979.9
456.859	996.85
457.232	1004.76
457.606	1023.07
457.979	1025.55
458.352	1050.86
458.725	1050.18
459.099	1044.76
459.472	1073.46
459.845	1100.35
460.218	1097.64
460.591	1110.75
460.964	1114.59
461.337	1123.85
461.71	1163.4
462.083	1163.63
462.456	1148.26
462.829	1172.67
463.201	1165.89
463.574	1207.92
463.947	1194.59
464.32	1202.95
464.692	1241.82
465.065	1240.01
465.438	1258.77
465.81	1271.2
466.183	1301.48
466.555	1296.73
466.928	1315.71
467.3	1327.69
467.672	1345.54
468.045	1379.89
468.417	1385.77
468.789	1415.82
469.161	1416.28
469.534	1430.97
469.906	1447.46
470.278	1495.37
470.65	1485.2
471.022	1541.02
471.394	1541.24
471.766	1573.33
472.138	1587.57
472.51	1602.71
472.882	1650.62
473.253	1706.89
473.625	1706.44
473.997	1755.48
474.369	1786.21
474.74	1803.38
475.112	1814.91
475.484	1880.22
475.855	1937.62
476.227	1936.26
476.598	1971.29
476.97	2042.25
477.341	2088.35
477.713	2129.7
478.084	2146.43
478.455	2188.91
478.827	2246.31
479.198	2339.42
479.569	2352.3
479.94	2422.58
480.311	2460.54
480.682	2517.49
481.053	2591.16
481.424	2665.28
481.795	2685.4
482.166	2738.05
482.537	2793.87
482.908	2875.67
483.279	2938.95
483.65	2971.72
484.021	3121.77
484.391	3143.69
484.762	3197.47
485.133	3254.42
485.503	3316.79
485.874	3401.31
486.244	3496.22
486.615	3605.15
486.985	3638.36
487.356	3763.11
487.726	3794.52
488.097	3908.19
488.467	3908.64
488.837	4029.99
489.207	4151.8
489.578	4181.63
489.948	4247.39
490.318	4397.21
490.688	4428.63
491.058	4530.54
491.428	4624.33
491.798	4700.26
492.168	4789.29
492.538	4823.42
492.908	4955.62
493.278	4968.73
493.648	5066.12
494.017	5147.48
494.387	5214.82
494.757	5288.94
495.126	5413.91
495.496	5437.41
495.866	5476.96
496.235	5586.79
496.605	5675.37
496.974	5688.48
497.344	5754.47
497.713	5895.93
498.082	5923.5
498.452	6002.14
498.821	6093.22
499.19	6126.21
499.559	6173.21
499.928	6257.96
500.298	6308.35
500.667	6368.01
501.036	6428.35
501.405	6556.71
501.774	6527.78
502.143	6606.65
502.512	6655.01
502.88	6695.01
503.249	6766.19
503.618	6830.37
503.987	6888.45
504.356	6949.69
504.724	7007.09
505.093	7031.72
505.462	7060.2
505.83	7187.65
506.199	7240.98
506.567	7340.87
506.936	7303.58
507.304	7363.24
507.672	7415.21
508.041	7519.62
508.409	7531.14
508.777	7637.36
509.145	7661.31
509.514	7716.22
509.882	7774.53
510.25	7807.52
510.618	7849.1
510.986	7879.61
511.354	7955.54
511.722	8031.47
512.09	8121.41
512.458	8128.64
512.826	8122.31
513.193	8215.42
513.561	8275.31
513.929	8293.38
514.297	8335.64
514.664	8413.83
515.032	8409.54
515.4	8518.91
515.767	8499.03
516.135	8595.07
516.502	8520.72
516.869	8775.63
517.237	8707.38
517.604	8720.49
517.972	8807.72
518.339	8807.27
518.706	8874.39
519.073	8888.62
519.44	8930.2
519.808	9016.53
520.175	9023.08
520.542	9169.07
520.909	9144.66
521.276	9106.24
521.643	9260.14
522.009	9336.52
522.376	9342.17
522.743	9411.09
523.11	9477.31
523.477	9589.17
523.843	9581.94
524.21	9680.47
524.577	9696.06
524.943	9733.12
525.31	9828.26
525.676	9904.87
526.043	9936.5
526.409	10007.01
526.776	10040.23
527.142	10056.28
527.508	10137.18
527.874	10180.79
528.241	10301.92
528.607	10304.63
528.973	10375.14
529.339	10391.18
529.705	10491.74
530.071	10585.3
530.437	10578.75
530.803	10687.22
531.169	10735.81
531.535	10681.12
531.901	10797.5
532.267	10828.46
532.632	10883.6
532.998	10949.13
533.364	10971.05
533.73	11018.06
534.095	11079.07
534.461	11173.31
534.826	11222.12
535.192	11189.8
535.557	11345.28
535.923	11320.42
536.288	11392.96
536.653	11395.22
537.019	11384.6
537.384	11469.35
537.749	11534.2
538.114	11535.11
538.479	11634.54
538.845	11685.84
539.21	11643.13
539.575	11794.76
539.94	11890.35
540.305	11952.27
540.67	11860.97
541.034	11881.09
541.399	11963.8
541.764	11968.32
542.129	12132.38
542.494	12198.37
542.858	12169.89
543.223	12159.27
543.587	12254.86
543.952	12217.35
544.316	12325.37
544.681	12352.03
545.045	12308.87
545.41	12558.36
545.774	12538.7
546.138	12592.71
546.503	12606.49
546.867	12657.56
547.231	12794.73
547.595	12771.01
547.959	12856.88
548.324	12822.76
548.688	12896.65
549.052	12942.75
549.416	12966.71
549.779	12978.46
550.143	12979.59
550.507	13168.51
550.871	13180.71
551.235	13273.59
551.599	13207.83
551.962	13298.68
552.326	13359.47
552.689	13390.88
553.053	13324.21
553.417	13363.98
553.78	13544.54
554.143	13559.46
554.507	13521.27
554.87	13564.88
555.234	13692.79
555.597	13634.49
555.96	13703.64
556.323	13821.15
556.686	13800.81
557.05	13912.9
557.413	13950.18
557.776	13902.5
558.139	14089.39
558.502	14083.51
558.865	14161.25
559.228	14150.86
559.59	14263.62
559.953	14316.95
560.316	14457.06
560.679	14422.26
561.041	14495.71
561.404	14541.13
561.767	14602.6
562.129	14571.18
562.492	14713.33
562.854	14707.45
563.217	14647.79
563.579	14778.18
563.941	14802.82
564.304	14944.28
564.666	14955.58
565.028	14973.66
565.39	15020.44
565.753	15106.99
566.115	15147.44
566.477	15257.04
566.839	15326.87
567.201	15355.57
567.563	15404.16
567.925	15507.21
568.287	15526.19
568.648	15601.89
569.01	15546.07
569.372	15783.58
569.734	15702.23
570.095	15805.73
570.457	15876.24
570.819	15945.84
571.18	15964.14
571.542	16094.31
571.903	16082.33
572.265	16231.03
572.626	16222.21
572.987	16278.03
573.349	16368.65
573.71	16545.6
574.071	16586.5
574.432	16670.11
574.794	16835.08
575.155	16748.3
575.516	16833.72
575.877	17072.14
576.238	17090.44
576.599	17254.5
576.96	17321.17
577.32	17339.02
577.681	17610.88
578.042	17618.34
578.403	17743.76
578.763	17906.46
579.124	18074.82
579.485	18234.82
579.845	18393.23
580.206	18566.56
580.566	18522.49
580.927	18770.17
581.287	18957.96
581.648	19107.11
582.008	19352.08
582.368	19510.94
582.728	19702.35
583.089	19782.57
583.449	20018.5
583.809	20099.63
584.169	20429.79
584.529	20591.14
584.889	20877.23
585.249	21067.06
585.609	21160.39
585.969	21541.85
586.329	21698.68
586.688	21938
587.048	22238.1
587.408	22389.74
587.768	22645.77
588.127	22770.07
588.487	23017.06
588.846	23376.15
589.206	23499.54
589.565	23864.95
589.925	24066.53
590.284	24373.41
590.643	24599.62
591.003	24935.66
591.362	25203.45
591.721	25331.35
592.08	25650.44
592.44	26073.48
592.799	26137.89
593.158	26401.61
593.517	26728.15
593.876	27087.01
594.235	27369.04
594.593	27536.72
594.952	27879.31
595.311	28007.44
595.67	28369.01
596.029	28762.22
596.387	29056.45
596.746	29201.08
597.104	29385.48
597.463	29725.36
597.822	30046.94
598.18	30013.04
598.538	30399.47
598.897	30792.91
599.255	30893.02
599.613	31460.46
599.972	31484.19
600.33	31756.04
600.688	31917.17
601.046	32282.13
601.404	32643.48
601.762	32692.97
602.12	33152.84
602.478	33325.72
602.836	33420.63
603.194	33454.76
603.552	33821.75
603.91	33884.12
604.268	34380.16
604.625	34315.52
604.983	34729.98
605.341	34609.3
605.698	35062.85
606.056	35413.57
606.413	35419.45
606.771	35691.99
607.128	35948.48
607.485	35890.4
607.843	36187.79
608.2	36411.97
608.557	36645.18
608.914	36661
609.272	36968.79
609.629	37064.15
609.986	37333.07
610.343	37367.87
610.7	37808.31
611.057	37941.19
611.414	37974.41
611.771	38168.3
612.127	38362.65
612.484	38486.04
612.841	38803.77
613.198	38652.59
613.554	38893.26
613.911	39242.63
614.267	39341.15
614.624	39379.35
614.98	39513.35
615.337	39819.11
615.693	39862.5
616.05	39933.68
616.406	40256.16
616.762	40227.23
617.118	40264.75
617.475	40245.31
617.831	40547.68
618.187	40647.11
618.543	40779.31
618.899	41023.82
619.255	40961.23
619.611	41158.51
619.967	41370.03
620.323	41620.19
620.678	41405.06
621.034	41463.58
621.39	41436.24
621.746	41498.16
622.101	41994.64
622.457	41748.32
622.812	41907.64
623.168	42035.32
623.523	41892.73
623.879	42198.71
624.234	41933.86
624.589	42198.71
624.945	42274.41
625.3	42314.41
625.655	42331.13
626.01	42464.01
626.365	42610.22
626.72	42622.42
627.075	42547.62
627.43	42503.78
627.785	42621.75
628.14	42667.4
628.495	42877.33
628.85	42717.56
629.205	42755.08
629.559	42948.07
629.914	42866.26
630.269	42913.04
630.623	42592.37
630.978	42820.61
631.332	42878.69
631.687	42980.61
632.041	42803.21
632.396	42943.55
632.75	42733.61
633.104	42894.28
633.459	42724.34
633.813	42824.45
634.167	42761.18
634.521	42724.57
634.875	42896.54
635.229	42815.87
635.583	42684.34
635.937	42664.68
636.291	42697.45
636.645	42809.31
636.999	42773.15
637.352	42895.86
637.706	42608.64
638.06	42895.86
638.413	42801.63
638.767	42778.13
639.121	42765.92
639.474	42669.2
639.828	42715.98
640.181	42607.06
640.534	42737.22
640.888	42542.88
641.241	42443.67
641.594	42476.67
641.947	42617.9
642.301	42655.87
642.654	42539.26
643.007	42610.45
643.36	42569.77
643.713	42441.86
644.066	42505.14
644.419	42406.84
644.771	42087.52
645.124	41779.73
645.477	41766.18
645.83	41329.8
646.182	41377.26
646.535	41250.94
646.888	41378.16
647.24	41111.28
647.593	41367.77
647.945	41282.35
648.298	41013.88
648.65	41040.32
649.002	41003.94
649.355	41099.75
649.707	41054.78
650.059	41234.44
650.411	41797.14
650.763	41746.06
651.115	42073.29
651.467	41950.35
651.819	42000.29
652.171	41840.52
652.523	41847.53
652.875	41949.22
653.227	41601.43
653.578	41850.47
653.93	41795.33
654.282	41596.69
654.633	41583.58
654.985	41673.3
655.337	41834.65
655.688	41647.31
656.039	41781.77
656.391	41472.62
656.742	41558.72
657.094	41573.64
657.445	41719.17
657.796	41606.63
658.147	41586.29
658.498	41683.69
658.849	41586.75
659.2	41493.64
659.551	41450.93
659.902	41701.54
660.253	41483.92
660.604	41504.49
660.955	41288
661.306	41546.75
661.656	41444.15
662.007	41453.64
662.358	41440.99
662.708	41377.03
663.059	41402.12
663.409	41346.75
663.76	41491.83
664.11	41547.42
664.461	41629.23
664.811	41544.94
665.161	41496.58
665.511	41352.63
665.862	41448.44
666.212	41592.85
666.562	41475.11
666.912	41354.44
667.262	41327.32
667.612	41311.5
667.962	41429.24
668.312	41413.42
668.662	41456.13
669.011	41382.46
669.361	41288.67
669.711	41344.72
670.06	41227.88
670.41	41187.43
670.76	41197.15
671.109	41301.78
671.459	41232.86
671.808	41023.37
672.157	41247.77
672.507	40898.63
672.856	41028.79
673.205	41198.51
673.554	41149.02
673.904	40963.03
674.253	41203.48
674.602	40996.48
674.951	40428.13
675.3	40388.58
675.649	40975.91
675.998	41017.04
676.346	40982.47
676.695	41164.84
677.044	40685.98
677.393	40938.4
677.741	40849.14
678.09	40969.36
678.438	40765.75
678.787	40827.67
679.135	40813.66
679.484	40609.82
679.832	40585.42
680.181	40521.24
680.529	40527.34
680.877	40485.31
681.225	40376.83
681.573	40701.12
681.922	40345.65
682.27	40286.67
682.618	40305.65
682.966	40152.66
683.314	40276.27
683.661	40141.36
684.009	39970.06
684.357	39866.11
684.705	39963.51
685.053	39954.92
685.4	39752.9
685.748	39737.75
686.095	39685.78
686.443	39608.27
686.79	39485.78
687.138	39556.97
687.485	39544.77
687.832	39542.51
688.18	39455.95
688.527	39375.96
688.874	39163.08
689.221	39059.13
689.568	38992.46
689.915	38998.56
690.262	38808.51
690.609	38689.65
690.956	38694.62
691.303	38569.65
691.65	38491.23
691.997	38459.37
692.344	38243.33
692.69	38181.41
693.037	38194.52
693.383	37863.68
693.73	38060.28
694.077	37870.23
694.423	37793.17
694.769	37733.74
695.116	37786.85
695.462	37612.39
695.808	37550.92
696.155	37616.91
696.501	37394.99
696.847	37156.13
697.193	37142.34
697.539	37242.9
697.885	36910.94
698.231	36730.38
698.577	36952.52
698.923	36719.75
699.269	36621.9
699.614	36466.65
699.96	36399.54
700.306	36445.86
700.651	36239.09
700.997	36049.72
701.342	35887.01
701.688	36031.86
702.033	35872.55
702.379	35946.44
702.724	35783.28
703.069	35801.13
703.415	35283.86
703.76	35426
704.105	35418.77
704.45	35320.02
704.795	35028.73
705.14	35030.31
705.485	35087.26
705.83	34921.38
706.175	34964.32
706.52	34883.64
706.865	34685.68
707.209	34619.7
707.554	34673.25
707.899	34647.94
708.243	34416.54
708.588	34408.18
708.932	34051.35
709.277	34191.46
709.621	34175.87
709.966	33911.69
710.31	34012.26
710.654	33624.02
710.998	33860.85
711.342	33797.8
711.687	33713.05
712.031	33523.68
712.375	33417.92
712.719	33636.9
713.063	33443.68
713.407	33587.18
713.75	33345.61
714.094	33325.95
714.438	33260.86
714.782	33142.9
715.125	32956.69
715.469	33213.86
715.812	32834.66
716.156	32652.97
716.499	32780.65
716.843	32761.21
717.186	32620.65
717.53	32805.96
717.873	32744.27
718.216	32554.67
718.559	32536.36
718.902	32217.27
719.246	32364.39
719.589	32323.71
719.932	32142.7
720.275	32161.23
720.617	32137.5
720.96	31941.12
721.303	31972.76
721.646	31917.62
721.989	31915.14
722.331	31915.81
722.674	31913.78
723.016	31866.78
723.359	31675.14
723.701	31622.71
724.044	31413.23
724.386	31435.83
724.729	31582.26
725.071	31442.83
725.413	31368.94
725.755	31407.13
726.097	31208.49
726.439	31138.66
726.782	31214.59
727.124	31240.12
727.465	30928.95
727.807	31041.71
728.149	30937.53
728.491	30787.03
728.833	30904.54
729.175	30644.89
729.516	30794.03
729.858	30779.8
730.199	30637.65
730.541	30736.41
730.882	30651.67
731.224	30755.84
731.565	30455.96
731.906	30532.8
732.248	30488.05
732.589	30517.43
732.93	30366.7
733.271	30310.43
733.612	30408.51
733.953	30333.93
734.294	30135.3
734.635	30147.5
734.976	30229.3
735.317	30017.11
735.658	30046.48
735.999	29972.14
736.339	29837.68
736.68	30068.18
737.021	29867.96
737.361	29758.81
737.702	29940.5
738.042	29797
738.383	29816.43
738.723	29773.5
739.063	29648.75
739.404	29635.87
739.744	29639.26
740.084	29433.39
740.424	29467.06
740.764	29437.46
741.104	29492.15
741.444	29269.1
741.784	29260.97
742.124	29251.93
742.464	29123.12
742.804	29124.02
743.143	29089.67
743.483	29313.62
743.823	29041.54
744.162	29108.43
744.502	28972.61
744.841	28807.65
745.181	29029.56
745.52	28915.44
745.86	28970.81
746.199	28819.85
746.538	28799.74
746.877	28815.78
747.216	28731.49
747.556	28651.27
747.895	28763.81
748.234	28654.43
748.573	28527.65
748.911	28537.15
749.25	28591.61
749.589	28343.48
749.928	28462.57
750.267	28484.27
750.605	28390.71
750.944	28220.54
751.283	28176.25
751.621	28165.86
751.96	28019.87
752.298	28126.99
752.636	28036.59
752.975	28009.02
753.313	27842.02
753.651	28007.89
753.989	27779.2
754.327	27704.17
754.666	27596.38
755.004	27640.67
755.342	27636.38
755.679	27641.58
756.017	27481.13
756.355	27542.6
756.693	27462.82
757.031	27406.55
757.368	27285.65
757.706	27278.65
758.044	27215.82
758.381	27140.8
758.719	27132.21
759.056	27063.06
759.394	27036.62
759.731	26828.26
760.068	26831.43
760.405	26661.94
760.743	26642.28
761.08	26791.43
761.417	26635.05
761.754	26478.44
762.091	26465.11
762.428	26344.89
762.765	26126.36
763.102	26240.71
763.438	26166.59
763.775	25970.21
764.112	26005.91
764.449	26066.7
764.785	25830.55
765.122	25769.53
765.458	25637.33
765.795	25581.52
766.131	25446.6
766.467	25478.24
766.804	25346.49
767.14	25248.42
767.476	25222.66
767.812	25193.05
768.148	25085.26
768.485	24963.23
768.821	24992.15
769.157	24955.09
769.492	24790.35
769.828	24643.46
770.164	24525.5
770.5	24541.09
770.836	24410.47
771.171	24298.39
771.507	24242.34
771.842	24083.93
772.178	24130.48
772.513	24011.16
772.849	23950.6
773.184	23851.17
773.519	23930.49
773.855	23760.77
774.19	23634.68
774.525	23520.1
774.86	23475.36
775.195	23561.68
775.53	23383.83
775.865	23297.51
776.2	23149.94
776.535	22889.38
776.87	23009.38
777.205	22790.63
777.539	22640.13
777.874	22840.8
778.209	22480.13
778.543	22582.27
778.878	22412.11
779.212	22364.88
779.547	22286.24
779.881	22293.02
780.215	22192
780.55	22131.89
780.884	22025.45
781.218	21909.97
781.552	21872.01
781.886	21881.95
782.22	21744.33
782.554	21726.7
782.888	21437.44
783.222	21321.29
783.556	21228.86
783.889	21292.59
784.223	21219.6
784.557	21080.62
784.89	21086.72
785.224	20893.5
785.557	20832.94
785.891	20866.84
786.224	20726.05
786.558	20710.91
786.891	20487.19
787.224	20432.73
787.557	20421.88
787.891	20416.91
788.224	20352.05
788.557	20331.26
788.89	20260.3
789.223	20206.29
789.556	20048.55
789.888	20030.48
790.221	19859.18
790.554	19815.11
790.887	19778.28
791.219	19782.8
791.552	19621.22
791.884	19568.34
792.217	19539.19
792.549	19458.29
792.882	19323.83
793.214	19207.9
793.546	19292.42
793.879	19238.86
794.211	18970.39
794.543	19015.14
794.875	19133.78
795.207	19071.86
795.539	18943.05
795.871	18926.78
796.203	18743.28
796.535	18712.54
796.867	18639.33
797.198	18558.42
797.53	18565.43
797.862	18396.17
798.193	18508.93
798.525	18269.84
798.856	18269.84
799.188	18201.82
799.519	18031.21
799.85	17991.66
800.182	17975.16
800.513	18020.36
800.844	17852.23
801.175	17945.33
801.506	17793.7
801.837	17754.38
802.168	17756.19
802.499	17601.61
802.83	17540.6
803.161	17479.81
803.491	17537.21
803.822	17506.02
804.153	17419.7
804.483	17281.85
804.814	17259.93
805.145	17253.83
805.475	17226.48
805.805	17139.48
806.136	17101.74
806.466	17094.96
806.796	17014.74
807.126	16868.53
807.457	16868.53
807.787	16840.73
808.117	16709.43
808.447	16731.81
808.777	16772.71
809.107	16614.97
809.436	16626.27
809.766	16529.33
810.096	16565.03
810.426	16365.04
810.755	16448.65
811.085	16388.09
811.414	16306.96
811.744	16151.93
812.073	16116
812.403	16190.8
812.732	16141.76
813.061	16061.77
813.39	16003.92
813.719	15914.2
814.049	16013.63
814.378	15930.92
814.707	15847.31
815.036	15809.34
815.365	15766.86
815.693	15715.56
816.022	15697.48
816.351	15627.65
816.68	15494.1
817.008	15609.8
817.337	15428.11
817.665	15423.37
817.994	15554.66
818.322	15454.78
818.651	15353.54
818.979	15376.14
819.307	15400.32
819.636	15304.95
819.964	15150.6
820.292	15222.69
820.62	15278.96
820.948	15137.5
821.276	15243.71
821.604	15195.35
821.932	15238.06
822.259	15202.35
822.587	15185.18
822.915	15095.01
823.243	15189.02
823.57	15111.06
823.898	15002.59
824.225	15068.57
824.553	15061.57
824.88	15074.22
825.207	15106.09
825.535	15192.86
825.862	15100.89
826.189	14985.86
826.516	15114
826.843	15190.83
827.17	15140.89
827.497	15083.04
827.824	15064.73
828.151	15108.8
828.478	15090.95
828.805	15167.55
829.131	15107.22
829.458	15067.89
829.785	15068.8
830.111	15023.6
830.438	15084.62
830.764	15040.1
831.09	15048.91
831.417	14925.07
831.743	15049.82
832.069	14918.75
832.395	14998.52
832.722	14974.79
833.048	14938.86
833.374	15024.73
833.7	14898.41
834.026	14897.28
834.351	14869.71
834.677	14916.03
835.003	14917.62
835.329	14824.06
835.654	14827.9
835.98	14741.58
836.306	14773.21
836.631	14815.02
836.956	14804.85
837.282	14783.38
837.607	14700.67
837.932	14723.5
838.258	14609.83
838.583	14669.04
838.908	14498.42
839.233	14552.88
839.558	14484.86
839.883	14504.07
840.208	14467.68
840.533	14448.48
840.858	14438.08
841.182	14434.47
841.507	14419.1
841.832	14290.29
842.156	14331.87
842.481	14281.7
842.805	14299.78
843.13	14268.82
843.454	14286.45
843.778	14157.18
844.103	14254.58
844.427	14110.63
844.751	14052.55
845.075	14092.33
845.399	14019.56
845.723	13944.99
846.047	13979.79
846.371	13810.3
846.695	13828.61
847.019	13832.22
847.343	13656.86
847.666	13543.87
847.99	13567.6
848.313	13430.88
848.637	13485.79
848.96	13377.77
849.284	13427.03
849.607	13361.95
849.931	13273.37
850.254	13202.18
850.577	13078.79
850.9	13095.07
851.223	12973.94
851.546	12899.59
851.869	12929.65
852.192	12977.33
852.515	12738.01
852.838	12716.54
853.161	12760.84
853.483	12608.07
853.806	12624.12
854.129	12611.01
854.451	12529.2
854.774	12488.75
855.096	12442.43
855.419	12477.45
855.741	12387.29
856.063	12236.1
856.385	12308.65
856.708	12232.49
857.03	12222.55
857.352	12187.52
857.674	12139.61
857.996	12109.33
858.318	11968.99
858.64	11978.71
858.961	12018.71
859.283	11986.39
859.605	11931.71
859.926	11992.27
860.248	11864.59
860.57	11858.04
860.891	11880.63
861.212	11787.53
861.534	11721.54
861.855	11699.85
862.176	11750.24
862.498	11693.52
862.819	11657.81
863.14	11599.06
863.461	11603.58
863.782	11591.38
864.103	11580.3
864.424	11545.95
864.745	11590.02
865.065	11485.62
865.386	11462.57
865.707	11498.5
866.027	11469.35
866.348	11430.02
866.668	11480.87
866.989	11392.51
867.309	11343.7
867.63	11316.35
867.95	11303.25
868.27	11330.59
868.59	11300.08
868.91	11253.08
869.23	11254.21
869.55	11290.14
869.87	11211.05
870.19	11229.8
870.51	11192.06
870.83	11193.42
871.15	11111.39
871.469	11093.31
871.789	11152.29
872.109	11021.45
872.428	11037.72
872.748	11096.47
873.067	11039.75
873.386	11028.45
873.706	11032.97
874.025	10865.75
874.344	10876.14
874.663	10924.05
874.982	10838.85
875.301	10932.18
875.62	10840.89
875.939	10784.84
876.258	10820.55
876.577	10832.75
876.896	10806.99
877.214	10818.29
877.533	10792.07
877.852	10758.63
878.17	10726.09
878.489	10724.96
878.807	10687.22
879.125	10668.24
879.444	10662.36
879.762	10656.26
880.08	10583.04
880.398	10589.82
880.716	10549.14
881.034	10552.99
881.352	10623.94
881.67	10529.48
881.988	10601.57
882.306	10454.91
882.624	10473.89
882.941	10431.63
883.259	10379.43
883.577	10338.75
883.894	10374.01
884.212	10334.23
884.529	10214.92
884.846	10292.65
885.164	10231.64
885.481	10191.19
885.798	10227.12
886.115	10148.48
886.432	10130.17
886.75	10122.49
887.067	10079.55
887.383	10015.37
887.7	10087.01
888.017	10029.38
888.334	10035.71
888.651	10025.32
888.967	9945.77
889.284	9922.49
889.6	9872.33
889.917	9817.19
890.233	9840.24
890.55	9849.27
890.866	9898.77
891.182	9741.71
891.498	9774.7
891.815	9688.38
892.131	9694.25
892.447	9742.39
892.763	9634.14
893.079	9587.13
893.395	9545.1
893.71	9539.9
894.026	9525.89
894.342	9444.31
894.657	9457.19
894.973	9450.19
895.289	9399.12
895.604	9354.15
895.92	9335.39
896.235	9298.55
896.55	9289.06
896.865	9269.63
897.181	9254.49
897.496	9190.76
897.811	9209.07
898.126	9164.1
898.441	9021.27
898.756	9102.4
899.071	9046.13
899.386	9100.14
899.7	8940.82
900.015	8953.03
900.33	8835.29
900.644	8836.19
900.959	8887.72
901.273	8832.35
901.588	8790.32
901.902	8727.72
902.216	8734.73
902.531	8727.95
902.845	8649.76
903.159	8586.26
903.473	8555.3
903.787	8532.02
904.101	8503.55
904.415	8561.4
904.729	8498.8
905.042	8457.22
905.356	8381.29
905.67	8338.81
905.984	8359.6
906.297	8342.2
906.611	8318.24
906.924	8272.37
907.237	8304.91
907.551	8221.07
907.864	8195.76
908.177	8116.21
908.491	8138.81
908.804	8093.39
909.117	8012.04
909.43	8013.39
909.743	7931.36
910.056	7895.2
910.368	7879.61
910.681	7929.1
910.994	7758.93
911.307	7781.76
911.619	7738.82
911.932	7759.16
912.244	7718.03
912.557	7723.23
912.869	7665.83
913.181	7555.78
913.494	7530.01
913.806	7479.17
914.118	7515.55
914.43	7407.76
914.742	7439.62
915.054	7416.57
915.366	7330.47
915.678	7310.36
915.99	7341.54
916.302	7223.58
916.613	7224.03
916.925	7219.51
917.236	7236.91
917.548	7144.26
917.859	7179.29
918.171	7087.99
918.482	7087.77
918.794	7009.8
919.105	7039.41
919.416	6968.67
919.727	6951.95
920.038	7002.8
920.349	6881.44
920.66	6808.45
920.971	6852.74
921.282	6811.84
921.593	6723.71
921.903	6711.28
922.214	6736.14
922.525	6655.23
922.835	6624.05
923.146	6616.14
923.456	6641.68
923.767	6533.66
924.077	6600.77
924.387	6555.12
924.697	6504.73
925.008	6446.2
925.318	6451.4
925.628	6443.71
925.938	6397.84
926.248	6340.44
926.558	6290.05
926.867	6369.59
927.177	6260.22
927.487	6234.23
927.796	6175.7
928.106	6213.66
928.416	6181.35
928.725	6227.22
929.034	6154.68
929.344	6106.77
929.653	6067.23
929.962	6021.8
930.271	6055.02
930.581	5938.87
930.89	5970.96
931.199	5942.71
931.508	5924.41
931.817	5929.83
932.125	5868.14
932.434	5920.34
932.743	5806.9
933.051	5800.79
933.36	5793.79
933.669	5768.25
933.977	5677.41
934.286	5717.63
934.594	5653.68
934.902	5663.17
935.21	5599.44
935.519	5600.35
935.827	5578.43
936.135	5573.68
936.443	5459.33
936.751	5435.83
937.059	5473.12
937.367	5454.36
937.674	5489.39
937.982	5450.07
938.29	5404.65
938.597	5392.89
938.905	5328.72
939.213	5325.1
939.52	5305.67
939.827	5285.78
940.135	5217.98
940.442	5226.35
940.749	5201.71
941.056	5215.95
941.363	5197.87
941.67	5145.44
941.977	5109.74
942.284	5068.84
942.591	5075.39
942.898	5037.2
943.205	5006.01
943.511	5085.33
943.818	4980.02
944.125	4928.27
944.431	4922.17
944.738	4951.78
945.044	4911.55
945.35	4889.18
945.657	4825.9
945.963	4831.55
946.269	4787.26
946.575	4805.34
946.881	4767.37
947.187	4750.88
947.493	4728.51
947.799	4685.79
948.105	4663.87
948.41	4627.94
948.716	4608.73
949.022	4609.86
949.327	4635.4
949.633	4606.25
949.938	4589.75
950.244	4553.14
950.549	4536.19
950.854	4451.45
951.16	4475.86
951.465	4461.17
951.77	4439.25
952.075	4437.44
952.38	4420.49
952.685	4464.56
952.99	4359.02
953.294	4318.8
953.599	4324.9
953.904	4297.56
954.209	4303.21
954.513	4283.55
954.818	4289.87
955.122	4244.22
955.426	4234.28
955.731	4229.76
956.035	4208.52
956.339	4165.58
956.643	4180.05
956.948	4119.71
957.252	4117
957.556	4149.99
957.86	4075.42
958.163	4079.48
958.467	4065.92
958.771	4084.91
959.075	3993.61
959.378	3973.27
959.682	3980.73
959.985	3945.7
960.289	3971.01
960.592	3924.01
960.896	3925.59
961.199	3864.57
961.502	3862.99
961.805	3858.7
962.108	3826.83
962.411	3836.78
962.714	3833.61
963.017	3780.28
963.32	3765.37
963.623	3726.27
963.926	3731.7
964.228	3776.89
964.531	3703
964.833	3700.74
965.136	3700.74
965.438	3656.9
965.741	3616.67
966.043	3629.78
966.345	3600.17
966.648	3609.89
966.95	3580.06
967.252	3550.01
967.554	3585.26
967.856	3509.33
968.158	3498.71
968.46	3520.4
968.761	3507.07
969.063	3499.61
969.365	3471.82
969.666	3417.81
969.968	3410.12
970.269	3457.35
970.571	3447.41
970.872	3373.74
971.174	3371.48
971.475	3372.38
971.776	3376.45
972.077	3334.64
972.378	3312.05
972.679	3294.87
972.98	3315.89
973.281	3283.57
973.582	3277.7
973.883	3285.83
974.183	3219.62
974.484	3211.48
974.785	3162.22
975.085	3244.93
975.386	3202.22
975.686	3124.48
975.986	3164.93
976.287	3101.66
976.587	3086.51
976.887	3107.31
977.187	3093.52
977.487	3072.73
977.787	3029.12
978.087	3001.09
978.387	3004.26
978.687	3056.46
978.987	3020.75
979.286	3014.43
979.586	2980.08
979.885	2985.73
980.185	2949.57
980.484	2948.44
980.784	2956.57
981.083	2922.68
981.382	2892.4
981.682	2864.15
981.981	2874.32
982.28	2850.36
982.579	2825.28
982.878	2826.86
983.177	2858.27
983.475	2817.82
983.774	2812.17
984.073	2810.14
984.372	2781.89
984.67	2787.54
984.969	2758.16
985.267	2751.38
985.566	2740.54
985.864	2677.26
986.162	2735.34
986.461	2694.89
986.759	2680.88
987.057	2661.22
987.355	2633.87
987.653	2689.46
987.951	2652.18
988.249	2601.78
988.547	2616.92
988.844	2576.25
989.142	2587.09
989.44	2542.8
989.737	2603.59
990.035	2563.36
990.332	2527.21
990.63	2523.14
990.927	2547.09
991.224	2539.86
991.521	2504.38
991.819	2461.22
992.116	2498.96
992.413	2456.02
992.71	2440.88
993.006	2444.72
993.303	2425.29
993.6	2445.63
993.897	2410.37
994.193	2394.1
994.49	2350.72
994.787	2372.41
995.083	2363.14
995.379	2331.28
995.676	2332.41
995.972	2318.63
996.268	2299.42
996.565	2284.05
996.861	2308
997.157	2274.78
997.453	2247.67
997.749	2251.73
998.044	2242.47
998.34	2236.82
998.636	2231.17
998.932	2221.45
999.227	2208.35
999.523	2190.72
999.818	2179.87
1000.114	2145.75
1000.409	2122.92
1000.704	2116.6
1001	2121.12
1001.295	2119.76
1001.59	2139.87
1001.885	2126.99
1002.18	2037.28
1002.475	2093.32
1002.77	2026.88
1003.065	2045.64
1003.359	2048.58
1003.654	2046.32
1003.949	2015.13
1004.243	2025.53
1004.538	2002.48
1004.832	2001.35
1005.127	1983.49
1005.421	1992.08
1005.715	1929.94
1006.009	1963.15
1006.304	1978.3
1006.598	1946.43
1006.892	1915.02
1007.186	1903.72
1007.48	1871.41
1007.773	1866.21
1008.067	1888.13
1008.361	1878.86
1008.655	1849.71
1008.948	1848.58
1009.242	1862.37
1009.535	1847.9
1009.829	1808.36
1010.122	1774.91
1010.415	1804.06
1010.708	1775.36
1011.001	1761.8
1011.295	1779.66
1011.588	1762.71
1011.881	1766.32
1012.173	1724.74
1012.466	1729.71
1012.759	1705.99
1013.052	1722.26
1013.344	1691.07
1013.637	1666.89
1013.93	1708.47
1014.222	1668.25
1014.514	1636.38
1014.807	1651.75
1015.099	1630.51
1015.391	1620.11
1015.683	1615.59
1015.976	1600
1016.268	1572.43
1016.56	1589.38
1016.851	1570.62
1017.143	1590.96
1017.435	1543.96
1017.727	1528.14
1018.018	1545.31
1018.31	1545.31
1018.602	1527.46
1018.893	1518.65
1019.185	1514.35
1019.476	1510.29
1019.767	1529.27
1020.058	1459.21
1020.35	1472.77
1020.641	1453.79
1020.932	1432.1
1021.223	1429.38
1021.514	1433.45
1021.804	1410.17
1022.095	1417.41
1022.386	1397.75
1022.677	1375.15
1022.967	1376.73
1023.258	1368.59
1023.548	1356.84
1023.839	1348.03
1024.129	1348.71
1024.419	1346.9
1024.709	1310.29
1025	1301.93
1025.29	1303.06
1025.58	1321.82
1025.87	1293.12
1026.16	1283.4
1026.449	1293.12
1026.739	1273.68
1027.029	1247.92
1027.319	1228.03
1027.608	1239.33
1027.898	1222.16
1028.187	1220.12
1028.477	1240.01
1028.766	1189.16
1029.055	1207.02
1029.344	1191.88
1029.634	1206.56
1029.923	1175.38
1030.212	1154.59
1030.501	1155.72
1030.79	1162.05
1031.078	1137.87
1031.367	1132.89
1031.656	1125.44
1031.945	1109.39
1032.233	1119.79
1032.522	1120.69
1032.81	1091.77
1033.099	1097.41
1033.387	1107.58
1033.675	1087.47
1033.963	1070.3
1034.251	1077.08
1034.54	1070.52
1034.828	1072.33
1035.116	1061.26
1035.403	1037.3
1035.691	1014.48
1035.979	1009.06
1036.267	1030.98
1036.554	1000.92
1036.842	1022.16
1037.129	1003.18
1037.417	985.33
1037.704	996.85
1037.992	1010.19
1038.279	975.38
1038.566	972.22
1038.853	972.22
1039.14	972.22
