Data from hue_270_FLMS001491_00006.txt Node
Date: Tue Feb 07 15:56:42 GMT 2017
User: dcchb
Spectrometer: FLMS00149
Trigger mode: 0
Integration Time (sec): 2.000000E-2
Scans to average: 10
Electric dark correction enabled: true
Nonlinearity correction enabled: false
Boxcar width: 0
XAxis mode: Wavelengths
Number of Pixels in Spectrum: 2048
>>>>>Begin Spectral Data<<<<<
341.393	-14.29
341.776	-14.29
342.16	-14.29
342.543	-76.44
342.927	-59.94
343.31	-66.95
343.693	-51.13
344.077	-74.86
344.46	-52.94
344.843	-30.79
345.226	-53.84
345.61	-26.95
345.993	-19.49
346.376	-9.32
346.759	3.79
347.142	14.63
347.525	33.84
347.908	88.53
348.291	71.35
348.674	84.91
349.057	89.21
349.44	118.36
349.823	131.69
350.206	151.35
350.588	185.7
350.971	192.93
351.354	206.04
351.737	224.12
352.119	213.95
352.502	227.51
352.884	264.57
353.267	282.65
353.65	294.17
354.032	297.34
354.414	305.25
354.797	300.5
355.179	327.39
355.562	311.8
355.944	316.77
356.326	331.69
356.709	334.4
357.091	337.34
357.473	333.04
357.855	360.39
358.238	350.67
358.62	348.41
359.002	343.21
359.384	317.68
359.766	330.1
360.148	311.12
360.53	313.16
360.912	347.96
361.294	308.64
361.676	331.46
362.057	324.45
362.439	314.06
362.821	327.84
363.203	305.7
363.584	333.95
363.966	329.43
364.348	299.82
364.729	311.35
365.111	320.16
365.493	333.04
365.874	318.81
366.256	301.86
366.637	296.43
367.019	313.38
367.4	320.61
367.781	300.27
368.163	289.2
368.544	320.16
368.925	309.77
369.306	305.47
369.688	315.42
370.069	314.51
370.45	313.38
370.831	310.22
371.212	326.94
371.593	308.18
371.974	310.67
372.355	317.22
372.736	314.29
373.117	312.93
373.498	333.49
373.879	315.42
374.26	325.36
374.641	328.52
375.021	312.93
375.402	312.93
375.783	324
376.163	319.48
376.544	320.39
376.925	321.97
377.305	324.68
377.686	331.91
378.066	335.3
378.447	311.35
378.827	299.6
379.208	315.42
379.588	325.36
379.968	327.62
380.349	326.94
380.729	341.18
381.109	326.26
381.489	322.42
381.87	323.32
382.25	347.05
382.63	334.85
383.01	349.99
383.39	358.8
383.77	358.8
384.15	340.95
384.53	364.23
384.91	357
385.29	343.89
385.67	334.4
386.049	337.56
386.429	353.83
386.809	359.71
387.189	348.41
387.568	338.24
387.948	354.96
388.328	364.91
388.707	358.8
389.087	367.62
389.466	359.93
389.846	349.54
390.225	343.89
390.605	354.96
390.984	350.22
391.363	361.74
391.743	372.59
392.122	358.13
392.501	368.97
392.881	350.44
393.26	354.96
393.639	394.51
394.018	372.59
394.397	422.76
394.776	387.96
395.155	362.19
395.534	398.35
395.913	398.58
396.292	366.94
396.671	386.37
397.05	376.43
397.429	394.28
397.808	403.32
398.186	410.78
398.565	431.57
398.944	400.16
399.323	400.84
399.701	397.22
400.08	421.4
400.458	404.9
400.837	419.14
401.215	407.39
401.594	415.98
401.972	433.83
402.351	430.89
402.729	426.82
403.107	425.7
403.486	445.81
403.864	451.23
404.242	445.58
404.62	451.46
404.999	447.84
405.377	444.45
405.755	458.69
406.133	465.47
406.511	478.35
406.889	470.44
407.267	463.43
407.645	469.31
408.023	455.3
408.401	485.13
408.779	509.08
409.156	467.28
409.534	499.59
409.912	501.63
410.29	503.89
410.667	496.88
411.045	525.35
411.422	519.48
411.8	532.58
412.178	572.36
412.555	554.28
412.933	563.09
413.31	568.52
413.687	568.06
414.065	574.17
414.442	561.96
414.819	585.46
415.197	580.49
415.574	595.63
415.951	608.97
416.328	604.67
416.705	625.24
417.082	627.5
417.46	624.11
417.837	627.95
418.214	649.42
418.591	652.81
418.967	644.67
419.344	661.17
419.721	681.51
420.098	699.81
420.475	695.74
420.852	689.42
421.228	723.09
421.605	707.27
421.982	726.7
422.358	749.3
422.735	744.33
423.111	738.46
423.488	740.94
423.864	786.36
424.241	771.67
424.617	794.95
424.994	803.54
425.37	786.59
425.746	802.86
426.123	835.4
426.499	836.53
426.875	846.47
427.251	832.24
427.627	884.21
428.003	852.8
428.379	885.57
428.756	897.55
429.132	923.76
429.507	891.67
429.883	921.95
430.259	948.17
430.635	952.01
431.011	948.85
431.387	951.1
431.763	998.34
432.138	985.91
432.514	992.91
432.89	1031.78
433.265	1033.81
433.641	1031.1
434.016	1035.4
434.392	1074.27
434.767	1096.41
435.143	1089.18
435.518	1139.12
435.894	1128.05
436.269	1156.3
436.644	1170.31
437.02	1178.67
437.395	1184.77
437.77	1218.44
438.145	1227.26
438.52	1244.88
438.895	1277.2
439.271	1257.76
439.646	1314.71
440.021	1317.42
440.395	1335.73
440.77	1321.49
441.145	1374.6
441.52	1373.24
441.895	1374.82
442.27	1399
442.645	1386.57
443.019	1401.04
443.394	1408.49
443.769	1449.85
444.143	1430.19
444.518	1463.41
444.892	1459.11
445.267	1451.88
445.641	1475.84
446.016	1494.59
446.39	1496.4
446.764	1493.92
447.139	1511.09
447.513	1526.68
447.887	1543.41
448.262	1547.7
448.636	1585.89
449.01	1568.04
449.384	1596.29
449.758	1603.74
450.132	1601.03
450.506	1594.25
450.88	1641.93
451.254	1611.88
451.628	1623.18
452.002	1659.79
452.376	1653.23
452.75	1680.8
453.123	1664.08
453.497	1721.25
453.871	1737.3
454.244	1763.51
454.618	1748.15
454.992	1778.2
455.365	1792.89
455.739	1846.45
456.112	1810.97
456.486	1831.08
456.859	1910.18
457.232	1906.79
457.606	1896.84
457.979	1934.81
458.352	1958.08
458.725	1967.35
459.099	1978.65
459.472	1975.71
459.845	2014.58
460.218	2042.38
460.591	2088.93
460.964	2062.26
461.337	2079.89
461.71	2196.04
462.083	2151.53
462.456	2149.27
462.829	2171.64
463.201	2193.78
463.574	2216.61
463.947	2208.25
464.32	2270.17
464.692	2245.76
465.065	2311.07
465.438	2318.3
465.81	2342.93
466.183	2355.14
466.555	2415.25
466.928	2379.77
467.3	2429.94
467.672	2450.73
468.045	2514.23
468.417	2496.83
468.789	2490.27
469.161	2517.84
469.534	2590.84
469.906	2637.84
470.278	2673.32
470.65	2634
471.022	2703.83
471.394	2740.66
471.766	2759.42
472.138	2766.65
472.51	2853.43
472.882	2859.98
473.253	2923.26
473.625	2943.14
473.997	2974.55
474.369	2982.46
474.74	3026.76
475.112	3071.95
475.484	3113.08
475.855	3134.32
476.227	3212.06
476.598	3237.6
476.97	3236.47
477.341	3351.95
477.713	3360.99
478.084	3358.5
478.455	3471.26
478.827	3468.78
479.198	3574.76
479.569	3570.7
479.94	3618.83
480.311	3625.84
480.682	3734.08
481.053	3782.89
481.424	3808.66
481.795	3866.96
482.166	3893.63
482.537	3946.73
482.908	4022.21
483.279	4026.05
483.65	4071.93
484.021	4153.28
484.391	4207.97
484.762	4192.83
485.133	4246.39
485.503	4288.64
485.874	4397.79
486.244	4419.04
486.615	4481.86
486.985	4562.54
487.356	4560.73
487.726	4576.32
488.097	4667.17
488.467	4685.7
488.837	4755.52
489.207	4805.47
489.578	4842.75
489.948	4906.71
490.318	4952.36
490.688	4936.31
491.058	4995.97
491.428	5054.95
491.798	5102.86
492.168	5174.72
492.538	5259.47
492.908	5286.13
493.278	5306.7
493.648	5306.47
494.017	5336.75
494.387	5412.91
494.757	5478.22
495.126	5501.72
495.496	5485
495.866	5583.3
496.235	5579.46
496.605	5588.5
496.974	5597.54
497.344	5657.87
497.713	5682.96
498.082	5747.14
498.452	5780.36
498.821	5728.83
499.19	5801.37
499.559	5840.47
499.928	5875.5
500.298	5883.63
500.667	5960.01
501.036	5920.69
501.405	5956.62
501.774	6000.92
502.143	5998.66
502.512	6032.1
502.88	6056.06
503.249	6116.62
503.618	6082.95
503.987	6118.2
504.356	6167.69
504.724	6168.14
505.093	6170.63
505.462	6153.91
505.83	6207.46
506.199	6266.67
506.567	6325.43
506.936	6322.04
507.304	6336.27
507.672	6348.93
508.041	6345.99
508.409	6432.09
508.777	6444.97
509.145	6428.93
509.514	6459.89
509.882	6479.77
510.25	6501.47
510.618	6547.34
510.986	6541.01
511.354	6568.58
511.722	6599.09
512.09	6662.37
512.458	6622.37
512.826	6642.93
513.193	6684.29
513.561	6671.41
513.929	6723.16
514.297	6803.83
514.664	6770.84
515.032	6732.87
515.4	6815.36
515.767	6837.05
516.135	6851.06
516.502	6748.01
516.869	6891.06
517.237	6906.43
517.604	6879.76
517.972	6866.88
518.339	6896.94
518.706	6933.09
519.073	6926.77
519.44	6925.86
519.808	6996.82
520.175	6999.08
520.542	7030.49
520.909	7071.17
521.276	7042.92
521.643	7064.16
522.009	7078.63
522.376	7144.61
522.743	7133.54
523.11	7203.37
523.477	7271.16
523.843	7264.84
524.21	7240.43
524.577	7319.75
524.943	7248.11
525.31	7381.44
525.676	7442.91
526.043	7433.42
526.409	7425.06
526.776	7462.57
527.142	7535.11
527.508	7490.14
527.874	7566.98
528.241	7532.63
528.607	7629.12
528.973	7614.21
529.339	7598.16
529.705	7720.42
530.071	7709.12
530.437	7735.56
530.803	7688.33
531.169	7722.9
531.535	7657.82
531.901	7672.51
532.267	7776.69
532.632	7771.04
532.998	7804.71
533.364	7862.11
533.73	7817.14
534.095	7846.74
534.461	7905.27
534.826	7909.79
535.192	7948.89
535.557	7997.7
535.923	7943.92
536.288	7966.29
536.653	7973.07
537.019	7979.39
537.384	7922.67
537.749	7969.68
538.114	8016.23
538.479	7992.28
538.845	8041.99
539.21	8050.35
539.575	8030.24
539.94	8052.39
540.305	8014.87
540.67	8074.76
541.034	8049.45
541.399	8054.2
541.764	8098.49
542.129	8165.83
542.494	8125.38
542.858	8125.61
543.223	8126.96
543.587	8154.76
543.952	8163.8
544.316	8124.93
544.681	8166.06
545.045	8122.22
545.41	8241.08
545.774	8247.41
546.138	8171.48
546.503	8212.38
546.867	8254.87
547.231	8253.29
547.595	8327.63
547.959	8272.95
548.324	8304.36
548.688	8289.9
549.052	8286.73
549.416	8295.54
549.779	8257.81
550.143	8298.03
550.507	8332.38
550.871	8388.65
551.235	8379.61
551.599	8380.97
551.962	8428.2
552.326	8426.84
552.689	8464.13
553.053	8380.51
553.417	8378.71
553.78	8508.42
554.143	8463.68
554.507	8530.79
554.87	8509.55
555.234	8614.18
555.597	8508.87
555.96	8535.54
556.323	8579.83
556.686	8531.7
557.05	8585.03
557.413	8563.79
557.776	8602.43
558.139	8634.97
558.502	8709.77
558.865	8768.98
559.228	8730.56
559.59	8713.39
559.953	8768.98
560.316	8867.05
560.679	8861.86
561.041	8869.31
561.404	8863.89
561.767	8887.62
562.129	8911.57
562.492	8994.96
562.854	8970.1
563.217	8961.74
563.579	9044.23
563.941	9081.74
564.304	9067.5
564.666	9119.7
565.028	9142.75
565.39	9183.88
565.753	9183.43
566.115	9213.71
566.477	9264.11
566.839	9330.77
567.201	9350.66
567.563	9352.24
567.925	9359.92
568.287	9399.24
568.648	9374.16
569.01	9462.52
569.372	9479.24
569.734	9509.07
570.095	9527.38
570.457	9543.87
570.819	9652.12
571.18	9570.09
571.542	9653.25
571.903	9693.02
572.265	9721.04
572.626	9731.44
572.987	9745.9
573.349	9819.8
573.71	9874.71
574.071	9874.26
574.432	9960.36
574.794	9958.78
575.155	10047.36
575.516	9960.59
575.877	9981.6
576.238	10036.29
576.599	10068.38
576.96	10056.85
577.32	10115.61
577.681	10200.81
578.042	10164.65
578.403	10210.97
578.763	10295.27
579.124	10276.28
579.485	10279.22
579.845	10367.58
580.206	10309.5
580.566	10326.68
580.927	10381.82
581.287	10469.27
581.648	10522.38
582.008	10539.55
582.368	10569.84
582.728	10577.52
583.089	10519.67
583.449	10594.92
583.809	10621.59
584.169	10642.83
584.529	10611.19
584.889	10672.21
585.249	10753.56
585.609	10733.9
585.969	10788.81
586.329	10752.43
586.688	10791.75
587.048	10729.83
587.408	10761.47
587.768	10883.5
588.127	10826.78
588.487	10909.71
588.846	10951.52
589.206	10915.81
589.565	10960.79
589.925	11025.42
590.284	11018.86
590.643	11036.26
591.003	11089.6
591.362	11162.14
591.721	11064.06
592.08	11114.23
592.44	11151.51
592.799	11189.03
593.158	11162.81
593.517	11194.23
593.876	11287.1
594.235	11266.54
594.593	11252.3
594.952	11322.58
595.311	11225.19
595.67	11286.65
596.029	11370.94
596.387	11349.48
596.746	11339.76
597.104	11410.04
597.463	11411.39
597.822	11497.95
598.18	11462.47
598.538	11392.86
598.897	11428.57
599.255	11451.17
599.613	11540.43
599.972	11489.81
600.33	11510.15
600.688	11535.91
601.046	11523.26
601.404	11606.42
601.762	11560.54
602.12	11680.54
602.478	11592.41
602.836	11608.23
603.194	11598.28
603.552	11578.62
603.91	11606.19
604.268	11638.28
604.625	11570.71
604.983	11631.73
605.341	11518.06
605.698	11701.56
606.056	11740.88
606.413	11750.82
606.771	11701.78
607.128	11781.1
607.485	11723.03
607.843	11772.29
608.2	11799.86
608.557	11841.67
608.914	11826.3
609.272	11887.77
609.629	11916.47
609.986	11930.7
610.343	11863.81
610.7	11900.65
611.057	11914.43
611.414	11899.74
611.771	11960.76
612.127	11981.55
612.484	12010.48
612.841	12036.69
613.198	11983.58
613.554	11959.86
613.911	12038.5
614.267	11985.39
614.624	12085.5
614.98	12051.38
615.337	12045.28
615.693	12017.93
616.05	12057.48
616.406	12119.85
616.762	12124.37
617.118	12108.1
617.475	12178.61
617.831	12129.12
618.187	12203.69
618.543	12141.77
618.899	12245.72
619.255	12205.72
619.611	12187.42
619.967	12196.23
620.323	12229
620.678	12213.63
621.034	12117.14
621.39	12195.1
621.746	12088.89
622.101	12287.3
622.457	12165.27
622.812	12230.13
623.168	12295.67
623.523	12242.79
623.879	12205.27
624.234	12185.16
624.589	12168.66
624.945	12199.62
625.3	12242.11
625.655	12266.29
626.01	12259.51
626.365	12195.78
626.72	12186.06
627.075	12239.62
627.43	12226.74
627.785	12254.54
628.14	12163.69
628.495	12143.13
628.85	12135.9
629.205	12112.85
629.559	12148.55
629.914	12153.75
630.269	12120.53
630.623	12078.72
630.978	12135.22
631.332	12083.69
631.687	12139.51
632.041	12010.48
632.396	12110.59
632.75	12021.32
633.104	12028.33
633.459	12007.09
633.813	11938.16
634.167	11986.07
634.521	12016.35
634.875	12076.69
635.229	12029.46
635.583	11936.35
635.937	11983.58
636.291	11924.38
636.645	11960.76
636.999	11887.99
637.352	11909.46
637.706	11855.45
638.06	11897.26
638.413	11883.92
638.767	11863.36
639.121	11893.87
639.474	11720.31
639.828	11725.96
640.181	11790.82
640.534	11829.24
640.888	11726.64
641.241	11679.86
641.594	11667.21
641.947	11716.25
642.301	11724.83
642.654	11762.8
643.007	11712.86
643.36	11668.11
643.713	11644.61
644.066	11709.92
644.419	11622.91
644.771	11569.81
645.124	11469.25
645.477	11465.63
645.83	11339.76
646.182	11374.11
646.535	11294.11
646.888	11354.67
647.24	11184.51
647.593	11309.25
647.945	11192.19
648.298	11219.31
648.65	11197.39
649.002	11214.56
649.355	11273.77
649.707	11227.9
650.059	11317.16
650.411	11413.88
650.763	11437.38
651.115	11562.13
651.467	11532.3
651.819	11521
652.171	11539.3
652.523	11383.15
652.875	11455.46
653.227	11374.33
653.578	11493.65
653.93	11434.22
654.282	11480.32
654.633	11396.03
654.985	11354.22
655.337	11502.92
655.688	11462.24
656.039	11537.95
656.391	11468.57
656.742	11356.48
657.094	11377.72
657.445	11387.67
657.796	11464.27
658.147	11386.54
658.498	11398.06
658.849	11401.45
659.2	11390.6
659.551	11403.26
659.902	11417.95
660.253	11419.98
660.604	11421.34
660.955	11361.68
661.306	11481.22
661.656	11457.5
662.007	11408.01
662.358	11443.48
662.708	11410.49
663.059	11440.77
663.409	11340.66
663.76	11435.58
664.11	11432.19
664.461	11426.76
664.811	11476.25
665.161	11426.31
665.511	11388.57
665.862	11411.17
666.212	11445.29
666.562	11459.3
666.912	11462.47
667.262	11436.48
667.612	11459.08
667.962	11488.23
668.312	11401.45
668.662	11478.51
669.011	11327.1
669.361	11382.47
669.711	11361.9
670.06	11327.56
670.41	11337.72
670.76	11353.32
671.109	11414.78
671.459	11343.83
671.808	11365.75
672.157	11388.12
672.507	11342.7
672.856	11368.46
673.205	11317.61
673.554	11299.31
673.904	11375.24
674.253	11354.67
674.602	11276.48
674.951	11093.44
675.3	11152.19
675.649	11206.65
675.998	11239.87
676.346	11162.81
676.695	11278.29
677.044	11238.29
677.393	11236.03
677.741	11188.12
678.09	11186.77
678.438	11172.76
678.787	11161.01
679.135	11135.92
679.484	11085.3
679.832	11124.85
680.181	11054.12
680.529	11040.78
680.877	11077.39
681.225	10989.71
681.573	11029.48
681.922	10936.83
682.27	10937.51
682.618	10955.14
682.966	10872.2
683.314	10909.49
683.661	10932.31
684.009	10874.23
684.357	10839.43
684.705	10764.86
685.053	10833.33
685.4	10835.82
685.748	10778.64
686.095	10805.76
686.443	10678.31
686.79	10686.67
687.138	10692.09
687.485	10762.82
687.832	10671.53
688.18	10623.39
688.527	10538.2
688.874	10538.42
689.221	10476.73
689.568	10416.17
689.915	10444.41
690.262	10445.77
690.609	10409.39
690.956	10398.09
691.303	10355.83
691.65	10305.21
691.997	10320.35
692.344	10218.88
692.69	10235.61
693.037	10220.92
693.383	10149.73
693.73	10135.5
694.077	10083.29
694.423	10070.19
694.769	10049.4
695.116	10000.81
695.462	10024.54
695.808	9966.46
696.155	9993.13
696.501	9934.15
696.847	9799.01
697.193	9837.2
697.539	9834.94
697.885	9753.81
698.231	9746.81
698.577	9753.36
698.923	9733.7
699.269	9684.21
699.614	9535.29
699.96	9515.85
700.306	9559.69
700.651	9520.82
700.997	9462.07
701.342	9449.19
701.688	9435.18
702.033	9440.83
702.379	9425.68
702.724	9310.89
703.069	9355.86
703.415	9258.46
703.76	9238.8
704.105	9207.61
704.45	9225.01
704.795	9142.98
705.14	9178.01
705.485	9043.1
705.83	9044
706.175	9130.1
706.52	9050.55
706.865	8985.92
707.209	9001.74
707.554	8945.47
707.899	9002.64
708.243	8987.5
708.588	8904.34
708.932	8822.31
709.277	8881.97
709.621	8807.62
709.966	8739.83
710.31	8775.08
710.654	8688.3
710.998	8732.6
711.342	8742.76
711.687	8642.2
712.031	8663.9
712.375	8644.46
712.719	8556.55
713.063	8631.58
713.407	8656.21
713.75	8595.2
714.094	8586.84
714.438	8556.55
714.782	8549.55
715.125	8487.4
715.469	8561.3
715.812	8461.64
716.156	8467.29
716.499	8484.92
716.843	8453.96
717.186	8364.7
717.53	8431.36
717.873	8468.42
718.216	8375.54
718.559	8371.02
718.902	8299.84
719.246	8366.05
719.589	8326.28
719.932	8291.7
720.275	8304.81
720.617	8258.26
720.96	8253.51
721.303	8230.69
721.646	8291.48
721.989	8282.66
722.331	8314.53
722.674	8218.26
723.016	8238.37
723.359	8219.84
723.701	8234.76
724.044	8165.38
724.386	8145.49
724.729	8186.17
725.071	8139.84
725.413	8161.76
725.755	8136
726.097	8114.98
726.439	8087.19
726.782	8064.14
727.124	8111.59
727.465	8039.73
727.807	8111.37
728.149	8063.46
728.491	8118.6
728.833	8046.06
729.175	7989.34
729.516	8015.55
729.858	8044.03
730.199	7979.17
730.541	8028.88
730.882	8006.06
731.224	8015.1
731.565	7982.56
731.906	8002.9
732.248	8016.91
732.589	7983.01
732.93	7973.75
733.271	7997.25
733.612	7994.99
733.953	8039.28
734.294	7898.72
734.635	8014.65
734.976	7977.36
735.317	7915.67
735.658	7967.64
735.999	7990.69
736.339	7991.15
736.68	7967.87
737.021	7945.27
737.361	7936.91
737.702	7950.92
738.042	7988.89
738.383	7928.1
738.723	7976.23
739.063	7933.75
739.404	8017.59
739.744	7956.12
740.084	7951.6
740.424	7996.12
740.764	8001.54
741.104	7960.86
741.444	7998.15
741.784	7945.72
742.124	8018.26
742.464	8009.9
742.804	8009.22
743.143	8023.01
743.483	8032.73
743.823	8046.51
744.162	8097.81
744.502	8145.27
744.841	8072.73
745.181	8127.64
745.52	8117.7
745.86	8188.2
746.199	8252.16
746.538	8209.22
746.877	8295.54
747.216	8339.61
747.556	8370.8
747.895	8426.39
748.234	8414.64
748.573	8457.12
748.911	8496.44
749.25	8554.29
749.589	8604.24
749.928	8673.84
750.267	8739.6
750.605	8765.36
750.944	8788.86
751.283	8818.24
751.621	8960.61
751.96	8921.06
752.298	9036.77
752.636	9160.15
752.975	9133.49
753.313	9273.37
753.651	9381.39
753.989	9479.02
754.327	9460.49
754.666	9667.94
755.004	9732.12
755.342	9807.14
755.679	9900.93
756.017	10017.99
756.355	10172.11
756.693	10256.62
757.031	10351.76
757.368	10478.76
757.706	10637.18
758.044	10663.62
758.381	10851.64
758.719	11029.94
759.056	11099.09
759.394	11221.8
759.731	11336.14
760.068	11539.08
760.405	11608
760.743	11693.65
761.08	11940.42
761.417	12017.71
761.754	12184.71
762.091	12356.91
762.428	12414.76
762.765	12577.92
763.102	12836.22
763.438	12984.46
763.775	13036.89
764.112	13233.72
764.449	13381.74
764.785	13432.81
765.122	13623.31
765.458	13767.94
765.795	13879.13
766.131	14101.49
766.467	14123.87
766.804	14379.9
767.14	14470.98
767.476	14579.9
767.812	14666.68
768.148	14858.99
768.485	14880.68
768.821	15023.28
769.157	15160.67
769.492	15327.9
769.828	15408.8
770.164	15494.45
770.5	15525.86
770.836	15733.32
771.171	15737.38
771.507	15879.3
771.842	15927.43
772.178	16047.66
772.513	16126.3
772.849	16284.26
773.184	16227.77
773.519	16410.59
773.855	16323.13
774.19	16472.96
774.525	16446.06
774.86	16688.09
775.195	16669.34
775.53	16787.75
775.865	16816.68
776.2	16774.87
776.535	16783.23
776.87	16855.09
777.205	16826.39
777.539	16962.21
777.874	16990.91
778.209	16951.14
778.543	17073.39
778.878	17116.56
779.212	17100.96
779.547	17176.89
779.881	17250.56
780.215	17168.31
780.55	17266.38
780.884	17259.38
781.218	17264.8
781.552	17285.36
781.886	17284.46
782.22	17259.6
782.554	17249.66
782.888	17200.62
783.222	17162.88
783.556	17226.16
783.889	17236.78
784.223	17137.35
784.557	17194.29
784.89	17196.55
785.224	17233.39
785.557	17103.45
785.891	17242.65
786.224	17222.77
786.558	17179.6
786.891	17055.99
787.224	17049.44
787.557	17004.92
787.891	17023.9
788.224	17018.25
788.557	17048.99
788.89	17187.51
789.223	17152.94
789.556	16968.99
789.888	16956.11
790.221	16941.87
790.554	16808.32
790.887	16881.53
791.219	16967.86
791.552	16776
791.884	16840.18
792.217	16713.4
792.549	16688.77
792.882	16694.42
793.214	16653.29
793.546	16693.74
793.879	16621.88
794.211	16510.92
794.543	16599.28
794.875	16502.56
795.207	16668.21
795.539	16598.15
795.871	16536.91
796.203	16381.66
796.535	16341.89
796.867	16375.33
797.198	16328.33
797.53	16359.06
797.862	16178.05
798.193	16255.56
798.525	16164.49
798.856	16173.98
799.188	15983.7
799.519	16076.58
799.85	15992.97
800.182	15941.67
800.513	16001.56
800.844	15800.43
801.175	16001.78
801.506	15896.7
801.837	15777.83
802.168	15770.6
802.499	15697.38
802.83	15651.06
803.161	15643.6
803.491	15582.13
803.822	15613.77
804.153	15606.31
804.483	15475.92
804.814	15385.98
805.145	15415.13
805.475	15425.75
805.805	15385.3
806.136	15437.96
806.466	15422.81
806.796	15372.65
807.126	15229.83
807.457	15258.98
807.787	15322.7
808.117	15120.22
808.447	15095.82
808.777	15184.85
809.107	15097.17
809.436	15006.55
809.766	15069.15
810.096	15040.45
810.426	14900.12
810.755	14985.54
811.085	14923.39
811.414	14881.36
811.744	14778.09
812.073	14768.14
812.403	14773.57
812.732	14706.68
813.061	14658.54
813.39	14634.13
813.719	14585.32
814.049	14715.26
814.378	14672.1
814.707	14529.73
815.036	14550.07
815.365	14426.23
815.693	14372.67
816.022	14409.73
816.351	14412.9
816.68	14292.45
817.008	14324.76
817.337	14259.46
817.665	14186.69
817.994	14244.77
818.322	14249.74
818.651	14186.24
818.979	14129.52
819.307	14141.04
819.636	14156.86
819.964	14077.99
820.292	14160.93
820.62	14164.54
820.948	14042.51
821.276	14104.43
821.604	14012.91
821.932	14044.55
822.259	14096.3
822.587	14113.24
822.915	14020.37
823.243	14113.92
823.57	14066.92
823.898	14054.26
824.225	13992.57
824.553	14061.95
824.88	13991.67
825.207	14084.77
825.535	14052.46
825.862	13993.93
826.189	14086.13
826.516	14117.09
826.843	14113.24
827.17	14124.54
827.497	14183.75
827.824	14116.41
828.151	14113.02
828.478	14179.68
828.805	14258.1
829.131	14082.74
829.458	14062.62
829.785	14047.26
830.111	14103.98
830.438	14156.18
830.764	14056.98
831.09	14081.61
831.417	14052
831.743	14203.19
832.069	14031.21
832.395	14034.6
832.722	14088.84
833.048	14030.54
833.374	14049.07
833.7	13942.4
834.026	14004.32
834.351	13985.34
834.677	13962.97
835.003	14037.77
835.329	13962.97
835.654	13872.8
835.98	13920.93
836.306	13871.44
836.631	13839.81
836.956	13934.04
837.282	14000.25
837.607	13838.45
837.932	13855.4
838.258	13824.66
838.583	13797.55
838.908	13700.83
839.233	13772.24
839.558	13759.58
839.883	13601.17
840.208	13586.93
840.533	13612.01
840.858	13565.46
841.182	13625.57
841.507	13613.37
841.832	13454.05
842.156	13485.01
842.481	13506.93
842.805	13513.26
843.13	13400.72
843.454	13325.24
843.778	13323.21
844.103	13306.03
844.427	13320.95
844.751	13339.03
845.075	13299.71
845.399	13171.12
845.723	13135.42
846.047	13142.87
846.371	13047.06
846.695	13074.63
847.019	12943.78
847.343	12911.92
847.666	12810
847.99	12835.99
848.313	12724.13
848.637	12704.92
848.96	12662.66
849.284	12617.24
849.607	12558.71
849.931	12503.34
850.254	12459.28
850.577	12416.57
850.9	12292.05
851.223	12235.1
851.546	12236.91
851.869	12208.21
852.192	12204.59
852.515	12061.1
852.838	12036.69
853.161	12017.48
853.483	12055.67
853.806	11922.79
854.129	12001.44
854.451	11853.42
854.774	11786.3
855.096	11765.06
855.419	11721.22
855.741	11698.17
856.063	11647.55
856.385	11605.51
856.708	11587.44
857.03	11542.69
857.352	11562.13
857.674	11458.17
857.996	11433.77
858.318	11435.8
858.64	11474.9
858.961	11288.69
859.283	11332.98
859.605	11321
859.926	11329.36
860.248	11283.94
860.57	11252.3
860.891	11222.02
861.212	11118.3
861.534	11131.85
861.855	11109.93
862.176	11099.09
862.498	11065.87
862.819	11144.28
863.14	11062.48
863.461	10969.82
863.782	11000.11
864.103	11019.99
864.424	10991.07
864.745	11006.43
865.065	10845.99
865.386	10850.28
865.707	10831.07
866.027	10839.66
866.348	10899.54
866.668	10779.77
866.989	10817.96
867.309	10788.81
867.63	10713.11
867.95	10730.51
868.27	10695.71
868.59	10748.59
868.91	10721.24
869.23	10690.74
869.55	10668.36
869.87	10654.8
870.19	10570.74
870.51	10722.83
870.83	10648.48
871.15	10573.45
871.469	10568.03
871.789	10577.07
872.109	10489.84
872.428	10422.72
872.748	10554.92
873.067	10483.51
873.386	10433.79
873.706	10499.1
874.025	10407.13
874.344	10395.38
874.663	10422.72
874.982	10342.72
875.301	10318.09
875.62	10374.36
875.939	10381.59
876.258	10339.78
876.577	10274.02
876.896	10290.97
877.214	10231.54
877.533	10236.96
877.852	10210.97
878.17	10247.58
878.489	10194.03
878.807	10207.81
879.125	10154.93
879.444	10123.97
879.762	10067.25
880.08	10066.35
880.398	10061.15
880.716	10067.02
881.034	10037.87
881.352	10049.62
881.67	9962.85
881.988	10020.02
882.306	9978.66
882.624	9903.19
882.941	9948.38
883.259	9882.4
883.577	9846.69
883.894	9800.82
884.212	9806.69
884.529	9762.17
884.846	9745.9
885.164	9751.1
885.481	9667.26
885.798	9673.59
886.115	9650.09
886.432	9647.37
886.75	9659.58
887.067	9648.28
887.383	9587.26
887.7	9596.08
888.017	9514.95
888.334	9528.28
888.651	9498.45
888.967	9487.15
889.284	9435.4
889.6	9372.58
889.917	9366.93
890.233	9383.88
890.55	9339.13
890.866	9326.25
891.182	9277.44
891.498	9297.55
891.815	9182.07
892.131	9204.9
892.447	9192.7
892.763	9118.57
893.079	9044.23
893.395	9050.78
893.71	9011.91
894.026	9084.68
894.342	9024.11
894.657	8956.54
894.973	8968.07
895.289	8928.07
895.604	8897.11
895.92	8873.38
896.235	8731.47
896.55	8778.92
896.865	8731.69
897.181	8730.79
897.496	8727.17
897.811	8705.48
898.126	8584.58
898.441	8606.04
898.756	8548.65
899.071	8548.42
899.386	8542.32
899.7	8477.91
900.015	8412.38
900.33	8394.98
900.644	8403.11
900.959	8422.77
901.273	8365.15
901.588	8256
901.902	8217.81
902.216	8202.21
902.531	8174.19
902.845	8184.14
903.159	8151.37
903.473	8100.97
903.787	8057.58
904.101	8019.62
904.415	7997.47
904.729	7966.97
905.042	7924.71
905.356	7876.57
905.67	7894.2
905.984	7841.32
906.297	7844.93
906.611	7842
906.924	7798.83
907.237	7738.72
907.551	7684.26
907.864	7675.9
908.177	7599.97
908.491	7602
908.804	7583.02
909.117	7512.06
909.43	7510.48
909.743	7449.24
910.056	7497.6
910.368	7441.78
910.681	7398.39
910.994	7362.91
911.307	7322.46
911.619	7340.77
911.932	7244.27
912.244	7220.09
912.557	7251.05
912.869	7167.66
913.181	7155.24
913.494	7138.29
913.806	7086.99
914.118	7074.79
914.43	6990.72
914.742	7055.8
915.054	6920.21
915.366	6961.79
915.678	6889.71
915.99	6863.49
916.302	6848.58
916.613	6844.74
916.925	6808.58
917.236	6748.47
917.548	6784.4
917.859	6712.31
918.171	6722.25
918.482	6697.17
918.794	6640.22
919.105	6654.23
919.416	6612.2
919.727	6559.77
920.038	6545.76
920.349	6526.78
920.66	6493.33
920.971	6469.15
921.282	6425.09
921.593	6375.6
921.903	6356.16
922.214	6362.49
922.525	6339.66
922.835	6302.15
923.146	6317.52
923.456	6239.78
923.767	6222.6
924.077	6190.06
924.387	6149.84
924.697	6112.1
925.008	6127.92
925.318	6104.42
925.628	6101.93
925.938	6063.06
926.248	6019.45
926.558	6008.15
926.867	6022.16
927.177	5971.54
927.487	5958.88
927.796	5891.31
928.106	5904.65
928.416	5852.44
928.725	5867.13
929.034	5806.34
929.344	5764.76
929.653	5801.37
929.962	5708.27
930.271	5706.69
930.581	5707.14
930.89	5644.31
931.199	5621.72
931.508	5624.65
931.817	5603.86
932.125	5601.15
932.434	5576.75
932.743	5562.74
933.051	5455.39
933.36	5428.05
933.669	5434.38
933.977	5455.39
934.286	5411.55
934.594	5421.27
934.902	5380.82
935.21	5400.93
935.519	5321.84
935.827	5347.6
936.135	5318
936.443	5273.03
936.751	5202.29
937.059	5292.46
937.367	5224.66
937.674	5191.22
937.982	5142.18
938.29	5140.6
938.597	5132.46
938.905	5076.87
939.213	5110.09
939.52	5045.01
939.827	5068.74
940.135	4977.21
940.442	4998.91
940.749	5015.18
941.056	4933.6
941.363	4889.98
941.67	4929.76
941.977	4914.16
942.284	4893.15
942.591	4866.26
942.898	4833.26
943.205	4805.01
943.511	4799.37
943.818	4771.8
944.125	4768.41
944.431	4736.99
944.738	4755.52
945.044	4685.24
945.35	4690.67
945.657	4614.06
945.963	4583.78
946.269	4591.01
946.575	4622.42
946.881	4529.77
947.187	4558.69
947.493	4523.67
947.799	4499.71
948.105	4473.27
948.41	4421.75
948.716	4457.45
949.022	4424.01
949.327	4439.15
949.633	4374.29
949.938	4349.89
950.244	4384.24
950.549	4298.81
950.854	4332.26
951.16	4337.23
951.465	4278.02
951.77	4275.76
952.075	4229.89
952.38	4204.8
952.685	4211.36
952.99	4180.62
953.294	4162.09
953.599	4152.15
953.904	4160.74
954.209	4112.38
954.513	4074.41
954.818	4091.81
955.122	4061.31
955.426	4078.03
955.731	4014.08
956.035	3998.48
956.339	3972.49
956.643	4000.97
956.948	3927.52
957.252	3921.42
957.556	3921.87
957.86	3874.87
958.163	3852.27
958.467	3896.11
958.771	3849.79
959.075	3836.9
959.378	3838.49
959.682	3773.63
959.985	3759.39
960.289	3791.71
960.592	3728.43
960.896	3746.06
961.199	3729.34
961.502	3699.28
961.805	3631.71
962.108	3680.07
962.411	3668.77
962.714	3665.61
963.017	3637.36
963.32	3620.41
963.623	3605.05
963.926	3604.59
964.228	3551.71
964.531	3540.64
964.833	3523.69
965.136	3514.2
965.438	3474.65
965.741	3501.09
966.043	3464.26
966.345	3490.93
966.648	3456.58
966.95	3429.01
967.252	3389.46
967.554	3396.01
967.856	3386.75
968.158	3386.07
968.46	3380.42
968.761	3397.59
969.063	3324.6
969.365	3348.78
969.666	3311.95
969.968	3281.44
970.269	3266.98
970.571	3247.77
970.872	3267.88
971.174	3235.11
971.475	3211.38
971.776	3194.21
972.077	3184.27
972.378	3199.63
972.679	3197.6
972.98	3145.4
973.281	3188.56
973.582	3101.56
973.883	3127.54
974.183	3113.76
974.484	3063.82
974.785	3115.34
975.085	3025.85
975.386	3046.87
975.686	3023.82
975.986	3031.05
976.287	3019.98
976.587	2978.85
976.887	2990.83
977.187	3005.29
977.487	2979.98
977.787	2883.94
978.087	2936.82
978.387	2922.13
978.687	2902.92
978.987	2888.68
979.286	2869.92
979.586	2815.91
979.885	2845.52
980.185	2813.43
980.484	2754.67
980.784	2784.96
981.083	2787.21
981.382	2752.19
981.682	2746.09
981.981	2752.87
982.28	2721.68
982.579	2708.12
982.878	2722.58
983.177	2689.14
983.475	2706.54
983.774	2655.69
984.073	2639.87
984.372	2662.47
984.67	2624.51
984.969	2644.62
985.267	2612.98
985.566	2619.54
985.864	2558.07
986.162	2567.11
986.461	2580.67
986.759	2542.48
987.057	2515.13
987.355	2505.87
987.653	2532.53
987.951	2515.58
988.249	2479.65
988.547	2493.66
988.844	2496.15
989.142	2439.43
989.44	2481.91
989.737	2428.13
990.035	2425.64
990.332	2383.38
990.63	2398.3
990.927	2401.69
991.224	2408.24
991.521	2381.35
991.819	2355.59
992.116	2357.17
992.413	2335.25
992.71	2370.05
993.006	2332.31
993.303	2301.35
993.6	2297.51
993.897	2344.29
994.193	2275.36
994.49	2269.94
994.787	2289.83
995.083	2236.49
995.379	2238.75
995.676	2225.65
995.972	2236.49
996.268	2211.41
996.565	2215.48
996.861	2175.03
997.157	2182.26
997.453	2168.25
997.749	2139.77
998.044	2118.76
998.34	2103.17
998.636	2118.98
998.932	2107.23
999.227	2093.22
999.523	2088.25
999.818	2049.38
1000.114	2072.21
1000.409	2041.92
1000.704	2023.39
1001	2034.92
1001.295	2006.67
1001.59	2015.48
1001.885	2010.96
1002.18	1978.42
1002.475	1959.44
1002.77	1952.89
1003.065	1963.73
1003.359	1960.34
1003.654	1933.45
1003.949	1925.32
1004.243	1924.64
1004.538	1898.2
1004.832	1906.11
1005.127	1894.81
1005.421	1886.45
1005.715	1858.65
1006.009	1834.25
1006.304	1829.27
1006.598	1832.21
1006.892	1826.79
1007.186	1802.83
1007.48	1785.21
1007.773	1783.63
1008.067	1777.07
1008.361	1770.97
1008.655	1750.86
1008.948	1776.39
1009.242	1749.5
1009.535	1727.81
1009.829	1714.93
1010.122	1686
1010.415	1690.97
1010.708	1666.11
1011.001	1629.96
1011.295	1669.5
1011.588	1654.82
1011.881	1613.69
1012.173	1652.1
1012.466	1626.79
1012.759	1622.95
1013.052	1622.5
1013.344	1616.62
1013.637	1579.11
1013.93	1576.17
1014.222	1576.4
1014.514	1565.78
1014.807	1527.13
1015.099	1572.78
1015.391	1561.94
1015.683	1521.26
1015.976	1508.83
1016.268	1504.31
1016.56	1517.64
1016.851	1497.76
1017.143	1480.36
1017.435	1454.14
1017.727	1462.05
1018.018	1464.09
1018.31	1435.61
1018.602	1457.53
1018.893	1418.89
1019.185	1412.34
1019.476	1397.42
1019.767	1402.84
1020.058	1404.43
1020.35	1392
1020.641	1360.13
1020.932	1361.26
1021.223	1372.56
1021.514	1335.28
1021.804	1311.1
1022.095	1322.17
1022.386	1293.47
1022.677	1317.42
1022.967	1309.97
1023.258	1302.51
1023.548	1302.28
1023.839	1271.32
1024.129	1293.24
1024.419	1269.29
1024.709	1259.8
1025	1248.5
1025.29	1246.69
1025.58	1238.78
1025.87	1210.53
1026.16	1209.4
1026.449	1218.44
1026.739	1219.12
1027.029	1191.32
1027.319	1186.8
1027.608	1178.9
1027.898	1171.66
1028.187	1184.32
1028.477	1159.24
1028.766	1154.72
1029.055	1092.57
1029.344	1145.45
1029.634	1116.98
1029.923	1146.58
1030.212	1108.61
1030.501	1106.36
1030.79	1092.12
1031.078	1100.03
1031.367	1065
1031.656	1066.36
1031.945	1076.07
1032.233	1063.19
1032.522	1061.61
1032.81	1051.89
1033.099	1041.95
1033.387	1035.17
1033.675	1032.91
1033.963	1020.71
1034.251	1038.56
1034.54	1023.65
1034.828	1025.91
1035.116	1009.63
1035.403	1005.34
1035.691	992.91
1035.979	979.8
1036.267	970.77
1036.554	970.31
1036.842	971.67
1037.129	960.37
1037.417	936.64
1037.704	933.7
1037.992	945.68
1038.279	919.92
1038.566	931.22
1038.853	931.22
1039.14	931.22
