Data from hue_30_FLMS001491_2.txt Node
Date: Mon Feb 06 15:04:33 GMT 2017
User: dcchb
Spectrometer: FLMS00149
Trigger mode: 0
Integration Time (sec): 2.000000E-2
Scans to average: 10
Electric dark correction enabled: true
Nonlinearity correction enabled: false
Boxcar width: 0
XAxis mode: Wavelengths
Number of Pixels in Spectrum: 2048
>>>>>Begin Spectral Data<<<<<
341.393	-16.89
341.776	-16.89
342.16	-16.89
342.543	-47.17
342.927	-53.28
343.31	-67.51
343.693	-71.13
344.077	-77.91
344.46	-47.63
344.843	-37
345.226	-32.03
345.61	-26.16
345.993	-32.94
346.376	-5.82
346.759	10.45
347.142	8.42
347.525	42.54
347.908	43.9
348.291	91.58
348.674	85.93
349.057	115.31
349.44	126.83
349.823	144.01
350.206	176.1
350.588	205.25
350.971	215.42
351.354	234.17
351.737	256.09
352.119	262.87
352.502	264
352.884	265.59
353.267	298.81
353.65	301.07
354.032	298.81
354.414	304.91
354.797	327.05
355.179	315.3
355.562	324.12
355.944	328.41
356.326	332.93
356.709	335.19
357.091	327.96
357.473	339.71
357.855	345.58
358.238	344.45
358.62	352.59
359.002	348.97
359.384	350.1
359.766	341.74
360.148	322.76
360.53	339.71
360.912	350.1
361.294	337.9
361.676	320.5
362.057	332.93
362.439	331.8
362.821	347.62
363.203	314.17
363.584	329.54
363.966	336.77
364.348	330.67
364.729	323.89
365.111	333.61
365.493	325.7
365.874	318.92
366.256	338.35
366.637	315.98
367.019	319.14
367.4	315.08
367.781	326.38
368.163	303.1
368.544	322.53
368.925	307.62
369.306	315.98
369.688	335.41
370.069	313.72
370.45	319.37
370.831	313.72
371.212	320.73
371.593	311.01
371.974	323.89
372.355	321.18
372.736	319.6
373.117	308.3
373.498	345.13
373.879	323.44
374.26	302.65
374.641	335.41
375.021	327.28
375.402	339.48
375.783	344.91
376.163	313.04
376.544	331.8
376.925	329.54
377.305	305.13
377.686	327.28
378.066	333.16
378.447	336.32
378.827	341.29
379.208	311.69
379.588	332.25
379.968	329.09
380.349	339.48
380.729	331.57
381.109	336.09
381.489	334.06
381.87	326.15
382.25	328.64
382.63	344
383.01	351.23
383.39	341.29
383.77	330.44
384.15	337.9
384.53	353.04
384.91	333.38
385.29	344.23
385.67	332.25
386.049	361.85
386.429	335.64
386.809	356.88
387.189	334.74
387.568	347.62
387.948	349.2
388.328	348.3
388.707	338.58
389.087	331.8
389.466	371.12
389.846	350.56
390.225	373.15
390.605	363.89
390.984	361.85
391.363	359.37
391.743	361.85
392.122	363.66
392.501	372.93
392.881	364.57
393.26	383.78
393.639	373.61
394.018	365.47
394.397	365.02
394.776	353.27
395.155	371.57
395.534	364.57
395.913	379.26
396.292	367.28
396.671	379.03
397.05	406.15
397.429	377
397.808	386.94
398.186	384.68
398.565	397.33
398.944	367.73
399.323	352.82
399.701	371.12
400.08	377.9
400.458	384.91
400.837	385.36
401.215	365.02
401.594	382.42
401.972	404.57
402.351	388.07
402.729	399.59
403.107	404.34
403.486	383.78
403.864	398.46
404.242	378.8
404.62	382.87
404.999	406.15
405.377	389.2
405.755	401.4
406.133	386.04
406.511	405.47
406.889	434.62
407.267	428.97
407.645	424
408.023	412.48
408.401	443.89
408.779	416.09
409.156	423.55
409.534	433.04
409.912	431.68
410.29	423.1
410.667	446.37
411.045	428.75
411.422	425.36
411.8	459.25
412.178	432.59
412.555	428.52
412.933	441.85
413.31	445.47
413.687	463.55
414.065	460.38
414.442	447.05
414.819	468.97
415.197	455.19
415.574	447.28
415.951	465.35
416.328	474.39
416.705	446.82
417.082	461.97
417.46	492.7
417.837	482.98
418.214	481.85
418.591	478.46
418.967	481.85
419.344	492.25
419.721	492.92
420.098	484.56
420.475	506.26
420.852	483.89
421.228	504
421.605	473.72
421.982	527.95
422.358	505.58
422.735	495.41
423.111	503.32
423.488	505.35
423.864	522.08
424.241	519.14
424.617	523.88
424.994	510.55
425.37	529.31
425.746	546.93
426.123	515.98
426.499	540.83
426.875	543.77
427.251	534.73
427.627	554.84
428.003	548.52
428.379	552.58
428.756	545.8
429.132	561.62
429.507	563.43
429.883	543.55
430.259	581.74
430.635	566.37
431.011	577.44
431.387	583.54
431.763	579.02
432.138	624.45
432.514	606.37
432.89	598.23
433.265	574.5
433.641	596.2
434.016	607.72
434.392	625.8
434.767	621.51
435.143	611.79
435.518	633.26
435.894	633.03
436.269	638.23
436.644	641.85
437.02	641.17
437.395	642.98
437.77	655.18
438.145	682.75
438.52	659.47
438.895	652.69
439.271	666.48
439.646	677.78
440.021	683.65
440.395	658.34
440.77	670.77
441.145	680.26
441.52	702.41
441.895	691.11
442.27	698.57
442.645	693.82
443.019	706.7
443.394	709.42
443.769	697.44
444.143	709.19
444.518	730.88
444.892	725.24
445.267	704.44
445.641	713.26
446.016	723.2
446.39	732.92
446.764	734.95
447.139	747.61
447.513	736.08
447.887	741.73
448.262	740.83
448.636	744.67
449.01	743.09
449.384	764.78
449.758	759.36
450.132	798
450.506	762.07
450.88	765.91
451.254	778.34
451.628	796.65
452.002	796.65
452.376	805.46
452.75	791
453.123	822.18
453.497	797.32
453.871	823.76
454.244	839.81
454.618	833.71
454.992	864.89
455.365	846.36
455.739	871.67
456.112	859.47
456.486	891.56
456.859	914.61
457.232	894.72
457.606	904.67
457.979	916.19
458.352	925.68
458.725	910.54
459.099	919.81
459.472	955.06
459.845	934.72
460.218	947.6
460.591	979.24
460.964	978.56
461.337	975.4
461.71	1009.07
462.083	1019.24
462.456	1009.07
462.829	1002.06
463.201	1040.71
463.574	998
463.947	1051.1
464.32	1076.41
464.692	1084.55
465.065	1097.2
465.438	1101.72
465.81	1132
466.183	1120.93
466.555	1141.72
466.928	1143.76
467.3	1135.62
467.672	1177.65
468.045	1203.19
468.417	1191.44
468.789	1197.77
469.161	1213.36
469.534	1242.06
469.906	1275.73
470.278	1259.91
470.65	1283.64
471.022	1315.28
471.394	1334.26
471.766	1331.55
472.138	1362.73
472.51	1395.95
472.882	1407.93
473.253	1422.17
473.625	1449.74
473.997	1488.6
474.369	1511.43
474.74	1529.96
475.112	1563.18
475.484	1554.82
475.855	1626.23
476.227	1601.82
476.598	1667.36
476.97	1680.46
477.341	1699.45
477.713	1729.95
478.084	1783.06
478.455	1858.31
478.827	1844.3
479.198	1925.88
479.569	1904.19
479.94	1955.03
480.311	2003.85
480.682	2050.17
481.053	2092.43
481.424	2115.71
481.795	2164.75
482.166	2235.48
482.537	2242.26
482.908	2299.21
483.279	2331.07
483.65	2383.04
484.021	2487.45
484.391	2521.57
484.762	2548.46
485.133	2525.41
485.503	2629.37
485.874	2682.47
486.244	2741.45
486.615	2780.55
486.985	2833.2
487.356	2902.81
487.726	2944.61
488.097	3029.81
488.467	3061.22
488.837	3100.31
489.207	3132.4
489.578	3206.75
489.948	3263.25
490.318	3308.9
490.688	3385.5
491.058	3431.83
491.428	3493.75
491.798	3539.4
492.168	3593.18
492.538	3665.5
492.908	3721.77
493.278	3785.95
493.648	3763.57
494.017	3853.06
494.387	3889.45
494.757	3959.27
495.126	3994.08
495.496	4028.65
495.866	4076.56
496.235	4130.34
496.605	4141.42
496.974	4179.38
497.344	4296.21
497.713	4326.5
498.082	4349.77
498.452	4421.64
498.821	4422.09
499.19	4495.53
499.559	4582.31
499.928	4540.05
500.298	4625.7
500.667	4670.89
501.036	4675.64
501.405	4721.29
501.774	4740.04
502.143	4796.77
502.512	4793.83
502.88	4807.84
503.249	4918.12
503.618	4915.41
503.987	4923.32
504.356	5033.6
504.724	5025.91
505.093	5084.67
505.462	5086.25
505.83	5144.78
506.199	5161.28
506.567	5242.86
506.936	5309.75
507.304	5323.76
507.672	5320.59
508.041	5350.2
508.409	5426.13
508.777	5450.99
509.145	5457.77
509.514	5488.73
509.882	5542.28
510.25	5497.99
510.618	5585.45
510.986	5549.06
511.354	5661.83
511.722	5684.2
512.09	5820.92
512.458	5724.65
512.826	5749.06
513.193	5763.75
513.561	5837.64
513.929	5889.85
514.297	5890.07
514.664	5892.33
515.032	5968.94
515.4	6001.71
515.767	6004.19
516.135	6005.32
516.502	5984.53
516.869	6119.22
517.237	6173.68
517.604	6144.98
517.972	6136.17
518.339	6222.94
518.706	6182.72
519.073	6288.48
519.44	6243.96
519.808	6304.52
520.175	6324.41
520.542	6368.02
520.909	6413.45
521.276	6443.28
521.643	6482.82
522.009	6505.65
522.376	6562.14
522.743	6556.49
523.11	6668.58
523.477	6677.17
523.843	6727.56
524.21	6760.56
524.577	6779.31
524.943	6784.96
525.31	6876.71
525.676	6931.63
526.043	6970.27
526.409	6940.66
526.776	7046.65
527.142	7012.53
527.508	7076.48
527.874	7122.58
528.241	7181.79
528.607	7164.61
528.973	7252.07
529.339	7228.12
529.705	7309.02
530.071	7404.38
530.437	7363.7
530.803	7422.91
531.169	7511.72
531.535	7506.75
531.901	7512.63
532.267	7548.33
532.632	7590.14
532.998	7630.36
533.364	7617.26
533.73	7675.11
534.095	7749.23
534.461	7786.52
534.826	7829.91
535.192	7873.3
535.557	7935.22
535.923	7878.95
536.288	7899.06
536.653	7958.49
537.019	7946.51
537.384	8006.17
537.749	8019.28
538.114	8090.01
538.479	8108.54
538.845	8114.87
539.21	8144.48
539.575	8172.5
539.94	8197.36
540.305	8234.19
540.67	8283.68
541.034	8318.03
541.399	8304.92
541.764	8409.1
542.129	8388.76
542.494	8462.21
542.858	8492.94
543.223	8548.53
543.587	8593.05
543.952	8603.22
544.316	8617.01
544.681	8624.46
545.045	8667.4
545.41	8732.71
545.774	8725.25
546.138	8764.12
546.503	8793.5
546.867	8803.89
547.231	8854.96
547.595	8853.61
547.959	8894.29
548.324	8873.5
548.688	8984.45
549.052	9057.67
549.416	9071
549.779	9076.88
550.143	9080.04
550.507	9187.39
550.871	9172.24
551.235	9204.33
551.599	9233.71
551.962	9243.88
552.326	9325.46
552.689	9300.15
553.053	9373.14
553.417	9393.48
553.78	9549.41
554.143	9414.72
554.507	9454.72
554.87	9509.18
555.234	9596.41
555.597	9458.11
555.96	9581.95
556.323	9609.52
556.686	9598
557.05	9638.67
557.413	9712.12
557.776	9789.63
558.139	9759.35
558.502	9875.96
558.865	9791.21
559.228	9868.05
559.59	9903.52
559.953	9951.43
560.316	10046.57
560.679	10012.22
561.041	10099.9
561.404	10137.19
561.767	10158.89
562.129	10134.25
562.492	10210.41
562.854	10215.61
563.217	10290.63
563.579	10265.1
563.941	10296.06
564.304	10322.72
564.666	10389.84
565.028	10422.38
565.39	10406.79
565.753	10512.1
566.115	10595.26
566.477	10562.04
566.839	10554.36
567.201	10649.27
567.563	10734.92
567.925	10768.13
568.287	10771.52
568.648	10799.32
569.01	10879.32
569.372	10948.92
569.734	10934.01
570.095	10988.02
570.457	11046.77
570.819	11127
571.18	11119.09
571.542	11142.59
571.903	11244.28
572.265	11301.23
572.626	11325.18
572.987	11315.47
573.349	11410.6
573.71	11466.42
574.071	11526.08
574.432	11557.27
574.794	11714.55
575.155	11752.97
575.516	11729.47
575.877	11862.57
576.238	11999.29
576.599	12053.52
576.96	12149.57
577.32	12233.41
577.681	12244.03
578.042	12400.18
578.403	12470.69
578.763	12522.89
579.124	12568.09
579.485	12825.26
579.845	12893.28
580.206	12958.59
580.566	13144.34
580.927	13206.94
581.287	13403.32
581.648	13432.02
582.008	13687.61
582.368	13802.63
582.728	13981.38
583.089	14100.7
583.449	14256.63
583.809	14424.54
584.169	14653.46
584.529	14762.38
584.889	15008.7
585.249	15022.71
585.609	15208.7
585.969	15545.41
586.329	15687.1
586.688	15978.62
587.048	16209.8
587.408	16296.58
587.768	16486.4
588.127	16727.07
588.487	16916.9
588.846	17261.3
589.206	17355.31
589.565	17650.67
589.925	17973.82
590.284	18081.84
590.643	18339.91
591.003	18640.24
591.362	18932.89
591.721	19030.06
592.08	19365.2
592.44	19569.49
592.799	19830.95
593.158	20012.41
593.517	20319.52
593.876	20683.81
594.235	20900.98
594.593	21086.06
594.952	21435.65
595.311	21654.18
595.67	21968.29
596.029	22251.67
596.387	22503.42
596.746	22806.69
597.104	22921.26
597.463	23159.67
597.822	23468.82
598.18	23686.21
598.538	23899.32
598.897	24302.69
599.255	24306.54
599.613	24993.52
599.972	25026.52
600.33	25337.7
600.688	25412.04
601.046	25830.11
601.404	26106.49
601.762	26179.48
602.12	26567.27
602.478	26674.84
602.836	26992.34
603.194	27027.14
603.552	27342.84
603.91	27536.51
604.268	27852.21
604.625	27932.66
604.983	28131.75
605.341	28248.13
605.698	28721.34
606.056	28884.27
606.413	29037.49
606.771	29259.17
607.128	29423.92
607.485	29498.72
607.843	29722.66
608.2	29992.49
608.557	30238.58
608.914	30300.95
609.272	30548.63
609.629	30822.97
609.986	31019.13
610.343	31016.64
610.7	31461.38
611.057	31482.62
611.414	31660.92
611.771	31801.03
612.127	32094.58
612.484	32201.47
612.841	32375.48
613.198	32365.08
613.554	32557.62
613.911	32883.94
614.267	33008
614.624	33003.71
614.98	33160.99
615.337	33366.41
615.693	33530.02
616.05	33618.38
616.406	33793.29
616.762	33749.68
617.118	33927.3
617.475	33951.03
617.831	34242.09
618.187	34391.92
618.543	34469.66
618.899	34692.93
619.255	34714.17
619.611	34818.12
619.967	35070.55
620.323	35153.71
620.678	35019.02
621.034	35060.38
621.39	35178.11
621.746	35208.85
622.101	35694.94
622.457	35242.29
622.812	35601.61
623.168	35765.22
623.523	35804.31
623.879	36010.64
624.234	35826.91
624.589	35953.69
624.945	36090.86
625.3	36224.41
625.655	36303.28
626.01	36261.48
626.365	36400.46
626.72	36319.55
627.075	36385.77
627.43	36417.86
627.785	36419.44
628.14	36471.41
628.495	36382.38
628.85	36645.87
629.205	36458.98
629.559	36675.93
629.914	36739.66
630.269	36535.82
630.623	36557.97
630.978	36570.85
631.332	36689.26
631.687	36835.92
632.041	36689.71
632.396	36699.2
632.75	36741.69
633.104	36811.74
633.459	36706.89
633.813	36831.63
634.167	36736.27
634.521	36719.77
634.875	36884.28
635.229	36756.15
635.583	36741.01
635.937	36641.8
636.291	36618.75
636.645	36633.9
636.999	36656.27
637.352	36684.29
637.706	36477.74
638.06	36830.05
638.413	36657.4
638.767	36627.34
639.121	36845.19
639.474	36471.64
639.828	36477.52
640.181	36594.12
640.534	36647.68
640.888	36613.11
641.241	36432.32
641.594	36585.54
641.947	36662.37
642.301	36489.94
642.654	36504.86
643.007	36502.37
643.36	36459.89
643.713	36463.28
644.066	36473.9
644.419	36337.86
644.771	36149.84
645.124	35865.55
645.477	35778.1
645.83	35628.05
646.182	35443.64
646.535	35386.02
646.888	35510.54
647.24	35328.62
647.593	35477.09
647.945	35448.16
648.298	35226.25
648.65	35116.65
649.002	35173.59
649.355	35267.83
649.707	35254.5
650.059	35384.89
650.411	35793.01
650.763	35930.64
651.115	36120.69
651.467	36023.29
651.819	35924.76
652.171	35971.77
652.523	35991.43
652.875	35913.46
653.227	35896.06
653.578	36010.86
653.93	35887.47
654.282	35781.71
654.633	35638.22
654.985	35812.9
655.337	35840.02
655.688	35858.32
656.039	36024.87
656.391	35598.67
656.742	35789.4
657.094	35592.11
657.445	35824.43
657.796	35764.99
658.147	35637.31
658.498	35715.95
658.849	35778.78
659.2	35652.9
659.551	35585.34
659.902	35703.98
660.253	35680.47
660.604	35678.89
660.955	35602.28
661.306	35685.22
661.656	35567.93
662.007	35602.51
662.358	35535.85
662.708	35530.65
663.059	35513.47
663.409	35392.8
663.76	35632.34
664.11	35576.3
664.461	35598.67
664.811	35574.26
665.161	35634.37
665.511	35557.77
665.862	35654.94
666.212	35599.35
666.562	35558.44
666.912	35661.94
667.262	35606.58
667.612	35600.48
667.962	35553.7
668.312	35496.75
668.662	35651.32
669.011	35585.11
669.361	35534.49
669.711	35415.62
670.06	35354.61
670.41	35454.04
670.76	35287.49
671.109	35421.95
671.459	35408.17
671.808	35269.41
672.157	35316.19
672.507	35227.6
672.856	35131.34
673.205	35211.79
673.554	35299.47
673.904	35153.93
674.253	35423.31
674.602	35191.9
674.951	34774.51
675.3	34565.7
675.649	34980.38
675.998	35111.22
676.346	35190.09
676.695	35297.21
677.044	34949.19
677.393	35012.02
677.741	35112.13
678.09	35055.63
678.438	34952.81
678.787	34945.8
679.135	35050.43
679.484	34734.28
679.832	34913.26
680.181	34744
680.529	34867.84
680.877	34667.39
681.225	34640.28
681.573	34786.71
681.922	34571.58
682.27	34459.49
682.618	34535.19
682.966	34461.07
683.314	34581.52
683.661	34340.62
684.009	34303.79
684.357	34260.62
684.705	34155.09
685.053	34117.35
685.4	34177.24
685.748	33964.81
686.095	34012.04
686.443	33874.65
686.79	33687.76
687.138	33780.41
687.485	33811.37
687.832	33718.72
688.18	33734.31
688.527	33630.13
688.874	33610.92
689.221	33399.4
689.568	33436.24
689.915	33331.38
690.262	33326.64
690.609	33265.17
690.956	33031.73
691.303	33085.74
691.65	32878.97
691.997	32888.46
692.344	32829.02
692.69	32805.52
693.037	32712.87
693.383	32381.35
693.73	32668.8
694.077	32386.55
694.423	32402.59
694.769	32257.74
695.116	32220.45
695.462	32106.78
695.808	32113.34
696.155	32147.23
696.501	31965.32
696.847	32001.7
697.193	31671.31
697.539	31728.94
697.885	31581.82
698.231	31360.59
698.577	31428.61
698.923	31414.15
699.269	31166.24
699.614	30971.67
699.96	31052.12
700.306	31091.22
700.651	30841.73
700.997	30835.86
701.342	30783.88
701.688	30727.16
702.033	30563.55
702.379	30680.38
702.724	30427.28
703.069	30632.47
703.415	30213.5
703.76	30210.11
704.105	30212.37
704.45	30214.18
704.795	30018.02
705.14	29846.28
705.485	29968.76
705.83	29655.32
706.175	29845.6
706.52	29714.76
706.865	29658.26
707.209	29477.93
707.554	29450.36
707.899	29483.35
708.243	29382.33
708.588	29332.17
708.932	29063.47
709.277	29116.58
709.621	29123.36
709.966	28941.44
710.31	29062.8
710.654	28817.83
710.998	28856.47
711.342	28809.24
711.687	28773.99
712.031	28634.33
712.375	28545.97
712.719	28520.21
713.063	28552.3
713.407	28646.08
713.75	28496.48
714.094	28494
714.438	28296.26
714.782	28398.86
715.125	28189.82
715.469	28261.69
715.812	27902.15
716.156	27915.25
716.499	28028.47
716.843	27968.36
717.186	27775.82
717.53	28024.86
717.873	27861.24
718.216	27726.56
718.559	27702.6
718.902	27495.15
719.246	27646.11
719.589	27555.04
719.932	27379.22
720.275	27311.88
720.617	27375.61
720.96	27337.64
721.303	27333.12
721.646	27293.12
721.989	27147.14
722.331	27235.72
722.674	27124.09
723.016	27141.49
723.359	27151.21
723.701	27049.29
724.044	26871.44
724.386	26807.49
724.729	26992.79
725.071	26788.73
725.413	26842.51
725.755	26878.22
726.097	26605.23
726.439	26459.7
726.782	26525.69
727.124	26600.94
727.465	26470.32
727.807	26370.44
728.149	26298.8
728.491	26421.28
728.833	26449.76
729.175	26201.4
729.516	26100.16
729.858	26080.27
730.199	26257.22
730.541	26125.02
730.882	26133.38
731.224	26163.44
731.565	26026.49
731.906	26048.64
732.248	26113.04
732.589	25879.83
732.93	25654.52
733.271	25847.51
733.612	25713.5
733.953	25725.71
734.294	25735.65
734.635	25777.01
734.976	25682.09
735.317	25611.59
735.658	25655.88
735.999	25595.32
736.339	25585.82
736.68	25579.95
737.021	25466.96
737.361	25372.5
737.702	25400.97
738.042	25399.39
738.383	25353.06
738.723	25361.65
739.063	25177.47
739.404	25241.88
739.744	25236.91
740.084	25145.16
740.424	25138.6
740.764	25095.89
741.104	25143.12
741.444	24970.25
741.784	24882.11
742.124	24933.19
742.464	24982
742.804	24870.36
743.143	24873.3
743.483	24893.19
743.823	24683.48
744.162	24721.44
744.502	24786.52
744.841	24713.76
745.181	24770.7
745.52	24520.54
745.86	24619.3
746.199	24693.42
746.538	24559.18
746.877	24655.45
747.216	24569.58
747.556	24418.4
747.895	24562.57
748.234	24397.38
748.573	24253.43
748.911	24282.36
749.25	24280.32
749.589	24153.55
749.928	24169.14
750.267	24282.58
750.605	24156.26
750.944	24135.02
751.283	24036.03
751.621	23987
751.96	23935.92
752.298	23911.52
752.636	23975.7
752.975	23965.53
753.313	23805.76
753.651	23969.37
753.989	23759.88
754.327	23713.11
754.666	23589.72
755.004	23652.77
755.342	23717.85
755.679	23670.17
756.017	23532.77
756.355	23565.31
756.693	23472.66
757.031	23427.92
757.368	23290.29
757.706	23345.21
758.044	23282.83
758.381	23238.32
758.719	23107.7
759.056	23100.47
759.394	23053.91
759.731	22966.23
760.068	22914.93
760.405	22705.45
760.743	22828.16
761.08	22671.32
761.417	22649.18
761.754	22713.81
762.091	22654.15
762.428	22497.77
762.765	22335.29
763.102	22374.84
763.438	22282.41
763.775	22231.79
764.112	22165.58
764.449	22260.94
764.785	22145.46
765.122	22029.08
765.458	21928.29
765.795	21964.9
766.131	21858.92
766.467	21802.42
766.804	21719.49
767.14	21573.95
767.476	21558.81
767.812	21429.78
768.148	21537.57
768.485	21396.78
768.821	21253.28
769.157	21269.33
769.492	21155.43
769.828	21168.54
770.164	20950.92
770.5	20880.19
770.836	20986.62
771.171	20764.93
771.507	20758.15
771.842	20606.97
772.178	20607.65
772.513	20491.04
772.849	20506.41
773.184	20276.13
773.519	20410.82
773.855	20277.94
774.19	20151.62
774.525	20040.21
774.86	20105.06
775.195	20092.86
775.53	19916.37
775.865	19881.12
776.2	19720.67
776.535	19615.81
776.87	19560.45
777.205	19567.9
777.539	19391.19
777.874	19460.56
778.209	19250.17
778.543	19308.48
778.878	19229.16
779.212	19110.29
779.547	19079.55
779.881	19059.22
780.215	18905.77
780.55	18997.52
780.884	18754.82
781.218	18775.61
781.552	18778.77
781.886	18631.66
782.22	18615.61
782.554	18568.83
782.888	18388.5
783.222	18317.31
783.556	18200.26
783.889	18243.42
784.223	18026.25
784.557	18087.94
784.89	18027.83
785.224	17952.8
785.557	17809.08
785.891	17756.2
786.224	17732.7
786.558	17672.81
786.891	17568.86
787.224	17484.57
787.557	17380.84
787.891	17362.31
788.224	17366.38
788.557	17274.86
788.89	17405.02
789.223	17234.41
789.556	17095.88
789.888	17125.03
790.221	16995.09
790.554	16905.15
790.887	16962.77
791.219	16872.61
791.552	16831.48
791.884	16663.57
792.217	16644.82
792.549	16588.55
792.882	16572.95
793.214	16489.34
793.546	16391.26
793.879	16329.57
794.211	16239.18
794.543	16345.16
794.875	16284.15
795.207	16199.18
795.539	16200.31
795.871	16129.8
796.203	15949.92
796.535	15913.99
796.867	15959.64
797.198	15839.19
797.53	15893.88
797.862	15749.02
798.193	15735.91
798.525	15686.65
798.856	15702.47
799.188	15534.79
799.519	15365.3
799.85	15411.18
800.182	15298.64
800.513	15416.37
800.844	15209.6
801.175	15297.73
801.506	15198.3
801.837	15222.48
802.168	15095.7
802.499	15050.51
802.83	14940.68
803.161	14979.1
803.491	14955.6
803.822	14878.31
804.153	14942.94
804.483	14772.32
804.814	14639.67
805.145	14767.35
805.475	14660.01
805.805	14575.94
806.136	14574.36
806.466	14627.69
806.796	14543.63
807.126	14379.79
807.457	14397.87
807.787	14440.13
808.117	14438.32
808.447	14310.87
808.777	14306.12
809.107	14284.43
809.436	14200.14
809.766	14183.41
810.096	14157.42
810.426	14135.5
810.755	14034.26
811.085	14083.98
811.414	13947.49
811.744	13912.46
812.073	13886.47
812.403	13908.39
812.732	13734.38
813.061	13788.39
813.39	13684.89
813.719	13709.98
814.049	13726.25
814.378	13655.29
814.707	13509.31
815.036	13639.25
815.365	13530.1
815.693	13440.61
816.022	13442.87
816.351	13373.26
816.68	13259.14
817.008	13367.84
817.337	13200.84
817.665	13149.32
817.994	13215.3
818.322	13203.33
818.651	13121.29
818.979	13133.27
819.307	13127.62
819.636	13080.39
819.964	13044.91
820.292	13110.45
820.62	13011.69
820.948	13018.7
821.276	13022.09
821.604	13011.69
821.932	12973.95
822.259	13038.36
822.587	12941.86
822.915	13022.31
823.243	13004.46
823.57	12983.9
823.898	12947.51
824.225	12862.77
824.553	12855.76
824.88	12875.42
825.207	12972.37
825.535	12791.58
825.862	12880.4
826.189	12842.2
826.516	12913.62
826.843	12989.55
827.17	12981.41
827.497	12884.46
827.824	12950.9
828.151	12963.56
828.478	12870.23
828.805	12963.56
829.131	12866.84
829.458	12880.4
829.785	12753.62
830.111	12839.27
830.438	12849.21
830.764	12872.71
831.09	12931.24
831.417	12860.28
831.743	12829.1
832.069	12834.07
832.395	12793.84
832.722	12897.57
833.048	12766.95
833.374	12793.62
833.7	12736.67
834.026	12681.76
834.351	12811.25
834.677	12715.65
835.003	12739.16
835.329	12649.67
835.654	12766.73
835.98	12618.71
836.306	12625.49
836.631	12586.84
836.956	12668.65
837.282	12650.35
837.607	12580.74
837.932	12592.27
838.258	12512.27
838.583	12579.61
838.908	12476.56
839.233	12473.17
839.558	12482.67
839.883	12448.54
840.208	12377.58
840.533	12409.67
840.858	12319.51
841.182	12398.37
841.507	12335.33
841.832	12237.02
842.156	12266.17
842.481	12273.63
842.805	12220.07
843.13	12111.38
843.454	12097.82
843.778	12129.23
844.103	12114.54
844.427	12018.05
844.751	12079.74
845.075	11968.33
845.399	11942.79
845.723	11916.58
846.047	11918.61
846.371	11900.31
846.695	11883.59
847.019	11711.16
847.343	11712.74
847.666	11676.13
847.99	11481.34
848.313	11496.93
848.637	11477.27
848.96	11485.86
849.284	11402.24
849.607	11376.93
849.931	11413.99
850.254	11260.33
850.577	11181.91
850.9	11111.85
851.223	11077.05
851.546	11071.4
851.869	11005.42
852.192	11014.91
852.515	10952.54
852.838	10916.15
853.161	10876.83
853.483	10820.79
853.806	10850.17
854.129	10732.2
854.451	10727.68
854.774	10621.47
855.096	10627.12
855.419	10670.06
855.741	10709.61
856.063	10488.59
856.385	10553
856.708	10511.64
857.03	10496.73
857.352	10486.33
857.674	10520.01
857.996	10379.44
858.318	10333.34
858.64	10352.33
858.961	10236.17
859.283	10232.1
859.605	10164.08
859.926	10279.11
860.248	10204.99
860.57	10139.9
860.891	10188.49
861.212	10056.52
861.534	10120.24
861.855	9993.24
862.176	10081.15
862.498	9998.89
862.819	10049.28
863.14	9990.3
863.461	10008.61
863.782	9903.3
864.103	10013.13
864.424	9871.89
864.745	9893.58
865.065	9851.55
865.386	9853.36
865.707	9814.26
866.027	9796.64
866.348	9736.98
866.668	9794.15
866.989	9730.65
867.309	9708.95
867.63	9684.77
867.95	9682.97
868.27	9637.32
868.59	9628.73
868.91	9718.45
869.23	9661.27
869.55	9587.6
869.87	9704.89
870.19	9596.41
870.51	9479.58
870.83	9589.63
871.15	9527.04
871.469	9491.78
871.789	9489.07
872.109	9464.21
872.428	9431.45
872.748	9458.34
873.067	9461.95
873.386	9425.8
873.706	9458.79
874.025	9397.55
874.344	9408.4
874.663	9404.33
874.982	9408.62
875.301	9357.55
875.62	9372.24
875.939	9225.58
876.258	9242.53
876.577	9249.3
876.896	9278.23
877.214	9273.48
877.533	9273.71
877.852	9154.84
878.17	9221.96
878.489	9187.39
878.807	9266.25
879.125	9132.7
879.444	9117.56
879.762	9136.31
880.08	9156.2
880.398	9082.76
880.716	9129.53
881.034	9087.73
881.352	9058.35
881.67	9066.03
881.988	9009.09
882.306	8923.21
882.624	8962.31
882.941	8908.97
883.259	8903.33
883.577	8870.11
883.894	8870.33
884.212	8840.5
884.529	8869.2
884.846	8825.36
885.164	8775.64
885.481	8778.36
885.798	8732.93
886.115	8727.51
886.432	8705.36
886.75	8673.73
887.067	8672.14
887.383	8615.2
887.7	8627.85
888.017	8604.58
888.334	8581.3
888.651	8511.47
888.967	8510.34
889.284	8532.49
889.6	8483.9
889.917	8423.34
890.233	8424.02
890.55	8380.63
890.866	8421.08
891.182	8363.45
891.498	8337.24
891.815	8365.03
892.131	8309.44
892.447	8281.19
892.763	8187.41
893.079	8216.79
893.395	8197.36
893.71	8157.81
894.026	8133.18
894.342	8117.81
894.657	8079.39
894.973	8074.87
895.289	8092.73
895.604	8066.29
895.92	7973.63
896.235	7958.49
896.55	7968.43
896.865	7963.24
897.181	7915.55
897.496	7909.91
897.811	7886.18
898.126	7853.18
898.441	7832.84
898.756	7715.79
899.071	7812.73
899.386	7800.76
899.7	7630.82
900.015	7647.09
900.33	7560.99
900.644	7615.68
900.959	7594.66
901.273	7552.17
901.588	7513.98
901.902	7459.97
902.216	7495.45
902.531	7471.72
902.845	7480.31
903.159	7315.34
903.473	7332.75
903.787	7332.52
904.101	7302.69
904.415	7308.79
904.729	7237.83
905.042	7242.58
905.356	7198.51
905.67	7182.92
905.984	7142.92
906.297	7078.06
906.611	7065.86
906.924	7086.88
907.237	7051.62
907.551	7006.88
907.864	6971.4
908.177	6961.68
908.491	6942.92
908.804	6863.38
909.117	6839.65
909.43	6834.23
909.743	6800.56
910.056	6855.02
910.368	6739.77
910.681	6699.77
910.994	6656.83
911.307	6658.19
911.619	6580.22
911.932	6651.41
912.244	6622.48
912.557	6598.3
912.869	6557.62
913.181	6589.26
913.494	6529.83
913.806	6466.55
914.118	6416.61
914.43	6427.46
914.742	6390.85
915.054	6370.28
915.366	6357.86
915.678	6256.84
915.99	6282.6
916.302	6236.73
916.613	6207.12
916.925	6237.86
917.236	6250.51
917.548	6181.81
917.859	6066.79
918.171	6086.68
918.482	6096.17
918.794	6052.55
919.105	6048.49
919.416	5967.58
919.727	5996.28
920.038	5937.53
920.349	5895.49
920.66	5873.35
920.971	5839.68
921.282	5836.29
921.593	5820.02
921.903	5776.63
922.214	5786.8
922.525	5807.81
922.835	5690.53
923.146	5690.53
923.456	5701.38
923.767	5708.15
924.077	5649.63
924.387	5673.35
924.697	5632
925.008	5596.75
925.318	5591.77
925.628	5524.43
925.938	5495.05
926.248	5457.54
926.558	5408.73
926.867	5448.05
927.177	5418.67
927.487	5388.16
927.796	5387.94
928.106	5351.1
928.416	5316.3
928.725	5309.75
929.034	5269.97
929.344	5248.96
929.653	5267.71
929.962	5177.55
930.271	5169.19
930.581	5192.91
930.89	5125.35
931.199	5126.48
931.508	5133.48
931.817	5112.01
932.125	5105.91
932.434	5008.96
932.743	4951.56
933.051	4997.67
933.36	4948.85
933.669	4958.8
933.977	4941.17
934.286	4935.07
934.594	4928.06
934.902	4854.62
935.21	4881.96
935.519	4825.92
935.827	4809.87
936.135	4794.73
936.443	4764.9
936.751	4741.63
937.059	4728.97
937.367	4676.54
937.674	4701.4
937.982	4710.44
938.29	4628.64
938.597	4697.79
938.905	4556.77
939.213	4540.5
939.52	4571.91
939.827	4577.11
940.135	4530.33
940.442	4543.89
940.749	4492.37
941.056	4499.37
941.363	4435.42
941.67	4451.01
941.977	4412.6
942.284	4370.79
942.591	4420.05
942.898	4364.01
943.205	4369.89
943.511	4359.49
943.818	4297.34
944.125	4262.54
944.431	4265.48
944.738	4228.42
945.044	4254.63
945.35	4207.63
945.657	4172.38
945.963	4179.16
946.269	4212.38
946.575	4152.49
946.881	4127.41
947.187	4090.12
947.493	4099.84
947.799	4062.32
948.105	4067.52
948.41	4063.23
948.716	4011.48
949.022	4016
949.327	4031.59
949.633	3999.05
949.938	3954.98
950.244	3955.88
950.549	3900.07
950.854	3898.26
951.16	3882.67
951.465	3885.6
951.77	3806.06
952.075	3841.54
952.38	3855.1
952.685	3799.05
952.99	3787.08
953.294	3785.04
953.599	3741.43
953.904	3764.93
954.209	3712.95
954.513	3717.7
954.818	3677.02
955.122	3682.9
955.426	3653.75
955.731	3668.89
956.035	3623.69
956.339	3614.42
956.643	3606.06
956.948	3577.36
957.252	3561.77
957.556	3564.26
957.86	3561.32
958.163	3516.57
958.467	3555.9
958.771	3494.43
959.075	3459.4
959.378	3488.33
959.682	3450.36
959.985	3413.98
960.289	3428.21
960.592	3393.19
960.896	3423.24
961.199	3363.13
961.502	3362.68
961.805	3339.63
962.108	3315.68
962.411	3308.22
962.714	3331.72
963.017	3287.43
963.32	3315
963.623	3270.93
963.926	3250.59
964.228	3227.99
964.531	3206.75
964.833	3206.98
965.136	3148.9
965.438	3207.43
965.741	3185.51
966.043	3142.57
966.345	3145.28
966.648	3142.57
966.95	3104.38
967.252	3088.34
967.554	3105.06
967.856	3052.41
968.158	3071.61
968.46	3077.26
968.761	2998.62
969.063	3029.13
969.365	3007.89
969.666	2986.19
969.968	2980.09
970.269	2964.95
970.571	2974.89
970.872	2925.18
971.174	2934.89
971.475	2921.56
971.776	2924.05
972.077	2910.26
972.378	2901.68
972.679	2895.12
972.98	2892.64
973.281	2874.78
973.582	2818.51
973.883	2806.54
974.183	2816.93
974.484	2793.88
974.785	2765.41
975.085	2790.94
975.386	2805.63
975.686	2733.32
975.986	2762.47
976.287	2746.65
976.587	2716.37
976.887	2699.42
977.187	2704.39
977.487	2666.2
977.787	2644.51
978.087	2660.1
978.387	2663.04
978.687	2637.73
978.987	2626.65
979.286	2589.14
979.586	2578.29
979.885	2583.49
980.185	2577.62
980.484	2559.09
980.784	2589.59
981.083	2536.94
981.382	2518.63
981.682	2520.22
981.981	2483.38
982.28	2548.46
982.579	2468.92
982.878	2478.18
983.177	2457.39
983.475	2484.51
983.774	2479.99
984.073	2416.49
984.372	2402.25
984.67	2415.13
984.969	2409.71
985.267	2400.22
985.566	2355.93
985.864	2383.72
986.162	2349.37
986.461	2373.78
986.759	2329.49
987.057	2338.98
987.355	2334.46
987.653	2295.36
987.951	2271.64
988.249	2301.01
988.547	2311.41
988.844	2265.53
989.142	2264.4
989.44	2251.75
989.737	2240
990.035	2201.58
990.332	2190.51
990.63	2212.88
990.927	2205.87
991.224	2177.63
991.521	2200
991.819	2144.63
992.116	2164.75
992.413	2131.53
992.71	2120.68
993.006	2126.55
993.303	2125.88
993.6	2116.39
993.897	2084.75
994.193	2087.23
994.49	2066.22
994.787	2091.07
995.083	2065.09
995.379	2046.56
995.676	2081.13
995.972	2048.14
996.268	2023.05
996.565	2038.65
996.861	2002.26
997.157	1988.93
997.453	2004.07
997.749	1948.93
998.044	2002.26
998.34	1972.43
998.636	1955.71
998.932	1926.33
999.227	1914.81
999.523	1910.51
999.818	1870.74
1000.114	1938.99
1000.409	1915.49
1000.704	1870.29
1001	1861.48
1001.295	1864.64
1001.59	1847.92
1001.885	1835.94
1002.18	1832.55
1002.475	1827.81
1002.77	1808.14
1003.065	1790.97
1003.359	1809.27
1003.654	1778.99
1003.949	1792.1
1004.243	1780.57
1004.538	1760.91
1004.832	1748.49
1005.127	1773.8
1005.421	1737.19
1005.715	1729.28
1006.009	1712.33
1006.304	1707.81
1006.598	1715.72
1006.892	1684.76
1007.186	1658.54
1007.48	1665.55
1007.773	1625.78
1008.067	1659.67
1008.361	1642.95
1008.655	1611.99
1008.948	1625.32
1009.242	1585.55
1009.535	1589.39
1009.829	1574.93
1010.122	1558.89
1010.415	1585.55
1010.708	1556.63
1011.001	1575.83
1011.295	1524.08
1011.588	1534.25
1011.881	1527.25
1012.173	1542.61
1012.466	1520.24
1012.759	1497.64
1013.052	1504.88
1013.344	1520.69
1013.637	1497.64
1013.93	1503.97
1014.222	1473.46
1014.514	1471.2
1014.807	1448.38
1015.099	1436.85
1015.391	1431.66
1015.683	1419.91
1015.976	1431.66
1016.268	1385.33
1016.56	1402.73
1016.851	1389.4
1017.143	1405.67
1017.435	1386.69
1017.727	1349.85
1018.018	1361.83
1018.31	1338.33
1018.602	1360.25
1018.893	1355.28
1019.185	1334.26
1019.476	1313.92
1019.767	1327.71
1020.058	1305.11
1020.35	1310.98
1020.641	1300.81
1020.932	1273.24
1021.223	1276.63
1021.514	1268.95
1021.804	1242.06
1022.095	1262.17
1022.386	1241.15
1022.677	1229.85
1022.967	1221.49
1023.258	1227.14
1023.548	1201.15
1023.839	1214.94
1024.129	1198.67
1024.419	1196.18
1024.709	1167.26
1025	1189.86
1025.29	1178.78
1025.58	1143.76
1025.87	1140.37
1026.16	1153.25
1026.449	1122.74
1026.739	1129.52
1027.029	1106.92
1027.319	1118.67
1027.608	1097.2
1027.898	1117.32
1028.187	1106.69
1028.477	1106.24
1028.766	1087.03
1029.055	1042.97
1029.344	1055.62
1029.634	1080.48
1029.923	1068.5
1030.212	1048.16
1030.501	1029.86
1030.79	1052.46
1031.078	1012.01
1031.367	1035.51
1031.656	1013.82
1031.945	1006.36
1032.233	999.35
1032.522	1000.26
1032.81	972.23
1033.099	984.66
1033.387	958.68
1033.675	948.05
1033.963	959.58
1034.251	975.62
1034.54	917.55
1034.828	948.05
1035.116	962.97
1035.403	950.77
1035.691	929.52
1035.979	922.07
1036.267	907.6
1036.554	898.11
1036.842	908.73
1037.129	892.69
1037.417	890.65
1037.704	906.7
1037.992	894.95
1038.279	892.69
1038.566	875.74
1038.853	875.74
1039.14	875.74
