Data from hue_260_FLMS001491_00053.txt Node
Date: Tue Feb 07 15:59:11 GMT 2017
User: dcchb
Spectrometer: FLMS00149
Trigger mode: 0
Integration Time (sec): 2.000000E-2
Scans to average: 10
Electric dark correction enabled: true
Nonlinearity correction enabled: false
Boxcar width: 0
XAxis mode: Wavelengths
Number of Pixels in Spectrum: 2048
>>>>>Begin Spectral Data<<<<<
341.393	-17.51
341.776	-17.51
342.16	-17.51
342.543	-59.32
342.927	-82.6
343.31	-73.11
343.693	-74.01
344.077	-64.97
344.46	-50.06
344.843	-48.02
345.226	-39.89
345.61	-39.43
345.993	-10.28
346.376	4.18
346.759	10.51
347.142	18.42
347.525	59.77
347.908	56.83
348.291	79.43
348.674	69.72
349.057	100.9
349.44	148.58
349.823	136.61
350.206	154.23
350.588	198.98
350.971	201.69
351.354	212.31
351.737	216.38
352.119	235.14
352.502	230.39
352.884	253.44
353.267	252.31
353.65	279.43
354.032	295.25
354.414	305.19
354.797	302.93
355.179	296.15
355.562	312.42
355.944	314.46
356.326	319.65
356.709	330.27
357.091	312.2
357.473	325.08
357.855	340.67
358.238	333.44
358.62	332.99
359.002	318.3
359.384	324.85
359.766	318.75
360.148	308.35
360.53	316.26
360.912	315.36
361.294	325.3
361.676	306.32
362.057	309.71
362.439	300.67
362.821	304.51
363.203	303.16
363.584	313.1
363.966	314
364.348	310.16
364.729	299.09
365.111	302.03
365.493	286.43
365.874	288.24
366.256	308.13
366.637	306.77
367.019	284.85
367.4	306.55
367.781	295.47
368.163	292.08
368.544	294.12
368.925	300.9
369.306	298.86
369.688	279.88
370.069	307.22
370.45	295.25
370.831	309.26
371.212	322.59
371.593	309.26
371.974	275.36
372.355	318.52
372.736	301.57
373.117	311.74
373.498	309.71
373.879	301.12
374.26	314.46
374.641	299.77
375.021	317.17
375.402	299.77
375.783	319.65
376.163	285.98
376.544	327.56
376.925	319.2
377.305	307.68
377.686	312.2
378.066	330.95
378.447	323.04
378.827	320.33
379.208	332.08
379.588	323.04
379.968	327.11
380.349	326.66
380.729	322.59
381.109	321.23
381.489	309.26
381.87	320.56
382.25	338.86
382.63	342.02
383.01	334.79
383.39	347.67
383.77	334.57
384.15	327.56
384.53	343.83
384.91	348.13
385.29	343.38
385.67	342.93
386.049	348.8
386.429	339.77
386.809	340.22
387.189	340.67
387.568	352.19
387.948	366.88
388.328	346.09
388.707	358.3
389.087	351.52
389.466	339.77
389.846	344.06
390.225	355.81
390.605	357.39
390.984	357.17
391.363	344.51
391.743	372.53
392.122	358.07
392.501	354.68
392.881	383.83
393.26	374.11
393.639	352.42
394.018	360.56
394.397	387
394.776	379.54
395.155	387.22
395.534	373.66
395.913	367.56
396.292	378.18
396.671	386.77
397.05	391.52
397.429	371.85
397.808	391.74
398.186	376.6
398.565	411.4
398.944	393.55
399.323	373.21
399.701	411.18
400.08	387
400.458	403.49
400.837	400.1
401.215	394
401.594	410.05
401.972	378.63
402.351	411.85
402.729	434.9
403.107	404.4
403.486	422.02
403.864	427.22
404.242	438.07
404.62	422.02
404.999	415.7
405.377	433.77
405.755	446.43
406.133	434.68
406.511	462.25
406.889	455.24
407.267	455.02
407.645	449.37
408.023	465.64
408.401	483.26
408.779	492.53
409.156	480.55
409.534	514.45
409.912	495.92
410.29	510.83
410.667	485.98
411.045	506.99
411.422	517.84
411.8	510.38
412.178	531.4
412.555	540.21
412.933	527.33
413.31	537.05
413.687	557.84
414.065	564.84
414.442	552.19
414.819	572.98
415.197	579.08
415.574	580.66
415.951	600.32
416.328	609.59
416.705	606.65
417.082	608.91
417.46	628.12
417.837	627.22
418.214	612.98
418.591	609.59
418.967	643.49
419.344	645.97
419.721	647.78
420.098	689.13
420.475	679.64
420.852	693.88
421.228	683.48
421.605	685.74
421.982	713.54
422.358	709.92
422.735	740.43
423.111	731.39
423.488	753.99
423.864	752.86
424.241	773.43
424.617	775.23
424.994	776.59
425.37	782.24
425.746	795.8
426.123	871.05
426.499	826.53
426.875	843.71
427.251	857.72
427.627	867.66
428.003	862.01
428.379	874.44
428.756	869.24
429.132	909.24
429.507	908.11
429.883	932.07
430.259	933.42
430.635	930.71
431.011	945.85
431.387	975
431.763	958.73
432.138	989.01
432.514	1010.03
432.89	1005.96
433.265	1034.21
433.641	1034.66
434.016	1071.72
434.392	1073.76
434.767	1091.38
435.143	1103.13
435.518	1124.6
435.894	1153.3
436.269	1165.73
436.644	1158.27
437.02	1208.67
437.395	1227.2
437.77	1233.07
438.145	1276.69
438.52	1236.69
438.895	1290.7
439.271	1276.01
439.646	1322.79
440.021	1305.16
440.395	1332.51
440.77	1337.03
441.145	1399.85
441.52	1394.65
441.895	1379.96
442.27	1420.64
442.645	1417.02
443.019	1434.65
443.394	1441.43
443.769	1453.63
444.143	1472.39
444.518	1489.79
444.892	1460.41
445.267	1534.54
445.641	1481.43
446.016	1532.73
446.39	1567.08
446.764	1530.24
447.139	1542.22
447.513	1537.7
447.887	1565.27
448.262	1565.95
448.636	1561.88
449.01	1594.65
449.384	1613.63
449.758	1611.37
450.132	1630.13
450.506	1659.05
450.88	1647.98
451.254	1684.81
451.628	1706.51
452.002	1692.05
452.376	1750.12
452.75	1719.16
453.123	1749.45
453.497	1748.77
453.871	1741.08
454.244	1814.08
454.618	1868.76
454.992	1843.45
455.365	1831.7
455.739	1878.71
456.112	1892.04
456.486	1908.31
456.859	1947.18
457.232	1984.02
457.606	1927.29
457.979	1970.23
458.352	2002.77
458.725	2014.52
459.099	2031.92
459.472	2103.79
459.845	2101.53
460.218	2160.96
460.591	2157.34
460.964	2172.94
461.337	2194.18
461.71	2203.67
462.083	2256.32
462.456	2240.28
462.829	2253.16
463.201	2296.1
463.574	2279.6
463.947	2309.88
464.32	2367.96
464.692	2364.34
465.065	2425.81
465.438	2406.83
465.81	2437.79
466.183	2468.07
466.555	2518.92
466.928	2542.65
467.3	2545.58
467.672	2545.13
468.045	2638.69
468.417	2636.43
468.789	2645.02
469.161	2704.9
469.534	2728.63
469.906	2753.94
470.278	2847.04
470.65	2807.5
471.022	2828.06
471.394	2904.67
471.766	2922.3
472.138	2997.1
472.51	3046.59
472.882	3076.19
473.253	3100.6
473.625	3065.57
473.997	3172.46
474.369	3148.5
474.74	3181.72
475.112	3247.71
475.484	3297.2
475.855	3359.35
476.227	3415.62
476.598	3464.2
476.97	3467.82
477.341	3564.31
477.713	3610.19
478.084	3584.43
478.455	3715.27
478.827	3731.09
479.198	3762.5
479.569	3840.46
479.94	3916.62
480.311	3933.79
480.682	4024.19
481.053	4107.12
481.424	4091.08
481.795	4203.62
482.166	4195.93
482.537	4247.91
482.908	4358.19
483.279	4382.37
483.65	4462.59
484.021	4467.11
484.391	4581.24
484.762	4617.84
485.133	4634.79
485.503	4728.8
485.874	4801.57
486.244	4794.79
486.615	4840.44
486.985	4917.95
487.356	5009.02
487.726	5010.38
488.097	5107.32
488.467	5122.92
488.837	5214.89
489.207	5227.55
489.578	5349.8
489.948	5379.18
490.318	5403.36
490.688	5442
491.058	5478.61
491.428	5554.32
491.798	5594.77
492.168	5694.2
492.538	5684.26
492.908	5764.93
493.278	5786.4
493.648	5807.42
494.017	5899.17
494.387	5915.66
494.757	5954.08
495.126	6080.41
495.496	6039.05
495.866	6062.55
496.235	6081.08
496.605	6141.19
496.974	6245.37
497.344	6210.8
497.713	6238.82
498.082	6324.01
498.452	6350.45
498.821	6370.79
499.19	6358.59
499.559	6416.89
499.928	6498.25
500.298	6387.97
500.667	6518.81
501.036	6441.53
501.405	6569.21
501.774	6583.89
502.143	6598.58
502.512	6602.2
502.88	6631.8
503.249	6632.93
503.618	6700.73
503.987	6726.49
504.356	6747.96
504.724	6760.84
505.093	6804
505.462	6744.57
505.83	6835.87
506.199	6863.89
506.567	6938.46
506.936	6896.88
507.304	6962.19
507.672	7009.87
508.041	7005.35
508.409	7050.1
508.777	7128.06
509.145	7077.89
509.514	7091.23
509.882	7079.02
510.25	7123.09
510.618	7161.73
510.986	7165.8
511.354	7196.99
511.722	7229.08
512.09	7279.47
512.458	7303.42
512.826	7316.3
513.193	7276.76
513.561	7277.66
513.929	7346.59
514.297	7349.07
514.664	7457.77
515.032	7424.32
515.4	7392.46
515.767	7406.25
516.135	7536.41
516.502	7420.48
516.869	7533.93
517.237	7530.31
517.604	7548.16
517.972	7589.07
518.339	7518.79
518.706	7573.93
519.073	7614.15
519.44	7617.99
519.808	7638.1
520.175	7584.55
520.542	7667.71
520.909	7681.49
521.276	7704.54
521.643	7630.87
522.009	7714.94
522.376	7706.35
522.743	7830.42
523.11	7849.62
523.477	7862.73
523.843	7822.96
524.21	7911.54
524.577	7971.2
524.943	7890.08
525.31	7918.55
525.676	7950.19
526.043	7958.55
526.409	8014.82
526.776	8041.71
527.142	8042.84
527.508	8057.75
527.874	8046.68
528.241	8067.25
528.607	8082.39
528.973	8120.35
529.339	8060.47
529.705	8183.85
530.071	8182.72
530.437	8160.12
530.803	8197.86
531.169	8216.17
531.535	8156.06
531.901	8226.79
532.267	8227.02
532.632	8201.71
532.998	8221.37
533.364	8253.46
533.73	8286.9
534.095	8278.77
534.461	8269.95
534.826	8257.52
535.192	8281.48
535.557	8275.38
535.923	8256.39
536.288	8223.4
536.653	8275.6
537.019	8230.18
537.384	8297.07
537.749	8265.66
538.114	8309.27
538.479	8245.32
538.845	8291.19
539.21	8209.84
539.575	8222.95
539.94	8267.69
540.305	8297.52
540.67	8244.19
541.034	8226.11
541.399	8216.85
541.764	8230.86
542.129	8232.44
542.494	8242.61
542.858	8337.75
543.223	8231.08
543.587	8255.94
543.952	8209.16
544.316	8183.85
544.681	8214.13
545.045	8217.07
545.41	8275.38
545.774	8221.14
546.138	8244.19
546.503	8206
546.867	8217.75
547.231	8184.98
547.595	8174.36
547.959	8222.5
548.324	8135.72
548.688	8178.66
549.052	8168.26
549.416	8174.36
549.779	8218.65
550.143	8160.58
550.507	8101.37
550.871	8158.09
551.235	8119.45
551.599	8173.91
551.962	8189.28
552.326	8142.27
552.689	8239.9
553.053	8115.15
553.417	8097.98
553.78	8233.57
554.143	8116.74
554.507	8177.07
554.87	8153.12
555.234	8208.03
555.597	8147.92
555.96	8108.83
556.323	8138.88
556.686	8160.35
557.05	8221.59
557.413	8213.68
557.776	8168.49
558.139	8217.98
558.502	8202.38
558.865	8269.05
559.228	8283.51
559.59	8281.93
559.953	8211.65
560.316	8322.15
560.679	8290.74
561.041	8273.57
561.404	8348.14
561.767	8368.03
562.129	8303.17
562.492	8380.23
562.854	8370.74
563.217	8353.57
563.579	8427.91
563.941	8407.8
564.304	8497.74
564.666	8466.33
565.028	8490.74
565.39	8462.72
565.753	8525.76
566.115	8485.99
566.477	8584.97
566.839	8511.98
567.201	8547.91
567.563	8552.88
567.925	8664.97
568.287	8694.12
568.648	8625.87
569.01	8682.14
569.372	8683.73
569.734	8732.76
570.095	8798.07
570.457	8793.78
570.819	8768.47
571.18	8780.45
571.542	8845.53
571.903	8905.87
572.265	8867.9
572.626	8888.69
572.987	8870.39
573.349	8881.69
573.71	8997.39
574.071	8988.35
574.432	9041.23
574.794	9052.98
575.155	9060.89
575.516	9034.23
575.877	9133.88
576.238	9140.66
576.599	9136.14
576.96	9116.48
577.32	9161.68
577.681	9107.22
578.042	9202.13
578.403	9146.99
578.763	9247.55
579.124	9254.78
579.485	9300.21
579.845	9257.5
580.206	9275.8
580.566	9299.76
580.927	9356.25
581.287	9443.93
581.648	9353.54
582.008	9478.51
582.368	9351.51
582.728	9438.28
583.089	9384.72
583.449	9374.78
583.809	9445.51
584.169	9492.74
584.529	9487.32
584.889	9565.06
585.249	9488.23
585.609	9492.52
585.969	9552.4
586.329	9546.98
586.688	9611.16
587.048	9634.21
587.408	9546.75
587.768	9587.88
588.127	9614.78
588.487	9569.8
588.846	9687.09
589.206	9614.55
589.565	9676.92
589.925	9741.78
590.284	9653.19
590.643	9713.76
591.003	9799.63
591.362	9752.62
591.721	9811.61
592.08	9775.9
592.44	9813.41
592.799	9806.86
593.158	9815.22
593.517	9858.38
593.876	9800.76
594.235	9841.89
594.593	9851.61
594.952	9834.66
595.311	9824.49
595.67	9853.41
596.029	9947.65
596.387	9867.2
596.746	9916.69
597.104	9865.16
597.463	9861.32
597.822	9947.2
598.18	9920.76
598.538	9931.6
598.897	9972.51
599.255	9871.72
599.613	10046.4
599.972	10012.05
600.33	10003.01
600.688	10056.35
601.046	10038.49
601.404	10066.74
601.762	9974.09
602.12	10104.03
602.478	10061.09
602.836	10102.67
603.194	10018.83
603.552	10051.15
603.91	10003.69
604.268	10040.98
604.625	10059.74
604.983	10108.77
605.341	10077.81
605.698	10090.7
606.056	10106.74
606.413	10096.12
606.771	10154.2
607.128	10190.13
607.485	10074.65
607.843	10069.9
608.2	10201.43
608.557	10189
608.914	10112.39
609.272	10180.41
609.629	10146.06
609.986	10229.67
610.343	10201.88
610.7	10276.45
611.057	10181.99
611.414	10275.78
611.771	10270.35
612.127	10327.3
612.484	10312.38
612.841	10369.56
613.198	10324.36
613.554	10235.32
613.911	10367.3
614.267	10371.82
614.624	10301.31
614.98	10333.85
615.337	10410.23
615.693	10342.44
616.05	10370.69
616.406	10462.44
616.762	10353.06
617.118	10371.37
617.475	10460.63
617.831	10430.12
618.187	10379.5
618.543	10442.32
618.899	10461.76
619.255	10519.61
619.611	10425.15
619.967	10491.14
620.323	10534.3
620.678	10426.05
621.034	10487.52
621.39	10496.11
621.746	10401.87
622.101	10544.24
622.457	10476.9
622.812	10489.1
623.168	10499.05
623.523	10517.58
623.879	10499.72
624.234	10516.45
624.589	10547.18
624.945	10484.81
625.3	10561.87
625.655	10466.73
626.01	10546.95
626.365	10516.45
626.72	10463.34
627.075	10502.66
627.43	10471.93
627.785	10370.24
628.14	10453.62
628.495	10448.88
628.85	10440.29
629.205	10378.6
629.559	10422.89
629.914	10446.39
630.269	10410.23
630.623	10398.26
630.978	10372.5
631.332	10392.38
631.687	10438.26
632.041	10364.13
632.396	10337.47
632.75	10353.51
633.104	10367.75
633.459	10236
633.813	10293.18
634.167	10193.29
634.521	10285.49
634.875	10325.04
635.229	10217.25
635.583	10256.34
635.937	10169.34
636.291	10161.43
636.645	10221.09
636.999	10196.23
637.352	10188.77
637.706	10139.96
638.06	10220.18
638.413	10118.27
638.767	10083.01
639.121	10107.87
639.474	10006.18
639.828	10114.2
640.181	10091.6
640.534	10071.26
640.888	10030.36
641.241	10040.07
641.594	10011.15
641.947	10054.31
642.301	10012.05
642.654	9995.78
643.007	10080.07
643.36	10004.82
643.713	9979.06
644.066	10004.82
644.419	9940.42
644.771	9954.2
645.124	9836.24
645.477	9808.22
645.83	9709.46
646.182	9694.55
646.535	9674.21
646.888	9702.46
647.24	9628.56
647.593	9660.65
647.945	9580.2
648.298	9624.04
648.65	9622.91
649.002	9557.6
649.355	9570.71
649.707	9621.78
650.059	9624.04
650.411	9838.27
650.763	9826.97
651.115	9817.93
651.467	9832.85
651.819	9857.48
652.171	9856.58
652.523	9812.51
652.875	9798.95
653.227	9791.95
653.578	9823.58
653.93	9807.76
654.282	9801.44
654.633	9745.39
654.985	9800.31
655.337	9843.7
655.688	9828.56
656.039	9825.62
656.391	9797.37
656.742	9755.56
657.094	9724.83
657.445	9825.39
657.796	9786.3
658.147	9755.11
658.498	9866.29
658.849	9826.07
659.2	9800.76
659.551	9760.31
659.902	9786.07
660.253	9831.94
660.604	9795.11
660.955	9812.06
661.306	9836.24
661.656	9732.74
662.007	9824.26
662.358	9789.46
662.708	9783.81
663.059	9814.09
663.409	9738.84
663.76	9798.5
664.11	9804.15
664.461	9825.39
664.811	9746.07
665.161	9856.35
665.511	9761.89
665.862	9776.81
666.212	9843.47
666.562	9894.32
666.912	9791.27
667.262	9731.83
667.612	9793.75
667.962	9751.95
668.312	9806.18
668.662	9857.93
669.011	9792.4
669.361	9779.06
669.711	9798.95
670.06	9737.26
670.41	9799.4
670.76	9769.35
671.109	9758.27
671.459	9824.49
671.808	9777.26
672.157	9773.42
672.507	9707.2
672.856	9706.98
673.205	9678.05
673.554	9744.26
673.904	9685.73
674.253	9713.98
674.602	9692.74
674.951	9537.72
675.3	9542.91
675.649	9647.99
675.998	9594.89
676.346	9607.77
676.695	9690.25
677.044	9553.08
677.393	9603.02
677.741	9633.53
678.09	9596.02
678.438	9607.09
678.787	9519.86
679.135	9624.27
679.484	9577.26
679.832	9544.72
680.181	9504.04
680.529	9496.81
680.877	9452.29
681.225	9461.79
681.573	9513.31
681.922	9460.2
682.27	9423.37
682.618	9420.88
682.966	9402.8
683.314	9419.3
683.661	9385.18
684.009	9393.31
684.357	9362.58
684.705	9325.97
685.053	9337.72
685.4	9291.62
685.748	9207.78
686.095	9217.72
686.443	9205.75
686.79	9192.64
687.138	9199.65
687.485	9181.11
687.832	9104.28
688.18	9169.82
688.527	9101.79
688.874	9011.4
689.221	9025.86
689.568	9002.81
689.915	8989.93
690.262	8976.15
690.609	8888.69
690.956	8902.25
691.303	8890.5
691.65	8807.34
691.997	8846.89
692.344	8792.42
692.69	8792.42
693.037	8790.16
693.383	8686.44
693.73	8727.57
694.077	8701.58
694.423	8677.4
694.769	8572.77
695.116	8547.68
695.462	8530.51
695.808	8482.38
696.155	8459.55
696.501	8500.23
696.847	8440.12
697.193	8405.99
697.539	8435.6
697.885	8373
698.231	8365.99
698.577	8288.48
698.923	8304.08
699.269	8239.67
699.614	8192.44
699.96	8153.34
700.306	8153.34
700.651	8211.42
700.997	8109.28
701.342	8107.92
701.688	8061.14
702.033	8104.98
702.379	8037.87
702.724	7976.4
703.069	7987.93
703.415	7954.48
703.76	7912
704.105	7888.49
704.45	7903.18
704.795	7871.09
705.14	7773.69
705.485	7824.09
705.83	7814.6
706.175	7811.43
706.52	7768.95
706.865	7737.31
707.209	7716.52
707.554	7595.39
707.899	7690.08
708.243	7656.18
708.588	7599.46
708.932	7593.13
709.277	7519.92
709.621	7607.6
709.966	7503.42
710.31	7516.3
710.654	7499.35
710.998	7446.24
711.342	7497.32
711.687	7465.45
712.031	7400.6
712.375	7397.43
712.719	7337.1
713.063	7382.29
713.407	7352.46
713.75	7329.19
714.094	7312.69
714.438	7296.87
714.782	7255.29
715.125	7228.17
715.469	7291.67
715.812	7269.53
716.156	7185.23
716.499	7186.36
716.843	7228.85
717.186	7201.51
717.53	7189.53
717.873	7203.31
718.216	7183.2
718.559	7062.98
718.902	7116.08
719.246	7089.87
719.589	7013.49
719.932	7074.05
720.275	7053.71
720.617	7033.15
720.96	7024.11
721.303	7037.67
721.646	7053.26
721.989	7051.9
722.331	7010.55
722.674	7024.79
723.016	7025.92
723.359	7031.79
723.701	7002.64
724.044	6991.34
724.386	6928.97
724.729	7079.93
725.071	6983.66
725.413	6939.59
725.755	6952.25
726.097	6939.82
726.439	6939.37
726.782	6918.35
727.124	6904.79
727.465	6891.46
727.807	6928.97
728.149	6848.75
728.491	6898.01
728.833	6889.42
729.175	6905.24
729.516	6835.64
729.858	6850.33
730.199	6857.11
730.541	6878.58
730.882	6853.49
731.224	6853.04
731.565	6811.69
731.906	6813.49
732.248	6871.12
732.589	6855.3
732.93	6829.76
733.271	6822.53
733.612	6855.75
733.953	6818.46
734.294	6783.89
734.635	6758.35
734.976	6801.06
735.317	6817.56
735.658	6816.88
735.999	6811.23
736.339	6819.37
736.68	6858.46
737.021	6841.29
737.361	6807.62
737.702	6818.01
738.042	6834.06
738.383	6835.87
738.723	6855.3
739.063	6825.02
739.404	6811.69
739.744	6851.23
740.084	6795.87
740.424	6862.98
740.764	6883.1
741.104	6901.4
741.444	6927.16
741.784	6863.21
742.124	6862.76
742.464	6899.82
742.804	6860.5
743.143	6933.72
743.483	6943.66
743.823	6987.73
744.162	6865.24
744.502	6925.13
744.841	6949.76
745.181	7047.16
745.52	6971.46
745.86	7052.58
746.199	7124.9
746.538	7126.93
746.877	7175.07
747.216	7177.1
747.556	7210.32
747.895	7170.55
748.234	7256.42
748.573	7268.62
748.911	7345.68
749.25	7397.21
749.589	7425.45
749.928	7460.26
750.267	7520.59
750.605	7531.89
750.944	7629.06
751.283	7638.78
751.621	7707.93
751.96	7782.73
752.298	7874.48
752.636	7889.17
752.975	7999.9
753.313	8055.04
753.651	8119.45
753.989	8144.76
754.327	8210.74
754.666	8309.95
755.004	8375.49
755.342	8536.61
755.679	8600.56
756.017	8701.58
756.355	8850.5
756.693	8880.33
757.031	8995.81
757.368	9033.1
757.706	9223.6
758.044	9277.61
758.381	9389.24
758.719	9607.54
759.056	9667.2
759.394	9753.3
759.731	9789.23
760.068	10010.92
760.405	10118.27
760.743	10134.99
761.08	10390.8
761.417	10428.31
761.754	10554.41
762.091	10716.22
762.428	10903.78
762.765	10864.69
763.102	11196.88
763.438	11175.86
763.775	11255.86
764.112	11434.16
764.449	11613.59
764.785	11659.69
765.122	11709.18
765.458	11763.42
765.795	11967.93
766.131	12105.11
766.467	12212.9
766.804	12214.48
767.14	12357.98
767.476	12501.93
767.812	12538.54
768.148	12757.97
768.485	12759.1
768.821	12836.61
769.157	12974.46
769.492	13005.19
769.828	13159.77
770.164	13149.6
770.5	13189.37
770.836	13366.77
771.171	13328.58
771.507	13429.14
771.842	13402.7
772.178	13616.03
772.513	13666.19
772.849	13645.86
773.184	13801.11
773.519	13848.11
773.855	13890.37
774.19	13917.04
774.525	13951.84
774.86	14052.62
775.195	14114.32
775.53	14158.16
775.865	14121.1
776.2	14078.39
776.535	14068.22
776.87	14132.17
777.205	14252.17
777.539	14217.59
777.874	14279.96
778.209	14252.62
778.543	14208.78
778.878	14260.08
779.212	14250.13
779.547	14275.67
779.881	14330.58
780.215	14304.14
780.55	14385.72
780.884	14298.95
781.218	14347.98
781.552	14322
781.886	14272.28
782.22	14269.34
782.554	14227.54
782.888	14250.13
783.222	14178.27
783.556	14190.47
783.889	14188.89
784.223	14181.44
784.557	14166.97
784.89	14257.82
785.224	14176.24
785.557	14146.41
785.891	14149.35
786.224	14082.68
786.558	14187.76
786.891	14058.27
787.224	14086.75
787.557	13994.32
787.891	14008.33
788.224	13943.02
788.557	13973.76
788.89	14061.89
789.223	14096.69
789.556	13989.58
789.888	13965.62
790.221	13917.26
790.554	13781.45
790.887	13827.77
791.219	13831.61
791.552	13792.97
791.884	13763.14
792.217	13727.21
792.549	13713.65
792.882	13666.19
793.214	13679.08
793.546	13651.51
793.879	13606.53
794.211	13554.11
794.543	13595.46
794.875	13600.89
795.207	13588
795.539	13468.46
795.871	13516.14
796.203	13455.13
796.535	13417.39
796.867	13360.89
797.198	13329.25
797.53	13373.55
797.862	13242.25
798.193	13376.71
798.525	13179.43
798.856	13197.05
799.188	13029.6
799.519	13063.95
799.85	13001.35
800.182	13087.68
800.513	13133.33
800.844	12954.35
801.175	12931.52
801.506	12964.74
801.837	12928.36
802.168	12905.99
802.499	12911.64
802.83	12832.09
803.161	12780.79
803.491	12748.48
803.822	12810.4
804.153	12801.13
804.483	12646.11
804.814	12616.5
805.145	12535.83
805.475	12549.61
805.805	12472.1
806.136	12545.55
806.466	12538.31
806.796	12510.97
807.126	12419
807.457	12367.7
807.787	12444.08
808.117	12339.45
808.447	12336.06
808.777	12413.57
809.107	12215.39
809.436	12275.04
809.766	12256.97
810.096	12169.06
810.426	12229.62
810.755	12172.22
811.085	12123.41
811.414	12050.19
811.744	12012.45
812.073	12040.25
812.403	12009.06
812.732	12000.7
813.061	11968.16
813.39	11899.91
813.719	11910.08
814.049	11990.08
814.378	11905.11
814.707	11781.5
815.036	11844.55
815.365	11728.84
815.693	11710.31
816.022	11646.81
816.351	11679.35
816.68	11638
817.008	11716.87
817.337	11549.64
817.665	11492.69
817.994	11613.37
818.322	11534.05
818.651	11523.2
818.979	11461.96
819.307	11544.44
819.636	11516.87
819.964	11383.99
820.292	11521.17
820.62	11487.27
820.948	11393.71
821.276	11448.85
821.604	11418.12
821.932	11419.93
822.259	11445.91
822.587	11402.98
822.915	11409.98
823.243	11375.18
823.57	11407.27
823.898	11459.02
824.225	11333.83
824.553	11348.74
824.88	11395.52
825.207	11445.91
825.535	11495.86
825.862	11416.31
826.189	11356.42
826.516	11444.11
826.843	11467.16
827.17	11419.02
827.497	11391.45
827.824	11445.69
828.151	11475.07
828.478	11434.61
828.805	11498.34
829.131	11520.94
829.458	11421.73
829.785	11346.26
830.111	11408.85
830.438	11474.16
830.764	11445.69
831.09	11391.45
831.417	11356.65
831.743	11427.61
832.069	11459.7
832.395	11428.29
832.722	11397.78
833.048	11319.36
833.374	11347.39
833.7	11367.05
834.026	11353.94
834.351	11450.21
834.677	11368.4
835.003	11382.86
835.329	11389.87
835.654	11263.55
835.98	11268.52
836.306	11278.91
836.631	11258.12
836.956	11247.73
837.282	11255.64
837.607	11240.27
837.932	11232.59
838.258	11188.07
838.583	11219.48
838.908	11159.82
839.233	11148.97
839.558	11101.74
839.883	11066.71
840.208	11033.95
840.533	11028.3
840.858	11049.54
841.182	11042.08
841.507	11019.94
841.832	10974.97
842.156	10978.58
842.481	10961.18
842.805	10918.47
843.13	10839.38
843.454	10832.82
843.778	10821.3
844.103	10767.51
844.427	10764.58
844.751	10784.46
845.075	10784.01
845.399	10721.64
845.723	10631.47
846.047	10665.82
846.371	10632.15
846.695	10550.34
847.019	10521.19
847.343	10490.68
847.666	10438.71
847.99	10372.04
848.313	10392.83
848.637	10327.07
848.96	10369.78
849.284	10281.42
849.607	10222.44
849.931	10225.15
850.254	10122.56
850.577	10075.1
850.9	9949
851.223	10043.46
851.546	9991.94
851.869	9847.54
852.192	9905.39
852.515	9804.37
852.838	9729.57
853.161	9801.89
853.483	9779.97
853.806	9725.96
854.129	9734.32
854.451	9653.42
854.774	9582.91
855.096	9595.57
855.419	9572.74
855.741	9543.14
856.063	9473.99
856.385	9482.35
856.708	9457.94
857.03	9384.95
857.352	9364.39
857.674	9355.12
857.996	9349.7
858.318	9259.76
858.64	9290.04
858.961	9250.04
859.283	9293.43
859.605	9264.73
859.926	9199.65
860.248	9161.23
860.57	9127.33
860.891	9199.19
861.212	9102.25
861.534	9033.77
861.855	9020.44
862.176	9031.51
862.498	9025.86
862.819	9008.46
863.14	9076.26
863.461	9003.04
863.782	8920.56
864.103	8979.99
864.424	8886.88
864.745	8952.65
865.065	8918.52
865.386	8835.59
865.707	8782.48
866.027	8966.66
866.348	8808.47
866.668	8843.95
866.989	8739.32
867.309	8727.57
867.63	8766.66
867.95	8778.41
868.27	8730.73
868.59	8706.55
868.91	8719.88
869.23	8704.52
869.55	8591.53
869.87	8668.36
870.19	8693.44
870.51	8707.68
870.83	8643.05
871.15	8601.69
871.469	8585.88
871.789	8632.43
872.109	8549.27
872.428	8540.45
872.748	8554.92
873.067	8559.44
873.386	8540.68
873.706	8529.38
874.025	8488.25
874.344	8455.26
874.663	8483.28
874.982	8429.72
875.301	8466.11
875.62	8437.63
875.939	8385.88
876.258	8418.65
876.577	8417.52
876.896	8360.8
877.214	8333.45
877.533	8344.07
877.852	8383.4
878.17	8377.52
878.489	8372.77
878.807	8345.66
879.125	8306.56
879.444	8288.26
879.762	8215.49
880.08	8286.45
880.398	8213.68
880.716	8208.26
881.034	8167.13
881.352	8174.59
881.67	8161.93
881.988	8193.34
882.306	8142.5
882.624	8052.56
882.941	8031.31
883.259	8059.34
883.577	8070.86
883.894	8000.35
884.212	8052.33
884.529	8016.17
884.846	8004.2
885.164	7970.52
885.481	7917.19
885.798	7953.8
886.115	7916.06
886.432	7874.93
886.75	7894.82
887.067	7896.85
887.383	7808.95
887.7	7824.77
888.017	7812.56
888.334	7748.61
888.651	7738.21
888.967	7723.98
889.284	7671.1
889.6	7665.67
889.917	7591.78
890.233	7644.43
890.55	7631.1
890.866	7575.51
891.182	7629.74
891.498	7526.92
891.815	7481.95
892.131	7475.4
892.447	7423.87
892.763	7465.68
893.079	7410.99
893.395	7410.09
893.71	7408.28
894.026	7320.6
894.342	7382.74
894.657	7305.91
894.973	7283.09
895.289	7311.11
895.604	7194.05
895.92	7148.17
896.235	7197.21
896.55	7157.44
896.865	7155.18
897.181	7189.75
897.496	7150.66
897.811	7080.83
898.126	7048.97
898.441	6995.64
898.756	7051.45
899.071	6973.94
899.386	6910.44
899.7	6878.8
900.015	6912.02
900.33	6825.24
900.644	6847.62
900.959	6876.99
901.273	6808.52
901.588	6789.09
901.902	6806.04
902.216	6745.25
902.531	6727.62
902.845	6677
903.159	6658.24
903.473	6611.69
903.787	6560.84
904.101	6554.52
904.415	6598.13
904.729	6545.93
905.042	6490.34
905.356	6591.35
905.67	6462.09
905.984	6418.7
906.297	6509.77
906.611	6347.74
906.924	6385.71
907.237	6331.25
907.551	6367.63
907.864	6322.21
908.177	6298.93
908.491	6276.56
908.804	6205.83
909.117	6247.41
909.43	6189.1
909.743	6093.96
910.056	6132.83
910.368	6079.95
910.681	6101.42
910.994	6032.95
911.307	5998.83
911.619	5993.85
911.932	6017.36
912.244	5968.54
912.557	5973.74
912.869	5940.75
913.181	5939.39
913.494	5852.39
913.806	5816.23
914.118	5814.88
914.43	5757.02
914.742	5806.97
915.054	5693.52
915.366	5731.49
915.678	5741.88
915.99	5697.36
916.302	5641.55
916.613	5625.28
916.925	5646.07
917.236	5576.46
917.548	5582.79
917.859	5573.53
918.171	5515
918.482	5471.38
918.794	5455.34
919.105	5462.79
919.416	5373.53
919.727	5403.81
920.038	5386.64
920.349	5330.59
920.66	5322.46
920.971	5345.51
921.282	5309.13
921.593	5265.96
921.903	5280.43
922.214	5232.07
922.525	5262.12
922.835	5203.59
923.146	5197.94
923.456	5141.9
923.767	5112.75
924.077	5164.05
924.387	5115.68
924.697	5050.83
925.008	5128.34
925.318	5037.72
925.628	5032.75
925.938	5001.56
926.248	4963.15
926.558	4964.73
926.867	4964.95
927.177	4889.7
927.487	4938.06
927.796	4853.09
928.106	4839.31
928.416	4821
928.725	4836.82
929.034	4794.56
929.344	4773.77
929.653	4786.2
929.962	4715.92
930.271	4754.11
930.581	4759.54
930.89	4684.06
931.199	4639.77
931.508	4607.68
931.817	4670.05
932.125	4651.29
932.434	4613.55
932.743	4553.67
933.051	4547.56
933.36	4581.24
933.669	4516.38
933.977	4504.85
934.286	4470.73
934.594	4466.89
934.902	4454.69
935.21	4456.27
935.519	4419.21
935.827	4394.35
936.135	4381.92
936.443	4313.45
936.751	4331.98
937.059	4312.77
937.367	4291.3
937.674	4301.02
937.982	4296.72
938.29	4253.33
938.597	4233
938.905	4193
939.213	4209.04
939.52	4127.01
939.827	4176.73
940.135	4127.01
940.442	4111.64
940.749	4123.85
941.056	4124.75
941.363	4043.85
941.67	4062.61
941.977	4028.26
942.284	4022.61
942.591	4018.99
942.898	4005.88
943.205	4007.92
943.511	3941.93
943.818	3956.39
944.125	3891.31
944.431	3900.12
944.738	3891.99
945.044	3861.03
945.35	3861.25
945.657	3830.07
945.963	3784.19
946.269	3818.77
946.575	3782.39
946.881	3800.69
947.187	3769.28
947.493	3724.53
947.799	3728.15
948.105	3721.37
948.41	3706.23
948.716	3682.28
949.022	3668.04
949.327	3638.89
949.633	3578.32
949.938	3604.54
950.244	3591.88
950.549	3611.32
950.854	3583.52
951.16	3596.85
951.465	3559.34
951.77	3528.83
952.075	3501.72
952.38	3505.33
952.685	3544.65
952.99	3453.36
953.294	3445.9
953.599	3455.39
953.904	3451.77
954.209	3392.79
954.513	3400.7
954.818	3416.29
955.122	3367.26
955.426	3344.21
955.731	3376.52
956.035	3346.24
956.339	3314.6
956.643	3328.84
956.948	3320.03
957.252	3297.88
957.556	3296.75
957.86	3206.58
958.163	3249.52
958.467	3229.63
958.771	3205.45
959.075	3204.1
959.378	3207.03
959.682	3169.97
959.985	3149.41
960.289	3173.36
960.592	3124.1
960.896	3117.32
961.199	3107.15
961.502	3152.12
961.805	3079.81
962.108	3060.15
962.411	3030.32
962.714	3050.43
963.017	3033.25
963.32	3070.31
963.623	3031.67
963.926	2981.05
964.228	2938.57
964.531	2954.39
964.833	2964.33
965.136	2922.97
965.438	2951
965.741	2910.32
966.043	2925.46
966.345	2942.86
966.648	2891.11
966.95	2898.57
967.252	2852.92
967.554	2858.12
967.856	2842.07
968.158	2798.46
968.46	2814.73
968.761	2802.07
969.063	2782.86
969.365	2746.03
969.666	2751.23
969.968	2751.68
970.269	2758.46
970.571	2734.5
970.872	2735.86
971.174	2704
971.475	2669.2
971.776	2680.72
972.077	2654.05
972.378	2659.93
972.679	2643.21
972.98	2623.55
973.281	2619.71
973.582	2607.5
973.883	2588.75
974.183	2591.46
974.484	2620.84
974.785	2569.99
975.085	2544.45
975.386	2576.77
975.686	2516.66
975.986	2515.53
976.287	2541.06
976.587	2481.63
976.887	2428.07
977.187	2485.25
977.487	2487.51
977.787	2394.17
978.087	2467.39
978.387	2415.64
978.687	2395.08
978.987	2372.03
979.286	2377.23
979.586	2393.72
979.885	2350.11
980.185	2351.46
980.484	2368.64
980.784	2346.27
981.083	2334.97
981.382	2329.09
981.682	2339.71
981.981	2325.48
982.28	2294.97
982.579	2312.59
982.878	2283.22
983.177	2276.21
983.475	2313.72
983.774	2260.39
984.073	2236.21
984.372	2247.51
984.67	2226.95
984.969	2225.37
985.267	2209.55
985.566	2200.51
985.864	2189.66
986.162	2166.16
986.461	2165.03
986.759	2143.56
987.057	2144.24
987.355	2122.09
987.653	2120.74
987.951	2118.02
988.249	2127.06
988.547	2080.28
988.844	2066.5
989.142	2101.98
989.44	2028.99
989.737	2067.86
990.035	2078.7
990.332	2026.27
990.63	2038.93
990.927	2035.77
991.224	2022.88
991.521	2007.07
991.819	1966.84
992.116	2005.48
992.413	1995.31
992.71	1996.67
993.006	1941.3
993.303	1973.17
993.6	1935.43
993.897	1917.58
994.193	1940.4
994.49	1931.59
994.787	1914.41
995.083	1904.7
995.379	1903.57
995.676	1880.29
995.972	1881.65
996.268	1866.05
996.565	1864.02
996.861	1859.27
997.157	1842.1
997.453	1848.43
997.749	1821.08
998.044	1795.32
998.34	1818.82
998.636	1789.44
998.932	1786.51
999.227	1762.1
999.523	1774.76
999.818	1783.34
1000.114	1756.9
1000.409	1760.07
1000.704	1709.45
1001	1715.77
1001.295	1693.85
1001.59	1699.28
1001.885	1691.59
1002.18	1674.19
1002.475	1649.11
1002.77	1687.53
1003.065	1673.06
1003.359	1656.11
1003.654	1640.97
1003.949	1622.22
1004.243	1643.01
1004.538	1609.11
1004.832	1597.36
1005.127	1598.94
1005.421	1602.33
1005.715	1582.9
1006.009	1575.21
1006.304	1545.61
1006.598	1547.19
1006.892	1547.64
1007.186	1549
1007.48	1549.68
1007.773	1529.56
1008.067	1510.13
1008.361	1495.67
1008.655	1537.7
1008.948	1487.76
1009.242	1460.19
1009.535	1487.98
1009.829	1489.79
1010.122	1470.13
1010.415	1431.49
1010.708	1451.15
1011.001	1435.1
1011.295	1460.64
1011.588	1413.41
1011.881	1412.28
1012.173	1381.09
1012.466	1412.05
1012.759	1426.52
1013.052	1362.56
1013.344	1352.17
1013.637	1356.01
1013.93	1364.14
1014.222	1360.76
1014.514	1326.41
1014.807	1372.73
1015.099	1312.85
1015.391	1284.6
1015.683	1309.46
1015.976	1312.39
1016.268	1301.77
1016.56	1287.54
1016.851	1276.69
1017.143	1283.24
1017.435	1271.94
1017.727	1248.89
1018.018	1257.48
1018.31	1247.09
1018.602	1257.71
1018.893	1234.66
1019.185	1204.6
1019.476	1225.62
1019.767	1224.49
1020.058	1186.75
1020.35	1185.17
1020.641	1166.41
1020.932	1181.55
1021.223	1175
1021.514	1159.63
1021.804	1155.34
1022.095	1146.52
1022.386	1130.7
1022.677	1135.68
1022.967	1152.17
1023.258	1105.85
1023.548	1121.67
1023.839	1105.17
1024.129	1094.32
1024.419	1089.58
1024.709	1062.91
1025	1066.75
1025.29	1049.12
1025.58	1108.11
1025.87	1048.9
1026.16	1050.93
1026.449	1050.48
1026.739	1051.84
1027.029	1026.98
1027.319	1054.55
1027.608	1010.71
1027.898	994.66
1028.187	1025.4
1028.477	1005.06
1028.766	1002.8
1029.055	968.68
1029.344	977.26
1029.634	966.64
1029.923	933.2
1030.212	949.01
1030.501	977.71
1030.79	968.45
1031.078	973.65
1031.367	962.57
1031.656	937.04
1031.945	945.4
1032.233	938.39
1032.522	921.44
1032.81	923.03
1033.099	905.85
1033.387	913.31
1033.675	906.98
1033.963	890.26
1034.251	883.71
1034.54	874.67
1034.828	863.82
1035.116	889.81
1035.403	849.81
1035.691	867.43
1035.979	868.11
1036.267	880.54
1036.554	850.26
1036.842	852.97
1037.129	845.06
1037.417	813.2
1037.704	840.77
1037.992	818.17
1038.279	839.86
1038.566	790.6
1038.853	790.6
1039.14	790.6
