Data from hue_130_FLMS001491_00042.txt Node
Date: Tue Feb 07 16:57:39 GMT 2017
User: dcchb
Spectrometer: FLMS00149
Trigger mode: 0
Integration Time (sec): 2.000000E-2
Scans to average: 10
Electric dark correction enabled: true
Nonlinearity correction enabled: false
Boxcar width: 0
XAxis mode: Wavelengths
Number of Pixels in Spectrum: 2048
>>>>>Begin Spectral Data<<<<<
341.393	-6.06
341.776	-6.06
342.16	-6.06
342.543	-70.46
342.927	-54.42
343.31	-73.4
343.693	-49.45
344.077	-88.09
344.46	-47.41
344.843	-62.78
345.226	-44.02
345.61	-8.54
345.993	-12.39
346.376	7.05
346.759	10.21
347.142	13.15
347.525	53.83
347.908	61.74
348.291	54.73
348.674	77.78
349.057	107.61
349.44	127.5
349.823	151.22
350.206	154.61
350.588	192.81
350.971	209.98
351.354	235.74
351.737	246.82
352.119	254.72
352.502	270.09
352.884	269.64
353.267	276.42
353.65	296.76
354.032	304.67
354.414	314.38
354.797	332.24
355.179	326.14
355.562	313.48
355.944	325.68
356.326	355.74
356.709	337.66
357.091	357.1
357.473	335.17
357.855	352.12
358.238	330.66
358.62	352.58
359.002	364.55
359.384	355.74
359.766	342.86
360.148	340.15
360.53	327.72
360.912	351.67
361.294	338.79
361.676	336.3
362.057	349.41
362.439	313.93
362.821	347.6
363.203	323.42
363.584	339.69
363.966	332.24
364.348	337.43
364.729	321.16
365.111	335.17
365.493	323.88
365.874	328.85
366.256	317.77
366.637	303.99
367.019	308.96
367.4	303.99
367.781	308.06
368.163	317.55
368.544	312.8
368.925	301.5
369.306	328.4
369.688	315.51
370.069	304.22
370.45	329.53
370.831	326.36
371.212	317.32
371.593	318.9
371.974	312.8
372.355	340.37
372.736	327.27
373.117	337.66
373.498	324.33
373.879	324.55
374.26	312.35
374.641	317.1
375.021	325.91
375.402	332.69
375.783	318.45
376.163	317.32
376.544	343.54
376.925	328.85
377.305	335.17
377.686	320.49
378.066	342.18
378.447	337.66
378.827	356.87
379.208	329.98
379.588	340.37
379.968	330.2
380.349	353.93
380.729	327.72
381.109	343.76
381.489	345.34
381.87	334.27
382.25	346.25
382.63	344.89
383.01	366.13
383.39	363.87
383.77	340.82
384.15	349.41
384.53	334.5
384.91	350.32
385.29	368.85
385.67	346.93
386.049	370.2
386.429	343.31
386.809	350.99
387.189	360.48
387.568	353.03
387.948	390.54
388.328	374.72
388.707	368.39
389.087	370.2
389.466	378.34
389.846	381.05
390.225	378.56
390.605	383.54
390.984	365.23
391.363	384.44
391.743	380.6
392.122	383.76
392.501	382.86
392.881	392.35
393.26	394.16
393.639	378.79
394.018	382.63
394.397	384.21
394.776	374.04
395.155	401.84
395.534	379.47
395.913	365.46
396.292	376.76
396.671	404.78
397.05	403.2
397.429	405.91
397.808	386.02
398.186	398.22
398.565	401.16
398.944	407.94
399.323	399.13
399.701	401.39
400.08	396.19
400.458	403.2
400.837	411.11
401.215	414.95
401.594	403.65
401.972	401.39
402.351	409.75
402.729	410.43
403.107	434.16
403.486	431.9
403.864	424.21
404.242	420.37
404.62	420.14
404.999	444.78
405.377	443.65
405.755	428.73
406.133	437.77
406.511	422.63
406.889	445
407.267	452.69
407.645	434.83
408.023	432.8
408.401	456.08
408.779	465.57
409.156	452.69
409.534	448.62
409.912	458.34
410.29	459.92
410.667	460.37
411.045	476.87
411.422	475.28
411.8	475.06
412.178	501.5
412.555	493.81
412.933	501.72
413.31	472.57
413.687	494.27
414.065	504.89
414.442	493.81
414.819	503.31
415.197	489.52
415.574	495.85
415.951	498.56
416.328	528.39
416.705	506.92
417.082	527.49
417.46	513.48
417.837	510.09
418.214	537.43
418.591	519.8
418.967	539.24
419.344	528.39
419.721	532.46
420.098	538.11
420.475	547.6
420.852	544.21
421.228	530.65
421.605	547.37
421.982	574.94
422.358	547.82
422.735	563.19
423.111	589.86
423.488	575.85
423.864	570.2
424.241	581.04
424.617	582.17
424.994	589.63
425.37	592.12
425.746	609.29
426.123	607.94
426.499	590.31
426.875	607.94
427.251	597.31
427.627	623.3
428.003	605.68
428.379	627.6
428.756	633.92
429.132	646.81
429.507	640.25
429.883	624.43
430.259	658.1
430.635	633.7
431.011	662.62
431.387	661.27
431.763	664.43
432.138	689.52
432.514	670.53
432.89	697.88
433.265	706.01
433.641	704.88
434.016	707.82
434.392	710.76
434.767	727.71
435.143	759.8
435.518	733.81
435.894	729.06
436.269	753.02
436.644	750.31
437.02	743.3
437.395	758.44
437.77	778.78
438.145	752.11
438.52	791.89
438.895	771.77
439.271	784.43
439.646	795.95
440.021	804.54
440.395	802.96
440.77	821.04
441.145	806.8
441.52	801.6
441.895	829.85
442.27	816.74
442.645	845.44
443.019	849.51
443.394	831.21
443.769	867.36
444.143	843.86
444.518	864.65
444.892	850.42
445.267	859.45
445.641	865.56
446.016	876.86
446.39	883.41
446.764	855.16
447.139	905.56
447.513	897.42
447.887	908.49
448.262	933.58
448.636	908.95
449.01	905.1
449.384	950.98
449.758	913.01
450.132	955.72
450.506	934.26
450.88	946.01
451.254	979.23
451.628	947.36
452.002	968.83
452.376	1004.54
452.75	1006.12
453.123	983.75
453.497	1019.9
453.871	1027.36
454.244	1058.77
454.618	1076.62
454.992	1064.42
455.365	1033.91
455.739	1068.49
456.112	1059.9
456.486	1096.51
456.859	1122.5
457.232	1128.83
457.606	1121.59
457.979	1153.01
458.352	1159.79
458.725	1168.37
459.099	1152.1
459.472	1181.93
459.845	1216.73
460.218	1230.52
460.591	1239.78
460.964	1256.05
461.337	1269.16
461.71	1279.56
462.083	1318.88
462.456	1313.45
462.829	1292.89
463.201	1341.93
463.574	1346.45
463.947	1339.67
464.32	1384.41
464.692	1420.8
465.065	1446.11
465.438	1435.26
465.81	1443.85
466.183	1480.91
466.555	1513.9
466.928	1535.6
467.3	1538.08
467.672	1560.68
468.045	1620.34
468.417	1590.28
468.789	1618.08
469.161	1674.12
469.534	1672.99
469.906	1726.55
470.278	1769.94
470.65	1767.23
471.022	1799.54
471.394	1854
471.766	1895.59
472.138	1887.68
472.51	1932.19
472.882	2024.62
473.253	2016.03
473.625	2087.9
473.997	2122.47
474.369	2150.95
474.74	2188.46
475.112	2235.46
475.484	2331.51
475.855	2388.91
476.227	2334.22
476.598	2496.02
476.97	2531.5
477.341	2550.94
477.713	2643.14
478.084	2687.43
478.455	2791.83
478.827	2807.43
479.198	2946.63
479.569	2993.86
479.94	3059.4
480.311	3163.8
480.682	3226.62
481.053	3369.67
481.424	3442.66
481.795	3502.1
482.166	3603.34
482.537	3670.68
482.908	3790.9
483.279	3919.94
483.65	3997.9
484.021	4141.18
484.391	4261.4
484.762	4309.53
485.133	4409.19
485.503	4477.89
485.874	4657.32
486.244	4735.74
486.615	4923.75
486.985	4999.91
487.356	5160.36
487.726	5219.34
488.097	5427.47
488.467	5531.87
488.837	5666.33
489.207	5780.91
489.578	5961.02
489.948	6087.79
490.318	6168.02
490.688	6295.24
491.058	6493.43
491.428	6569.59
491.798	6737.04
492.168	6956.7
492.538	7045.96
492.908	7155.79
493.278	7310.13
493.648	7437.13
494.017	7617.24
494.387	7770.01
494.757	7860.85
495.126	8012.94
495.496	8085.03
495.866	8220.39
496.235	8307.62
496.605	8525.47
496.974	8624
497.344	8745.12
497.713	8828.96
498.082	8977.21
498.452	9156.19
498.821	9139.92
499.19	9278.22
499.559	9444.09
499.928	9545.78
500.298	9713.69
500.667	9828.48
501.036	9745.1
501.405	9941.02
501.774	10018.54
502.143	10143.96
502.512	10258.98
502.88	10301.47
503.249	10429.82
503.618	10571.52
503.987	10618.29
504.356	10687.22
504.724	10769.7
505.093	10872.98
505.462	10930.38
505.83	10994.78
506.199	11120.88
506.567	11301.67
506.936	11248.56
507.304	11406.3
507.672	11432.06
508.041	11497.14
508.409	11649.68
508.777	11677.7
509.145	11840.63
509.514	11830.69
509.882	11863.46
510.25	11879.28
510.618	12041.08
510.986	12003.34
511.354	12209.21
511.722	12280.62
512.09	12358.14
512.458	12224.13
512.826	12421.64
513.193	12421.18
513.561	12476.55
513.929	12577.79
514.297	12575.3
514.664	12711.35
515.032	12696.43
515.4	12812.59
515.767	12867.27
516.135	12926.26
516.502	12738.01
516.869	12955.41
517.237	12944.33
517.604	12921.96
517.972	13064.11
518.339	13145.23
518.706	13054.39
519.073	13226.14
519.44	13194.72
519.808	13333.93
520.175	13226.36
520.542	13444.21
520.909	13373.25
521.276	13411.44
521.643	13418.67
522.009	13555.62
522.376	13552.23
522.743	13603.07
523.11	13683.98
523.477	13754.26
523.843	13814.37
524.21	13900.02
524.577	13921.48
524.943	13907.02
525.31	13907.93
525.676	14070.63
526.043	14004.42
526.409	14045.1
526.776	14122.61
527.142	14073.12
527.508	14157.64
527.874	14142.27
528.241	14230.85
528.607	14131.2
528.973	14236.05
529.339	14176.17
529.705	14290.97
530.071	14288.25
530.437	14288.71
530.803	14365.77
531.169	14427.23
531.535	14297.07
531.901	14280.57
532.267	14305.65
532.632	14353.56
532.998	14298.42
533.364	14333
533.73	14285.32
534.095	14337.97
534.461	14353.79
534.826	14272.21
535.192	14266.33
535.557	14270.4
535.923	14294.58
536.288	14197.64
536.653	14289.61
537.019	14138.65
537.384	14232.44
537.749	14270.63
538.114	14194.25
538.479	14156.05
538.845	14219.1
539.21	14063.63
539.575	14126
539.94	14031.54
540.305	14067.92
540.67	13976.17
541.034	14062.72
541.399	13947.02
541.764	13887.59
542.129	13919.45
542.494	13897.08
542.858	13888.04
543.223	13803.75
543.587	13793.35
543.952	13809.62
544.316	13781.37
544.681	13687.14
545.045	13724.88
545.41	13740.25
545.774	13675.16
546.138	13648.05
546.503	13600.14
546.867	13526.01
547.231	13614.15
547.595	13528.5
547.959	13575.28
548.324	13462.06
548.688	13411.44
549.052	13427.94
549.416	13378.9
549.779	13359.69
550.143	13415.73
550.507	13286.25
550.871	13378.22
551.235	13284.21
551.599	13316.08
551.962	13183.2
552.326	13276.76
552.689	13290.99
553.053	13170.54
553.417	13157.66
553.78	13283.53
554.143	13141.84
554.507	13168.96
554.87	13127.83
555.234	13131.9
555.597	13071.56
555.96	13161.28
556.323	13135.29
556.686	12986.82
557.05	13016.65
557.413	13118.34
557.776	13039.93
558.139	13100.26
558.502	13002.19
558.865	13126.02
559.228	13080.83
559.59	13045.12
559.953	13074.73
560.316	13135.29
560.679	13112.24
561.041	13017.1
561.404	13119.92
561.767	13161.05
562.129	13056.65
562.492	13131.9
562.854	13096.87
563.217	13068.63
563.579	13133.93
563.941	13204.67
564.304	13127.15
564.666	13213.03
565.028	13225.46
565.39	13194.05
565.753	13186.81
566.115	13205.12
566.477	13254.38
566.839	13269.07
567.201	13372.35
567.563	13220.94
567.925	13333.25
568.287	13389.29
568.648	13306.59
569.01	13326.47
569.372	13463.64
569.734	13386.36
570.095	13416.41
570.457	13392.46
570.819	13543.19
571.18	13332.35
571.542	13477.43
571.903	13475.62
572.265	13561.95
572.626	13551.32
572.987	13513.36
573.349	13553.58
573.71	13558.1
574.071	13588.84
574.432	13608.5
574.794	13623.19
575.155	13564.88
575.516	13572.11
575.877	13575.73
576.238	13603.07
576.599	13689.4
576.96	13672.45
577.32	13648.72
577.681	13659.57
578.042	13737.53
578.403	13674.94
578.763	13688.72
579.124	13738.89
579.485	13685.56
579.845	13732.34
580.206	13666.58
580.566	13664.99
580.927	13679.46
581.287	13745.44
581.648	13615.05
582.008	13745.22
582.368	13758.55
582.728	13744.31
583.089	13704.09
583.449	13694.37
583.809	13676.97
584.169	13682.62
584.529	13656.86
584.889	13662.51
585.249	13577.09
585.609	13587.03
585.969	13685.56
586.329	13602.4
586.688	13642.4
587.048	13568.95
587.408	13510.42
587.768	13537.99
588.127	13570.76
588.487	13542.51
588.846	13634.49
589.206	13490.54
589.565	13481.04
589.925	13600.81
590.284	13502.96
590.643	13547.71
591.003	13553.13
591.362	13563.08
591.721	13517.88
592.08	13523.08
592.44	13472.68
592.799	13563.53
593.158	13497.31
593.517	13502.29
593.876	13506.58
594.235	13450.08
594.593	13476.07
594.952	13440.59
595.311	13382.97
595.67	13382.29
596.029	13530.53
596.387	13472.23
596.746	13510.87
597.104	13432.68
597.463	13433.81
597.822	13439.91
598.18	13420.93
598.538	13398.33
598.897	13392.01
599.255	13320.82
599.613	13504.32
599.972	13439.91
600.33	13445.11
600.688	13432.46
601.046	13363.76
601.404	13462.97
601.762	13370.09
602.12	13544.77
602.478	13490.31
602.836	13461.84
603.194	13355.4
603.552	13456.19
603.91	13333.03
604.268	13462.97
604.625	13368.05
604.983	13457.54
605.341	13305.46
605.698	13413.93
606.056	13490.76
606.413	13502.29
606.771	13584.32
607.128	13486.02
607.485	13438.56
607.843	13465
608.2	13508.84
608.557	13556.75
608.914	13589.52
609.272	13528.05
609.629	13535.96
609.986	13608.95
610.343	13509.07
610.7	13633.58
611.057	13585.67
611.414	13595.84
611.771	13576.63
612.127	13610.53
612.484	13616.41
612.841	13686.69
613.198	13609.85
613.554	13699.34
613.911	13703.41
614.267	13651.43
614.624	13676.52
614.98	13622.06
615.337	13705.44
615.693	13668.84
616.05	13720.13
616.406	13767.14
616.762	13690.76
617.118	13751.32
617.475	13674.26
617.831	13762.39
618.187	13800.81
618.543	13759.68
618.899	13837.64
619.255	13802.62
619.611	13836.51
619.967	13827.93
620.323	13899.11
620.678	13847.14
621.034	13949.28
621.39	13768.49
621.746	13813.01
622.101	13983.4
622.457	13814.59
622.812	13780.92
623.168	13894.14
623.523	13795.84
623.879	13872.67
624.234	13795.16
624.589	13851.2
624.945	13941.82
625.3	13942.5
625.655	13811.43
626.01	13825.89
626.365	13837.87
626.72	13825.44
627.075	13822.05
627.43	13818.44
627.785	13773.01
628.14	13854.82
628.495	13812.33
628.85	13839.45
629.205	13752
629.559	13834.93
629.914	13822.73
630.269	13799.45
630.623	13727.59
630.978	13736.86
631.332	13809.17
631.687	13799
632.041	13711.77
632.396	13749.96
632.75	13690.53
633.104	13755.61
633.459	13650.76
633.813	13687.59
634.167	13659.57
634.521	13593.36
634.875	13642.4
635.229	13640.36
635.583	13590.65
635.937	13596.3
636.291	13585.45
636.645	13590.19
636.999	13453.47
637.352	13509.74
637.706	13432.01
638.06	13517.88
638.413	13413.25
638.767	13450.54
639.121	13477.88
639.474	13433.81
639.828	13269.52
640.181	13340.26
640.534	13457.32
640.888	13411.22
641.241	13298.45
641.594	13320.14
641.947	13307.94
642.301	13313.59
642.654	13337.54
643.007	13354.49
643.36	13351.1
643.713	13323.08
644.066	13276.3
644.419	13259.81
644.771	13177.55
645.124	13070.21
645.477	12995.41
645.83	12986.59
646.182	12835.19
646.535	12826.82
646.888	12884
647.24	12761.06
647.593	12869.99
647.945	12833.83
648.298	12808.29
648.65	12753.83
649.002	12700.05
649.355	12836.09
649.707	12735.3
650.059	12865.01
650.411	13037.21
650.763	13009.42
651.115	13169.41
651.467	13154.5
651.819	13178.9
652.171	13067.72
652.523	13120.6
652.875	13121.51
653.227	13045.58
653.578	13156.98
653.93	13078.57
654.282	13098.91
654.633	13027.95
654.985	13106.14
655.337	13098.68
655.688	13036.99
656.039	13050.77
656.391	13030.21
656.742	13057.33
657.094	13034.95
657.445	13103.88
657.796	13011.23
658.147	12985.01
658.498	13100.94
658.849	13065.24
659.2	13051.68
659.551	13098.91
659.902	13064.56
660.253	13119.25
660.604	13124.67
660.955	13086.25
661.306	13103.2
661.656	13090.77
662.007	13139.13
662.358	13202.63
662.708	13081.28
663.059	13189.53
663.409	13055.52
663.76	13149.3
664.11	13154.72
664.461	13113.37
664.811	13185.68
665.161	13157.66
665.511	13175.29
665.862	13179.13
666.212	13130.32
666.562	13223.88
666.912	13199.02
667.262	13105.01
667.612	13114.95
667.962	13133.03
668.312	13135.06
668.662	13184.33
669.011	13137.55
669.361	13126.48
669.711	13105.69
670.06	13066.82
670.41	13160.37
670.76	13056.65
671.109	13114.05
671.459	13020.49
671.808	13017.55
672.157	13095.29
672.507	12965.8
672.856	12950.89
673.205	12980.04
673.554	13061.62
673.904	12973.49
674.253	13057.55
674.602	12976.88
674.951	12811.91
675.3	12729.65
675.649	12929.42
675.998	12963.09
676.346	12968.51
676.695	12948.85
677.044	12890.55
677.393	12971.9
677.741	12857.33
678.09	12819.59
678.438	12820.27
678.787	12862.76
679.135	12831.12
679.484	12771.46
679.832	12824.79
680.181	12797.9
680.529	12788.18
680.877	12701.63
681.225	12694.85
681.573	12762.64
681.922	12653.49
682.27	12664.34
682.618	12607.39
682.966	12651.24
683.314	12528.98
683.661	12584.34
684.009	12544.12
684.357	12439.94
684.705	12472.71
685.053	12492.14
685.4	12446.95
685.748	12372.15
686.095	12415.31
686.443	12360.85
686.79	12271.58
687.138	12335.09
687.485	12336.44
687.832	12242.21
688.18	12327.4
688.527	12167.63
688.874	12208.99
689.221	12181.19
689.568	12085.37
689.915	12088.09
690.262	12085.83
690.609	11989.78
690.956	11929.9
691.303	12000.63
691.65	11957.69
691.997	11886.74
692.344	11834.31
692.69	11791.37
693.037	11729.68
693.383	11670.02
693.73	11711.82
694.077	11593.64
694.423	11660.07
694.769	11558.38
695.116	11516.12
695.462	11509.8
695.808	11472.74
696.155	11433.64
696.501	11391.61
696.847	11355.9
697.193	11287.88
697.539	11313.42
697.885	11268.9
698.231	11122.24
698.577	11123.37
698.923	11024.16
699.269	11077.27
699.614	11021.45
699.96	10975.12
700.306	11000.43
700.651	10980.77
700.997	10941
701.342	10847.67
701.688	10817.84
702.033	10819.64
702.379	10767.89
702.724	10692.87
703.069	10734
703.415	10610.16
703.76	10663.94
704.105	10672.08
704.45	10571.74
704.795	10511.18
705.14	10494.23
705.485	10500.33
705.83	10416.27
706.175	10371.52
706.52	10412.2
706.865	10361.13
707.209	10304.63
707.554	10311.86
707.899	10254.24
708.243	10221.24
708.588	10155.03
708.932	10191.86
709.277	10117.97
709.621	10111.64
709.966	10117.97
710.31	10084.52
710.654	10004.07
710.998	9999.78
711.342	9974.02
711.687	9972.21
712.031	9903.06
712.375	9786
712.719	9879.78
713.063	9936.5
713.407	9861.48
713.75	9802.5
714.094	9818.09
714.438	9748.49
714.782	9826.68
715.125	9743.51
715.469	9802.95
715.812	9722.5
716.156	9673.01
716.499	9687.02
716.843	9620.81
717.186	9631.88
717.53	9674.14
717.873	9649.05
718.216	9643.18
718.559	9633.01
718.902	9552.11
719.246	9611.32
719.589	9530.19
719.932	9532.45
720.275	9524.99
720.617	9505.33
720.96	9482.73
721.303	9455.61
721.646	9470.08
721.989	9487.7
722.331	9428.27
722.674	9420.81
723.016	9379
723.359	9399.34
723.701	9353.92
724.044	9403.41
724.386	9301.04
724.729	9409.51
725.071	9392.56
725.413	9349.18
725.755	9369.29
726.097	9294.71
726.439	9235.28
726.782	9250.19
727.124	9308.5
727.465	9277.76
727.807	9263.98
728.149	9243.19
728.491	9225.56
728.833	9220.82
729.175	9249.06
729.516	9245
729.858	9216.3
730.199	9221.04
730.541	9172.91
730.882	9151.89
731.224	9196.64
731.565	9108.96
731.906	9239.35
732.248	9145.56
732.589	9193.02
732.93	9099.24
733.271	9131.55
733.612	9176.98
733.953	9142.4
734.294	9204.55
734.635	9191.89
734.976	9169.97
735.317	9096.07
735.658	9158.45
735.999	9195.05
736.339	9168.39
736.68	9196.64
737.021	9191.67
737.361	9173.59
737.702	9243.64
738.042	9167.94
738.383	9157.54
738.723	9193.02
739.063	9166.58
739.404	9195.51
739.744	9171.33
740.084	9086.81
740.424	9166.36
740.764	9179.91
741.104	9273.24
741.444	9187.82
741.784	9247.03
742.124	9261.27
742.464	9315.05
742.804	9302.4
743.143	9328.61
743.483	9331.1
743.823	9389.63
744.162	9367.71
744.502	9406.12
744.841	9337.42
745.181	9439.79
745.52	9438.66
745.86	9471.66
746.199	9527.93
746.538	9581.71
746.877	9621.94
747.216	9670.75
747.556	9713.01
747.895	9709.84
748.234	9759.79
748.573	9854.02
748.911	9910.97
749.25	9920.01
749.589	9977.86
749.928	10064.64
750.267	10133.34
750.605	10208.59
750.944	10264.41
751.283	10354.57
751.621	10458.3
751.96	10528.58
752.298	10552.76
752.636	10694.68
752.975	10711.63
753.313	10805.63
753.651	11004.5
753.989	10978.96
754.327	11127.21
754.666	11215.57
755.004	11338.73
755.342	11530.36
755.679	11617.36
756.017	11840.18
756.355	11823.46
756.693	11939.84
757.031	12112.72
757.368	12199.04
757.706	12360.4
758.044	12592.93
758.381	12685.81
758.719	12757
759.056	13003.77
759.394	13126.7
759.731	13199.02
760.068	13405.34
760.405	13526.47
760.743	13654.15
761.08	13914.93
761.417	14030.63
761.754	14156.73
762.091	14220.69
762.428	14425.43
762.765	14500.9
763.102	14720.56
763.438	14926.88
763.775	14992.87
764.112	15288
764.449	15431.95
764.785	15523.7
765.122	15605.28
765.458	15750.36
765.795	15887.53
766.131	16041.43
766.467	16154.19
766.804	16308.09
767.14	16473.28
767.476	16557.12
767.812	16620.85
768.148	16874.63
768.485	16882.08
768.821	16931.35
769.157	17093.38
769.492	17192.58
769.828	17363.43
770.164	17311
770.5	17514.61
770.836	17711.89
771.171	17742.17
771.507	17773.36
771.842	17881.83
772.178	18042.73
772.513	17973.36
772.849	18096.97
773.184	18246.34
773.519	18326.34
773.855	18211.31
774.19	18476.17
774.525	18413.8
774.86	18558.42
775.195	18646.33
775.53	18752.54
775.865	18646.78
776.2	18538.31
776.535	18553.23
776.87	18672.09
777.205	18770.62
777.539	18777.63
777.874	18849.49
778.209	18790.96
778.543	18803.16
778.878	18791.19
779.212	18834.35
779.547	18822.15
779.881	18965.19
780.215	18841.13
780.55	19019.88
780.884	18943.27
781.218	18979.43
781.552	19012.65
781.886	18889.26
782.22	18855.14
782.554	18849.04
782.888	18770.85
783.222	18778.98
783.556	18665.31
783.889	18726.33
784.223	18657.63
784.557	18671.19
784.89	18743.73
785.224	18612.66
785.557	18610.63
785.891	18737.85
786.224	18619.67
786.558	18677.97
786.891	18511.65
787.224	18531.53
787.557	18517.52
787.891	18519.56
788.224	18518.65
788.557	18575.83
788.89	18572.66
789.223	18491.99
789.556	18450.18
789.888	18339.9
790.221	18311.43
790.554	18318.88
790.887	18308.04
791.219	18265.55
791.552	18284.99
791.884	18181.71
792.217	18152.56
792.549	18220.35
792.882	18049.29
793.214	17975.61
793.546	18084.76
793.879	17975.16
794.211	17858.33
794.543	17881.61
794.875	17873.02
795.207	17844.77
795.539	17801.83
795.871	17827.37
796.203	17647.26
796.535	17578.79
796.867	17558.9
797.198	17526.81
797.53	17486.81
797.862	17451.11
798.193	17391.9
798.525	17389.19
798.856	17406.14
799.188	17243.66
799.519	17247.95
799.85	17177.9
800.182	17177.44
800.513	17146.48
800.844	17030.1
801.175	17101.97
801.506	17099.48
801.837	16952.14
802.168	16924.8
802.499	16885.02
802.83	16794.86
803.161	16699.72
803.491	16908.07
803.822	16741.52
804.153	16697.91
804.483	16576.56
804.814	16572.04
805.145	16562.54
805.475	16499.27
805.805	16503.11
806.136	16522.77
806.466	16461.08
806.796	16438.25
807.126	16238.26
807.457	16358.71
807.787	16285.94
808.117	16339.05
808.447	16156.91
808.777	16274.87
809.107	16154.87
809.436	16107.19
809.766	16054.99
810.096	16120.3
810.426	15927.76
810.755	16068.77
811.085	15980.19
811.414	15864.94
811.744	15836.69
812.073	15817.48
812.403	15885.5
812.732	15731.61
813.061	15567.32
813.39	15598.73
813.719	15646.86
814.049	15734.09
814.378	15627.43
814.707	15502.23
815.036	15567.99
815.365	15478.05
815.693	15343.59
816.022	15385.17
816.351	15354.44
816.68	15215.01
817.008	15391.95
817.337	15221.11
817.665	15199.64
817.994	15316.48
818.322	15194.67
818.651	15090.27
818.979	15112.64
819.307	15147.21
819.636	15061.12
819.964	14940.89
820.292	15087.33
820.62	15079.19
820.948	15023.15
821.276	15083.49
821.604	14902.02
821.932	15043.26
822.259	15109.48
822.587	14954
822.915	14981.34
823.243	15021.79
823.57	14939.54
823.898	14954.9
824.225	14853.89
824.553	14831.29
824.88	14928.46
825.207	14959.65
825.535	14987.9
825.862	14981.34
826.189	14876.94
826.516	15003.94
826.843	15049.36
827.17	15022.47
827.497	14987.44
827.824	15064.96
828.151	15088.91
828.478	15081
828.805	15064.51
829.131	15052.08
829.458	15012.75
829.785	15018.4
830.111	15000.78
830.438	15095.69
830.764	15051.85
831.09	15043.04
831.417	14953.55
831.743	14990.16
832.069	15025.41
832.395	14924.85
832.722	14958.52
833.048	14915.36
833.374	14895.92
833.7	14839.2
834.026	14901.57
834.351	14888.69
834.677	14917.84
835.003	14942.25
835.329	14826.77
835.654	14815.02
835.98	14809.6
836.306	14732.08
836.631	14790.16
836.956	14843.49
837.282	14861.35
837.607	14702.71
837.932	14646.44
838.258	14688.7
838.583	14715.81
838.908	14566.21
839.233	14540.68
839.558	14565.31
839.883	14563.73
840.208	14419.78
840.533	14540.68
840.858	14486.44
841.182	14504.75
841.507	14452.09
841.832	14399.21
842.156	14360.79
842.481	14353.11
842.805	14381.36
843.13	14283.28
843.454	14281.47
843.778	14224.75
844.103	14213.45
844.427	14176.39
844.751	14129.61
845.075	14082.84
845.399	14078.77
845.723	14047.58
846.047	13985.44
846.371	13918.09
846.695	13901.15
847.019	13823.18
847.343	13726.91
847.666	13671.77
847.99	13653.92
848.313	13643.98
848.637	13509.74
848.96	13555.39
849.284	13452.57
849.607	13412.57
849.931	13359.01
850.254	13241.95
850.577	13181.39
850.9	13078.79
851.223	13173.71
851.546	13042.64
851.869	12931.91
852.192	13107.95
852.515	12935.3
852.838	12850.55
853.161	12851.91
853.483	12801.74
853.806	12684.45
854.129	12635.19
854.451	12707.96
854.774	12604.23
855.096	12609.65
855.419	12475.87
855.741	12465.03
856.063	12462.09
856.385	12387.74
856.708	12361.75
857.03	12239.49
857.352	12246.5
857.674	12239.95
857.996	12218.48
858.318	12123.11
858.64	12157.46
858.961	12089.67
859.283	12033.85
859.605	11969.22
859.926	12046.73
860.248	12016.68
860.57	11975.55
860.891	11927.64
861.212	11863.46
861.534	11852.16
861.855	11793.86
862.176	11826.4
862.498	11786.63
862.819	11801.31
863.14	11737.36
863.461	11779.17
863.782	11639.74
864.103	11685.38
864.424	11616.69
864.745	11740.07
865.065	11594.09
865.386	11493.53
865.707	11547.54
866.027	11527.42
866.348	11546.63
866.668	11479.29
866.989	11456.01
867.309	11345.28
867.63	11501.66
867.95	11527.2
868.27	11341.67
868.59	11347.99
868.91	11271.61
869.23	11322.68
869.55	11253.53
869.87	11277.71
870.19	11224.15
870.51	11240.65
870.83	11214.89
871.15	11282.46
871.469	11198.62
871.789	11208.34
872.109	11166.3
872.428	11044.5
872.748	11126.08
873.067	11150.71
873.386	11091.05
873.706	11114.78
874.025	10985.06
874.344	10976.25
874.663	11083.37
874.982	11078.85
875.301	10965.18
875.62	10955.23
875.939	10954.56
876.258	11008.11
876.577	10919.53
876.896	10916.59
877.214	10882.02
877.533	10867.33
877.852	10893.77
878.17	10856.71
878.489	10765.86
878.807	10833.88
879.125	10787.56
879.444	10798.85
879.762	10813.32
880.08	10802.7
880.398	10677.73
880.716	10794.33
881.034	10659.88
881.352	10616.71
881.67	10660.78
881.988	10617.84
882.306	10582.14
882.624	10587.11
882.941	10504.62
883.259	10501.01
883.577	10472.54
883.894	10462.59
884.212	10489.26
884.529	10428.02
884.846	10342.14
885.164	10360.45
885.481	10418.07
885.798	10442.93
886.115	10284.52
886.432	10260.11
886.75	10240.45
887.067	10212.88
887.383	10159.32
887.7	10153
888.017	10073.45
888.334	10051.3
888.651	10093.11
888.967	10064.41
889.284	10092.66
889.6	9977.63
889.917	9956.62
890.233	9994.58
890.55	9896.51
890.866	9893.12
891.182	9873.23
891.498	9858.99
891.815	9780.8
892.131	9743.06
892.447	9731.76
892.763	9686.57
893.079	9691.54
893.395	9649.73
893.71	9599.79
894.026	9638.88
894.342	9650.41
894.657	9581.49
894.973	9636.17
895.289	9527.93
895.604	9434.6
895.92	9399.57
896.235	9318.44
896.55	9360.93
896.865	9331.55
897.181	9295.62
897.496	9317.99
897.811	9218.56
898.126	9176.52
898.441	9205.68
898.756	9108.73
899.071	9063.31
899.386	9076.64
899.7	8974.04
900.015	8985.12
900.33	8896.76
900.644	8918.68
900.959	8957.77
901.273	8864.22
901.588	8817.21
901.902	8779.92
902.216	8782.64
902.531	8773.15
902.845	8751.68
903.159	8626.48
903.473	8592.36
903.787	8574.05
904.101	8589.42
904.415	8534.96
904.729	8501.97
905.042	8467.39
905.356	8420.39
905.67	8402.99
905.984	8424.45
906.297	8344.91
906.611	8295.87
906.924	8259.26
907.237	8224.46
907.551	8189.43
907.864	8137.46
908.177	8206.38
908.491	8124.8
908.804	8046.61
909.117	8041.64
909.43	8027.63
909.743	8001.41
910.056	7957.12
910.368	7898.59
910.681	7833.06
910.994	7866.5
911.307	7872.38
911.619	7770.01
911.932	7795.54
912.244	7783.11
912.557	7756.67
912.869	7649.56
913.181	7656.79
913.494	7583.57
913.806	7525.95
914.118	7537.7
914.43	7473.07
914.742	7472.61
915.054	7435.33
915.366	7379.74
915.678	7404.59
915.99	7332.5
916.302	7255.9
916.613	7315.1
916.925	7264.94
917.236	7199.63
917.548	7246.18
917.859	7200.53
918.171	7169.57
918.482	7136.35
918.794	7071.95
919.105	7106.07
919.416	6977.71
919.727	6959.41
920.038	6944.72
920.349	6937.26
920.66	6916.24
920.971	6906.75
921.282	6900.43
921.593	6791.73
921.903	6782.01
922.214	6768.9
922.525	6728.23
922.835	6736.81
923.146	6666.08
923.456	6624.5
923.767	6584.05
924.077	6611.17
924.387	6559.19
924.697	6535.24
925.008	6537.5
925.318	6521.9
925.628	6506.31
925.938	6507.67
926.248	6361.46
926.558	6440.1
926.867	6384.51
927.177	6340.44
927.487	6373.89
927.796	6257.05
928.106	6272.65
928.416	6217.96
928.725	6235.36
929.034	6196.94
929.344	6219.31
929.653	6153.55
929.962	6076.49
930.271	6052.09
930.581	6046.89
930.89	6024.97
931.199	6000.56
931.508	5999.88
931.817	5959.66
932.125	5974.8
932.434	5959.21
932.743	5890.06
933.051	5862.04
933.36	5866.33
933.669	5816.16
933.977	5800.34
934.286	5785.43
934.594	5736.39
934.902	5759.89
935.21	5697.97
935.519	5686.22
935.827	5664.75
936.135	5686.22
936.443	5580.46
936.751	5587.92
937.059	5576.39
937.367	5540.24
937.674	5503.17
937.982	5490.52
938.29	5488.71
938.597	5497.98
938.905	5397.41
939.213	5441.71
939.52	5345.89
939.827	5384.99
940.135	5333.01
940.442	5292.78
940.749	5286.46
941.056	5304.76
941.363	5236.29
941.67	5229.96
941.977	5187.48
942.284	5165.1
942.591	5140.92
942.898	5108.61
943.205	5161.94
943.511	5067.48
943.818	5095.5
944.125	5071.1
944.431	5006.69
944.738	4980.25
945.044	4950.42
945.35	4955.62
945.657	4952.68
945.963	4893.92
946.269	4887.37
946.575	4865.23
946.881	4827.26
947.187	4865.23
947.493	4810.76
947.799	4778.45
948.105	4789.97
948.41	4723.08
948.716	4758.11
949.022	4722.4
949.327	4668.85
949.633	4622.52
949.938	4663.42
950.244	4618
950.549	4618.68
950.854	4621.84
951.16	4574.16
951.465	4572.13
951.77	4539.58
952.075	4517.89
952.38	4473.6
952.685	4498
952.99	4465.91
953.294	4460.26
953.599	4426.37
953.904	4361.51
954.209	4347.72
954.513	4381.85
954.818	4321.96
955.122	4300.49
955.426	4286.48
955.731	4325.13
956.035	4262.98
956.339	4196.09
956.643	4215.75
956.948	4192.7
957.252	4155.64
957.556	4177.11
957.86	4120.61
958.163	4151.8
958.467	4126.04
958.771	4068.41
959.075	4081.74
959.378	4069.54
959.682	4048.75
959.985	4045.36
960.289	4017.34
960.592	3971.46
960.896	3943.89
961.199	3932.37
961.502	3945.02
961.805	3912.03
962.108	3918.13
962.411	3896.44
962.714	3849.88
963.017	3843.56
963.32	3833.16
963.623	3845.59
963.926	3832.94
964.228	3823.9
964.531	3817.12
964.833	3737.12
965.136	3766.72
965.438	3760.62
965.741	3712.94
966.043	3672.26
966.345	3684.69
966.648	3654.86
966.95	3648.08
967.252	3630.68
967.554	3630
967.856	3619.38
968.158	3574.86
968.46	3584.81
968.761	3554.53
969.063	3506.62
969.365	3546.84
969.666	3518.14
969.968	3492.83
970.269	3503.91
970.571	3483.57
970.872	3455.09
971.174	3438.6
971.475	3423.68
971.776	3411.25
972.077	3400.18
972.378	3389.56
972.679	3357.24
972.98	3354.08
973.281	3352.5
973.582	3299.62
973.883	3300.52
974.183	3285.83
974.484	3290.13
974.785	3243.12
975.085	3237.92
975.386	3255.32
975.686	3172.84
975.986	3230.69
976.287	3203.35
976.587	3131.49
976.887	3109.57
977.187	3117.02
977.487	3115.21
977.787	3099.4
978.087	3108.89
978.387	3078.38
978.687	3067.53
978.987	3076.35
979.286	3060.53
979.586	3014.2
979.885	2968.55
980.185	3009
980.484	2982.79
980.784	2971.94
981.083	2973.98
981.382	2965.39
981.682	2945.05
981.981	2920.19
982.28	2923.58
982.579	2903.02
982.878	2928.78
983.177	2882.9
983.475	2864.15
983.774	2854.2
984.073	2868.67
984.372	2833.19
984.67	2827.09
984.969	2827.31
985.267	2790.25
985.566	2784.6
985.864	2729.69
986.162	2752.06
986.461	2709.35
986.759	2726.3
987.057	2705.28
987.355	2754.09
987.653	2673.19
987.951	2652.85
988.249	2627.09
988.547	2653.08
988.844	2651.05
989.142	2615.11
989.44	2642.23
989.737	2559.07
990.035	2589.8
990.332	2565.4
990.63	2554.78
990.927	2519.07
991.224	2528.79
991.521	2530.37
991.819	2509.35
992.116	2505.29
992.413	2485.4
992.71	2491.95
993.006	2467.55
993.303	2441.33
993.6	2425.97
993.897	2434.78
994.193	2444.95
994.49	2422.58
994.787	2381.45
995.083	2383.03
995.379	2385.97
995.676	2385.29
995.972	2351.17
996.268	2351.39
996.565	2306.42
996.861	2336.25
997.157	2335.12
997.453	2320.21
997.749	2272.07
998.044	2270.72
998.34	2280.43
998.636	2252.19
998.932	2249.7
999.227	2216.26
999.523	2205.41
999.818	2209.93
1000.114	2174
1000.409	2172.87
1000.704	2168.57
1001	2171.51
1001.295	2145.07
1001.59	2132.42
1001.885	2151.85
1002.18	2097.84
1002.475	2109.59
1002.77	2086.09
1003.065	2077.95
1003.359	2066.43
1003.654	2065.98
1003.949	2026.88
1004.243	2052.87
1004.538	2000.22
1004.832	1996.37
1005.127	1978.75
1005.421	2006.09
1005.715	1979.65
1006.009	1991.18
1006.304	1931.29
1006.598	1956.38
1006.892	1936.71
1007.186	1927.45
1007.48	1931.97
1007.773	1878.64
1008.067	1901.01
1008.361	1887.68
1008.655	1866.89
1008.948	1851.97
1009.242	1849.26
1009.535	1811.07
1009.829	1827.11
1010.122	1838.41
1010.415	1799.32
1010.708	1777.62
1011.001	1802.71
1011.295	1767.45
1011.588	1776.72
1011.881	1751.86
1012.173	1717.96
1012.466	1734.01
1012.759	1735.36
1013.052	1748.47
1013.344	1723.61
1013.637	1721.81
1013.93	1694.46
1014.222	1697.4
1014.514	1681.58
1014.807	1659.21
1015.099	1633.9
1015.391	1634.12
1015.683	1648.36
1015.976	1629.6
1016.268	1623.95
1016.56	1596.84
1016.851	1580.57
1017.143	1602.94
1017.435	1551.64
1017.727	1555.03
1018.018	1529.95
1018.31	1552.32
1018.602	1520.23
1018.893	1519.78
1019.185	1517.52
1019.476	1493.11
1019.767	1472.09
1020.058	1493.34
1020.35	1452.43
1020.641	1481.59
1020.932	1446.33
1021.223	1427.35
1021.514	1414.47
1021.804	1402.49
1022.095	1406.56
1022.386	1408.14
1022.677	1414.02
1022.967	1397.52
1023.258	1396.39
1023.548	1383.28
1023.839	1345.54
1024.129	1362.49
1024.419	1388.25
1024.709	1320.91
1025	1353.23
1025.29	1335.83
1025.58	1315.26
1025.87	1307.58
1026.16	1315.04
1026.449	1281.14
1026.739	1258.31
1027.029	1280.46
1027.319	1260.12
1027.608	1254.92
1027.898	1261.25
1028.187	1209.05
1028.477	1215.83
1028.766	1222.16
1029.055	1218.32
1029.344	1230.29
1029.634	1187.81
1029.923	1200.01
1030.212	1194.14
1030.501	1147.13
1030.79	1163.4
1031.078	1157.3
1031.367	1143.74
1031.656	1122.72
1031.945	1140.13
1032.233	1123.18
1032.522	1129.96
1032.81	1110.3
1033.099	1119.11
1033.387	1113.91
1033.675	1097.64
1033.963	1084.08
1034.251	1072.78
1034.54	1073.46
1034.828	1084.08
1035.116	1041.6
1035.403	1059.22
1035.691	1034.59
1035.979	1030.98
1036.267	1025.33
1036.554	1030.07
1036.842	1030.07
1037.129	1005.21
1037.417	969.73
1037.704	1003.63
1037.992	987.59
1038.279	961.37
1038.566	980.58
1038.853	980.58
1039.14	980.58
