Data from hue_240_FLMS001491_00038.txt Node
Date: Tue Feb 07 16:35:24 GMT 2017
User: dcchb
Spectrometer: FLMS00149
Trigger mode: 0
Integration Time (sec): 2.000000E-2
Scans to average: 10
Electric dark correction enabled: true
Nonlinearity correction enabled: false
Boxcar width: 0
XAxis mode: Wavelengths
Number of Pixels in Spectrum: 2048
>>>>>Begin Spectral Data<<<<<
341.393	-1.5
341.776	-1.5
342.16	-1.5
342.543	-90.31
342.927	-58.9
343.31	-78.56
343.693	-87.14
344.077	-73.81
344.46	-51.44
344.843	-52.34
345.226	-54.38
345.61	-28.39
345.993	-27.03
346.376	12.29
346.759	19.52
347.142	32.4
347.525	31.95
347.908	79.86
348.291	76.47
348.674	91.83
349.057	108.78
349.44	129.57
349.823	132.96
350.206	160.53
350.588	196.24
350.971	206.18
351.354	236.46
351.737	242.56
352.119	221.77
352.502	247.99
352.884	264.26
353.267	271.49
353.65	291.38
354.032	302.22
354.414	304.03
354.797	294.31
355.179	291.38
355.562	307.42
355.944	324.6
356.326	323.24
356.709	335.9
357.091	327.31
357.473	337.48
357.855	327.31
358.238	339.74
358.62	339.06
359.002	328.21
359.384	326.63
359.766	356.01
360.148	325.5
360.53	324.14
360.912	316.46
361.294	315.78
361.676	327.53
362.057	340.19
362.439	310.81
362.821	329.79
363.203	322.79
363.584	314.43
363.966	316.91
364.348	317.14
364.729	316.46
365.111	317.59
365.493	324.82
365.874	307.87
366.256	296.35
366.637	306.07
367.019	306.52
367.4	304.48
367.781	315.33
368.163	316.46
368.544	304.48
368.925	324.6
369.306	309.68
369.688	303.35
370.069	304.26
370.45	314.65
370.831	305.39
371.212	320.75
371.593	329.12
371.974	304.94
372.355	304.71
372.736	318.27
373.117	306.52
373.498	303.35
373.879	298.16
374.26	285.5
374.641	301.77
375.021	309.68
375.402	314.43
375.783	332.51
376.163	325.05
376.544	319.4
376.925	300.42
377.305	313.3
377.686	313.07
378.066	318.72
378.447	322.11
378.827	311.71
379.208	324.6
379.588	320.53
379.968	332.05
380.349	319.4
380.729	333.64
381.109	331.6
381.489	326.4
381.87	322.11
382.25	334.99
382.63	329.57
383.01	341.32
383.39	328.21
383.77	337.48
384.15	328.89
384.53	333.86
384.91	349.23
385.29	330.7
385.67	327.99
386.049	343.8
386.429	339.51
386.809	334.54
387.189	357.36
387.568	347.87
387.948	353.52
388.328	361.43
388.707	354.88
389.087	347.87
389.466	342
389.846	363.47
390.225	367.98
390.605	359.4
390.984	345.61
391.363	358.49
391.743	351.94
392.122	384.26
392.501	367.53
392.881	374.76
393.26	351.04
393.639	381.32
394.018	375.44
394.397	359.62
394.776	378.38
395.155	374.76
395.534	386.29
395.913	380.64
396.292	383.58
396.671	393.52
397.05	395.1
397.429	387.87
397.808	369.57
398.186	411.6
398.565	400.07
398.944	379.28
399.323	376.12
399.701	407.53
400.08	397.36
400.458	409.57
400.837	398.04
401.215	394.2
401.594	402.33
401.972	411.37
402.351	405.05
402.729	429.23
403.107	432.16
403.486	422.22
403.864	400.75
404.242	431.94
404.62	438.04
404.999	424.71
405.377	428.32
405.755	445.72
406.133	445.04
406.511	459.73
406.889	445.5
407.267	443.46
407.645	468.32
408.023	437.14
408.401	457.7
408.779	437.36
409.156	476.68
409.534	478.49
409.912	503.8
410.29	476.46
410.667	495.21
411.045	500.41
411.422	505.61
411.8	518.72
412.178	516
412.555	502.67
412.933	528.66
413.31	546.74
413.687	541.31
414.065	529.11
414.442	578.83
414.819	545.16
415.197	553.29
415.574	559.17
415.951	567.98
416.328	582.67
416.705	582.22
417.082	594.87
417.46	593.52
417.837	595.55
418.214	608.66
418.591	607.53
418.967	633.97
419.344	620.18
419.721	631.48
420.098	622.22
420.475	643.23
420.852	641.42
421.228	655.66
421.605	666.96
421.982	672.61
422.358	673.74
422.735	685.49
423.111	678.94
423.488	707.86
423.864	723.23
424.241	726.39
424.617	716.22
424.994	725.26
425.37	718.26
425.746	742.44
426.123	774.75
426.499	748.09
426.875	775.43
427.251	801.65
427.627	808.2
428.003	791.7
428.379	834.19
428.756	843.68
429.132	839.16
429.507	849.55
429.883	860.63
430.259	885.26
430.635	851.81
431.011	883.9
431.387	909.21
431.763	894.98
432.138	912.15
432.514	928.2
432.89	951.47
433.265	964.13
433.641	958.48
434.016	979.72
434.392	999.38
434.767	1049.77
435.143	1034.86
435.518	1012.04
435.894	1065.14
436.269	1040.74
436.644	1069.21
437.02	1101.98
437.395	1081.41
437.77	1133.39
438.145	1148.98
438.52	1147.85
438.895	1158.7
439.271	1162.54
439.646	1181.75
440.021	1198.7
440.395	1223.1
440.77	1212.03
441.145	1234.63
441.52	1258.58
441.895	1258.13
442.27	1269.66
442.645	1273.05
443.019	1303.33
443.394	1314.17
443.769	1330.9
444.143	1311.01
444.518	1315.53
444.892	1321.18
445.267	1332.93
445.641	1344.91
446.016	1366.6
446.39	1395.98
446.764	1395.53
447.139	1406.83
447.513	1422.65
447.887	1377.45
448.262	1405.7
448.636	1440.27
449.01	1441.18
449.384	1454.06
449.758	1482.08
450.132	1476.43
450.506	1482.98
450.88	1504.9
451.254	1503.55
451.628	1504.23
452.002	1555.98
452.376	1552.36
452.75	1573.6
453.123	1565.69
453.497	1587.39
453.871	1634.62
454.244	1656.54
454.618	1653.37
454.992	1651.34
455.365	1659.02
455.739	1701.51
456.112	1725.46
456.486	1734.73
456.859	1739.47
457.232	1764.33
457.606	1762.98
457.979	1781.73
458.352	1862.86
458.725	1846.14
459.099	1859.02
459.472	1848.4
459.845	1918.45
460.218	1930.2
460.591	1934.72
460.964	1939.47
461.337	1986.93
461.71	1990.09
462.083	2040.03
462.456	2007.94
462.829	2010.65
463.201	2061.73
463.574	2063.31
463.947	2088.17
464.32	2161.16
464.692	2147.37
465.065	2179.24
465.438	2191.89
465.81	2215.62
466.183	2286.13
466.555	2281.38
466.928	2284.54
467.3	2263.75
467.672	2363.19
468.045	2397.08
468.417	2398.21
468.789	2426.01
469.161	2427.59
469.534	2465.56
469.906	2510.75
470.278	2516.18
470.65	2554.14
471.022	2560.47
471.394	2629.85
471.766	2694.25
472.138	2700.13
472.51	2780.35
472.882	2792.1
473.253	2811.76
473.625	2821.48
473.997	2854.47
474.369	2879.11
474.74	2915.94
475.112	2974.02
475.484	2963.17
475.855	3037.97
476.227	3034.81
476.598	3134.92
476.97	3154.58
477.341	3260.56
477.713	3234.12
478.084	3313.44
478.455	3341.24
478.827	3401.35
479.198	3444.74
479.569	3473.89
479.94	3544.62
480.311	3554.12
480.682	3678.86
481.053	3718.86
481.424	3755.69
481.795	3810.38
482.166	3833.43
482.537	3843.37
482.908	3922.47
483.279	3979.19
483.65	4082.46
484.021	4128.56
484.391	4177.15
484.762	4210.37
485.133	4201.33
485.503	4316.36
485.874	4363.81
486.244	4406.3
486.615	4451.04
486.985	4498.27
487.356	4585.73
487.726	4584.82
488.097	4667.31
488.467	4684.93
488.837	4803.12
489.207	4804.03
489.578	4881.09
489.948	4927.64
490.318	4960.41
490.688	5005.38
491.058	5024.81
491.428	5063
491.798	5180.74
492.168	5236.33
492.538	5217.35
492.908	5302.77
493.278	5331.24
493.648	5356.55
494.017	5449.43
494.387	5398.81
494.757	5465.48
495.126	5519.04
495.496	5550
495.866	5565.81
496.235	5615.08
496.605	5657.79
496.974	5698.69
497.344	5749.54
497.713	5786.37
498.082	5839.48
498.452	5852.81
498.821	5843.77
499.19	5916.99
499.559	5943.21
499.928	5969.87
500.298	5995.18
500.667	6041.96
501.036	6035.86
501.405	6081.05
501.774	6070.21
502.143	6119.7
502.512	6153.6
502.88	6168.28
503.249	6159.24
503.618	6188.85
503.987	6211.22
504.356	6249.86
504.724	6232.69
505.093	6291.67
505.462	6274.27
505.83	6379.13
506.199	6403.08
506.567	6434.72
506.936	6367.6
507.304	6502.96
507.672	6463.42
508.041	6541.16
508.409	6570.99
508.777	6540.93
509.145	6584.54
509.514	6549.74
509.882	6633.58
510.25	6655.73
510.618	6680.14
510.986	6687.59
511.354	6682.39
511.722	6752.68
512.09	6794.26
512.458	6768.27
512.826	6855.72
513.193	6766.23
513.561	6791.09
513.929	6862.5
514.297	6934.14
514.664	6900.92
515.032	6886.68
515.4	6948.38
515.767	6947.25
516.135	7017.98
516.502	6973.91
516.869	7051.65
517.237	7006.23
517.604	6958.32
517.972	7103.4
518.339	6990.18
518.706	7052.55
519.073	7082.84
519.44	7046
519.808	7161.93
520.175	7116.96
520.542	7196.51
520.909	7193.34
521.276	7210.52
521.643	7260.01
522.009	7265.2
522.376	7276.28
522.743	7333.9
523.11	7350.4
523.477	7366.67
523.843	7325.99
524.21	7449.38
524.577	7425.88
524.943	7436.5
525.31	7493
525.676	7483.73
526.043	7564.18
526.409	7600.79
526.776	7569.15
527.142	7565.54
527.508	7535.71
527.874	7602.82
528.241	7637.85
528.607	7620.9
528.973	7681.24
529.339	7665.65
529.705	7684.4
530.071	7732.08
530.437	7753.55
530.803	7731.41
531.169	7729.15
531.535	7732.99
531.901	7769.82
532.267	7701.35
532.632	7740.67
532.998	7785.64
533.364	7763.04
533.73	7770.95
534.095	7755.36
534.461	7777.51
534.826	7794.91
535.192	7786.77
535.557	7786.32
535.923	7786.55
536.288	7803.04
536.653	7879.65
537.019	7722.37
537.384	7768.02
537.749	7807.34
538.114	7800.11
538.479	7736.83
538.845	7755.14
539.21	7724.18
539.575	7747.23
539.94	7716.27
540.305	7789.71
540.67	7735.25
541.034	7790.84
541.399	7753.1
541.764	7720.79
542.129	7747
542.494	7759.65
542.858	7827.9
543.223	7732.31
543.587	7745.42
543.952	7775.7
544.316	7789.94
544.681	7710.16
545.045	7736.15
545.41	7744.97
545.774	7731.18
546.138	7703.61
546.503	7704.51
546.867	7666.78
547.231	7730.28
547.595	7703.16
547.959	7672.43
548.324	7638.53
548.688	7620.68
549.052	7657.96
549.416	7655.7
549.779	7685.98
550.143	7650.73
550.507	7647.34
550.871	7650.73
551.235	7625.19
551.599	7693.44
551.962	7650.96
552.326	7599.88
552.689	7655.7
553.053	7550.17
553.417	7599.43
553.78	7675.36
554.143	7622.71
554.507	7686.66
554.87	7638.75
555.234	7625.42
555.597	7635.82
555.96	7676.72
556.323	7566.67
556.686	7668.58
557.05	7605.53
557.413	7723.5
557.776	7631.97
558.139	7690.05
558.502	7682.59
558.865	7681.92
559.228	7689.37
559.59	7721.69
559.953	7726.44
560.316	7813.44
560.679	7788.35
561.041	7812.53
561.404	7846.88
561.767	7857.51
562.129	7829.94
562.492	7884.4
562.854	7846.88
563.217	7878.97
563.579	7892.31
563.941	7913.77
564.304	7913.32
564.666	7944.28
565.028	7947.45
565.39	7904.74
565.753	8001
566.115	8051.62
566.477	8036.94
566.839	8016.15
567.201	8065.41
567.563	8113.77
567.925	8157.16
568.287	8164.84
568.648	8126.42
569.01	8149.47
569.372	8196.71
569.734	8202.58
570.095	8184.73
570.457	8257.27
570.819	8303.6
571.18	8255.23
571.542	8340.2
571.903	8315.57
572.265	8325.52
572.626	8334.1
572.987	8359.19
573.349	8405.51
573.71	8379.07
574.071	8413.42
574.432	8450.03
574.794	8459.52
575.155	8481.22
575.516	8493.19
575.877	8476.47
576.238	8475.57
576.599	8538.39
576.96	8532.97
577.32	8586.07
577.681	8634.89
578.042	8664.49
578.403	8649.57
578.763	8579.29
579.124	8669.91
579.485	8701.78
579.845	8704.94
580.206	8672.85
580.566	8699.97
580.927	8685.05
581.287	8717.82
581.648	8747.43
582.008	8784.26
582.368	8736.13
582.728	8802.79
583.089	8795.56
583.449	8824.26
583.809	8794.88
584.169	8837.82
584.529	8888.66
584.889	8853.86
585.249	8868.1
585.609	8872.62
585.969	8811.38
586.329	8919.17
586.688	8910.36
587.048	8913.52
587.408	8903.81
587.768	8896.35
588.127	8847.31
588.487	8915.33
588.846	8955.56
589.206	8939.51
589.565	8933.86
589.925	9025.38
590.284	8985.16
590.643	8976.12
591.003	8986.74
591.362	9054.54
591.721	8982
592.08	9014.54
592.44	9051.15
592.799	9041.2
593.158	9021.54
593.517	9002.79
593.876	9123.69
594.235	9054.08
594.593	9022.22
594.952	9093.86
595.311	9066.29
595.67	9067.64
596.029	9111.71
596.387	9107.19
596.746	9156.68
597.104	9053.63
597.463	9068.09
597.822	9098.6
598.18	9141.31
598.538	9135.21
598.897	9176.34
599.255	9048.89
599.613	9183.8
599.972	9127.98
600.33	9178.6
600.688	9139.96
601.046	9159.62
601.404	9229.45
601.762	9252.72
602.12	9245.27
602.478	9148.54
602.836	9235.32
603.194	9160.75
603.552	9202.55
603.91	9157.36
604.268	9187.64
604.625	9109.68
604.983	9193.97
605.341	9146.06
605.698	9178.6
606.056	9268.32
606.413	9197.58
606.771	9200.97
607.128	9262.21
607.485	9296.11
607.843	9220.41
608.2	9330.69
608.557	9358.71
608.914	9338.37
609.272	9367.52
609.629	9363.91
609.986	9335.88
610.343	9320.74
610.7	9383.34
611.057	9423.34
611.414	9372.04
611.771	9442.55
612.127	9363.45
612.484	9358.48
612.841	9430.12
613.198	9432.38
613.554	9367.97
613.911	9448.42
614.267	9490.68
614.624	9428.09
614.98	9447.07
615.337	9506.95
615.693	9539.95
616.05	9469.21
616.406	9555.99
616.762	9552.15
617.118	9537.01
617.475	9507.63
617.831	9533.39
618.187	9521.19
618.543	9546.27
618.899	9646.84
619.255	9553.28
619.611	9570.68
619.967	9591.24
620.323	9562.09
620.678	9612.04
621.034	9523.9
621.39	9541.3
621.746	9571.81
622.101	9600.51
622.457	9559.83
622.812	9587.86
623.168	9581.98
623.523	9650.45
623.879	9574.75
624.234	9577.23
624.589	9553.96
624.945	9570.23
625.3	9511.02
625.655	9649.1
626.01	9560.74
626.365	9553.73
626.72	9548.08
627.075	9601.87
627.43	9544.01
627.785	9550.34
628.14	9614.3
628.495	9559.16
628.85	9511.02
629.205	9569.78
629.559	9568.42
629.914	9492.26
630.269	9481.19
630.623	9515.77
630.978	9498.82
631.332	9480.97
631.687	9502.89
632.041	9471.02
632.396	9474.64
632.75	9393.96
633.104	9431.25
633.459	9377.92
633.813	9414.75
634.167	9390.57
634.521	9436.67
634.875	9429.67
635.229	9357.58
635.583	9350.57
635.937	9349.9
636.291	9310.12
636.645	9271.93
636.999	9237.81
637.352	9334.98
637.706	9223.8
638.06	9316.22
638.413	9280.29
638.767	9293.85
639.121	9244.59
639.474	9230.12
639.828	9187.19
640.181	9290.91
640.534	9275.55
640.888	9134.99
641.241	9186.51
641.594	9222.67
641.947	9172.05
642.301	9166.17
642.654	9218.15
643.007	9155.32
643.36	9098.15
643.713	9146.51
644.066	9176.11
644.419	9139.05
644.771	9053.63
645.124	9002.56
645.477	8929.12
645.83	8877.59
646.182	8916.69
646.535	8830.36
646.888	8860.42
647.24	8742.68
647.593	8827.65
647.945	8839.63
648.298	8845.95
648.65	8760.53
649.002	8729.12
649.355	8777.03
649.707	8753.53
650.059	8789.23
650.411	8876.91
650.763	8922.56
651.115	8990.58
651.467	9006.4
651.819	8967.31
652.171	9016.34
652.523	8931.83
652.875	8891.83
653.227	8899.29
653.578	8938.61
653.93	8929.34
654.282	8924.6
654.633	8894.99
654.985	8951.94
655.337	8896.35
655.688	8906.29
656.039	8937.7
656.391	8869.46
656.742	8887.53
657.094	8930.47
657.445	8914.65
657.796	8974.99
658.147	8882.79
658.498	8893.18
658.849	8897.48
659.2	8927.31
659.551	8850.25
659.902	8919.85
660.253	8907.65
660.604	8939.28
660.955	8865.16
661.306	8859.74
661.656	8937.48
662.007	8894.99
662.358	8873.52
662.708	8846.63
663.059	8883.02
663.409	8937.93
663.76	8902.45
664.11	8939.06
664.461	8899.29
664.811	8946.52
665.161	8933.86
665.511	8875.78
665.862	8955.78
666.212	8887.99
666.562	8918.27
666.912	8884.82
667.262	8882.79
667.612	8899.74
667.962	8958.04
668.312	8868.33
668.662	8932.96
669.011	8900.42
669.361	8853.41
669.711	8883.69
670.06	8898.83
670.41	8827.65
670.76	8836.46
671.109	8853.64
671.459	8796.24
671.808	8834.43
672.157	8877.14
672.507	8816.12
672.856	8781.32
673.205	8801.89
673.554	8838.72
673.904	8842.79
674.253	8815.45
674.602	8830.81
674.951	8687.31
675.3	8617.49
675.649	8791.94
675.998	8695.68
676.346	8750.14
676.695	8789.91
677.044	8712.85
677.393	8685.28
677.741	8724.83
678.09	8684.38
678.438	8726.63
678.787	8743.58
679.135	8749.23
679.484	8698.16
679.832	8632.4
680.181	8600.76
680.529	8657.48
680.877	8591.05
681.225	8600.76
681.573	8650.48
681.922	8540.2
682.27	8533.19
682.618	8562.8
682.966	8513.53
683.314	8556.47
683.661	8574.77
684.009	8482.57
684.357	8435.12
684.705	8521.67
685.053	8431.5
685.4	8395.12
685.748	8366.64
686.095	8361.9
686.443	8311.28
686.79	8267.44
687.138	8328.68
687.485	8338.62
687.832	8290.04
688.18	8303.82
688.527	8257.49
688.874	8222.92
689.221	8229.92
689.568	8198.74
689.915	8116.48
690.262	8176.37
690.609	8170.49
690.956	8109.7
691.303	8062.25
691.65	8065.86
691.997	8134.56
692.344	7975.47
692.69	7997.84
693.037	8009.82
693.383	7942.25
693.73	7901.12
694.077	7892.76
694.423	7876.04
694.769	7828.58
695.116	7830.39
695.462	7808.47
695.808	7784.51
696.155	7759.88
696.501	7765.76
696.847	7711.07
697.193	7676.04
697.539	7649.6
697.885	7660.9
698.231	7654.57
698.577	7587.46
698.923	7595.37
699.269	7517.63
699.614	7464.07
699.96	7455.93
700.306	7496.84
700.651	7417.52
700.997	7429.49
701.342	7432.43
701.688	7382.72
702.033	7405.54
702.379	7393.34
702.724	7294.58
703.069	7297.97
703.415	7237.86
703.76	7209.61
704.105	7264.53
704.45	7216.62
704.795	7114.93
705.14	7137.3
705.485	7157.18
705.83	7080.12
706.175	7088.71
706.52	7092.1
706.865	7097.07
707.209	7024.76
707.554	7035.83
707.899	6989.96
708.243	6978.66
708.588	6996.06
708.932	6875.84
709.277	6893.24
709.621	6938.89
709.966	6871.77
710.31	6845.78
710.654	6783.41
710.998	6782.51
711.342	6871.09
711.687	6804.65
712.031	6855.27
712.375	6733.02
712.719	6767.36
713.063	6801.71
713.407	6738.66
713.75	6755.61
714.094	6734.6
714.438	6732.11
714.782	6729.4
715.125	6665.22
715.469	6704.32
715.812	6664.54
716.156	6649.63
716.499	6582.06
716.843	6644.66
717.186	6536.86
717.53	6670.42
717.873	6585.45
718.216	6660.47
718.559	6577.09
718.902	6528.5
719.246	6524.88
719.589	6528.05
719.932	6485.79
720.275	6524.66
720.617	6532.34
720.96	6478.56
721.303	6488.28
721.646	6507.94
721.989	6457.77
722.331	6446.24
722.674	6484.89
723.016	6468.62
723.359	6438.79
723.701	6441.5
724.044	6395.85
724.386	6396.07
724.729	6405.79
725.071	6403.53
725.413	6345
725.755	6366.02
726.097	6367.37
726.439	6381.61
726.782	6359.47
727.124	6373.25
727.465	6367.83
727.807	6338.9
728.149	6333.03
728.491	6286.25
728.833	6316.75
729.175	6320.14
729.516	6310.2
729.858	6302.97
730.199	6309.3
730.541	6266.81
730.882	6320.82
731.224	6316.98
731.565	6282.18
731.906	6274.27
732.248	6281.28
732.589	6219.36
732.93	6200.37
733.271	6245.57
733.612	6288.96
733.953	6260.49
734.294	6251.22
734.635	6229.3
734.976	6242.63
735.317	6261.16
735.658	6230.66
735.999	6252.12
736.339	6283.08
736.68	6283.76
737.021	6237.43
737.361	6224.55
737.702	6284.89
738.042	6242.41
738.383	6293.25
738.723	6259.58
739.063	6250.09
739.404	6271.78
739.744	6303.42
740.084	6284.89
740.424	6309.52
740.764	6292.57
741.104	6316.98
741.444	6313.82
741.784	6277.43
742.124	6330.54
742.464	6324.44
742.804	6319.69
743.143	6264.1
743.483	6359.92
743.823	6327.15
744.162	6407.15
744.502	6395.85
744.841	6389.52
745.181	6488.95
745.52	6354.49
745.86	6414.15
746.199	6468.84
746.538	6443.08
746.877	6496.64
747.216	6581.83
747.556	6624.32
747.895	6535.51
748.234	6635.16
748.573	6652.79
748.911	6641.72
749.25	6677.88
749.589	6749.06
749.928	6764.2
750.267	6818.89
750.605	6831.77
750.944	6879
751.283	6905.21
751.621	6935.95
751.96	7008.71
752.298	7036.51
752.636	7063.63
752.975	7117.64
753.313	7236.96
753.651	7265.88
753.989	7306.33
754.327	7391.53
754.666	7413.9
755.004	7502.49
755.342	7581.13
755.679	7737.06
756.017	7720.33
756.355	7814.34
756.693	7864.74
757.031	8005.07
757.368	8057.95
757.706	8047.56
758.044	8183.6
758.381	8321.45
758.719	8373.88
759.056	8510.14
759.394	8521.22
759.731	8591.95
760.068	8657.94
760.405	8725.51
760.743	8846.41
761.08	8992.84
761.417	9037.59
761.754	9134.99
762.091	9295.21
762.428	9279.61
762.765	9410.01
763.102	9529.55
763.438	9608.65
763.775	9610.45
764.112	9713.28
764.449	9875.76
764.785	10005.92
765.122	10003.44
765.458	10075.07
765.795	10140.16
766.131	10261.28
766.467	10267.84
766.804	10406.36
767.14	10406.59
767.476	10562.74
767.812	10581.28
768.148	10700.59
768.485	10767.94
768.821	10802.51
769.157	10794.38
769.492	10887.71
769.828	10997.76
770.164	11008.16
770.5	11023.98
770.836	11015.16
771.171	11086.35
771.507	11188.94
771.842	11162.05
772.178	11247.92
772.513	11303.06
772.849	11319.79
773.184	11313.46
773.519	11425.77
773.855	11387.81
774.19	11444.53
774.525	11437.52
774.86	11540.57
775.195	11460.35
775.53	11578.09
775.865	11541.7
776.2	11536.05
776.535	11504.87
776.87	11472.1
777.205	11532.21
777.539	11444.53
777.874	11583.96
778.209	11411.76
778.543	11488.82
778.878	11421.03
779.212	11506
779.547	11502.61
779.881	11595.71
780.215	11543.96
780.55	11614.47
780.884	11489.95
781.218	11562.27
781.552	11541.25
781.886	11559.78
782.22	11528.14
782.554	11544.41
782.888	11441.37
783.222	11449.28
783.556	11487.69
783.889	11387.58
784.223	11407.47
784.557	11345.78
784.89	11425.77
785.224	11392.78
785.557	11316.85
785.891	11342.39
786.224	11353.01
786.558	11303.29
786.891	11295.61
787.224	11210.64
787.557	11257.42
787.891	11279.34
788.224	11202.28
788.557	11271.2
788.89	11250.64
789.223	11223.74
789.556	11165.44
789.888	11154.82
790.221	11120.47
790.554	11041.15
790.887	11033.47
791.219	11063.97
791.552	10951.66
791.884	10936.52
792.217	10965.22
792.549	10971.1
792.882	10931.1
793.214	10916.41
793.546	10909.85
793.879	10780.14
794.211	10765.45
794.543	10831.66
794.875	10790.76
795.207	10738.56
795.539	10738.33
795.871	10758.22
796.203	10709.86
796.535	10553.03
796.867	10616.98
797.198	10555.06
797.53	10647.49
797.862	10592.57
798.193	10494.27
798.525	10423.54
798.856	10554.61
799.188	10437.32
799.519	10421.51
799.85	10328.63
800.182	10363.88
800.513	10369.76
800.844	10241.17
801.175	10310.55
801.506	10326.37
801.837	10240.49
802.168	10263.77
802.499	10169.76
802.83	10165.24
803.161	10110.33
803.491	10155.75
803.822	10099.48
804.153	10060.84
804.483	10083.44
804.814	9953.04
805.145	9993.27
805.475	9987.17
805.805	9961.86
806.136	9979.71
806.466	9948.07
806.796	10011.57
807.126	9854.97
807.457	9870.56
807.787	9854.29
808.117	9824.46
808.447	9747.4
808.777	9747.85
809.107	9824.01
809.436	9714.63
809.766	9685.71
810.096	9676.67
810.426	9616.1
810.755	9600.51
811.085	9644.58
811.414	9610.23
811.744	9517.35
812.073	9491.13
812.403	9494.52
812.732	9542.66
813.061	9491.81
813.39	9346.96
813.719	9407.3
814.049	9464.02
814.378	9450.01
814.707	9343.12
815.036	9363.68
815.365	9339.05
815.693	9276.23
816.022	9289.78
816.351	9257.92
816.68	9253.63
817.008	9234.19
817.337	9152.61
817.665	9147.64
817.994	9206.17
818.322	9205.04
818.651	9119.62
818.979	9163.91
819.307	9179.96
819.636	9146.28
819.964	9051.82
820.292	9151.48
820.62	9098.6
820.948	9053.86
821.276	9078.26
821.604	9060.41
821.932	9102.44
822.259	9061.77
822.587	9092.73
822.915	9080.75
823.243	9047.53
823.57	9040.75
823.898	9116
824.225	9052.28
824.553	9044.59
824.88	9032.16
825.207	9088.43
825.535	9012.96
825.862	9098.83
826.189	9074.2
826.516	9044.82
826.843	9104.7
827.17	9127.3
827.497	9047.76
827.824	9089.11
828.151	9057.93
828.478	9064.03
828.805	9137.92
829.131	9071.48
829.458	9060.64
829.785	8981.09
830.111	9039.62
830.438	9093.18
830.764	9094.76
831.09	9073.07
831.417	9001.88
831.743	8993.75
832.069	9011.83
832.395	8999.4
832.722	9033.75
833.048	9010.92
833.374	8954.43
833.7	9022.67
834.026	8980.41
834.351	9019.06
834.677	9026.74
835.003	8962.11
835.329	8933.64
835.654	8992.62
835.98	8946.06
836.306	8934.31
836.631	8908.78
836.956	8899.06
837.282	8879.85
837.607	8910.36
837.932	8872.62
838.258	8904.94
838.583	8814.54
838.908	8831.94
839.233	8831.04
839.558	8863.13
839.883	8799.85
840.208	8765.28
840.533	8747.88
840.858	8721.21
841.182	8792.62
841.507	8753.53
841.832	8661.78
842.156	8677.82
842.481	8666.3
842.805	8641.21
843.13	8666.07
843.454	8695.45
843.778	8636.69
844.103	8578.16
844.427	8536.81
844.751	8573.42
845.075	8588.33
845.399	8471.27
845.723	8486.42
846.047	8471.05
846.371	8356.02
846.695	8431.95
847.019	8335.01
847.343	8316.25
847.666	8267.66
847.99	8269.47
848.313	8175.24
848.637	8191.96
848.96	8162.58
849.284	8188.57
849.607	8142.02
849.931	8067.22
850.254	7995.58
850.577	8003.04
850.9	7865.41
851.223	7883.72
851.546	7948.58
851.869	7883.95
852.192	7855.7
852.515	7827.9
852.838	7782.03
853.161	7828.13
853.483	7709.49
853.806	7751.29
854.129	7673.33
854.451	7667.91
854.774	7620.68
855.096	7690.05
855.419	7591.98
855.741	7550.17
856.063	7538.42
856.385	7516.27
856.708	7531.19
857.03	7521.47
857.352	7446.44
857.674	7427.69
857.996	7419.55
858.318	7391.08
858.64	7388.82
858.961	7344.75
859.283	7316.73
859.605	7261.14
859.926	7279.44
860.248	7273.34
860.57	7224.53
860.891	7240.8
861.212	7251.42
861.534	7233.57
861.855	7158.99
862.176	7240.35
862.498	7204.19
862.819	7161.25
863.14	7167.35
863.461	7156.96
863.782	7142.27
864.103	7145.21
864.424	7127.13
864.745	7111.99
865.065	7095.49
865.386	7034.48
865.707	7064.53
866.027	7082.38
866.348	7010.07
866.668	7042.16
866.989	6969.84
867.309	6913.58
867.63	7005.32
867.95	7003.74
868.27	6937.3
868.59	6926.68
868.91	6895.95
869.23	6908.38
869.55	6896.85
869.87	6907.25
870.19	6909.73
870.51	6879
870.83	6862.96
871.15	6833.58
871.469	6874.71
871.789	6853.92
872.109	6836.74
872.428	6810.08
872.748	6810.53
873.067	6860.7
873.386	6817.76
873.706	6745.22
874.025	6708.38
874.344	6723.52
874.663	6676.52
874.982	6763.97
875.301	6753.35
875.62	6696.63
875.939	6751.09
876.258	6706.12
876.577	6668.16
876.896	6668.16
877.214	6621.61
877.533	6626.35
877.852	6656.86
878.17	6601.04
878.489	6628.16
878.807	6682.62
879.125	6590.42
879.444	6595.84
879.762	6594.49
880.08	6581.38
880.398	6540.25
880.716	6568.05
881.034	6552
881.352	6518.33
881.67	6455.28
881.988	6540.25
882.306	6483.3
882.624	6496.19
882.941	6441.95
883.259	6434.27
883.577	6359.01
883.894	6420.25
884.212	6381.61
884.529	6377.32
884.846	6338.22
885.164	6376.87
885.481	6304.78
885.798	6321.05
886.115	6284.67
886.432	6309.52
886.75	6284.44
887.067	6261.39
887.383	6218.9
887.7	6273.37
888.017	6242.41
888.334	6210.99
888.651	6211.45
888.967	6243.31
889.284	6126.48
889.6	6145.01
889.917	6087.61
890.233	6121.51
890.55	6058.68
890.866	6104.11
891.182	6039.7
891.498	6029.3
891.815	6021.17
892.131	6022.53
892.447	6032.47
892.763	5972.13
893.079	5982.98
893.395	5985.46
893.71	5879.93
894.026	5887.39
894.342	5942.53
894.657	5838.58
894.973	5854.62
895.289	5863.89
895.604	5840.16
895.92	5794.06
896.235	5775.07
896.55	5787.73
896.865	5754.96
897.181	5728.52
897.496	5737.11
897.811	5691.23
898.126	5674.74
898.441	5633.16
898.756	5669.99
899.071	5609.65
899.386	5595.19
899.7	5564.68
900.015	5534.4
900.33	5493.5
900.644	5455.08
900.959	5517.68
901.273	5470
901.588	5462.54
901.902	5479.71
902.216	5427.96
902.531	5379.83
902.845	5430.68
903.159	5308.87
903.473	5365.14
903.787	5327.85
904.101	5288.31
904.415	5316.33
904.729	5287.4
905.042	5192.04
905.356	5253.96
905.67	5179.38
905.984	5196.11
906.297	5199.27
906.611	5149.55
906.924	5128.99
907.237	5172.6
907.551	5112.72
907.864	5108.43
908.177	5048.77
908.491	5041.31
908.804	5042.89
909.117	4939.39
909.43	4966.06
909.743	4960.41
910.056	4977.13
910.368	4945.94
910.681	4910.69
910.994	4874.08
911.307	4880.18
911.619	4840.64
911.932	4868.43
912.244	4788.89
912.557	4779.85
912.869	4793.41
913.181	4741.43
913.494	4785.27
913.806	4733.07
914.118	4719.73
914.43	4668.89
914.742	4667.08
915.054	4620.3
915.366	4642.9
915.678	4628.44
915.99	4591.83
916.302	4553.19
916.613	4548.67
916.925	4550.47
917.236	4575.78
917.548	4514.54
917.859	4524.94
918.171	4480.87
918.482	4461.66
918.794	4414.88
919.105	4434.09
919.416	4409.46
919.727	4399.74
920.038	4394.77
920.349	4347.32
920.66	4363.81
920.971	4322.91
921.282	4324.04
921.593	4279.07
921.903	4247.43
922.214	4249.01
922.525	4246.75
922.835	4201.78
923.146	4181.22
923.456	4216.92
923.767	4139.18
924.077	4195.91
924.387	4208.34
924.697	4129.69
925.008	4124.5
925.318	4121.33
925.628	4095.8
925.938	4061.45
926.248	4039.3
926.558	4061.45
926.867	4035.01
927.177	4026.19
927.487	3964.27
927.796	3969.92
928.106	3992.3
928.416	3955.69
928.725	3928.8
929.034	3937.83
929.344	3893.77
929.653	3913.43
929.962	3868.68
930.271	3858.74
930.581	3838.63
930.89	3855.35
931.199	3802.7
931.508	3804.96
931.817	3786.43
932.125	3767.22
932.434	3757.05
932.743	3745.07
933.051	3710.72
933.36	3645.86
933.669	3691.29
933.977	3682.47
934.286	3662.59
934.594	3664.85
934.902	3657.62
935.21	3609.26
935.519	3619.65
935.827	3602.7
936.135	3552.76
936.443	3562.25
936.751	3550.95
937.059	3513.66
937.367	3495.13
937.674	3506.43
937.982	3480.45
938.29	3450.39
938.597	3468.02
938.905	3401.13
939.213	3414.01
939.52	3389.83
939.827	3377.4
940.135	3397.74
940.442	3399.54
940.749	3358.64
941.056	3341.24
941.363	3289.04
941.67	3323.16
941.977	3308.7
942.284	3301.01
942.591	3273.67
942.898	3253.56
943.205	3276.16
943.511	3242.49
943.818	3204.97
944.125	3219.44
944.431	3205.42
944.738	3201.36
945.044	3165.88
945.35	3102.6
945.657	3138.99
945.963	3124.07
946.269	3110.74
946.575	3098.31
946.881	3093.56
947.187	3077.52
947.493	3043.17
947.799	3050.17
948.105	3039.1
948.41	3047.24
948.716	3016.73
949.022	2989.38
949.327	2980.8
949.633	2979.67
949.938	2944.87
950.244	2965.2
950.549	2949.16
950.854	2932.89
951.16	2911.87
951.465	2936.73
951.77	2879.11
952.075	2875.49
952.38	2880.69
952.685	2859.67
952.99	2855.83
953.294	2845.89
953.599	2840.69
953.904	2808.15
954.209	2790.29
954.513	2779.9
954.818	2785.77
955.122	2787.13
955.426	2760.46
955.731	2758.2
956.035	2758.66
956.339	2731.09
956.643	2730.41
956.948	2706
957.252	2679.34
957.556	2690.18
957.86	2708.04
958.163	2666.23
958.467	2653.35
958.771	2642.73
959.075	2616.74
959.378	2624.42
959.682	2566.34
959.985	2620.35
960.289	2581.94
960.592	2574.03
960.896	2597.76
961.199	2583.97
961.502	2569.06
961.805	2531.77
962.108	2503.3
962.411	2496.97
962.714	2482.05
963.017	2508.27
963.32	2481.83
963.623	2475.05
963.926	2492.22
964.228	2423.75
964.531	2416.74
964.833	2438.21
965.136	2423.98
965.438	2415.39
965.741	2363.41
966.043	2397.54
966.345	2397.08
966.648	2350.53
966.95	2371.32
967.252	2340.14
967.554	2330.19
967.856	2328.16
968.158	2308.05
968.46	2324.77
968.761	2339.01
969.063	2282.51
969.365	2279.12
969.666	2294.49
969.968	2269.86
970.269	2234.15
970.571	2259.01
970.872	2220.14
971.174	2202.74
971.475	2210.2
971.776	2213.36
972.077	2196.41
972.378	2196.19
972.679	2187.15
972.98	2210.2
973.281	2211.1
973.582	2137.2
973.883	2168.84
974.183	2138.11
974.484	2163.19
974.785	2113.25
975.085	2126.36
975.386	2119.58
975.686	2127.03
975.986	2074.38
976.287	2091.78
976.587	2056.75
976.887	2070.99
977.187	2049.3
977.487	2051.33
977.787	2034.83
978.087	2051.78
978.387	2029.18
978.687	2030.54
978.987	2018.79
979.286	1992.12
979.586	1992.8
979.885	1975.85
980.185	1984.21
980.484	1970.2
980.784	1940.82
981.083	1940.82
981.382	1951.45
981.682	1934.27
981.981	1931.79
982.28	1915.97
982.579	1902.63
982.878	1901.05
983.177	1908.28
983.475	1917.77
983.774	1872.8
984.073	1865.12
984.372	1868.74
984.67	1846.82
984.969	1862.86
985.267	1822.86
985.566	1841.17
985.864	1847.49
986.162	1823.31
986.461	1850.66
986.759	1791.22
987.057	1775.18
987.355	1797.1
987.653	1788.29
987.951	1789.87
988.249	1772.24
988.547	1769.76
988.844	1729.76
989.142	1726.82
989.44	1761.62
989.737	1727.27
990.035	1703.09
990.332	1724.33
990.63	1712.58
990.927	1726.59
991.224	1696.31
991.521	1700.15
991.819	1680.04
992.116	1675.52
992.413	1675.29
992.71	1652.24
993.006	1692.47
993.303	1624.45
993.6	1620.38
993.897	1633.94
994.193	1624.45
994.49	1623.54
994.787	1589.87
995.083	1589.42
995.379	1596.2
995.676	1598.69
995.972	1559.14
996.268	1577.44
996.565	1566.15
996.861	1526.37
997.157	1558.91
997.453	1553.26
997.749	1522.08
998.044	1521.85
998.34	1489.54
998.636	1513.04
998.932	1520.27
999.227	1521.4
999.523	1494.73
999.818	1494.28
1000.114	1467.16
1000.409	1487.5
1000.704	1434.85
1001	1471.46
1001.295	1450.89
1001.59	1456.32
1001.885	1432.82
1002.18	1458.58
1002.475	1433.49
1002.77	1406.15
1003.065	1391.91
1003.359	1432.82
1003.654	1398.24
1003.949	1388.52
1004.243	1388.07
1004.538	1372.03
1004.832	1368.86
1005.127	1357.11
1005.421	1346.94
1005.715	1341.07
1006.009	1337.9
1006.304	1347.85
1006.598	1343.1
1006.892	1317.79
1007.186	1311.69
1007.48	1321.63
1007.773	1277.11
1008.067	1304.46
1008.361	1282.76
1008.655	1270.79
1008.948	1270.11
1009.242	1263.1
1009.535	1269.66
1009.829	1249.77
1010.122	1243.89
1010.415	1243.44
1010.708	1238.7
1011.001	1244.12
1011.295	1204.12
1011.588	1222.65
1011.881	1200.51
1012.173	1224.91
1012.466	1188.3
1012.759	1203.44
1013.052	1216.32
1013.344	1165.25
1013.637	1181.3
1013.93	1168.42
1014.222	1146.04
1014.514	1172.26
1014.807	1163.67
1015.099	1140.17
1015.391	1141.98
1015.683	1144.01
1015.976	1112.37
1016.268	1104.01
1016.56	1126.38
1016.851	1132.48
1017.143	1095.2
1017.435	1092.03
1017.727	1079.6
1018.018	1087.97
1018.31	1083.9
1018.602	1085.03
1018.893	1076.89
1019.185	1071.24
1019.476	1047.97
1019.767	1074.18
1020.058	1022.2
1020.35	1022.66
1020.641	1039.15
1020.932	1006.84
1021.223	1006.61
1021.514	1004.58
1021.804	1002.32
1022.095	984.47
1022.386	1009.32
1022.677	989.66
1022.967	1002.77
1023.258	981.75
1023.548	981.75
1023.839	954.86
1024.129	984.24
1024.419	950.34
1024.709	931.81
1025	948.08
1025.29	969.1
1025.58	956.22
1025.87	948.99
1026.16	919.16
1026.449	936.11
1026.739	915.99
1027.029	914.86
1027.319	900.63
1027.608	888.65
1027.898	887.29
1028.187	891.59
1028.477	889.78
1028.766	886.39
1029.055	880.29
1029.344	841.64
1029.634	876.22
1029.923	850.68
1030.212	840.06
1030.501	867.86
1030.79	852.94
1031.078	860.85
1031.367	826.96
1031.656	818.59
1031.945	815.2
1032.233	816.56
1032.522	824.02
1032.81	825.83
1033.099	785.83
1033.387	829.89
1033.675	803.23
1033.963	796.9
1034.251	776.34
1034.54	785.37
1034.828	779.27
1035.116	764.58
1035.403	787.18
1035.691	762.55
1035.979	777.01
1036.267	760.74
1036.554	739.5
1036.842	766.17
1037.129	756
1037.417	754.19
1037.704	728.2
1037.992	718.03
1038.279	741.08
1038.566	732.04
1038.853	732.04
1039.14	732.04
