Data from hue_26_FLMS001491_00100.txt Node
Date: Tue Feb 07 17:14:51 GMT 2017
User: dcchb
Spectrometer: FLMS00149
Trigger mode: 0
Integration Time (sec): 2.000000E-2
Scans to average: 10
Electric dark correction enabled: true
Nonlinearity correction enabled: false
Boxcar width: 0
XAxis mode: Wavelengths
Number of Pixels in Spectrum: 2048
>>>>>Begin Spectral Data<<<<<
341.393	-16.67
341.776	-16.67
342.16	-16.67
342.543	-70.9
342.927	-73.16
343.31	-74.52
343.693	-69.77
344.077	-72.71
344.46	-55.08
344.843	-67.51
345.226	-36.33
345.61	-40.39
345.993	-2.43
346.376	10.9
346.759	10.23
347.142	33.05
347.525	50.68
347.908	42.99
348.291	78.7
348.674	93.61
349.057	98.58
349.44	156.44
349.823	115.31
350.206	189.43
350.588	199.83
350.971	219.26
351.354	262.2
351.737	257.22
352.119	250.22
352.502	277.11
352.884	281.63
353.267	299.26
353.65	306.26
354.032	308.52
354.414	319.6
354.797	320.27
355.179	328.64
355.562	342.42
355.944	329.09
356.326	342.87
356.709	351.23
357.091	342.19
357.473	372.02
357.855	359.37
358.238	381.52
358.62	355.75
359.002	357.11
359.384	365.24
359.766	372.02
360.148	358.92
360.53	372.25
360.912	357.11
361.294	350.33
361.676	346.04
362.057	336.09
362.439	349.65
362.821	325.47
363.203	352.59
363.584	366.37
363.966	347.84
364.348	372.25
364.729	352.82
365.111	341.06
365.493	353.04
365.874	331.57
366.256	339.48
366.637	341.74
367.019	340.84
367.4	341.74
367.781	342.19
368.163	320.95
368.544	320.5
368.925	337
369.306	336.32
369.688	333.16
370.069	339.03
370.45	346.49
370.831	353.27
371.212	329.31
371.593	348.75
371.974	328.64
372.355	360.5
372.736	340.61
373.117	344.91
373.498	355.3
373.879	353.27
374.26	350.33
374.641	329.77
375.021	348.97
375.402	329.77
375.783	337.22
376.163	357.11
376.544	362.98
376.925	341.74
377.305	365.47
377.686	352.14
378.066	357.11
378.447	347.39
378.827	337
379.208	351.91
379.588	358.24
379.968	384.68
380.349	361.4
380.729	346.71
381.109	373.38
381.489	369.76
381.87	358.69
382.25	370.67
382.63	369.76
383.01	384
383.39	374.06
383.77	358.69
384.15	384.45
384.53	392.81
384.91	368.18
385.29	374.28
385.67	377.67
386.049	403.66
386.429	390.1
386.809	386.49
387.189	388.07
387.568	391.23
387.948	409.99
388.328	397.56
388.707	405.02
389.087	414.28
389.466	409.99
389.846	409.31
390.225	393.49
390.605	399.14
390.984	412.25
391.363	428.97
391.743	405.24
392.122	416.54
392.501	424.9
392.881	427.84
393.26	423.55
393.639	431.01
394.018	443.21
394.397	442.3
394.776	438.46
395.155	425.58
395.534	481.17
395.913	427.84
396.292	437.56
396.671	461.97
397.05	445.02
397.429	416.99
397.808	427.84
398.186	441.85
398.565	455.19
398.944	434.85
399.323	458.12
399.701	449.54
400.08	429.2
400.458	454.96
400.837	469.65
401.215	496.77
401.594	483.89
401.972	488.41
402.351	462.42
402.729	484.34
403.107	488.41
403.486	483.21
403.864	470.1
404.242	493.38
404.62	493.38
404.999	507.39
405.377	485.02
405.755	498.8
406.133	503.32
406.511	503.09
406.889	523.66
407.267	511.46
407.645	509.42
408.023	539.03
408.401	550.32
408.779	528.86
409.156	571.57
409.534	553.94
409.912	526.14
410.29	535.41
410.667	560.95
411.045	573.15
411.422	573.15
411.8	565.01
412.178	580.61
412.555	593.94
412.933	573.37
413.31	565.24
413.687	586.93
414.065	599.36
414.442	602.98
414.819	592.13
415.197	616.99
415.574	609.31
415.951	620.15
416.328	628.29
416.705	616.09
417.082	617.89
417.46	626.03
417.837	645.46
418.214	637.78
418.591	631
418.967	656.54
419.344	654.5
419.721	662.41
420.098	642.75
420.475	663.77
420.852	671.23
421.228	686.82
421.605	682.07
421.982	689.98
422.358	695.41
422.735	694.05
423.111	694.95
423.488	708.29
423.864	714.61
424.241	728.62
424.617	723.2
424.994	698.34
425.37	712.81
425.746	725.01
426.123	739.92
426.499	789.19
426.875	764.33
427.251	782.63
427.627	776.08
428.003	788.06
428.379	779.02
428.756	767.72
429.132	785.8
429.507	827.38
429.883	810.66
430.259	845.46
430.635	828.96
431.011	812.92
431.387	843.42
431.763	849.07
432.138	878.9
432.514	877.55
432.89	884.55
433.265	895.85
433.641	906.25
434.016	883.2
434.392	942.86
434.767	939.24
435.143	927.04
435.518	964.32
435.894	943.76
436.269	933.59
436.644	979.01
437.02	970.65
437.395	962.29
437.77	983.53
438.145	997.54
438.52	1004.78
438.895	1009.97
439.271	1005.23
439.646	1028.05
440.021	1028.5
440.395	1038.22
440.77	1040.71
441.145	1084.55
441.52	1067.37
441.895	1067.83
442.27	1095.17
442.645	1100.59
443.019	1087.03
443.394	1104.21
443.769	1127.03
444.143	1102.85
444.518	1132.91
444.892	1105.79
445.267	1122.06
445.641	1147.82
446.016	1137.65
446.39	1145.11
446.764	1160.25
447.139	1130.2
447.513	1179.69
447.887	1165.9
448.262	1197.31
448.636	1190.53
449.01	1175.62
449.384	1197.31
449.758	1204.32
450.132	1232.11
450.506	1231.44
450.88	1265.79
451.254	1236.41
451.628	1283.19
452.002	1273.92
452.376	1296.29
452.75	1287.03
453.123	1291.77
453.497	1301.49
453.871	1338.78
454.244	1348.04
454.618	1373.13
454.992	1358.44
455.365	1382.39
455.739	1416.29
456.112	1423.52
456.486	1435.72
456.859	1459
457.232	1482.73
457.606	1500.58
457.979	1480.92
458.352	1511.43
458.725	1557.3
459.099	1559.79
459.472	1599.34
459.845	1579
460.218	1608.15
460.591	1630.52
460.964	1640.47
461.337	1633.23
461.71	1651.76
462.083	1690.18
462.456	1695.61
462.829	1705.55
463.201	1758.88
463.574	1758.2
463.947	1772.44
464.32	1820.12
464.692	1807.92
465.065	1844.3
465.438	1875.26
465.81	1905.32
466.183	1901.25
466.555	1960.46
466.928	1962.72
467.3	1976.28
467.672	2033.22
468.045	2066.44
468.417	2045.2
468.789	2054.24
469.161	2111.64
469.534	2131.75
469.906	2186.21
470.278	2216.95
470.65	2235.48
471.022	2278.87
471.394	2301.46
471.766	2344.63
472.138	2383.72
472.51	2452.2
472.882	2450.16
473.253	2490.39
473.625	2515.24
473.997	2543.49
474.369	2622.81
474.74	2669.14
475.112	2684.28
475.484	2755.69
475.855	2754.33
476.227	2797.05
476.598	2921.34
476.97	2928.57
477.341	3000.66
477.713	3045.63
478.084	3050.37
478.455	3133.53
478.827	3179.41
479.198	3289.01
479.569	3323.36
479.94	3452.85
480.311	3453.53
480.682	3579.85
481.053	3611.49
481.424	3656.01
481.795	3706.85
482.166	3780.52
482.537	3875.66
482.908	3906.62
483.279	3947.75
483.65	4069.1
484.021	4139.38
484.391	4241.53
484.762	4248.76
485.133	4327.85
485.503	4382.09
485.874	4494.4
486.244	4528.07
486.615	4615.98
486.985	4674.28
487.356	4808.97
487.726	4865.47
488.097	4921.51
488.467	4982.98
488.837	5089.87
489.207	5160.6
489.578	5263.19
489.948	5311.56
490.318	5416.86
490.688	5441.27
491.058	5541.61
491.428	5638.33
491.798	5674.03
492.168	5831.32
492.538	5837.19
492.908	5909.28
493.278	6006.23
493.648	6011.65
494.017	6159.22
494.387	6149.05
494.757	6265.88
495.126	6336.16
495.496	6333.22
495.866	6455.48
496.235	6481.24
496.605	6600.56
496.974	6608.47
497.344	6694.57
497.713	6759.2
498.082	6782.03
498.452	6860.89
498.821	6897.5
499.19	6926.43
499.559	7010.49
499.928	7046.65
500.298	7095.92
500.667	7245.06
501.036	7200.55
501.405	7291.62
501.774	7316.02
502.143	7349.47
502.512	7367.55
502.88	7453.19
503.249	7554.89
503.618	7502.46
503.987	7586.07
504.356	7725.05
504.724	7657.93
505.093	7702.23
505.462	7728.21
505.83	7864.71
506.199	7906.29
506.567	7957.81
506.936	7965.5
507.304	8081.43
507.672	8083.91
508.041	8097.02
508.409	8239.39
508.777	8183.8
509.145	8260.86
509.514	8308.54
509.882	8342.44
510.25	8348.09
510.618	8398.48
510.986	8424.47
511.354	8548.31
511.722	8574.97
512.09	8654.29
512.458	8676.21
512.826	8711.24
513.193	8746.95
513.561	8789.88
513.929	8833.04
514.297	8875.08
514.664	9035.75
515.032	8994.62
515.4	9015.64
515.767	9012.25
516.135	9135.64
516.502	9080.27
516.869	9262.64
517.237	9207.27
517.604	9223.77
517.972	9239.14
518.339	9354.39
518.706	9367.49
519.073	9393.48
519.44	9518.9
519.808	9501.05
520.175	9553.48
520.542	9594.83
520.909	9661.5
521.276	9748.05
521.643	9783.53
522.009	9850.87
522.376	9919.57
522.743	9925.22
523.11	9971.55
523.477	10121.82
523.843	10195.04
524.21	10240.24
524.577	10330.63
524.943	10355.04
525.31	10348.94
525.676	10476.84
526.043	10516.39
526.409	10589.38
526.776	10726.1
527.142	10671.19
527.508	10673.67
527.874	10818.08
528.241	10840.45
528.607	10944.85
528.973	10984.63
529.339	10941.01
529.705	11138.07
530.071	11229.14
530.437	11201.8
530.803	11279.53
531.169	11322.7
531.535	11380.77
531.901	11407.67
532.267	11431.85
532.632	11517.49
532.998	11566.31
533.364	11679.07
533.73	11679.98
534.095	11711.39
534.461	11777.83
534.826	11777.15
535.192	11974.2
535.557	12034.32
535.923	11980.53
536.288	12069.57
536.653	12165.16
537.019	12048.78
537.384	12170.36
537.749	12209.23
538.114	12264.14
538.479	12286.29
538.845	12391.6
539.21	12400.63
539.575	12491.03
539.94	12521.99
540.305	12650.35
540.67	12639.05
541.034	12661.87
541.399	12713.39
541.764	12736.67
542.129	12758.14
542.494	12841.07
542.858	12941.64
543.223	12958.59
543.587	13001.97
543.952	13027.06
544.316	13102.54
544.681	13101.86
545.045	13221.4
545.41	13234.06
545.774	13320.61
546.138	13382.53
546.503	13472.92
546.867	13468.4
547.231	13544.11
547.595	13625.91
547.959	13653.71
548.324	13719.7
548.688	13713.37
549.052	13753.59
549.416	13807.38
549.779	13796.3
550.143	13878.11
550.507	13993.13
550.871	14066.81
551.235	13969.63
551.599	14089.63
551.962	14128.95
552.326	14158.1
552.689	14264.09
553.053	14216.63
553.417	14235.16
553.78	14438.55
554.143	14434.25
554.507	14455.95
554.87	14483.74
555.234	14662.5
555.597	14623.63
555.96	14602.16
556.323	14811.19
556.686	14723.06
557.05	14770.74
557.413	14849.38
557.776	14932.77
558.139	15034.46
558.502	15032.88
558.865	15058.87
559.228	15202.59
559.59	15175.02
559.953	15142.03
560.316	15401.23
560.679	15469.48
561.041	15425.19
561.404	15515.35
561.767	15669.25
562.129	15617.5
562.492	15647.78
562.854	15685.07
563.217	15669.7
563.579	15774.56
563.941	15911.5
564.304	15953.08
564.666	16070.59
565.028	16110.37
565.39	16095.68
565.753	16162.8
566.115	16279.63
566.477	16331.83
566.839	16350.81
567.201	16487.76
567.563	16498.83
567.925	16658.6
568.287	16581.09
568.648	16647.98
569.01	16775.43
569.372	16826.96
569.734	16834.87
570.095	16958.03
570.457	17018.82
570.819	17125.48
571.18	17077.35
571.542	17266.27
571.903	17308.53
572.265	17365.93
572.626	17456.32
572.987	17458.58
573.349	17550.56
573.71	17600.5
574.071	17813.15
574.432	17856.54
574.794	18060.15
575.155	18004.78
575.516	18073.48
575.877	18197.09
576.238	18295.39
576.599	18362.96
576.96	18506.91
577.32	18601.15
577.681	18717.53
578.042	18852.89
578.403	19016.28
578.763	19026
579.124	19305.76
579.485	19397.74
579.845	19574.68
580.206	19758.86
580.566	19904.39
580.927	20040.66
581.287	20244.27
581.648	20304.61
582.008	20641.55
582.368	20819.85
582.728	20923.35
583.089	21088.32
583.449	21320.17
583.809	21671.8
584.169	21945.69
584.529	22043.09
584.889	22396.08
585.249	22580.93
585.609	22770.31
585.969	23145.44
586.329	23310.4
586.688	23610.06
587.048	23831.75
587.408	24132.76
587.768	24384.05
588.127	24704.27
588.487	25037.14
588.846	25407.3
589.206	25563.23
589.565	25957.57
589.925	26436.65
590.284	26616.08
590.643	27061.49
591.003	27419.22
591.362	27791.87
591.721	28133.1
592.08	28518.63
592.44	28917.49
592.799	29204.49
593.158	29517.7
593.517	29929.67
593.876	30374.4
594.235	30598.57
594.593	30918.11
594.952	31517.65
595.311	31735.49
595.67	32243.05
596.029	32750.16
596.387	33091.62
596.746	33488.89
597.104	33697.48
597.463	34102.44
597.822	34597.34
598.18	34831.46
598.538	35097.21
598.897	35779
599.255	35834.37
599.613	36611.52
599.972	36882.02
600.33	37311.84
600.688	37414.44
601.046	37947.76
601.404	38411.48
601.762	38656.89
602.12	39121.97
602.478	39448.96
602.836	39740.71
603.194	39940.02
603.552	40353.12
603.91	40569.84
604.268	41062.71
604.625	41253.44
604.983	41650.03
605.341	41919.18
605.698	42262.67
606.056	42620.4
606.413	42737.46
606.771	43293.61
607.128	43515.3
607.485	43665.12
607.843	43972.01
608.2	44515.95
608.557	44753
608.914	45010.85
609.272	45431.63
609.629	45639.53
609.986	45817.61
610.343	45933.99
610.7	46448.55
611.057	46634.76
611.414	46618.72
611.771	46988.88
612.127	47368.3
612.484	47428.41
612.841	47751.12
613.198	47790.44
613.554	47916.54
613.911	48341.84
614.267	48471.78
614.624	48469.29
614.98	48824.08
615.337	49159.22
615.693	49140.01
616.05	49262.04
616.406	49641.69
616.762	49661.8
617.118	49684.17
617.475	49827.67
617.831	50005.07
618.187	50242.13
618.543	50232.86
618.899	50438.05
619.255	50610.7
619.611	50558.95
619.967	50870.13
620.323	51099.96
620.678	51003.24
621.034	51020.18
621.39	51081.65
621.746	51228.99
622.101	51677.57
622.457	51376.78
622.812	51644.35
623.168	51717.57
623.523	51732.48
623.879	51893.38
624.234	51923.44
624.589	51885.47
624.945	51967.05
625.3	52079.82
625.655	52167.05
626.01	52210.89
626.365	52254.28
626.72	52283.43
627.075	52252.92
627.43	52341.51
627.785	52408.17
628.14	52511.44
628.495	52538.79
628.85	52620.59
629.205	52539.01
629.559	52744.66
629.914	52666.02
630.269	52706.47
630.623	52638.22
630.978	52652.01
631.332	52729.97
631.687	52799.57
632.041	52740.14
632.396	52867.59
632.75	52677.09
633.104	52783.75
633.459	52714.15
633.813	52721.61
634.167	52876.86
634.521	52746.92
634.875	52762.96
635.229	52819.91
635.583	52740.36
635.937	52777.43
636.291	52677.32
636.645	52781.95
636.999	52769.29
637.352	52887.93
637.706	52632.12
638.06	52809.74
638.413	52764.09
638.767	52760.25
639.121	52717.31
639.474	52609.75
639.828	52667.6
640.181	52727.03
640.534	52715.96
640.888	52652.46
641.241	52518.22
641.594	52687.26
641.947	52697.88
642.301	52718.9
642.654	52543.08
643.007	52614.72
643.36	52656.53
643.713	52562.74
644.066	52686.35
644.419	52557.32
644.771	52417.66
645.124	52027.62
645.477	51864.68
645.83	51665.36
646.182	51753.72
646.535	51592.6
646.888	51682.99
647.24	51560.51
647.593	51788.98
647.945	51636.89
648.298	51486.16
648.65	51571.36
649.002	51374.07
649.355	51598.93
649.707	51464.24
650.059	51708.53
650.411	52118.01
650.763	51966.15
651.115	52393.71
651.467	52279.13
651.819	52258.34
652.171	52282.75
652.523	52153.26
652.875	52194.62
653.227	52039.14
653.578	52211.34
653.93	52173.15
654.282	52033.49
654.633	52008.63
654.985	52057.67
655.337	52148.52
655.688	52178.12
656.039	52139.48
656.391	51938.8
656.742	51912.14
657.094	51875.53
657.445	52085.47
657.796	52089.99
658.147	51928.41
658.498	51972.7
658.849	51998.69
659.2	51957.33
659.551	51890.9
659.902	52008.41
660.253	51911.23
660.604	51991.91
660.955	51712.6
661.306	51910.78
661.656	51790.11
662.007	51916.66
662.358	51886.83
662.708	51887.73
663.059	51874.17
663.409	51703.1
663.76	51980.61
664.11	51937.22
664.461	51969.54
664.811	52003.21
665.161	51899.48
665.511	51878.24
665.862	51779.03
666.212	51857.9
666.562	51903.32
666.912	51808.41
667.262	51822.87
667.612	51849.31
667.962	51832.82
668.312	51796.89
668.662	51990.33
669.011	51711.69
669.361	51660.85
669.711	51709.66
670.06	51690
670.41	51622.2
670.76	51621.75
671.109	51702.43
671.459	51684.8
671.808	51560.96
672.157	51653.16
672.507	51378.59
672.856	51499.49
673.205	51488.42
673.554	51630.79
673.904	51444.13
674.253	51686.16
674.602	51633.5
674.951	51148.77
675.3	50933.18
675.649	51446.39
675.998	51475.09
676.346	51542.66
676.695	51608.19
677.044	51339.72
677.393	51460.85
677.741	51437.8
678.09	51430.34
678.438	51227.41
678.787	51299.27
679.135	51350.34
679.484	51048.88
679.832	51239.84
680.181	51051.14
680.529	51052.27
680.877	51047.53
681.225	50945.16
681.573	51236.45
681.922	50926.4
682.27	50777.03
682.618	50864.93
682.966	50691.15
683.314	50774.31
683.661	50725.95
684.009	50603.25
684.357	50544.26
684.705	50412.97
685.053	50446.64
685.4	50485.06
685.748	50346.08
686.095	50269.7
686.443	50195.12
686.79	50074.67
687.138	50097.72
687.485	50214.1
687.832	50012.3
688.18	50045.52
688.527	49942.47
688.874	49818.63
689.221	49787
689.568	49575.25
689.915	49593.78
690.262	49634.91
690.609	49521.24
690.956	49371.87
691.303	49348.14
691.65	49161.48
691.997	49204.19
692.344	48921.93
692.69	48899.34
693.037	48890.07
693.383	48664.54
693.73	48770.07
694.077	48559.46
694.423	48542.28
694.769	48363.76
695.116	48317.43
695.462	48101.84
695.808	48221.84
696.155	48138
696.501	47848.06
696.847	47917.44
697.193	47665.92
697.539	47707.5
697.885	47514.06
698.231	47384.35
698.577	47425.7
698.923	47411.47
699.269	47226.84
699.614	47112.04
699.96	46879.28
700.306	46996.33
700.651	46853.97
700.997	46587.98
701.342	46617.14
701.688	46569.45
702.033	46415.33
702.379	46354.09
702.724	46329.91
703.069	46345.28
703.415	45987.55
703.76	45987.1
704.105	45861.22
704.45	45866.65
704.795	45606.31
705.14	45484.96
705.485	45467.56
705.83	45260.34
706.175	45336.49
706.52	45273.89
706.865	45101.47
707.209	45140.56
707.554	44884.98
707.899	44888.82
708.243	44690.86
708.588	44685.66
708.932	44356.4
709.277	44415.84
709.621	44354.14
709.966	44137.2
710.31	44269.63
710.654	43954.16
710.998	43973.14
711.342	44001.84
711.687	43827.6
712.031	43694.95
712.375	43611.79
712.719	43644.33
713.063	43626.03
713.407	43671.45
713.75	43314.85
714.094	43465.35
714.438	43148.98
714.782	43341.06
715.125	43073.5
715.469	43051.81
715.812	42922.32
716.156	42699.5
716.499	42876.22
716.843	42751.7
717.186	42455.21
717.53	42836.9
717.873	42591.25
718.216	42577.47
718.559	42430.58
718.902	42090.93
719.246	42258.83
719.589	42051.61
719.932	41964.15
720.275	42060.19
720.617	41874.44
720.96	41853.87
721.303	41822.23
721.646	41958.05
721.989	41492.75
722.331	41667.66
722.674	41660.43
723.016	41620.21
723.359	41459.53
723.701	41601.45
724.044	41202.81
724.386	41206.88
724.729	41264.28
725.071	41157.84
725.413	41061.12
725.755	41050.5
726.097	40897.51
726.439	40771.41
726.782	40705.88
727.124	40839.43
727.465	40566.9
727.807	40566.9
728.149	40367.81
728.491	40335.72
728.833	40505.43
729.175	40416.62
729.516	40235.83
729.858	40187.02
730.199	40227.93
730.541	40226.8
730.882	40088.72
731.224	40192.22
731.565	39899.8
731.906	40046.91
732.248	40001.26
732.589	39830.2
732.93	39688.28
733.271	39548.4
733.612	39804.66
733.953	39657.77
734.294	39507.94
734.635	39440.15
734.976	39498.45
735.317	39434.73
735.658	39337.1
735.999	39296.42
736.339	39241.51
736.68	39383.43
737.021	39255.52
737.361	38952.93
737.702	39187.95
738.042	38948.18
738.383	39009.88
738.723	38968.52
739.063	38759.94
739.404	38745.48
739.744	38721.07
740.084	38561.3
740.424	38707.51
740.764	38597.91
741.104	38694.41
741.444	38472.94
741.784	38337.81
742.124	38320.63
742.464	38321.53
742.804	38219.62
743.143	38186.17
743.483	38086.29
743.823	37999.74
744.162	37908.44
744.502	38116.79
744.841	37845.62
745.181	38110.01
745.52	37854.88
745.86	37933.52
746.199	37816.24
746.538	37690.59
746.877	37732.4
747.216	37701.44
747.556	37691.04
747.895	37693.08
748.234	37438.39
748.573	37493.53
748.911	37392.52
749.25	37227.78
749.589	37138.52
749.928	37261
750.267	37338.06
750.605	37166.31
750.944	37014
751.283	36878.41
751.621	36956.15
751.96	36839.54
752.298	36812.65
752.636	36814.46
752.975	36548.02
753.313	36508.25
753.651	36555.03
753.989	36465.76
754.327	36313.68
754.666	36094.93
755.004	36276.62
755.342	36287.92
755.679	36138.77
756.017	35910.07
756.355	35930.86
756.693	35898.32
757.031	35912.11
757.368	35658.78
757.706	35623.07
758.044	35580.36
758.381	35511.67
758.719	35405.68
759.056	35250.2
759.394	35202.75
759.731	35111.22
760.068	35089.53
760.405	34965.01
760.743	34974.28
761.08	34942.41
761.417	34681.18
761.754	34751.46
762.091	34563.67
762.428	34481.18
762.765	34383.79
763.102	34361.64
763.438	34064.7
763.775	34148.76
764.112	34113.51
764.449	34051.36
764.785	33817.47
765.122	33705.38
765.458	33446.86
765.795	33591.26
766.131	33553.07
766.467	33401.44
766.804	33225.17
767.14	33025.85
767.476	32946.76
767.812	32809.14
768.148	32886.88
768.485	32695.92
768.821	32514.46
769.157	32449.37
769.492	32346.32
769.828	32278.3
770.164	32034.24
770.5	31960.35
770.836	31904.53
771.171	31817.07
771.507	31608.72
771.842	31489.17
772.178	31459.57
772.513	31423.41
772.849	31345.45
773.184	31146.13
773.519	31190.2
773.855	30948.17
774.19	30853.93
774.525	30710.44
774.86	30721.96
775.195	30703.2
775.53	30453.72
775.865	30486.94
776.2	30198.13
776.535	30029.55
776.87	29912.26
777.205	29907.29
777.539	29795.66
777.874	29958.59
778.209	29578.49
778.543	29581.88
778.878	29386.85
779.212	29236.8
779.547	29162.23
779.881	29271.15
780.215	28936.24
780.55	29026.41
780.884	28823.25
781.218	28872.97
781.552	28734.44
781.886	28564.5
782.22	28304.62
782.554	28296.04
782.888	28034.12
783.222	27871.41
783.556	27849.49
783.889	27921.36
784.223	27648.37
784.557	27641.59
784.89	27605.43
785.224	27341.94
785.557	27302.62
785.891	27160.02
786.224	27202.96
786.558	27175.39
786.891	26925.68
787.224	26772.23
787.557	26652.01
787.891	26739.92
788.224	26607.72
788.557	26614.05
788.89	26497.89
789.223	26496.76
789.556	26315.07
789.888	26198.24
790.221	26011.8
790.554	25976.55
790.887	25860.17
791.219	25775.42
791.552	25726.61
791.884	25563.23
792.217	25530.68
792.549	25451.59
792.882	25342.67
793.214	25190.58
793.546	25298.6
793.879	25158.04
794.211	24964.15
794.543	25006.86
794.875	24828.78
795.207	25007.31
795.539	24710.82
795.871	24772.74
796.203	24498.62
796.535	24382.47
796.867	24325.52
797.198	24286.88
797.53	24275.12
797.862	24001.23
798.193	24181.57
798.525	23989.03
798.856	24022.48
799.188	23798.75
799.519	23748.81
799.85	23622.71
800.182	23623.39
800.513	23607.8
800.844	23333.91
801.175	23483.51
801.506	23394.24
801.837	23283.29
802.168	23220.46
802.499	23229.5
802.83	22980.7
803.161	22964.42
803.491	22874.26
803.822	22881.49
804.153	22764.88
804.483	22664.09
804.814	22528.5
805.145	22551.55
805.475	22533.25
805.805	22420.26
806.136	22347.94
806.466	22369.64
806.796	22304.78
807.126	22124.9
807.457	22080.38
807.787	22070.89
808.117	21999.48
808.447	21858.24
808.777	21982.53
809.107	21716.55
809.436	21721.97
809.766	21705.02
810.096	21584.35
810.426	21591.13
810.755	21531.24
811.085	21439.72
811.414	21518.81
811.744	21323.79
812.073	21226.62
812.403	21259.16
812.732	21118.37
813.061	21103.46
813.39	20917.25
813.719	21019.62
814.049	21017.58
814.378	20975.1
814.707	20797.25
815.036	20832.28
815.365	20662.79
815.693	20495.56
816.022	20532.17
816.351	20488.11
816.68	20378.5
817.008	20406.75
817.337	20277.26
817.665	20244.27
817.994	20277.72
818.322	20291.5
818.651	20230.49
818.979	20108
819.307	20136.7
819.636	19990.27
819.964	19888.12
820.292	20090.15
820.62	19894.9
820.948	19852.87
821.276	19890.61
821.604	19806.09
821.932	19863.04
822.259	19947.55
822.587	19876.14
822.915	19823.04
823.243	19952.53
823.57	19814.45
823.898	19868.91
824.225	19846.54
824.553	19817.61
824.88	19889.7
825.207	19822.59
825.535	19856.94
825.862	19807.22
826.189	19715.92
826.516	19809.03
826.843	19821.23
827.17	19896.71
827.497	19910.04
827.824	19824.17
828.151	19868.01
828.478	19742.59
828.805	19818.07
829.131	19735.81
829.458	19771.74
829.785	19617.62
830.111	19583.5
830.438	19764.96
830.764	19881.34
831.09	19847.44
831.417	19625.98
831.743	19849.93
832.069	19633.89
832.395	19601.8
832.722	19710.72
833.048	19559.09
833.374	19698.97
833.7	19447.68
834.026	19569.71
834.351	19552.99
834.677	19516.15
835.003	19539.66
835.329	19468.25
835.654	19400.9
835.98	19379.21
836.306	19324.07
836.631	19357.97
836.956	19371.98
837.282	19374.46
837.607	19201.81
837.932	19293.79
838.258	19214.01
838.583	19225.99
838.908	19064.64
839.233	19141.02
839.558	19112.55
839.883	19063.51
840.208	18956.62
840.533	19007.01
840.858	19010.63
841.182	18901.93
841.507	19000.23
841.832	18827.36
842.156	18755.04
842.481	18754.59
842.805	18767.92
843.13	18684.31
843.454	18708.72
843.778	18673.92
844.103	18562.28
844.427	18599.57
844.751	18527.25
845.075	18391.44
845.399	18385.56
845.723	18339.24
846.047	18322.74
846.371	18134.49
846.695	18139.69
847.019	17974.5
847.343	17930.88
847.666	17879.59
847.99	17695.86
848.313	17684.56
848.637	17694.96
848.96	17557.79
849.284	17636.2
849.607	17414.97
849.931	17425.81
850.254	17273.05
850.577	17174.97
850.9	17073.05
851.223	17073.51
851.546	16942.21
851.869	16747.86
852.192	16975.43
852.515	16735.21
852.838	16689.79
853.161	16730.92
853.483	16638.49
853.806	16503.35
854.129	16473.07
854.451	16457.25
854.774	16418.83
855.096	16410.7
855.419	16348.55
855.741	16195.11
856.063	16052.29
856.385	16171.38
856.708	16060.43
857.03	16079.18
857.352	15942.01
857.674	15933.65
857.996	15866.08
858.318	15782.92
858.64	15850.49
858.961	15717.38
859.283	15739.3
859.605	15656.14
859.926	15724.16
860.248	15585.64
860.57	15563.04
860.891	15570.04
861.212	15466.99
861.534	15404.85
861.855	15361.01
862.176	15354.68
862.498	15326.89
862.819	15447.79
863.14	15347.45
863.461	15360.56
863.782	15153.1
864.103	15251.86
864.424	15193.56
864.745	15156.49
865.065	15084.63
865.386	15011.19
865.707	15008.02
866.027	15024.29
866.348	14958.53
866.668	15026.1
866.989	14937.97
867.309	14844.41
867.63	14805.09
867.95	14796.05
868.27	14649.84
868.59	14758.99
868.91	14755.6
869.23	14675.15
869.55	14661.59
869.87	14682.61
870.19	14629.28
870.51	14661.14
870.83	14605.32
871.15	14513.35
871.469	14549.96
871.789	14563.97
872.109	14457.98
872.428	14362.84
872.748	14385.89
873.067	14379.11
873.386	14451.88
873.706	14500.92
874.025	14307.02
874.344	14220.47
874.663	14302.05
874.982	14264.99
875.301	14252.11
875.62	14200.36
875.939	14198.78
876.258	14261.83
876.577	14156.75
876.896	14125.56
877.214	14035.62
877.533	14129.4
877.852	14135.28
878.17	14081.27
878.489	14043.98
878.807	14089.4
879.125	13994.94
879.444	14000.14
879.762	13911.1
880.08	13989.52
880.398	13872.69
880.716	13882.86
881.034	13933.48
881.352	13862.74
881.67	13782.29
881.988	13801.73
882.306	13760.6
882.624	13704.1
882.941	13637.44
883.259	13603.99
883.577	13627.04
883.894	13559.47
884.212	13543.43
884.529	13491.91
884.846	13543.43
885.164	13501.62
885.481	13444.67
885.798	13408.29
886.115	13351.57
886.432	13300.5
886.75	13251.01
887.067	13268.41
887.383	13154.06
887.7	13182.31
888.017	13108.86
888.334	13143.67
888.651	13098.7
888.967	13130.78
889.284	12968.76
889.6	12980.05
889.917	12863.67
890.233	12928.76
890.55	12866.38
890.866	12906.61
891.182	12799.72
891.498	12756.33
891.815	12688.31
892.131	12668.88
892.447	12648.09
892.763	12540.74
893.079	12571.03
893.395	12555.21
893.71	12473.4
894.026	12440.86
894.342	12479.73
894.657	12328.32
894.973	12293.07
895.289	12320.18
895.604	12299.85
895.92	12192.05
896.235	12096.46
896.55	12078.16
896.865	12038.61
897.181	12062.79
897.496	12047.88
897.811	11955.9
898.126	11978.27
898.441	11910.93
898.756	11830.71
899.071	11755
899.386	11693.99
899.7	11668.22
900.015	11652.41
900.33	11597.27
900.644	11606.08
900.959	11531.96
901.273	11468.23
901.588	11476.36
901.902	11379.19
902.216	11331.28
902.531	11305.97
902.845	11292.64
903.159	11203.38
903.473	11156.15
903.787	11162.47
904.101	11146.2
904.415	11047.9
904.729	11070.05
905.042	11001.35
905.356	10971.52
905.67	10916.38
905.984	10967.9
906.297	10892.88
906.611	10743.95
906.924	10736.95
907.237	10709.83
907.551	10720
907.864	10645.88
908.177	10614.69
908.491	10592.77
908.804	10532.66
909.117	10487.46
909.43	10372.21
909.743	10284.31
910.056	10283.63
910.368	10277.98
910.681	10287.24
910.994	10221.93
911.307	10197.53
911.619	10179
911.932	10096.74
912.244	10034.14
912.557	10029.62
912.869	9993.92
913.181	9871.44
913.494	9949.85
913.806	9875.96
914.118	9838.44
914.43	9724.55
914.742	9756.41
915.054	9679.12
915.366	9610.88
915.678	9658.33
915.99	9535.85
916.302	9541.5
916.613	9426.93
916.925	9460.15
917.236	9434.61
917.548	9356.87
917.859	9401.17
918.171	9283.43
918.482	9229.42
918.794	9149.19
919.105	9171.11
919.416	9121.4
919.727	9094.73
920.038	9064.22
920.349	8957.79
920.66	8911.46
920.971	8902.87
921.282	8908.52
921.593	8824.01
921.903	8792.37
922.214	8768.87
922.525	8798.92
922.835	8731.13
923.146	8601.64
923.456	8630.34
923.767	8621.07
924.077	8604.8
924.387	8544.01
924.697	8481.87
925.008	8452.94
925.318	8471.7
925.628	8376.56
925.938	8353.96
926.248	8251.14
926.558	8285.26
926.867	8234.19
927.177	8221.76
927.487	8171.37
927.796	8082.56
928.106	8066.74
928.416	8038.04
928.725	8023.12
929.034	7949.68
929.344	7989.22
929.653	7991.48
929.962	7917.14
930.271	7811.83
930.581	7857.25
930.89	7805.95
931.199	7737.71
931.508	7733.64
931.817	7656.8
932.125	7682.57
932.434	7658.61
932.743	7517.6
933.051	7531.61
933.36	7517.15
933.669	7419.07
933.977	7373.42
934.286	7353.54
934.594	7353.31
934.902	7262.69
935.21	7318.28
935.519	7283.25
935.827	7214.33
936.135	7130.26
936.443	7146.08
936.751	7079.19
937.059	7107.44
937.367	7043.94
937.674	7014.11
937.982	7083.71
938.29	7019.31
938.597	7024.5
938.905	6896.15
939.213	6886.66
939.52	6845.98
939.827	6836.49
940.135	6818.86
940.442	6746.55
940.749	6718.07
941.056	6691.41
941.363	6636.04
941.67	6673.78
941.977	6559.88
942.284	6577.06
942.591	6533.22
942.898	6510.17
943.205	6523.05
943.511	6476.72
943.818	6417.74
944.125	6401.24
944.431	6426.1
944.738	6342.26
945.044	6303.85
945.35	6301.81
945.657	6255.71
945.963	6253.68
946.269	6197.86
946.575	6203.28
946.881	6133.68
947.187	6154.92
947.493	6091.2
947.799	6089.84
948.105	6083.29
948.41	6022.5
948.716	6031.99
949.022	5939.56
949.327	5976.4
949.633	5900.47
949.938	5911.99
950.244	5895.04
950.549	5881.71
950.854	5822.05
951.16	5822.28
951.465	5803.29
951.77	5756.06
952.075	5744.09
952.38	5716.29
952.685	5677.2
952.99	5697.08
953.294	5611.21
953.599	5528.72
953.904	5566.46
954.209	5529.4
954.513	5540.25
954.818	5469.07
955.122	5530.31
955.426	5461.16
955.731	5442.63
956.035	5398.78
956.339	5323.31
956.643	5354.04
956.948	5293.93
957.252	5296.41
957.556	5236.08
957.86	5218
958.163	5277.88
958.467	5226.13
958.771	5173.71
959.075	5106.59
959.378	5121.5
959.682	5138.45
959.985	5064.1
960.289	5074.05
960.592	5061.17
960.896	5006.03
961.199	4977.78
961.502	4959.25
961.805	4984.78
962.108	4928.29
962.411	4915.41
962.714	4905.69
963.017	4895.3
963.32	4892.13
963.623	4846.03
963.926	4847.16
964.228	4799.93
964.531	4796.77
964.833	4778.69
965.136	4752.93
965.438	4712.7
965.741	4692.81
966.043	4630.67
966.345	4648.07
966.648	4658.47
966.95	4637.67
967.252	4533.27
967.554	4553.38
967.856	4573.5
968.158	4533.04
968.46	4560.39
968.761	4509.09
969.063	4475.87
969.365	4480.84
969.666	4447.4
969.968	4374.4
970.269	4396.78
970.571	4394.29
970.872	4329.43
971.174	4303.67
971.475	4343.67
971.776	4269.77
972.077	4243.11
972.378	4228.65
972.679	4198.59
972.98	4219.15
973.281	4173.51
973.582	4127.18
973.883	4113.85
974.183	4120.4
974.484	4117.46
974.785	4048.54
975.085	4109.55
975.386	4086.5
975.686	4065.26
975.986	4034.75
976.287	4019.61
976.587	3983
976.887	3912.27
977.187	4007.86
977.487	3920.18
977.787	3938.48
978.087	3893.74
978.387	3854.87
978.687	3868.43
978.987	3838.37
979.286	3836.11
979.586	3844.02
979.885	3778.94
980.185	3766.29
980.484	3750.92
980.784	3751.14
981.083	3712.73
981.382	3664.37
981.682	3699.39
981.981	3673.41
982.28	3693.52
982.579	3630.47
982.878	3634.31
983.177	3627.08
983.475	3547.53
983.774	3607.19
984.073	3583.24
984.372	3512.73
984.67	3523.35
984.969	3481.77
985.267	3528.1
985.566	3488.1
985.864	3427.09
986.162	3444.49
986.461	3389.12
986.759	3392.28
987.057	3373.98
987.355	3371.49
987.653	3347.99
987.951	3366.52
988.249	3325.84
988.547	3304.83
988.844	3286.07
989.142	3268.45
989.44	3272.96
989.737	3224.83
990.035	3229.12
990.332	3288.11
990.63	3237.94
990.927	3143.93
991.224	3172.63
991.521	3167.66
991.819	3190.48
992.116	3134.89
992.413	3085.63
992.71	3106.42
993.006	3116.36
993.303	3032.29
993.6	3096.47
993.897	3038.62
994.193	3017.83
994.49	2992.29
994.787	3015.12
995.083	2990.03
995.379	2934.67
995.676	2968.11
995.972	2921.79
996.268	2932.18
996.565	2933.31
996.861	2896.03
997.157	2860.55
997.453	2899.64
997.749	2844.95
998.044	2825.97
998.34	2816.25
998.636	2787.55
998.932	2826.87
999.227	2786.88
999.523	2764.28
999.818	2752.53
1000.114	2713.21
1000.409	2731.74
1000.704	2661.23
1001	2692.19
1001.295	2694.22
1001.59	2663.26
1001.885	2632.08
1002.18	2614.23
1002.475	2601.12
1002.77	2569.71
1003.065	2565.86
1003.359	2598.86
1003.654	2578.75
1003.949	2575.13
1004.243	2530.61
1004.538	2490.16
1004.832	2508.69
1005.127	2483.61
1005.421	2466.88
1005.715	2448.81
1006.009	2433.66
1006.304	2409.26
1006.598	2401.8
1006.892	2464.17
1007.186	2371.07
1007.48	2392.99
1007.773	2378.75
1008.067	2352.31
1008.361	2357.96
1008.655	2297.4
1008.948	2311.63
1009.242	2276.15
1009.535	2277.96
1009.829	2269.38
1010.122	2279.77
1010.415	2234.35
1010.708	2212.43
1011.001	2194.35
1011.295	2188.02
1011.588	2188.93
1011.881	2175.59
1012.173	2170.17
1012.466	2156.16
1012.759	2164.29
1013.052	2148.25
1013.344	2096.05
1013.637	2088.36
1013.93	2089.27
1014.222	2035.71
1014.514	2038.65
1014.807	2054.92
1015.099	2033.9
1015.391	2020.79
1015.683	2023.05
1015.976	1973.34
1016.268	1964.52
1016.56	1959.33
1016.851	1970.85
1017.143	1934.02
1017.435	1913.68
1017.727	1893.57
1018.018	1894.7
1018.31	1892.21
1018.602	1868.71
1018.893	1863.74
1019.185	1855.83
1019.476	1837.52
1019.767	1836.39
1020.058	1808.82
1020.35	1799.11
1020.641	1828.48
1020.932	1788.94
1021.223	1783.06
1021.514	1755.49
1021.804	1710.97
1022.095	1739.9
1022.386	1719.33
1022.677	1714.14
1022.967	1705.77
1023.258	1685.66
1023.548	1656.28
1023.839	1680.46
1024.129	1683.63
1024.419	1637.08
1024.709	1653.12
1025	1601.82
1025.29	1623.74
1025.58	1602.5
1025.87	1555.72
1026.16	1584.42
1026.449	1581.48
1026.739	1549.85
1027.029	1533.35
1027.319	1522.73
1027.608	1519.34
1027.898	1508.04
1028.187	1478.21
1028.477	1486.35
1028.766	1515.5
1029.055	1468.94
1029.344	1488.6
1029.634	1451.54
1029.923	1459
1030.212	1435.95
1030.501	1456.52
1030.79	1378.78
1031.078	1373.81
1031.367	1379.91
1031.656	1376.07
1031.945	1381.26
1032.233	1366.35
1032.522	1346.91
1032.81	1349.4
1033.099	1335.16
1033.387	1324.77
1033.675	1325.22
1033.963	1295.62
1034.251	1294.03
1034.54	1304.2
1034.828	1279.12
1035.116	1275.73
1035.403	1261.27
1035.691	1240.25
1035.979	1264.88
1036.267	1228.05
1036.554	1235.96
1036.842	1225.79
1037.129	1197.99
1037.417	1192.57
1037.704	1206.58
1037.992	1204.54
1038.279	1166.81
1038.566	1185.56
1038.853	1185.56
1039.14	1185.56
