Data from hue_290_FLMS001491_00027.txt Node
Date: Tue Feb 07 15:52:32 GMT 2017
User: dcchb
Spectrometer: FLMS00149
Trigger mode: 0
Integration Time (sec): 2.000000E-2
Scans to average: 10
Electric dark correction enabled: true
Nonlinearity correction enabled: false
Boxcar width: 0
XAxis mode: Wavelengths
Number of Pixels in Spectrum: 2048
>>>>>Begin Spectral Data<<<<<
341.393	-6.23
341.776	-6.23
342.16	-6.23
342.543	-62.05
342.927	-54.59
343.31	-76.96
343.693	-68.15
344.077	-71.54
344.46	-69.05
344.843	-41.03
345.226	-53.46
345.61	-41.71
345.993	-5.55
346.376	4.17
346.759	40.1
347.142	20.21
347.525	39.42
347.908	24.51
348.291	70.15
348.674	93.88
349.057	135.01
349.44	104.28
349.823	116.93
350.206	150.6
350.588	169.36
350.971	205.07
351.354	194.67
351.737	235.8
352.119	233.99
352.502	234.89
352.884	249.81
353.267	274.44
353.65	278.96
354.032	279.64
354.414	302.24
354.797	300.43
355.179	293.88
355.562	308.34
355.944	332.29
356.326	319.41
356.709	332.52
357.091	331.16
357.473	336.59
357.855	336.14
358.238	324.61
358.62	333.42
359.002	339.07
359.384	341.33
359.766	334.78
360.148	332.29
360.53	324.16
360.912	326.87
361.294	331.84
361.676	315.8
362.057	322.58
362.439	324.61
362.821	318.06
363.203	328
363.584	292.75
363.966	316.25
364.348	312.18
364.729	342.01
365.111	308.11
365.493	309.92
365.874	308.79
366.256	302.92
366.637	305.85
367.019	313.76
367.4	329.36
367.781	295.68
368.163	295.23
368.544	311.5
368.925	304.27
369.306	297.27
369.688	316.02
370.069	340.2
370.45	299.98
370.831	331.39
371.212	315.12
371.593	311.96
371.974	309.02
372.355	296.14
372.736	330.03
373.117	297.49
373.498	301.11
373.879	317.38
374.26	314.89
374.641	295.46
375.021	313.76
375.402	314.67
375.783	329.36
376.163	320.77
376.544	326.42
376.925	337.94
377.305	312.41
377.686	320.32
378.066	328.68
378.447	312.18
378.827	324.61
379.208	348.56
379.588	337.49
379.968	316.7
380.349	316.7
380.729	315.57
381.109	317.83
381.489	331.62
381.87	320.99
382.25	348.11
382.63	319.86
383.01	351.05
383.39	336.81
383.77	331.62
384.15	336.81
384.53	350.6
384.91	324.16
385.29	324.16
385.67	326.64
386.049	355.12
386.429	363.71
386.809	334.78
387.189	331.62
387.568	359.86
387.948	378.39
388.328	360.54
388.707	369.58
389.087	349.24
389.466	360.99
389.846	369.81
390.225	362.12
390.605	374.33
390.984	366.19
391.363	370.48
391.743	354.89
392.122	356.25
392.501	367.32
392.881	378.62
393.26	375.46
393.639	360.77
394.018	382.46
394.397	397.15
394.776	399.41
395.155	395.12
395.534	396.92
395.913	390.37
396.292	395.79
396.671	405.96
397.05	389.92
397.429	391.28
397.808	400.54
398.186	378.17
398.565	391.73
398.944	405.29
399.323	405.96
399.701	395.34
400.08	405.06
400.458	413.2
400.837	412.74
401.215	417.94
401.594	417.04
401.972	409.35
402.351	425.62
402.729	426.3
403.107	419.3
403.486	443.93
403.864	446.41
404.242	437.15
404.62	420.2
404.999	445.28
405.377	439.86
405.755	430.37
406.133	480.54
406.511	464.27
406.889	462.01
407.267	462.23
407.645	464.49
408.023	492.74
408.401	497.03
408.779	474.66
409.156	503.81
409.534	514.21
409.912	527.32
410.29	516.47
410.667	527.54
411.045	511.05
411.422	535.68
411.8	519.18
412.178	532.29
412.555	541.78
412.933	569.8
413.31	567.09
413.687	572.29
414.065	560.31
414.442	575
414.819	586.3
415.197	619.74
415.574	610.48
415.951	629.01
416.328	636.92
416.705	613.87
417.082	606.41
417.46	626.3
417.837	647.77
418.214	662
418.591	633.3
418.967	671.04
419.344	696.13
419.721	690.02
420.098	719.85
420.475	698.84
420.852	698.16
421.228	711.94
421.605	707.88
421.982	739.74
422.358	751.72
422.735	752.85
423.111	758.05
423.488	784.03
423.864	799.85
424.241	779.06
424.617	827.2
424.994	809.34
425.37	824.48
425.746	830.59
426.123	850.7
426.499	824.03
426.875	841.88
427.251	854.54
427.627	878.95
428.003	883.47
428.379	891.83
428.756	897.7
429.132	900.87
429.507	939.51
429.883	958.27
430.259	961.43
430.635	944.25
431.011	945.38
431.387	986.51
431.763	1011.37
432.138	999.85
432.514	1002.33
432.89	1041.2
433.265	1006.63
433.641	1040.3
434.016	1085.95
434.392	1084.14
434.767	1120.07
435.143	1078.04
435.518	1131.14
435.894	1141.09
436.269	1147.64
436.644	1167.75
437.02	1171.82
437.395	1174.53
437.77	1204.81
438.145	1218.6
438.52	1219.5
438.895	1244.13
439.271	1233.29
439.646	1266.28
440.021	1284.36
440.395	1281.65
440.77	1318.03
441.145	1272.83
441.52	1294.53
441.895	1320.29
442.27	1294.08
442.645	1328.2
443.019	1332.27
443.394	1349.89
443.769	1367.75
444.143	1355.32
444.518	1369.1
444.892	1366.84
445.267	1385.37
445.641	1379.72
446.016	1417.46
446.39	1394.19
446.764	1413.17
447.139	1416.11
447.513	1423.11
447.887	1386.5
448.262	1430.12
448.636	1450
449.01	1428.08
449.384	1454.3
449.758	1453.39
450.132	1452.72
450.506	1479.38
450.88	1490
451.254	1474.64
451.628	1482.32
452.002	1483.68
452.376	1501.53
452.75	1541.53
453.123	1529.55
453.497	1553.28
453.871	1557.8
454.244	1585.14
454.618	1586.72
454.992	1609.1
455.365	1547.63
455.739	1635.31
456.112	1642.09
456.486	1647.06
456.859	1660.39
457.232	1691.81
457.606	1671.24
457.979	1690.68
458.352	1722.31
458.725	1700.17
459.099	1736.55
459.472	1798.24
459.845	1790.56
460.218	1808.86
460.591	1784.68
460.964	1817.9
461.337	1826.72
461.71	1842.54
462.083	1874.4
462.456	1863.1
462.829	1874.4
463.201	1908.98
463.574	1890.22
463.947	1927.51
464.32	1943.55
464.692	1975.19
465.065	1991.23
465.438	1990.1
465.81	2033.72
466.183	2058.8
466.555	2088.86
466.928	2062.42
467.3	2068.52
467.672	2102.19
468.045	2123.43
468.417	2133.83
468.789	2135.64
469.161	2172.47
469.534	2190.1
469.906	2227.38
470.278	2215.63
470.65	2262.86
471.022	2268.29
471.394	2318
471.766	2334.5
472.138	2353.26
472.51	2361.84
472.882	2422.18
473.253	2441.16
473.625	2466.02
473.997	2500.6
474.369	2481.16
474.74	2494.72
475.112	2584.21
475.484	2542.18
475.855	2599.58
476.227	2626.02
476.598	2690.42
476.97	2702.4
477.341	2758.67
477.713	2760.93
478.084	2783.3
478.455	2833.24
478.827	2828.95
479.198	2909.17
479.569	2926.35
479.94	2974.71
480.311	2980.81
480.682	3026.01
481.053	3095.16
481.424	3093.12
481.795	3157.3
482.166	3208.83
482.537	3240.47
482.908	3271.65
483.279	3308.94
483.65	3327.47
484.021	3366.34
484.391	3387.35
484.762	3417.41
485.133	3450.63
485.503	3480.01
485.874	3565.65
486.244	3561.59
486.615	3628.93
486.985	3640.46
487.356	3671.64
487.726	3714.35
488.097	3727.23
488.467	3779.21
488.837	3816.72
489.207	3867.34
489.578	3908.47
489.948	3881.8
490.318	3949.15
490.688	3934.46
491.058	4029.82
491.428	4118.18
491.798	4092.42
492.168	4153.44
492.538	4142.59
492.908	4191.18
493.278	4226.65
493.648	4239.54
494.017	4318.63
494.387	4312.98
494.757	4318.4
495.126	4317.05
495.496	4374.45
495.866	4376.93
496.235	4390.04
496.605	4464.61
496.974	4489.7
497.344	4498.06
497.713	4485.4
498.082	4550.94
498.452	4628.68
498.821	4621.67
499.19	4571.96
499.559	4704.16
499.928	4675
500.298	4638.85
500.667	4699.18
501.036	4728.79
501.405	4733.08
501.774	4738.28
502.143	4719.52
502.512	4829.8
502.88	4788
503.249	4834.55
503.618	4826.64
503.987	4877.94
504.356	4889.69
504.724	4835
505.093	4888.33
505.462	4904.38
505.83	4949.12
506.199	4949.8
506.567	5044.03
506.936	4994.54
507.304	5065.05
507.672	5118.61
508.041	5068.89
508.409	5089.23
508.777	5116.8
509.145	5171.94
509.514	5172.17
509.882	5191.15
510.25	5132.85
510.618	5187.76
510.986	5248.77
511.354	5180.75
511.722	5243.8
512.09	5320.18
512.458	5273.18
512.826	5320.41
513.193	5349.11
513.561	5264.82
513.929	5338.49
514.297	5388.43
514.664	5411.93
515.032	5451.03
515.4	5452.61
515.767	5449.45
516.135	5429.79
516.502	5450.13
516.869	5504.13
517.237	5552.04
517.604	5478.15
517.972	5561.31
518.339	5544.13
518.706	5552.72
519.073	5564.02
519.44	5632.04
519.808	5665.49
520.175	5652.38
520.542	5683.34
520.909	5708.2
521.276	5659.16
521.643	5749.33
522.009	5743.68
522.376	5743.22
522.743	5772.83
523.11	5907.74
523.477	5895.54
523.843	5911.81
524.21	5986.83
524.577	5967.63
524.943	6029.77
525.31	5959.49
525.676	6028.41
526.043	6088.75
526.409	6080.16
526.776	6122.42
527.142	6121.52
527.508	6175.08
527.874	6182.31
528.241	6216.21
528.607	6201.29
528.973	6285.36
529.339	6264.79
529.705	6309.09
530.071	6342.76
530.437	6326.26
530.803	6351.57
531.169	6427.95
531.535	6346.6
531.901	6438.12
532.267	6434.73
532.632	6518.57
532.998	6554.95
533.364	6536.2
533.73	6536.2
534.095	6627.5
534.461	6589.76
534.826	6624.56
535.192	6673.14
535.557	6706.36
535.923	6679.92
536.288	6695.74
536.653	6696.87
537.019	6771.45
537.384	6728.74
537.749	6736.42
538.114	6799.47
538.479	6813.48
538.845	6870.43
539.21	6821.84
539.575	6870.88
539.94	6835.4
540.305	6964.44
540.67	6865.23
541.034	6952.46
541.399	6934.83
541.764	6988.39
542.129	6940.26
542.494	7031.1
542.858	7052.34
543.223	7050.76
543.587	7072.46
543.952	7063.64
544.316	7144.77
544.681	7120.36
545.045	7162.62
545.41	7121.27
545.774	7160.81
546.138	7208.95
546.503	7233.13
546.867	7234.48
547.231	7318.1
547.595	7282.62
547.959	7243.07
548.324	7321.71
548.688	7352
549.052	7309.29
549.416	7390.41
549.779	7379.11
550.143	7380.24
550.507	7422.28
550.871	7447.36
551.235	7407.14
551.599	7501.14
551.962	7458.89
552.326	7542.95
552.689	7523.52
553.053	7575.94
553.417	7520.81
553.78	7649.84
554.143	7595.61
554.507	7644.42
554.87	7662.27
555.234	7683.74
555.597	7689.61
555.96	7659.56
556.323	7695.72
556.686	7750.18
557.05	7734.81
557.413	7790.63
557.776	7830.85
558.139	7817.29
558.502	7772.78
558.865	7834.47
559.228	7876.73
559.59	7904.75
559.953	7878.08
560.316	7986.1
560.679	7918.76
561.041	7974.13
561.404	8058.64
561.767	8001.92
562.129	8088.25
562.492	8095.03
562.854	8154.69
563.217	8143.16
563.579	8146.33
563.941	8175.25
564.304	8222.48
564.666	8249.37
565.028	8245.53
565.39	8267
565.753	8318.3
566.115	8305.64
566.477	8320.11
566.839	8339.77
567.201	8452.53
567.563	8349.71
567.925	8504.96
568.287	8494.34
568.648	8511.51
569.01	8585.86
569.372	8613.88
569.734	8609.59
570.095	8693.88
570.457	8657.27
570.819	8707.67
571.18	8734.11
571.542	8782.01
571.903	8779.3
572.265	8785.18
572.626	8880.77
572.987	8886.87
573.349	8917.6
573.71	9029.24
574.071	8985.17
574.432	9104.27
574.794	9142.23
575.155	9126.19
575.516	9156.69
575.877	9184.26
576.238	9290.48
576.599	9279.85
576.96	9360.76
577.32	9379.06
577.681	9496.35
578.042	9474.2
578.403	9511.71
578.763	9637.81
579.124	9646.85
579.485	9750.8
579.845	9784.93
580.206	9885.04
580.566	9933.17
580.927	10012.04
581.287	10101.08
581.648	10184.46
582.008	10256.33
582.368	10360.5
582.728	10437.79
583.089	10483.89
583.449	10600.95
583.809	10639.82
584.169	10780.61
584.529	10855.18
584.889	11014.72
585.249	11092.69
585.609	11092.69
585.969	11319.12
586.329	11285.9
586.688	11503.53
587.048	11580.36
587.408	11691.54
587.768	11789.39
588.127	11961.37
588.487	12042.49
588.846	12220.12
589.206	12285.43
589.565	12478.87
589.925	12617.85
590.284	12717.96
590.643	12822.59
591.003	13071.62
591.362	13140.09
591.721	13204.27
592.08	13392.97
592.44	13591.83
592.799	13674.99
593.158	13734.2
593.517	13918.6
593.876	14165.83
594.235	14143.68
594.593	14317.46
594.952	14547.96
595.311	14617.79
595.67	14687.85
596.029	14930.33
596.387	15056.2
596.746	15269.75
597.104	15265.69
597.463	15462.07
597.822	15601.04
598.18	15609.63
598.538	15735.05
598.897	15944.99
599.255	16014.14
599.613	16347.01
599.972	16267.24
600.33	16519.21
600.688	16619.1
601.046	16797.4
601.404	16937.51
601.762	16992.65
602.12	17215.47
602.478	17202.13
602.836	17370.72
603.194	17288.23
603.552	17425.86
603.91	17499.75
604.268	17699.52
604.625	17771.61
604.983	17834.21
605.341	17814.32
605.698	18154.65
606.056	18245.95
606.413	18285.72
606.771	18319.62
607.128	18570.46
607.485	18456.56
607.843	18595.77
608.2	18636.22
608.557	18854.29
608.914	18873.73
609.272	19036.66
609.629	19124.34
609.986	19216.77
610.343	19078.69
610.7	19401.85
611.057	19280.04
611.414	19525.01
611.771	19502.64
612.127	19655.18
612.484	19715.74
612.841	19778.11
613.198	19749.64
613.554	19921.16
613.911	20052.45
614.267	20005.45
614.624	20206.12
614.98	20200.25
615.337	20366.57
615.693	20261.71
616.05	20355.95
616.406	20535.15
616.762	20527.02
617.118	20521.59
617.475	20696.73
617.831	20742.6
618.187	20633.68
618.543	20809.5
618.899	20887.69
619.255	20860.79
619.611	20897.63
619.967	21032.77
620.323	21126.78
620.678	21008.13
621.034	21007
621.39	21142.37
621.746	21105.53
622.101	21371.29
622.457	21188.92
622.812	21320.22
623.168	21290.84
623.523	21405.64
623.879	21420.78
624.234	21351.85
624.589	21415.13
624.945	21424.39
625.3	21514.79
625.655	21440.44
626.01	21542.13
626.365	21553.2
626.72	21623.03
627.075	21536.48
627.43	21586.42
627.785	21463.49
628.14	21639.08
628.495	21622.36
628.85	21624.39
629.205	21531.96
629.559	21656.25
629.914	21556.59
630.269	21623.03
630.623	21529.02
630.978	21518.18
631.332	21646.76
631.687	21695.57
632.041	21524.5
632.396	21584.62
632.75	21622.13
633.104	21653.09
633.459	21543.04
633.813	21532.87
634.167	21519.53
634.521	21507.78
634.875	21527.44
635.229	21538.74
635.583	21503.26
635.937	21482.02
636.291	21429.37
636.645	21605.41
636.999	21461.68
637.352	21610.38
637.706	21351.4
638.06	21463.26
638.413	21339.42
638.767	21459.42
639.121	21506.2
639.474	21243.61
639.828	21285.41
640.181	21480.44
640.534	21315.02
640.888	21335.81
641.241	21237.05
641.594	21240.44
641.947	21345.3
642.301	21287.67
642.654	21263.27
643.007	21302.36
643.36	21237.51
643.713	21189.82
644.066	21289.03
644.419	21185.08
644.771	21035.93
645.124	20839.55
645.477	20814.92
645.83	20795.26
646.182	20667.8
646.535	20573.12
646.888	20729.5
647.24	20441.14
647.593	20719.55
647.945	20635.94
648.298	20587.13
648.65	20518.2
649.002	20473.01
649.355	20542.84
649.707	20627.35
650.059	20720.46
650.411	20989.15
650.763	21008.81
651.115	21117.74
651.467	21214.68
651.819	21058.3
652.171	21006.1
652.523	20999.55
652.875	21065.99
653.227	20979.43
653.578	21338.97
653.93	21091.97
654.282	21118.64
654.633	21021.69
654.985	20986.44
655.337	21102.37
655.688	21102.82
656.039	21170.16
656.391	20924.52
656.742	21008.13
657.094	21093.33
657.445	21114.35
657.796	20981.47
658.147	21047.91
658.498	21066.66
658.849	21133.1
659.2	21070.28
659.551	20920.45
659.902	21101.92
660.253	20965.88
660.604	21088.81
660.955	20917.06
661.306	21043.16
661.656	21057.85
662.007	21051.75
662.358	21090.62
662.708	21131.97
663.059	21145.31
663.409	21000
663.76	21195.25
664.11	21191.63
664.461	21194.34
664.811	21178.3
665.161	21233.89
665.511	21120.45
665.862	21072.77
666.212	21138.3
666.562	21174.46
666.912	21094.46
667.262	21136.94
667.612	21105.53
667.962	21171.52
668.312	21085.87
668.662	21081.58
669.011	21120
669.361	21117.06
669.711	21118.64
670.06	21081.13
670.41	21064.86
670.76	21011.07
671.109	21170.84
671.459	21033.22
671.808	21050.17
672.157	20998.87
672.507	20914.58
672.856	20983.73
673.205	20954.8
673.554	21088.13
673.904	20844.97
674.253	21047.91
674.602	20937.4
674.951	20781.93
675.3	20489.28
675.649	20845.43
675.998	20892.2
676.346	20790.06
676.695	20945.08
677.044	20747.58
677.393	20780.57
677.741	20955.93
678.09	20757.75
678.438	20730.4
678.787	20765.43
679.135	20917.06
679.484	20440.47
679.832	20634.36
680.181	20535.83
680.529	20673
680.877	20553.46
681.225	20510.75
681.573	20568.15
681.922	20526.56
682.27	20393.01
682.618	20401.6
682.966	20408.6
683.314	20485.21
683.661	20415.83
684.009	20199.57
684.357	20210.87
684.705	20185.33
685.053	20199.34
685.4	20146.46
685.748	20025.11
686.095	20045.22
686.443	19987.6
686.79	19849.29
687.138	19971.78
687.485	19972
687.832	19994.83
688.18	19762.52
688.527	19746.92
688.874	19696.98
689.221	19631.67
689.568	19739.92
689.915	19568.62
690.262	19629.64
690.609	19440.49
690.956	19351.45
691.303	19337.22
691.65	19221.06
691.997	19393.94
692.344	19156.66
692.69	18995.53
693.037	19232.81
693.383	18867.17
693.73	19040.05
694.077	18862.65
694.423	18847.06
694.769	18784.92
695.116	18764.13
695.462	18652.26
695.808	18734.07
696.155	18728.65
696.501	18550.12
696.847	18567.97
697.193	18344.25
697.539	18348.09
697.885	18310.35
698.231	18138.15
698.577	18147.64
698.923	18139.28
699.269	17956.01
699.614	17934.99
699.96	17908.1
700.306	17869.91
700.651	17787.43
700.997	17734.1
701.342	17837.6
701.688	17673.31
702.033	17686.19
702.379	17610.26
702.724	17565.74
703.069	17626.3
703.415	17321.45
703.76	17372.07
704.105	17370.94
704.45	17231.96
704.795	17186.31
705.14	17121.46
705.485	17074.45
705.83	17114.23
706.175	17078.75
706.52	16955.81
706.865	16894.57
707.209	16896.6
707.554	16821.13
707.899	16811.18
708.243	16698.19
708.588	16716.5
708.932	16588.36
709.277	16576.16
709.621	16595.37
709.966	16505.88
710.31	16416.84
710.654	16310.86
710.998	16295.72
711.342	16392.21
711.687	16328.26
712.031	16181.37
712.375	16192.67
712.719	16201.25
713.063	16127.36
713.407	16238.54
713.75	16056.4
714.094	16087.59
714.438	15922.39
714.782	16045.33
715.125	15959
715.469	15929.85
715.812	15773.24
716.156	15761.27
716.499	15820.7
716.843	15833.81
717.186	15769.63
717.53	15795.16
717.873	15790.19
718.216	15792
718.559	15659.35
718.902	15608.95
719.246	15568.73
719.589	15558.11
719.932	15515.4
720.275	15452.35
720.617	15572.34
720.96	15515.85
721.303	15617.09
721.646	15572.57
721.989	15384.78
722.331	15481.5
722.674	15423.65
723.016	15469.3
723.359	15380.03
723.701	15364.44
724.044	15289.41
724.386	15233.14
724.729	15393.37
725.071	15308.85
725.413	15302.07
725.755	15207.16
726.097	15213.03
726.439	15178.46
726.782	15188.4
727.124	15167.16
727.465	15066.82
727.807	15161.96
728.149	15093.71
728.491	15055.07
728.833	15090.55
729.175	15025.92
729.516	15058.23
729.858	15010.33
730.199	15034.96
730.541	14963.32
730.882	14971.23
731.224	15098.46
731.565	14992.25
731.906	14941.63
732.248	15003.09
732.589	14984.56
732.93	14937.79
733.271	14957.9
733.612	14920.38
733.953	14992.92
734.294	15007.39
734.635	14811.69
734.976	14956.09
735.317	14922.42
735.658	14837
735.999	15002.19
736.339	14850.78
736.68	14890.55
737.021	14909.99
737.361	14869.99
737.702	14900.05
738.042	14877
738.383	14891.23
738.723	14938.69
739.063	14888.29
739.404	14856.88
739.744	14924.9
740.084	14908.63
740.424	14863.66
740.764	14854.4
741.104	14927.16
741.444	14917.67
741.784	14968.07
742.124	14959.03
742.464	15007.84
742.804	14909.99
743.143	14873.38
743.483	15105.69
743.823	14984.79
744.162	15033.15
744.502	15043.32
744.841	15008.74
745.181	15086.26
745.52	15145.92
745.86	15261.17
746.199	15116.76
746.538	15145.46
746.877	15312.24
747.216	15313.82
747.556	15326.7
747.895	15360.6
748.234	15366.02
748.573	15470.88
748.911	15514.95
749.25	15570.54
749.589	15613.93
749.928	15709.29
750.267	15801.49
750.605	15857.99
750.944	15897.76
751.283	15931.21
751.621	16183.85
751.96	16071.99
752.298	16173.68
752.636	16250.29
752.975	16336.84
753.313	16367.8
753.651	16586.56
753.989	16623.39
754.327	16749.04
754.666	16673.11
755.004	16835.36
755.342	17003.95
755.679	17073.32
756.017	17144.51
756.355	17370.72
756.693	17350.83
757.031	17471.05
757.368	17556.7
757.706	17709.92
758.044	17716.7
758.381	17903.81
758.719	17929.57
759.056	18013.64
759.394	18123.69
759.731	18256.57
760.068	18315.1
760.405	18338.6
760.743	18403.46
761.08	18662.66
761.417	18609.78
761.754	18841.86
762.091	18826.5
762.428	18909.88
762.765	18934.29
763.102	19195.75
763.438	19169.31
763.775	19193.04
764.112	19324.79
764.449	19489.98
764.785	19553.71
765.122	19621.96
765.458	19539.25
765.795	19791.22
766.131	19861.27
766.467	19894.72
766.804	19828.96
767.14	19820.37
767.476	19938.56
767.812	19951.89
768.148	20078.67
768.485	19997.31
768.821	20081.38
769.157	20118.44
769.492	20205.44
769.828	20164.09
770.164	20133.58
770.5	20127.48
770.836	20208.83
771.171	20146.69
771.507	20263.29
771.842	20147.59
772.178	20308.72
772.513	20294.48
772.849	20236.85
773.184	20177.87
773.519	20301.71
773.855	20261.04
774.19	20234.37
774.525	20226.23
774.86	20230.08
775.195	20137.42
775.53	20286.8
775.865	20140.59
776.2	20117.76
776.535	20020.82
776.87	20034.15
777.205	19968.39
777.539	20010.19
777.874	20029.63
778.209	19958.44
778.543	19957.09
778.878	19847.94
779.212	19826.7
779.547	19788.28
779.881	19824.21
780.215	19734.95
780.55	19776.53
780.884	19605.01
781.218	19583.54
781.552	19594.61
781.886	19507.38
782.22	19412.7
782.554	19478.68
782.888	19384.9
783.222	19280.5
783.556	19188.52
783.889	19226.94
784.223	19107.17
784.557	19113.04
784.89	19141.06
785.224	19035.98
785.557	19036.43
785.891	18957.11
786.224	18950.11
786.558	18843.67
786.891	18804.35
787.224	18799.83
787.557	18644.13
787.891	18711.02
788.224	18626.5
788.557	18644.13
788.89	18526.39
789.223	18555.09
789.556	18446.17
789.888	18401.2
790.221	18238.72
790.554	18234.42
790.887	18306.96
791.219	18201.88
791.552	18172.5
791.884	18054.31
792.217	18093.63
792.549	17972.28
792.882	17870.14
793.214	17845.05
793.546	17880.31
793.879	17746.75
794.211	17592.86
794.543	17677.6
794.875	17634.66
795.207	17523.93
795.539	17562.35
795.871	17586.08
796.203	17460.66
796.535	17350.6
796.867	17278.74
797.198	17147.67
797.53	17172.08
797.862	17121.23
798.193	17210.72
798.525	16991.52
798.856	17056.83
799.188	16914.46
799.519	16757.4
799.85	16735.03
800.182	16812.09
800.513	16770.28
800.844	16704.07
801.175	16657.74
801.506	16628.36
801.837	16615.93
802.168	16622.03
802.499	16477.63
802.83	16417.29
803.161	16341.59
803.491	16356.73
803.822	16374.58
804.153	16270.86
804.483	16183.85
804.814	16085.55
805.145	16162.16
805.475	16092.11
805.805	15939.79
806.136	16049.62
806.466	16028.38
806.796	15975.72
807.126	15809.4
807.457	15800.59
807.787	15805.56
808.117	15720.14
808.447	15699.8
808.777	15793.58
809.107	15659.35
809.436	15583.87
809.766	15583.64
810.096	15447.15
810.426	15456.64
810.755	15556.98
811.085	15402.41
811.414	15324.22
811.744	15265.91
812.073	15345.46
812.403	15254.61
812.732	15193.37
813.061	15224.33
813.39	15025.24
813.719	15054.62
814.049	15059.36
814.378	15017.78
814.707	14942.98
815.036	14968.52
815.365	14877.67
815.693	14801.52
816.022	14773.72
816.351	14764.23
816.68	14671.13
817.008	14655.76
817.337	14639.49
817.665	14584.8
817.994	14609.43
818.322	14634.29
818.651	14491.02
818.979	14486.05
819.307	14593.16
819.636	14492.83
819.964	14404.01
820.292	14508.19
820.62	14372.83
820.948	14404.24
821.276	14464.8
821.604	14382.77
821.932	14438.14
822.259	14401.53
822.587	14402.88
822.915	14274.53
823.243	14394.3
823.57	14298.93
823.898	14347.52
824.225	14273.17
824.553	14289.44
824.88	14266.39
825.207	14327.63
825.535	14266.16
825.862	14378.7
826.189	14192.72
826.516	14383.9
826.843	14370.79
827.17	14292.83
827.497	14377.57
827.824	14285.6
828.151	14347.52
828.478	14278.14
828.805	14314.75
829.131	14322.43
829.458	14278.59
829.785	14238.14
830.111	14237.01
830.438	14271.81
830.764	14206.73
831.09	14246.73
831.417	14251.02
831.743	14211.25
832.069	14167.18
832.395	14154.08
832.722	14279.27
833.048	14174.42
833.374	14253.96
833.7	14077.69
834.026	14138.71
834.351	14167.18
834.677	14113.63
835.003	14182.55
835.329	14180.52
835.654	14123.12
835.98	14034.76
836.306	14077.24
836.631	14057.58
836.956	14049.67
837.282	14122.21
837.607	14047.19
837.932	13925.83
838.258	14000.41
838.583	13935.1
838.908	13827.08
839.233	13840.64
839.558	13881.99
839.883	13796.12
840.208	13757.03
840.533	13742.56
840.858	13814.42
841.182	13801.77
841.507	13793.63
841.832	13669.12
842.156	13654.88
842.481	13585.05
842.805	13672.51
843.13	13493.98
843.454	13546.64
843.778	13444.72
844.103	13461.89
844.427	13403.81
844.751	13429.35
845.075	13310.94
845.399	13310.71
845.723	13314.1
846.047	13253.31
846.371	13155.23
846.695	13182.35
847.019	13030.94
847.343	13009.93
847.666	12907.56
847.99	12818.97
848.313	12829.14
848.637	12801.57
848.96	12646.32
849.284	12772.64
849.607	12640.9
849.931	12582.14
850.254	12482.03
850.577	12494.69
850.9	12394.35
851.223	12380.34
851.546	12299.44
851.869	12228.93
852.192	12289.49
852.515	12193.22
852.838	12053.12
853.161	12150.06
853.483	12063.51
853.806	12056.05
854.129	12064.41
854.451	11881.14
854.774	11899.45
855.096	11871.88
855.419	11893.12
855.741	11783.97
856.063	11761.15
856.385	11723.18
856.708	11670.07
857.03	11599.34
857.352	11578.1
857.674	11573.81
857.996	11500.14
858.318	11471.89
858.64	11430.31
858.961	11384.21
859.283	11386.47
859.605	11381.04
859.926	11376.52
860.248	11390.31
860.57	11215.62
860.891	11332.46
861.212	11205.91
861.534	11230.76
861.855	11222.63
862.176	11237.77
862.498	11145.79
862.819	11190.54
863.14	11080.94
863.461	11120.71
863.782	11081.84
864.103	11035.29
864.424	10967.49
864.745	10979.25
865.065	10956.87
865.386	11045.68
865.707	10917.55
866.027	10849.31
866.348	10958.91
866.668	10925.01
866.989	10862.64
867.309	10826.71
867.63	10831.45
867.95	10772.47
868.27	10768.18
868.59	10741.74
868.91	10755.07
869.23	10741.74
869.55	10699.48
869.87	10754.17
870.19	10738.8
870.51	10678.46
870.83	10644.11
871.15	10630.78
871.469	10575.19
871.789	10524.12
872.109	10589.42
872.428	10471.24
872.748	10603.44
873.067	10550.33
873.386	10564.34
873.706	10562.76
874.025	10525.25
874.344	10377.91
874.663	10473.95
874.982	10400.96
875.301	10389.66
875.62	10355.31
875.939	10324.12
876.258	10274.4
876.577	10325.03
876.896	10270.11
877.214	10311.01
877.533	10338.13
877.852	10300.17
878.17	10279.15
878.489	10238.7
878.807	10278.02
879.125	10206.61
879.444	10184.24
879.762	10166.39
880.08	10174.52
880.398	10145.37
880.716	10186.05
881.034	10029.44
881.352	10066.5
881.67	10000.51
881.988	10029.67
882.306	10042.32
882.624	9860.4
882.941	9882.32
883.259	9902.66
883.577	9885.04
883.894	9850.46
884.212	9847.52
884.529	9837.13
884.846	9886.62
885.164	9812.5
885.481	9736.79
885.798	9740.41
886.115	9676.45
886.432	9714.42
886.75	9659.51
887.067	9658.6
887.383	9631.03
887.7	9652.5
888.017	9560.98
888.334	9571.15
888.651	9480.75
888.967	9502.9
889.284	9444.6
889.6	9417.25
889.917	9337.25
890.233	9365.28
890.55	9347.88
890.866	9363.24
891.182	9332.73
891.498	9266.3
891.815	9211.16
892.131	9217.71
892.447	9187.2
892.763	9110.14
893.079	9176.81
893.395	9182.46
893.71	9134.77
894.026	9082.12
894.342	8971.39
894.657	9034.66
894.973	8989.69
895.289	8999.41
895.604	8944.95
895.92	8838.51
896.235	8832.41
896.55	8834.89
896.865	8848.91
897.181	8784.27
897.496	8767.1
897.811	8737.72
898.126	8712.19
898.441	8655.92
898.756	8629.7
899.071	8611.17
899.386	8600.1
899.7	8538.41
900.015	8498.63
900.33	8477.39
900.644	8474.23
900.959	8424.06
901.273	8429.26
901.588	8391.52
901.902	8308.35
902.216	8283.72
902.531	8303.38
902.845	8243.72
903.159	8167.34
903.473	8181.35
903.787	8112.43
904.101	8118.08
904.415	8079.89
904.729	8094.35
905.042	8002.83
905.356	7967.8
905.67	7914.02
905.984	7945.88
906.297	7944.52
906.611	7836.73
906.924	7812.77
907.237	7852.32
907.551	7777.97
907.864	7740.01
908.177	7757.41
908.491	7700.69
908.804	7672.67
909.117	7628.82
909.43	7554.25
909.743	7602.16
910.056	7570.75
910.368	7522.61
910.681	7461.82
910.994	7418.21
911.307	7414.37
911.619	7337.76
911.932	7382.5
912.244	7336.4
912.557	7247.82
912.869	7239.68
913.181	7244.88
913.494	7158.33
913.806	7159.91
914.118	7099.12
914.43	7075.62
914.742	7116.3
915.054	7087.82
915.366	6998.78
915.678	7045.79
915.99	6923.98
916.302	6851.44
916.613	6913.36
916.925	6862.07
917.236	6828.39
917.548	6795.17
917.859	6830.88
918.171	6770.32
918.482	6739.13
918.794	6712.69
919.105	6685.35
919.416	6622.3
919.727	6634.05
920.038	6605.35
920.349	6557.67
920.66	6536.2
920.971	6494.17
921.282	6507.05
921.593	6434.51
921.903	6413.49
922.214	6407.16
922.525	6369.2
922.835	6323.77
923.146	6337.11
923.456	6317.22
923.767	6318.12
924.077	6225.47
924.387	6185.92
924.697	6235.42
925.008	6185.92
925.318	6168.52
925.628	6134.85
925.938	6094.85
926.248	6072.03
926.558	6045.14
926.867	6025.7
927.177	5999.94
927.487	5987.96
927.796	5929.43
928.106	5890.57
928.416	5891.92
928.725	5905.71
929.034	5820.51
929.344	5808.99
929.653	5822.54
929.962	5776.67
930.271	5777.57
930.581	5739.38
930.89	5684.92
931.199	5664.36
931.508	5681.31
931.817	5653.51
932.125	5599.73
932.434	5588.43
932.743	5502.1
933.051	5519.73
933.36	5497.58
933.669	5442.22
933.977	5457.36
934.286	5411.71
934.594	5391.14
934.902	5364.03
935.21	5380.97
935.519	5289.23
935.827	5266.4
936.135	5274.76
936.443	5230.7
936.751	5229.34
937.059	5211.94
937.367	5199.06
937.674	5176.46
937.982	5124.26
938.29	5162.22
938.597	5138.27
938.905	5107.31
939.213	5098.95
939.52	5073.41
939.827	5045.39
940.135	5024.15
940.442	5012.62
940.749	4976.69
941.056	4974.88
941.363	4917.03
941.67	4929.01
941.977	4900.76
942.284	4803.81
942.591	4869.12
942.898	4840.2
943.205	4808.33
943.511	4777.83
943.818	4743.93
944.125	4694.21
944.431	4699.64
944.738	4725.4
945.044	4668.68
945.35	4628.9
945.657	4635.23
945.963	4611.05
946.269	4621.22
946.575	4590.71
946.881	4540.77
947.187	4501.9
947.493	4474.56
947.799	4474.56
948.105	4455.8
948.41	4462.58
948.716	4450.6
949.022	4431.39
949.327	4448.12
949.633	4399.53
949.938	4379.19
950.244	4327.67
950.549	4264.39
950.854	4318.4
951.16	4326.76
951.465	4285.18
951.77	4232.08
952.075	4220.33
952.38	4164.74
952.685	4210.38
952.99	4140.55
953.294	4171.06
953.599	4141.68
953.904	4122.48
954.209	4079.09
954.513	4105.98
954.818	4027.56
955.122	4067.56
955.426	3970.16
955.731	4013.1
956.035	3975.59
956.339	3965.64
956.643	3963.61
956.948	3950.96
957.252	3868.47
957.556	3944.18
957.86	3888.36
958.163	3894.69
958.467	3866.21
958.771	3841.13
959.075	3835.25
959.378	3817.4
959.682	3841.13
959.985	3771.75
960.289	3746.89
960.592	3769.94
960.896	3704.18
961.199	3693.11
961.502	3706.67
961.805	3700.57
962.108	3656.27
962.411	3637.52
962.714	3658.99
963.017	3631.64
963.32	3610.63
963.623	3601.13
963.926	3587.8
964.228	3538.54
964.531	3529.72
964.833	3540.34
965.136	3479.1
965.438	3522.94
965.741	3489.5
966.043	3470.29
966.345	3399.33
966.648	3448.37
966.95	3438.2
967.252	3423.06
967.554	3365.21
967.856	3373.12
968.158	3335.15
968.46	3363.63
968.761	3342.61
969.063	3288.6
969.365	3300.8
969.666	3298.32
969.968	3226
970.269	3258.32
970.571	3226.68
970.872	3249.05
971.174	3208.6
971.475	3199.56
971.776	3193.91
972.077	3191.88
972.378	3160.92
972.679	3123.41
972.98	3168.15
973.281	3143.52
973.582	3082.05
973.883	3086.35
974.183	3100.13
974.484	3060.36
974.785	3042.96
975.085	3045.22
975.386	3007.7
975.686	3010.64
975.986	3001.6
976.287	2969.06
976.587	2971.55
976.887	2934.71
977.187	2942.17
977.487	2943.75
977.787	2909.85
978.087	2937.87
978.387	2924.32
978.687	2869.63
978.987	2873.02
979.286	2855.17
979.586	2823.75
979.885	2842.28
980.185	2864.88
980.484	2836.63
980.784	2798.67
981.083	2738.11
981.382	2762.51
981.682	2757.31
981.981	2706.69
982.28	2708.95
982.579	2686.81
982.878	2705.79
983.177	2678.22
983.475	2640.48
983.774	2640.26
984.073	2605.45
984.372	2630.99
984.67	2622.18
984.969	2645
985.267	2608.39
985.566	2588.28
985.864	2559.58
986.162	2555.74
986.461	2548.28
986.759	2529.52
987.057	2523.2
987.355	2495.63
987.653	2516.87
987.951	2469.19
988.249	2472.12
988.547	2474.38
988.844	2453.59
989.142	2437.1
989.44	2446.14
989.737	2426.25
990.035	2410.66
990.332	2390.54
990.63	2407.27
990.927	2357.55
991.224	2348.96
991.521	2358.23
991.819	2349.42
992.116	2352.58
992.413	2367.49
992.71	2342.86
993.006	2301.28
993.303	2302.19
993.6	2324.56
993.897	2313.03
994.193	2283.88
994.49	2276.88
994.787	2249.98
995.083	2248.63
995.379	2259.25
995.676	2227.16
995.972	2231.68
996.268	2195.97
996.565	2182.41
996.861	2160.04
997.157	2164.56
997.453	2129.99
997.749	2155.07
998.044	2101.96
998.34	2117.11
998.636	2125.24
998.932	2085.24
999.227	2064.9
999.523	2077.11
999.818	2054.96
1000.114	2035.07
1000.409	2045.24
1000.704	2045.47
1001	2012.48
1001.295	2009.76
1001.59	2024
1001.885	1984.68
1002.18	1976.32
1002.475	1966.37
1002.77	1967.96
1003.065	1953.04
1003.359	1942.87
1003.654	1919.37
1003.949	1920.05
1004.243	1909.65
1004.538	1912.59
1004.832	1876.43
1005.127	1908.75
1005.421	1853.61
1005.715	1821.29
1006.009	1829.88
1006.304	1819.71
1006.598	1855.87
1006.892	1831.24
1007.186	1798.47
1007.48	1795.31
1007.773	1777.45
1008.067	1766.61
1008.361	1756.21
1008.655	1763.22
1008.948	1754.4
1009.242	1729.32
1009.535	1724.12
1009.829	1690
1010.122	1709.21
1010.415	1685.48
1010.708	1673.5
1011.001	1678.7
1011.295	1650
1011.588	1634.41
1011.881	1625.14
1012.173	1628.98
1012.466	1629.66
1012.759	1602.77
1013.052	1628.76
1013.344	1584.69
1013.637	1610.9
1013.93	1583.33
1014.222	1592.37
1014.514	1562.77
1014.807	1547.4
1015.099	1510.34
1015.391	1520.51
1015.683	1490.46
1015.976	1515.77
1016.268	1477.35
1016.56	1490.91
1016.851	1469.21
1017.143	1447.52
1017.435	1452.49
1017.727	1429.89
1018.018	1443.45
1018.31	1443.9
1018.602	1429.44
1018.893	1414.98
1019.185	1394.64
1019.476	1383.79
1019.767	1400.97
1020.058	1380.85
1020.35	1406.84
1020.641	1378.59
1020.932	1385.6
1021.223	1367.07
1021.514	1362.1
1021.804	1339.95
1022.095	1330.23
1022.386	1325.71
1022.677	1323.68
1022.967	1298.14
1023.258	1263.79
1023.548	1296.34
1023.839	1281.42
1024.129	1269.22
1024.419	1255.21
1024.709	1236.22
1025	1218.6
1025.29	1224.93
1025.58	1188.77
1025.87	1231.25
1026.16	1201.88
1026.449	1213.4
1026.739	1190.58
1027.029	1177.7
1027.319	1170.92
1027.608	1168.88
1027.898	1171.37
1028.187	1163.46
1028.477	1146.06
1028.766	1152.38
1029.055	1139.96
1029.344	1109.67
1029.634	1102.44
1029.923	1091.37
1030.212	1090.69
1030.501	1106.51
1030.79	1098.83
1031.078	1081.65
1031.367	1070.35
1031.656	1073.07
1031.945	1064.03
1032.233	1053.18
1032.522	1052.73
1032.81	1041.2
1033.099	1060.41
1033.387	1017.7
1033.675	1026.96
1033.963	999.85
1034.251	1002.56
1034.54	1011.37
1034.828	994.65
1035.116	1001.2
1035.403	987.64
1035.691	973.41
1035.979	959.85
1036.267	953.07
1036.554	971.82
1036.842	974.08
1037.129	963.01
1037.417	932.05
1037.704	937.93
1037.992	925.72
1038.279	947.42
1038.566	949.23
1038.853	949.23
1039.14	949.23
