Data from hue_50_FLMS001491_73.txt Node
Date: Mon Feb 06 15:10:57 GMT 2017
User: dcchb
Spectrometer: FLMS00149
Trigger mode: 0
Integration Time (sec): 2.000000E-2
Scans to average: 10
Electric dark correction enabled: true
Nonlinearity correction enabled: false
Boxcar width: 0
XAxis mode: Wavelengths
Number of Pixels in Spectrum: 2048
>>>>>Begin Spectral Data<<<<<
341.393	-4
341.776	-4
342.16	-4
342.543	-64.56
342.927	-62.98
343.31	-59.36
343.693	-79.93
344.077	-36.31
344.46	-62.07
344.843	-64.11
345.226	-41.51
345.61	-29.99
345.993	-30.89
346.376	-0.16
346.759	5.95
347.142	23.12
347.525	36.68
347.908	62.67
348.291	80.29
348.674	88.66
349.057	106.96
349.44	123.68
349.823	132.95
350.206	148.99
350.588	182.44
350.971	213.85
351.354	232.38
351.737	227.64
352.119	242.78
352.502	248.2
352.884	273.51
353.267	290.23
353.65	314.41
354.032	309.22
354.414	312.6
354.797	308.09
355.179	324.81
355.562	324.36
355.944	328.42
356.326	326.62
356.709	335.2
357.091	324.13
357.473	350.8
357.855	359.38
358.238	330.91
358.62	331.81
359.002	342.66
359.384	339.5
359.766	349.67
360.148	340.4
360.53	351.25
360.912	320.97
361.294	336.11
361.676	329.1
362.057	343.34
362.439	339.5
362.821	341.53
363.203	314.19
363.584	331.59
363.966	334.53
364.348	340.4
364.729	312.83
365.111	334.07
365.493	308.99
365.874	331.14
366.256	335.2
366.637	301.08
367.019	317.35
367.4	345.37
367.781	326.84
368.163	317.58
368.544	315.54
368.925	319.16
369.306	305.37
369.688	302.66
370.069	320.06
370.45	317.58
370.831	323.9
371.212	285.49
371.593	316.22
371.974	307.18
372.355	332.04
372.736	322.32
373.117	311.7
373.498	325.03
373.879	335.2
374.26	335.2
374.641	307.63
375.021	304.47
375.402	323.45
375.783	327.97
376.163	326.84
376.544	322.55
376.925	327.29
377.305	336.78
377.686	334.53
378.066	328.42
378.447	342.21
378.827	337.69
379.208	325.03
379.588	317.58
379.968	306.05
380.349	343.56
380.729	311.47
381.109	323
381.489	339.04
381.87	352.38
382.25	337.46
382.63	350.34
383.01	354.64
383.39	336.33
383.77	338.59
384.15	345.82
384.53	348.31
384.91	328.65
385.29	333.4
385.67	341.3
386.049	368.65
386.429	358.71
386.809	359.38
387.189	346.28
387.568	364.58
387.948	357.35
388.328	340.85
388.707	367.07
389.087	382.66
389.466	361.42
389.846	375.65
390.225	376.78
390.605	338.59
390.984	363.9
391.363	361.64
391.743	375.88
392.122	379.27
392.501	357.35
392.881	375.88
393.26	373.39
393.639	364.13
394.018	400.74
394.397	373.17
394.776	363.45
395.155	377.91
395.534	377.69
395.913	387.86
396.292	369.1
396.671	382.43
397.05	386.73
397.429	390.57
397.808	374.07
398.186	384.69
398.565	379.27
398.944	379.04
399.323	381.53
399.701	388.99
400.08	385.82
400.458	387.41
400.837	381.3
401.215	399.61
401.594	391.02
401.972	388.76
402.351	403.22
402.729	391.7
403.107	407.07
403.486	402.09
403.864	391.47
404.242	428.08
404.62	407.52
404.999	393.96
405.377	401.64
405.755	422.43
406.133	411.59
406.511	401.19
406.889	424.47
407.267	421.75
407.645	432.6
408.023	407.97
408.401	415.43
408.779	425.82
409.156	443.9
409.534	417.91
409.912	448.87
410.29	431.02
410.667	445.71
411.045	441.87
411.422	449.1
411.8	455.43
412.178	443.67
412.555	434.64
412.933	451.13
413.31	462.66
413.687	458.14
414.065	464.69
414.442	452.94
414.819	462.43
415.197	447.29
415.574	469.89
415.951	462.21
416.328	494.75
416.705	466.05
417.082	465.14
417.46	475.31
417.837	490.23
418.214	510.79
418.591	469.89
418.967	491.58
419.344	473.5
419.721	512.6
420.098	476.67
420.475	523.9
420.852	513.5
421.228	496.1
421.605	503.11
421.982	513.05
422.358	504.01
422.735	500.17
423.111	509.66
423.488	521.41
423.864	544.46
424.241	540.85
424.617	538.81
424.994	537.68
425.37	539.94
425.746	532.03
426.123	534.97
426.499	559.15
426.875	562.32
427.251	546.95
427.627	548.98
428.003	553.5
428.379	555.99
428.756	562.09
429.132	567.74
429.507	578.13
429.883	584.91
430.259	565.48
430.635	567.06
431.011	582.43
431.387	572.48
431.763	607.29
432.138	616.1
432.514	616.1
432.89	605.93
433.265	599.38
433.641	606.16
434.016	642.77
434.392	624.69
434.767	630.34
435.143	624.23
435.518	619.94
435.894	646.61
436.269	655.65
436.644	676.21
437.02	634.18
437.395	658.81
437.77	697.91
438.145	655.19
438.52	694.29
438.895	682.76
439.271	684.12
439.646	676.44
440.021	675.76
440.395	694.06
440.77	683.22
441.145	689.32
441.52	719.6
441.895	692.93
442.27	737.9
442.645	717.79
443.019	714.4
443.394	716.44
443.769	737.45
444.143	729.54
444.518	728.41
444.892	729.77
445.267	763.21
445.641	758.47
446.016	754.85
446.39	762.31
446.764	738.81
447.139	764.12
447.513	770.67
447.887	765.93
448.262	779.49
448.636	771.12
449.01	791.01
449.384	772.03
449.758	786.72
450.132	793.5
450.506	798.47
450.88	800.05
451.254	799.37
451.628	795.76
452.002	822.87
452.376	829.2
452.75	831.46
453.123	830.78
453.497	860.84
453.871	844.12
454.244	857.68
454.618	860.61
454.992	863.1
455.365	893.83
455.739	903.78
456.112	906.71
456.486	929.31
456.859	917.11
457.232	924.57
457.606	942.19
457.979	955.3
458.352	958.92
458.725	981.97
459.099	970.21
459.472	1002.98
459.845	1006.6
460.218	996.43
460.591	999.82
460.964	1028.29
461.337	1037.11
461.71	1055.41
462.083	1062.19
462.456	1061.06
462.829	1073.71
463.201	1110.55
463.574	1074.84
463.947	1100.83
464.32	1132.92
464.692	1141.96
465.065	1174.5
465.438	1170.44
465.81	1196.2
466.183	1217.89
466.555	1213.6
466.928	1223.09
467.3	1264.22
467.672	1264.9
468.045	1319.58
468.417	1321.62
468.789	1319.36
469.161	1326.14
469.534	1376.31
469.906	1417.43
470.278	1420.15
470.65	1446.81
471.022	1477.32
471.394	1502.4
471.766	1503.99
472.138	1567.49
472.51	1597.99
472.882	1630.54
473.253	1671.44
473.625	1661.04
473.997	1710.31
474.369	1731.1
474.74	1765.22
475.112	1830.3
475.484	1899.91
475.855	1913.01
476.227	1977.19
476.598	2006.35
476.97	2079.34
477.341	2111.88
477.713	2151.43
478.084	2188.04
478.455	2288.37
478.827	2318.2
479.198	2393.91
479.569	2454.7
479.94	2524.52
480.311	2541.7
480.682	2644.29
481.053	2787.79
481.424	2809.49
481.795	2896.49
482.166	2974.68
482.537	3038.18
482.908	3129.25
483.279	3191.63
483.65	3313.2
484.021	3408.79
484.391	3538.51
484.762	3590.26
485.133	3676.81
485.503	3759.07
485.874	3916.35
486.244	4038.16
486.615	4159.74
486.985	4223.69
487.356	4366.74
487.726	4462.33
488.097	4571.93
488.467	4680.17
488.837	4857.57
489.207	4915.87
489.578	5064.57
489.948	5168.75
490.318	5358.35
490.688	5416.88
491.058	5562.41
491.428	5681.28
491.798	5823.42
492.168	6027.26
492.538	6119.91
492.908	6249.4
493.278	6436.51
493.648	6486.23
494.017	6638.31
494.387	6746.79
494.757	6913.56
495.126	7043.95
495.496	7121.69
495.866	7323.49
496.235	7470.38
496.605	7546.31
496.974	7704.5
497.344	7793.31
497.713	7929.13
498.082	8066.53
498.452	8244.83
498.821	8383.8
499.19	8504.71
499.559	8547.87
499.928	8677.58
500.298	8805.94
500.667	9005.71
501.036	9020.17
501.405	9200.51
501.774	9313.05
502.143	9352.37
502.512	9560.72
502.88	9713.04
503.249	9754.62
503.618	9950.32
503.987	9978.11
504.356	10121.61
504.724	10167.26
505.093	10379.46
505.462	10401.83
505.83	10502.85
506.199	10633.46
506.567	10785.78
506.936	10919.11
507.304	11054.47
507.672	11119.55
508.041	11307.34
508.409	11317.97
508.777	11447.45
509.145	11597.96
509.514	11640.44
509.882	11741.23
510.25	11952.75
510.618	11956.82
510.986	12091.05
511.354	12178.73
511.722	12360.88
512.09	12520.19
512.458	12430.93
512.826	12652.85
513.193	12760.87
513.561	12796.12
513.929	13020.52
514.297	13107.52
514.664	13212.15
515.032	13251.7
515.4	13435.42
515.767	13493.73
516.135	13558.13
516.502	13554.97
516.869	13788.86
517.237	13902.08
517.604	13859.82
517.972	14068.4
518.339	14176.87
518.706	14189.53
519.073	14302.07
519.44	14411.9
519.808	14557.88
520.175	14604.21
520.542	14788.83
520.909	14900.92
521.276	15006.91
521.643	15027.02
522.009	15249.16
522.376	15302.72
522.743	15395.6
523.11	15584.07
523.477	15774.35
523.843	15816.6
524.21	16049.37
524.577	16056.82
524.943	16214.79
525.31	16240.55
525.676	16436.47
526.043	16638.05
526.409	16590.82
526.776	16760.08
527.142	16906.74
527.508	17036.46
527.874	17233.97
528.241	17265.38
528.607	17240.75
528.973	17448.2
529.339	17449.56
529.705	17600.96
530.071	17873.27
530.437	17911.24
530.803	17958.69
531.169	18058.35
531.535	18101.52
531.901	18219.48
532.267	18289.99
532.632	18391
532.998	18341.28
533.364	18666.7
533.73	18636.42
534.095	18871.66
534.461	18816.75
534.826	18945.56
535.192	18948.05
535.557	19162.96
535.923	19132
536.288	19234.14
536.653	19384.87
537.019	19339.22
537.384	19407.7
537.749	19576.96
538.114	19549.16
538.479	19612.89
538.845	19705.09
539.21	19760.68
539.575	19876.61
539.94	19931.75
540.305	20073.44
540.67	20067.11
541.034	20213.1
541.399	20208.58
541.764	20322.25
542.129	20392.98
542.494	20407.22
542.858	20500.32
543.223	20515.24
543.587	20652.18
543.952	20630.71
544.316	20719.53
544.681	20776.02
545.045	20912.74
545.41	20993.42
545.774	21066.64
546.138	21108.89
546.503	21105.96
546.867	21270.7
547.231	21413.74
547.595	21422.11
547.959	21534.19
548.324	21480.64
548.688	21672.04
549.052	21616.9
549.416	21695.32
549.779	21724.47
550.143	21776.22
550.507	22037.68
550.871	21990.9
551.235	21991.58
551.599	22170.34
551.962	22249.66
552.326	22312.7
552.689	22464.11
553.053	22486.26
553.417	22553.15
553.78	22933.25
554.143	22720.83
554.507	22699.13
554.87	22867.49
555.234	23152.68
555.597	22945.68
555.96	23054.83
556.323	23152
556.686	23216.64
557.05	23453.01
557.413	23483.29
557.776	23520.36
558.139	23650.3
558.502	23691.88
558.865	23874.02
559.228	23990.63
559.59	24024.52
559.953	24084.64
560.316	24369.37
560.679	24393.55
561.041	24546.54
561.404	24539.99
561.767	24619.54
562.129	24619.99
562.492	24982.46
562.854	24872.86
563.217	24940.66
563.579	25022.46
563.941	25136.81
564.304	25361.89
564.666	25310.82
565.028	25428.55
565.39	25647.31
565.753	25661.77
566.115	25814.31
566.477	25939.95
566.839	26038.93
567.201	26218.14
567.563	26280.96
567.925	26425.59
568.287	26441.86
568.648	26419.49
569.01	26642.99
569.372	26825.81
569.734	26679.14
570.095	27002.07
570.457	27061.51
570.819	27163.88
571.18	27179.69
571.542	27260.6
571.903	27367.49
572.265	27513.02
572.626	27605.67
572.987	27694.48
573.349	27761.37
573.71	27780.81
574.071	28019.45
574.432	27990.07
574.794	28270.74
575.155	28169.5
575.516	28178.99
575.877	28408.14
576.238	28448.14
576.599	28507.57
576.96	28566.1
577.32	28732.2
577.681	28876.83
578.042	29029.59
578.403	29030.95
578.763	29045.41
579.124	29149.59
579.485	29343.71
579.845	29423.25
580.206	29367.66
580.566	29440.88
580.927	29536.24
581.287	29773.53
581.648	29756.35
582.008	30003.8
582.368	30078.38
582.728	30109.56
583.089	30204.02
583.449	30197.69
583.809	30410.12
584.169	30429.78
584.529	30537.12
584.889	30830.67
585.249	30772.37
585.609	30753.16
585.969	30976.66
586.329	30899.15
586.688	31230.89
587.048	31293.03
587.408	31309.08
587.768	31365.57
588.127	31462.52
588.487	31514.72
588.846	31829.74
589.206	31643.98
589.565	31870.87
589.925	32044.2
590.284	31899.12
590.643	32201.94
591.003	32340.01
591.362	32563.28
591.721	32502.72
592.08	32526.9
592.44	32642.38
592.799	32823.39
593.158	32751.75
593.517	32844.4
593.876	33050.05
594.235	33053.89
594.593	33142.25
594.952	33298.18
595.311	33276.94
595.67	33394.9
596.029	33659.3
596.387	33813.87
596.746	33946.3
597.104	33784.72
597.463	33799.86
597.822	34104.71
598.18	33989.01
598.538	34068.1
598.897	34313.07
599.255	34094.77
599.613	34671.02
599.972	34592.38
600.33	34561.87
600.688	34500.63
601.046	34682.32
601.404	34954.63
601.762	34824.24
602.12	35101.75
602.478	35125.93
602.836	35133.61
603.194	35072.82
603.552	35282.31
603.91	35274.17
604.268	35468.52
604.625	35477.56
604.983	35584.45
605.341	35571.56
605.698	35707.83
606.056	35922.29
606.413	35860.14
606.771	35925.91
607.128	36212
607.485	35911.89
607.843	36051.55
608.2	36359.57
608.557	36508.04
608.914	36417.19
609.272	36630.07
609.629	36575.38
609.986	36803.17
610.343	36677.52
610.7	36980.12
611.057	36936.95
611.414	37007.46
611.771	37025.54
612.127	37160
612.484	37240.22
612.841	37419.88
613.198	37347.34
613.554	37394.57
613.911	37586.65
614.267	37647.67
614.624	37597.05
614.98	37770.38
615.337	37929.24
615.693	37824.16
616.05	37812.64
616.406	38271.61
616.762	37977.83
617.118	38011.05
617.475	38084.94
617.831	38157.26
618.187	38320.42
618.543	38201.78
618.899	38598.83
619.255	38463.69
619.611	38446.74
619.967	38673.63
620.323	38633.63
620.678	38603.12
621.034	38551.6
621.39	38652.84
621.746	38680.18
622.101	39052.83
622.457	38735.78
622.812	38760.86
623.168	39004.24
623.523	38932.61
623.879	38976.9
624.234	38924.47
624.589	39015.09
624.945	39152.94
625.3	39079.72
625.655	39229.32
626.01	39072.72
626.365	39269.77
626.72	39095.09
627.075	39212.6
627.43	39173.73
627.785	39046.05
628.14	39274.97
628.495	39345.93
628.85	39249.66
629.205	39127.86
629.559	39455.53
629.914	39205.37
630.269	39325.36
630.623	39035.65
630.978	39075.88
631.332	39295.99
631.687	39411.46
632.041	39174.86
632.396	39356.55
632.75	39171.7
633.104	39165.82
633.459	39107.29
633.813	39121.98
634.167	39123.79
634.521	39050.8
634.875	39211.02
635.229	39017.58
635.583	38844.02
635.937	38883.57
636.291	38989.78
636.645	38902.32
636.999	38931.7
637.352	38996.33
637.706	38874.53
638.06	38929.22
638.413	38813.51
638.767	38794.3
639.121	38887.18
639.474	38612.61
639.828	38625.5
640.181	38692.84
640.534	38774.87
640.888	38589.79
641.241	38417.37
641.594	38553.63
641.947	38631.37
642.301	38589.34
642.654	38555.89
643.007	38616.91
643.36	38575.55
643.713	38334.66
644.066	38544.37
644.419	38382.34
644.771	38118.62
645.124	37732.19
645.477	37717.27
645.83	37599.76
646.182	37302.82
646.535	37290.16
646.888	37325.64
647.24	37219.66
647.593	37299.2
647.945	37314.34
648.298	37123.16
648.65	37165.65
649.002	36973.34
649.355	37137.85
649.707	37066.21
650.059	37261.69
650.411	37758.17
650.763	37599.08
651.115	38013.76
651.467	38058.96
651.819	38004.27
652.171	37874.55
652.523	37758.63
652.875	37764.95
653.227	37623.26
653.578	37870.26
653.93	37744.61
654.282	37651.06
654.633	37466.88
654.985	37654.22
655.337	37614.45
655.688	37622.13
656.039	37760.66
656.391	37414
656.742	37532.87
657.094	37514.34
657.445	37692.19
657.796	37613.09
658.147	37424.4
658.498	37381.69
658.849	37607.67
659.2	37419.43
659.551	37370.16
659.902	37461.23
660.253	37440.67
660.604	37444.74
660.955	37430.05
661.306	37473.44
661.656	37390.73
662.007	37325.87
662.358	37362.03
662.708	37252.42
663.059	37314.34
663.409	37218.75
663.76	37374.23
664.11	37281.12
664.461	37274.8
664.811	37271.41
665.161	37418.07
665.511	37269.83
665.862	37228.92
666.212	37412.42
666.562	37364.96
666.912	37338.3
667.262	37255.81
667.612	37161.13
667.962	37302.14
668.312	37220.33
668.662	37315.7
669.011	37185.31
669.361	37178.08
669.711	37163.16
670.06	37122.48
670.41	37072.54
670.76	37073.22
671.109	37269.15
671.459	37071.41
671.808	36953
672.157	37071.64
672.507	36851.31
672.856	36936.5
673.205	36981.7
673.554	37035.48
673.904	36846.33
674.253	37120.22
674.602	36924.75
674.951	36414.25
675.3	36132.45
675.649	36823.51
675.998	36808.37
676.346	36863.28
676.695	36940.79
677.044	36578.32
677.393	36784.87
677.741	36790.06
678.09	36716.62
678.438	36579.9
678.787	36693.12
679.135	36627.13
679.484	36458.32
679.832	36654.02
680.181	36357.98
680.529	36532.67
680.877	36414.93
681.225	36444.54
681.573	36551.2
681.922	36250.19
682.27	36207.93
682.618	36321.83
682.966	36109.63
683.314	36107.14
683.661	36192.57
684.009	35928.62
684.357	35864.66
684.705	35744.67
685.053	35934.72
685.4	35885
685.748	35514.62
686.095	35647.72
686.443	35482.75
686.79	35340.16
687.138	35591.9
687.485	35531.57
687.832	35247.28
688.18	35292.02
688.527	35118.24
688.874	35158.24
689.221	35125.47
689.568	35067.4
689.915	34947.63
690.262	34926.38
690.609	34795.54
690.956	34820.85
691.303	34663.57
691.65	34569.33
691.997	34575.66
692.344	34406.85
692.69	34260.19
693.037	34383.8
693.383	34002.34
693.73	34168.66
694.077	34096.35
694.423	33993.75
694.769	33937.03
695.116	33736.58
695.462	33699.3
695.808	33712.86
696.155	33751.73
696.501	33452.75
696.847	33519.42
697.193	33245.07
697.539	33525.97
697.885	33090.05
698.231	33041.24
698.577	33024.51
698.923	32926.44
699.269	32865.42
699.614	32728.93
699.96	32599.44
700.306	32594.47
700.651	32451.42
700.997	32403.74
701.342	32395.38
701.688	32365.77
702.033	32179.56
702.379	32237.19
702.724	32241.48
703.069	32026.12
703.415	31810.76
703.76	31749.07
704.105	31877.42
704.45	31798.1
704.795	31571.22
705.14	31479.92
705.485	31424.33
705.83	31361.05
706.175	31412.8
706.52	31302.3
706.865	31151.79
707.209	31203.32
707.554	30987.96
707.899	31141.62
708.243	30936.21
708.588	30816.89
708.932	30688.76
709.277	30707.74
709.621	30791.58
709.966	30541.64
710.31	30616.67
710.654	30315.88
710.998	30216.9
711.342	30415.77
711.687	30127.64
712.031	30200.41
712.375	29980.53
712.719	30059.17
713.063	29822.56
713.407	30043.57
713.75	29950.7
714.094	29852.84
714.438	29718.61
714.782	29765.39
715.125	29678.16
715.469	29621.21
715.812	29374.67
716.156	29371.73
716.499	29393.65
716.843	29432.74
717.186	29112.07
717.53	29304.38
717.873	29445.4
718.216	29167.44
718.559	28991.62
718.902	29048.57
719.246	28929.71
719.589	28892.64
719.932	28766.77
720.275	28715.93
720.617	28726.09
720.96	28703.27
721.303	28715.25
721.646	28689.94
721.989	28536.72
722.331	28636.15
722.674	28571.3
723.016	28422.15
723.359	28535.59
723.701	28591.41
724.044	28285.65
724.386	28191.65
724.729	28256.28
725.071	28200.69
725.413	28201.36
725.755	28090.41
726.097	28064.87
726.439	27904.87
726.782	27884.99
727.124	28077.07
727.465	27802.05
727.807	27808.15
728.149	27727.03
728.491	27740.13
728.833	27733.8
729.175	27663.52
729.516	27568.84
729.858	27527.03
730.199	27584.66
730.541	27515.05
730.882	27330.2
731.224	27510.53
731.565	27262.18
731.906	27330.88
732.248	27313.48
732.589	27122.97
732.93	27095.63
733.271	27237.77
733.612	27236.64
733.953	27160.03
734.294	27110.54
734.635	27007.27
734.976	27063.09
735.317	26972.02
735.658	26884.11
735.999	26881.17
736.339	26816.77
736.68	26900.38
737.021	26853.15
737.361	26666.26
737.702	26808.63
738.042	26679.6
738.383	26522.54
738.723	26577
739.063	26554.63
739.404	26619.71
739.744	26506.94
740.084	26400.73
740.424	26437.57
740.764	26354.86
741.104	26455.19
741.444	26175.88
741.784	26226.05
742.124	26187.63
742.464	26212.04
742.804	26117.12
743.143	26037.58
743.483	26114.41
743.823	25971.59
744.162	25922.55
744.502	25924.36
744.841	25886.4
745.181	25997.58
745.52	25778.38
745.86	25842.1
746.199	25863.57
746.538	25638.04
746.877	25737.25
747.216	25621.54
747.556	25585.16
747.895	25646.4
748.234	25462.68
748.573	25527.31
748.911	25372.06
749.25	25378.39
749.589	25311.04
749.928	25289.8
750.267	25292.06
750.605	25246.41
750.944	25114.89
751.283	25049.81
751.621	25155.79
751.96	24941.56
752.298	24908.12
752.636	24906.08
752.975	24799.42
753.313	24723.94
753.651	24799.64
753.989	24695.69
754.327	24682.36
754.666	24677.16
755.004	24594.23
755.342	24537.28
755.679	24620.67
756.017	24323.95
756.355	24523.72
756.693	24267.23
757.031	24338.64
757.368	24155.82
757.706	24192.88
758.044	24057.29
758.381	24159.89
758.719	23951.53
759.056	24008.7
759.394	23893.91
759.731	23869.95
760.068	23661.6
760.405	23521.03
760.743	23531.88
761.08	23622.73
761.417	23564.42
761.754	23416.4
762.091	23326.46
762.428	23253.92
762.765	23200.36
763.102	23095.51
763.438	23077.43
763.775	22941.39
764.112	22925.12
764.449	23002.63
764.785	22802.63
765.122	22740.04
765.458	22679.02
765.795	22640.83
766.131	22663.88
766.467	22426.37
766.804	22393.38
767.14	22312.48
767.476	22257.56
767.812	22124.23
768.148	22187.06
768.485	22036.1
768.821	22041.98
769.157	21938.25
769.492	21823
769.828	21756.79
770.164	21717.47
770.5	21617.13
770.836	21498.49
771.171	21446.74
771.507	21363.58
771.842	21230.47
772.178	21265.95
772.513	21169.46
772.849	21033.64
773.184	21010.14
773.519	20974.21
773.855	20819.41
774.19	20754.1
774.525	20735.57
774.86	20798.85
775.195	20748.23
775.53	20458.06
775.865	20452.41
776.2	20331.29
776.535	20156.15
776.87	20214.91
777.205	20117.96
777.539	20004.74
777.874	20056.27
778.209	19849.72
778.543	19826.89
778.878	19715.26
779.212	19815.59
779.547	19604.98
779.881	19625.54
780.215	19478.65
780.55	19482.5
780.884	19326.57
781.218	19314.37
781.552	19315.04
781.886	19185.55
782.22	19114.82
782.554	19002.51
782.888	18894.04
783.222	18763.65
783.556	18743.31
783.889	18681.61
784.223	18675.96
784.557	18534.27
784.89	18645.91
785.224	18451.56
785.557	18477.55
785.891	18327.95
786.224	18303.09
786.558	18265.13
786.891	18013.61
787.224	17990.33
787.557	17981.74
787.891	17948.53
788.224	17940.16
788.557	17903.1
788.89	17733.16
789.223	17792.6
789.556	17617.46
789.888	17607.97
790.221	17543.11
790.554	17410.23
790.887	17338.6
791.219	17323.46
791.552	17335.21
791.884	17275.77
792.217	17212.73
792.549	17118.04
792.882	17037.59
793.214	16907.87
793.546	16991.04
793.879	16784.71
794.211	16726.18
794.543	16639.18
794.875	16730.03
795.207	16792.4
795.539	16584.49
795.871	16600.76
796.203	16494.33
796.535	16405.74
796.867	16404.61
797.198	16260.89
797.53	16323.26
797.862	16128.23
798.193	16153.77
798.525	16083.26
798.856	16109.93
799.188	15918.75
799.519	15887.11
799.85	15811.86
800.182	15820.22
800.513	15916.71
800.844	15718.08
801.175	15778.41
801.506	15701.35
801.837	15568.25
802.168	15576.61
802.499	15473.79
802.83	15450.96
803.161	15374.13
803.491	15393.34
803.822	15344.98
804.153	15337.07
804.483	15132.55
804.814	15084.65
805.145	15072.44
805.475	15111.09
805.805	15023.4
806.136	15054.82
806.466	14991.77
806.796	15017.53
807.126	14799.91
807.457	14873.8
807.787	14877.65
808.117	14718.55
808.447	14758.33
808.777	14699.57
809.107	14642.17
809.436	14502.97
809.766	14599.23
810.096	14557.2
810.426	14480.59
810.755	14496.41
811.085	14447.37
811.414	14354.95
811.744	14319.69
812.073	14288.51
812.403	14302.29
812.732	14217.32
813.061	14198.34
813.39	14105.46
813.719	14078.8
814.049	14118.12
814.378	14014.62
814.707	14015.52
815.036	13938.91
815.365	13914.73
815.693	13855.3
816.022	13750.22
816.351	13764.23
816.68	13727.62
817.008	13698.69
817.337	13596.55
817.665	13560.17
817.994	13632.93
818.322	13568.08
818.651	13511.13
818.979	13455.99
819.307	13584.57
819.636	13471.58
819.964	13421.41
820.292	13398.81
820.62	13459.38
820.948	13375.31
821.276	13355.43
821.604	13342.54
821.932	13387.74
822.259	13379.38
822.587	13329.44
822.915	13353.62
823.243	13359.04
823.57	13291.92
823.898	13276.78
824.225	13237.24
824.553	13284.24
824.88	13314.75
825.207	13227.07
825.535	13172.15
825.862	13313.39
826.189	13337.8
826.516	13259.61
826.843	13341.87
827.17	13316.1
827.497	13381.87
827.824	13329.44
828.151	13300.96
828.478	13265.71
828.805	13299.38
829.131	13257.35
829.458	13276.56
829.785	13183
830.111	13259.61
830.438	13311.36
830.764	13219.61
831.09	13240.4
831.417	13201.76
831.743	13181.19
832.069	13215.54
832.395	13203.57
832.722	13198.37
833.048	13176.22
833.374	13173.96
833.7	13103.68
834.026	13162.66
834.351	13141.87
834.677	13083.34
835.003	13040.86
835.329	13033.17
835.654	13031.59
835.98	12988.88
836.306	13042.67
836.631	12979.16
836.956	13032.72
837.282	12998.15
837.607	12877.92
837.932	12958.83
838.258	12872.73
838.583	12911.6
838.908	12868.43
839.233	12803.35
839.558	12811.94
839.883	12733.3
840.208	12743.24
840.533	12800.41
840.858	12784.14
841.182	12737.36
841.507	12658.72
841.832	12599.51
842.156	12626.41
842.481	12532.4
842.805	12549.57
843.13	12507.76
843.454	12420.99
843.778	12442.23
844.103	12534.43
844.427	12357.94
844.751	12444.04
845.075	12414.89
845.399	12338.96
845.723	12287.88
846.047	12326.53
846.371	12187.09
846.695	12186.19
847.019	11962.24
847.343	12019.19
847.666	11933.54
847.99	11900.55
848.313	11838.86
848.637	11857.61
848.96	11775.35
849.284	11741
849.607	11599.09
849.931	11610.39
850.254	11579.2
850.577	11494.68
850.9	11402.48
851.223	11429.83
851.546	11344.18
851.869	11292.88
852.192	11385.31
852.515	11199.78
852.838	11223.96
853.161	11137.18
853.483	11216.95
853.806	11132.89
854.129	11117.97
854.451	11045.88
854.774	11072.32
855.096	10921.14
855.419	10860.8
855.741	10843.63
856.063	10823.74
856.385	10837.98
856.708	10812.44
857.03	10759.11
857.352	10716.17
857.674	10731.54
857.996	10673.24
858.318	10640.92
858.64	10591.43
858.961	10589.85
859.283	10550.98
859.605	10494.03
859.926	10500.81
860.248	10472.56
860.57	10349.63
860.891	10438.44
861.212	10315.05
861.534	10391.89
861.855	10232.57
862.176	10304.21
862.498	10311.44
862.819	10272.79
863.14	10221.95
863.461	10235.96
863.782	10170.65
864.103	10190.09
864.424	10242.29
864.745	10200.93
865.065	10137.21
865.386	10163.65
865.707	10117.77
866.027	10066.02
866.348	10068.96
866.668	10016.3
866.989	10092.91
867.309	9967.04
867.63	9958
867.95	9954.16
868.27	9962.07
868.59	9901.51
868.91	9925.46
869.23	9913.93
869.55	9836.65
869.87	9880.94
870.19	9847.5
870.51	9866.48
870.83	9812.69
871.15	9756.42
871.469	9782.41
871.789	9738.12
872.109	9780.6
872.428	9770.66
872.748	9723.2
873.067	9693.15
873.386	9751
873.706	9655.18
874.025	9621.29
874.344	9652.92
874.663	9632.36
874.982	9556.88
875.301	9616.54
875.62	9542.87
875.939	9519.14
876.258	9479.82
876.577	9476.66
876.896	9506.94
877.214	9500.84
877.533	9516.2
877.852	9391.01
878.17	9489.76
878.489	9414.96
878.807	9445.7
879.125	9452.7
879.444	9433.49
879.762	9347.17
880.08	9365.93
880.398	9314.85
880.716	9355.08
881.034	9324.57
881.352	9309.2
881.67	9166.61
881.988	9254.74
882.306	9251.58
882.624	9193.5
882.941	9110.57
883.259	9130
883.577	9076.22
883.894	9127.06
884.212	9084.8
884.529	9099.27
884.846	9024.69
885.164	9000.74
885.481	9019.95
885.798	9036.67
886.115	8948.08
886.432	8994.18
886.75	8930.46
887.067	9016.33
887.383	8811.82
887.7	8927.07
888.017	8857.92
888.334	8852.95
888.651	8835.09
888.967	8800.97
889.284	8744.93
889.6	8713.29
889.917	8661.09
890.233	8726.17
890.55	8645.49
890.866	8653.63
891.182	8596.45
891.498	8613.18
891.815	8556
892.131	8569.79
892.447	8497.7
892.763	8483.69
893.079	8468.77
893.395	8453.18
893.71	8386.29
894.026	8372.73
894.342	8383.35
894.657	8316.91
894.973	8322.34
895.289	8290.02
895.604	8251.38
895.92	8207.31
896.235	8169.8
896.55	8149.23
896.865	8168.22
897.181	8131.61
897.496	8102.46
897.811	7984.72
898.126	8070.37
898.441	8034.44
898.756	7981.78
899.071	7939.75
899.386	7943.14
899.7	7922.12
900.015	7787.21
900.33	7822.92
900.644	7784.95
900.959	7818.4
901.273	7779.08
901.588	7750.6
901.902	7633.09
902.216	7688.68
902.531	7650.49
902.845	7626.76
903.159	7537.95
903.473	7553.32
903.787	7452.3
904.101	7469.03
904.415	7474.9
904.729	7408.24
905.042	7363.72
905.356	7395.81
905.67	7370.5
905.984	7386.54
906.297	7315.13
906.611	7210.73
906.924	7241.69
907.237	7279.43
907.551	7222.25
907.864	7142.48
908.177	7139.32
908.491	7143.84
908.804	7056.61
909.117	7058.42
909.43	7034.69
909.743	6979.77
910.056	6953.33
910.368	6954.92
910.681	6884.41
910.994	6873.79
911.307	6835.37
911.619	6796.5
911.932	6857.74
912.244	6780.91
912.557	6752.66
912.869	6724.19
913.181	6678.99
913.494	6694.81
913.806	6627.92
914.118	6621.37
914.43	6581.37
914.742	6596.28
915.054	6536.4
915.366	6536.17
915.678	6519.22
915.99	6460.01
916.302	6363.97
916.613	6395.83
916.925	6349.06
917.236	6348.15
917.548	6316.29
917.859	6342.05
918.171	6260.47
918.482	6242.84
918.794	6224.77
919.105	6230.19
919.416	6116.52
919.727	6199.46
920.038	6130.76
920.349	6095.73
920.66	6066.8
920.971	6041.27
921.282	6001.72
921.593	5988.16
921.903	5989.97
922.214	5951.55
922.525	5927.82
922.835	5904.1
923.146	5890.54
923.456	5864.32
923.767	5784.1
924.077	5786.13
924.387	5800.14
924.697	5733.03
925.008	5725.57
925.318	5687.83
925.628	5703.65
925.938	5660.49
926.248	5631.79
926.558	5610.77
926.867	5618
927.177	5563.31
927.487	5504.33
927.796	5441.74
928.106	5450.32
928.416	5458.46
928.725	5425.24
929.034	5386.6
929.344	5378.69
929.653	5384.79
929.962	5333.26
930.271	5322.64
930.581	5291.91
930.89	5255.98
931.199	5298.46
931.508	5274.51
931.817	5199.48
932.125	5249.42
932.434	5186.37
932.743	5133.49
933.051	5109.54
933.36	5110.22
933.669	5097.79
933.977	5065.93
934.286	5064.12
934.594	4984.8
934.902	4943.22
935.21	4991.8
935.519	4964.69
935.827	4935.99
936.135	4920.39
936.443	4906.38
936.751	4884.91
937.059	4808.08
937.367	4806.05
937.674	4808.08
937.982	4806.5
938.29	4761.3
938.597	4757.91
938.905	4767.63
939.213	4704.13
939.52	4728.08
939.827	4688.53
940.135	4668.65
940.442	4621.42
940.749	4611.7
941.056	4592.04
941.363	4496.22
941.67	4544.81
941.977	4562.66
942.284	4516.79
942.591	4469.11
942.898	4464.59
943.205	4413.97
943.511	4438.37
943.818	4408.32
944.125	4386.85
944.431	4366.96
944.738	4297.58
945.044	4308.21
945.35	4310.92
945.657	4298.71
945.963	4295.32
946.269	4277.47
946.575	4254.42
946.881	4209.9
947.187	4210.13
947.493	4199.28
947.799	4183.24
948.105	4156.35
948.41	4105.27
948.716	4114.31
949.022	4096.46
949.327	4116.35
949.633	3996.8
949.938	4035.9
950.244	3988.67
950.549	4040.87
950.854	3990.93
951.16	3985.5
951.465	3964.71
951.77	3937.14
952.075	3917.26
952.38	3937.82
952.685	3878.61
952.99	3883.81
953.294	3820.08
953.599	3895.11
953.904	3820.08
954.209	3778.05
954.513	3783.93
954.818	3769.01
955.122	3761.33
955.426	3743.93
955.731	3758.39
956.035	3722.68
956.339	3699.41
956.643	3678.62
956.948	3679.3
957.252	3607.43
957.556	3645.85
957.86	3646.53
958.163	3595.68
958.467	3614.44
958.771	3592.29
959.075	3583.93
959.378	3540.09
959.682	3529.92
959.985	3479.98
960.289	3513.42
960.592	3481.11
960.896	3437.72
961.199	3469.81
961.502	3406.99
961.805	3434.1
962.108	3398.63
962.411	3401.34
962.714	3385.52
963.017	3364.28
963.32	3367.89
963.623	3348.68
963.926	3279.76
964.228	3316.82
964.531	3317.27
964.833	3291.28
965.136	3273.88
965.438	3232.08
965.741	3216.26
966.043	3226.43
966.345	3193.66
966.648	3215.35
966.95	3192.3
967.252	3190.95
967.554	3144.62
967.856	3188.01
968.158	3096.94
968.46	3096.03
968.761	3071.85
969.063	3126.99
969.365	3098.97
969.666	3072.98
969.968	3000.22
970.269	3001.35
970.571	3029.14
970.872	3030.95
971.174	2987.34
971.475	2978.3
971.776	2998.41
972.077	2998.18
972.378	2965.87
972.679	2975.36
972.98	2934.23
973.281	2923.38
973.582	2907.34
973.883	2887.68
974.183	2889.26
974.484	2855.36
974.785	2838.87
975.085	2860.33
975.386	2824.4
975.686	2807.91
975.986	2736.95
976.287	2770.85
976.587	2754.12
976.887	2771.98
977.187	2760.22
977.487	2734.46
977.787	2720
978.087	2712.09
978.387	2720
978.687	2703.73
978.987	2656.95
979.286	2674.8
979.586	2656.95
979.885	2636.39
980.185	2627.57
980.484	2636.84
980.784	2618.53
981.083	2557.29
981.382	2583.05
981.682	2565.43
981.981	2550.74
982.28	2567.46
982.579	2529.27
982.878	2566.56
983.177	2518.87
983.475	2524.98
983.774	2477.52
984.073	2480.23
984.372	2470.51
984.67	2468.93
984.969	2433.9
985.267	2425.77
985.566	2420.35
985.864	2419.44
986.162	2400.23
986.461	2385.32
986.759	2381.7
987.057	2355.94
987.355	2381.25
987.653	2368.6
987.951	2377.86
988.249	2363.62
988.547	2309.84
988.844	2298.09
989.142	2305.55
989.44	2267.58
989.737	2282.27
990.035	2269.16
990.332	2257.64
990.63	2224.87
990.927	2253.8
991.224	2224.19
991.521	2210.86
991.819	2185.32
992.116	2168.38
992.413	2196.17
992.71	2209.5
993.006	2175.15
993.303	2177.41
993.6	2113.91
993.897	2121.14
994.193	2148.26
994.49	2123.18
994.787	2131.99
995.083	2102.61
995.379	2082.5
995.676	2062.16
995.972	2120.92
996.268	2089.51
996.565	2048.15
996.861	2036.63
997.157	2042.05
997.453	2033.46
997.749	2038.44
998.044	2000.02
998.34	1992.56
998.636	1994.37
998.932	1989.85
999.227	1956.86
999.523	1920.47
999.818	1933.81
1000.114	1908.5
1000.409	1938.32
1000.704	1909.4
1001	1917.08
1001.295	1879.8
1001.59	1896.07
1001.885	1886.57
1002.18	1861.04
1002.475	1874.6
1002.77	1846.58
1003.065	1842.28
1003.359	1837.08
1003.654	1819.68
1003.949	1812.68
1004.243	1795.28
1004.538	1793.47
1004.832	1748.5
1005.127	1773.36
1005.421	1766.58
1005.715	1782.62
1006.009	1716.86
1006.304	1733.36
1006.598	1726.13
1006.892	1737.2
1007.186	1700.82
1007.48	1670.08
1007.773	1688.39
1008.067	1663.98
1008.361	1669.86
1008.655	1662.63
1008.948	1660.37
1009.242	1627.37
1009.535	1653.13
1009.829	1610.42
1010.122	1607.03
1010.415	1576.75
1010.708	1585.79
1011.001	1566.58
1011.295	1590.09
1011.588	1584.44
1011.881	1567.26
1012.173	1540.6
1012.466	1546.7
1012.759	1563.19
1013.052	1537.66
1013.344	1525.45
1013.637	1499.69
1013.93	1484.33
1014.222	1488.39
1014.514	1496.3
1014.807	1479.58
1015.099	1484.33
1015.391	1484.33
1015.683	1436.87
1015.976	1453.59
1016.268	1444.78
1016.56	1427.83
1016.851	1410.2
1017.143	1406.36
1017.435	1396.87
1017.727	1413.14
1018.018	1393.48
1018.31	1356.19
1018.602	1381.5
1018.893	1337.66
1019.185	1347.38
1019.476	1333.14
1019.767	1351
1020.058	1350.32
1020.35	1329.75
1020.641	1308.51
1020.932	1311.45
1021.223	1286.59
1021.514	1268.29
1021.804	1284.78
1022.095	1252.69
1022.386	1294.05
1022.677	1249.53
1022.967	1217.21
1023.258	1210.43
1023.548	1240.26
1023.839	1211.11
1024.129	1213.37
1024.419	1219.7
1024.709	1200.04
1025	1197.78
1025.29	1193.49
1025.58	1181.28
1025.87	1165.69
1026.16	1160.04
1026.449	1160.94
1026.739	1135.18
1027.029	1122.3
1027.319	1125.92
1027.608	1118.46
1027.898	1135.41
1028.187	1104.22
1028.477	1058.57
1028.766	1099.25
1029.055	1081.17
1029.344	1094.05
1029.634	1081.62
1029.923	1072.36
1030.212	1090.44
1030.501	1051.12
1030.79	1049.31
1031.078	1027.16
1031.367	1010.89
1031.656	1040.5
1031.945	1053.38
1032.233	1028.74
1032.522	1031
1032.81	1024.22
1033.099	991.91
1033.387	988.75
1033.675	978.35
1033.963	975.41
1034.251	979.93
1034.54	963.21
1034.828	944.45
1035.116	939.25
1035.403	950.1
1035.691	959.37
1035.979	962.31
1036.267	926.83
1036.554	929.76
1036.842	901.06
1037.129	918.01
1037.417	919.82
1037.704	908.97
1037.992	912.36
1038.279	878.69
1038.566	892.02
1038.853	892.02
1039.14	892.02
