Data from hue_120_FLMS001491_00002.txt Node
Date: Tue Feb 07 16:58:50 GMT 2017
User: dcchb
Spectrometer: FLMS00149
Trigger mode: 0
Integration Time (sec): 2.000000E-2
Scans to average: 10
Electric dark correction enabled: true
Nonlinearity correction enabled: false
Boxcar width: 0
XAxis mode: Wavelengths
Number of Pixels in Spectrum: 2048
>>>>>Begin Spectral Data<<<<<
341.393	-13.84
341.776	-13.84
342.16	-13.84
342.543	-63.56
342.927	-66.04
343.31	-75.76
343.693	-62.65
344.077	-77.57
344.46	-74.4
344.843	-41.19
345.226	-46.83
345.61	-28.3
345.993	-8.42
346.376	-16.1
346.759	16.21
347.142	12.15
347.525	30.23
347.908	73.61
348.291	79.72
348.674	101.64
349.057	117.68
349.44	127.85
349.823	122.65
350.206	160.17
350.588	185.48
350.971	213.05
351.354	220.05
351.737	245.36
352.119	254.17
352.502	280.61
352.884	273.16
353.267	279.26
353.65	299.37
354.032	293.95
354.414	283.33
354.797	303.89
355.179	314.06
355.562	311.8
355.944	330.78
356.326	329.65
356.709	327.62
357.091	321.97
357.473	326.26
357.855	344.34
358.238	327.17
358.62	346.83
359.002	339.82
359.384	343.66
359.766	322.65
360.148	328.52
360.53	340.5
360.912	321.07
361.294	326.26
361.676	335.75
362.057	318.13
362.439	327.84
362.821	342.31
363.203	317.9
363.584	328.97
363.966	331.46
364.348	333.49
364.729	329.88
365.111	331.46
365.493	309.99
365.874	317.68
366.256	328.75
366.637	301.4
367.019	291.01
367.4	321.52
367.781	309.99
368.163	345.7
368.544	302.99
368.925	325.58
369.306	324
369.688	309.77
370.069	315.42
370.45	313.61
370.831	307.73
371.212	307.28
371.593	334.85
371.974	307.73
372.355	317
372.736	340.73
373.117	320.61
373.498	318.81
373.879	317.9
374.26	319.26
374.641	312.48
375.021	296.21
375.402	326.49
375.783	299.82
376.163	357.67
376.544	323.78
376.925	330.56
377.305	309.99
377.686	321.97
378.066	307.96
378.447	324
378.827	340.05
379.208	335.3
379.588	340.05
379.968	330.1
380.349	325.13
380.729	325.36
381.109	340.5
381.489	357.9
381.87	338.24
382.25	339.37
382.63	364.91
383.01	342.76
383.39	351.8
383.77	345.02
384.15	334.17
384.53	345.47
384.91	330.56
385.29	335.53
385.67	348.41
386.049	347.73
386.429	382.08
386.809	365.36
387.189	349.54
387.568	346.6
387.948	329.88
388.328	355.87
388.707	357.9
389.087	360.61
389.466	369.88
389.846	359.71
390.225	365.13
390.605	364.23
390.984	365.13
391.363	370.33
391.743	375.07
392.122	366.26
392.501	369.43
392.881	406.94
393.26	382.98
393.639	391.57
394.018	383.21
394.397	375.75
394.776	388.41
395.155	380.5
395.534	400.61
395.913	401.29
396.292	404
396.671	381.63
397.05	419.59
397.429	384.79
397.808	413.27
398.186	406.03
398.565	387.96
398.944	377.33
399.323	420.05
399.701	433.38
400.08	420.05
400.458	399.93
400.837	410.1
401.215	425.7
401.594	410.1
401.972	429.08
402.351	418.46
402.729	403.32
403.107	437.22
403.486	419.59
403.864	428.63
404.242	441.97
404.62	428.18
404.999	441.74
405.377	442.87
405.755	432.02
406.133	439.48
406.511	434.51
406.889	449.88
407.267	446.94
407.645	431.34
408.023	465.47
408.401	456.43
408.779	472.25
409.156	470.89
409.534	465.47
409.912	478.57
410.29	475.19
410.667	481.06
411.045	467.95
411.422	487.39
411.8	508.86
412.178	495.07
412.555	479.48
412.933	490.1
413.31	488.74
413.687	498.24
414.065	493.49
414.442	492.81
414.819	493.94
415.197	538.23
415.574	485.35
415.951	516.31
416.328	535.07
416.705	511.34
417.082	534.17
417.46	557.44
417.837	523.09
418.214	517.22
418.591	540.49
418.967	523.32
419.344	538.69
419.721	539.36
420.098	543.21
420.475	574.17
420.852	567.61
421.228	563.09
421.605	561.51
421.982	574.39
422.358	590.66
422.735	577.78
423.111	584.79
423.488	586.37
423.864	594.73
424.241	595.63
424.617	589.08
424.994	608.74
425.37	616.42
425.746	589.31
426.123	612.13
426.499	638.57
426.875	623.66
427.251	610.55
427.627	634.96
428.003	630.89
428.379	655.07
428.756	626.37
429.132	655.29
429.507	647.84
429.883	646.93
430.259	662.75
430.635	682.64
431.011	680.38
431.387	677.67
431.763	704.56
432.138	702.75
432.514	711.56
432.89	705.69
433.265	728.74
433.641	741.84
434.016	719.47
434.392	714.5
434.767	773.03
435.143	736.42
435.518	756.53
435.894	769.87
436.269	769.41
436.644	747.95
437.02	762.18
437.395	793.37
437.77	799.7
438.145	803.54
438.52	780.94
438.895	814.61
439.271	793.82
439.646	837.66
440.021	815.74
440.395	839.24
440.77	806.93
441.145	862.29
441.52	830.2
441.895	853.93
442.27	869.07
442.645	867.27
443.019	871.56
443.394	867.72
443.769	888.73
444.143	885.12
444.518	888.28
444.892	871.11
445.267	909.52
445.641	895.06
446.016	899.35
446.39	904.33
446.764	913.37
447.139	900.94
447.513	916.53
447.887	894.84
448.262	949.98
448.636	944.1
449.01	950.2
449.384	947.04
449.758	969.18
450.132	990.43
450.506	973.25
450.88	955.17
451.254	977.77
451.628	1007.6
452.002	1009.63
452.376	1020.71
452.75	1061.61
453.123	1047.37
453.497	1078.56
453.871	1054.15
454.244	1088.73
454.618	1075.17
454.992	1093.7
455.365	1105.9
455.739	1125.11
456.112	1156.3
456.486	1157.88
456.859	1173.02
457.232	1210.31
457.606	1211.21
457.979	1200.82
458.352	1224.09
458.725	1216.41
459.099	1220.02
459.472	1248.05
459.845	1257.54
460.218	1257.76
460.591	1291.43
460.964	1302.51
461.337	1330.53
461.71	1337.08
462.083	1344.54
462.456	1382.05
462.829	1419.12
463.201	1434.48
463.574	1428.83
463.947	1458.89
464.32	1492.79
464.692	1514.25
465.065	1512.45
465.438	1514.03
465.81	1550.86
466.183	1542.95
466.555	1631.54
466.928	1614.82
467.3	1639.22
467.672	1661.59
468.045	1677.87
468.417	1722.84
468.789	1744.3
469.161	1782.95
469.534	1791.31
469.906	1841.48
470.278	1871.31
470.65	1853.23
471.022	1903.17
471.394	1968.93
471.766	1994.92
472.138	2045.77
472.51	2050.74
472.882	2114.46
473.253	2166.67
473.625	2204.41
473.997	2271.3
474.369	2301.35
474.74	2325.53
475.112	2427
475.484	2458.86
475.855	2488.92
476.227	2542.25
476.598	2642.36
476.97	2697.95
477.341	2785.41
477.713	2870.38
478.084	2907.66
478.455	2973.42
478.827	3057.26
479.198	3145.62
479.569	3223.59
479.94	3365.28
480.311	3382.45
480.682	3470.81
481.053	3584.03
481.424	3726.85
481.795	3762.33
482.166	3902.44
482.537	3960.74
482.908	4142.43
483.279	4226.27
483.65	4324.35
484.021	4440.5
484.391	4566.83
484.762	4667.17
485.133	4786.26
485.503	4920.72
485.874	5072.8
486.244	5157.55
486.615	5326.13
486.985	5494.49
487.356	5630.08
487.726	5706.46
488.097	5931.99
488.467	6011.76
488.837	6193.45
489.207	6314.13
489.578	6467.34
489.948	6608.81
490.318	6778.97
490.688	6901
491.058	7119.98
491.428	7177.16
491.798	7367.43
492.168	7545.51
492.538	7678.39
492.908	7875.89
493.278	8091.71
493.648	8128.32
494.017	8311.14
494.387	8467.52
494.757	8528.76
495.126	8738.47
495.496	8834.06
495.866	8975.53
496.235	9159.7
496.605	9313.14
496.974	9408.06
497.344	9502.07
497.713	9691.21
498.082	9793.36
498.452	9936.41
498.821	10003.75
499.19	10117.87
499.559	10352.89
499.928	10379.11
500.298	10522.15
500.667	10677.4
501.036	10724.86
501.405	10958.3
501.774	10990.84
502.143	11104.96
502.512	11226.77
502.88	11281.68
503.249	11330.72
503.618	11488.23
503.987	11550.83
504.356	11704.27
504.724	11768
505.093	11864.72
505.462	11950.36
505.83	12113.07
506.199	12208.89
506.567	12396.68
506.936	12356.68
507.304	12513.29
507.672	12572.72
508.041	12645.03
508.409	12720.51
508.777	12830.11
509.145	12910.56
509.514	12961.64
509.882	13064.91
510.25	13019.94
510.618	13226.04
510.986	13261.06
511.354	13319.37
511.722	13370.89
512.09	13563.88
512.458	13534.5
512.826	13605.24
513.193	13631.22
513.561	13621.73
513.929	13799.35
514.297	13868.96
514.664	13847.26
515.032	13969.52
515.4	14054.26
515.767	14082.29
516.135	14099.69
516.502	14016.3
516.869	14202.96
517.237	14235.95
517.604	14174.94
517.972	14336.74
518.339	14333.35
518.706	14385.78
519.073	14418.32
519.44	14508.49
519.808	14545.55
520.175	14544.87
520.542	14729.73
520.909	14745.32
521.276	14736.05
521.643	14757.3
522.009	14744.41
522.376	14863.96
522.743	14902.83
523.11	14926.56
523.477	15066.89
523.843	15103.05
524.21	15160
524.577	15196.15
524.943	15212.42
525.31	15183.73
525.676	15212.88
526.043	15290.61
526.409	15344.17
526.776	15323.83
527.142	15467.56
527.508	15358.64
527.874	15375.81
528.241	15442.93
528.607	15435.02
528.973	15550.95
529.339	15430.27
529.705	15593.43
530.071	15649.02
530.437	15555.47
530.803	15598.86
531.169	15591.62
531.535	15475.02
531.901	15494.45
532.267	15499.65
532.632	15518.86
532.998	15557.27
533.364	15592.3
533.73	15517.05
534.095	15535.58
534.461	15497.16
534.826	15539.42
535.192	15574.22
535.557	15589.36
535.923	15433.89
536.288	15404.28
536.653	15443.38
537.019	15428.69
537.384	15276.6
537.749	15458.07
538.114	15215.59
538.479	15318.18
538.845	15244.51
539.21	15225.98
539.575	15235.02
539.94	15197.51
540.305	15227.57
540.67	15116.16
541.034	15197.96
541.399	15118.87
541.764	15084.52
542.129	15010.4
542.494	14978.98
542.858	14943.73
543.223	14858.31
543.587	14889.72
543.952	14885.88
544.316	14836.39
544.681	14753.23
545.045	14774.24
545.41	14662.61
545.774	14644.53
546.138	14684.76
546.503	14534.93
546.867	14579.45
547.231	14622.61
547.595	14521.82
547.959	14492.9
548.324	14433.91
548.688	14359.11
549.052	14382.62
549.416	14330.41
549.779	14305.33
550.143	14280.47
550.507	14313.24
550.871	14310.98
551.235	14102.62
551.599	14221.04
551.962	14123.19
552.326	14190.3
552.689	14197.31
553.053	14006.58
553.417	14026.69
553.78	14114.83
554.143	14012
554.507	13966.13
554.87	13963.64
555.234	14083.64
555.597	13887.71
555.96	13944.89
556.323	13909.63
556.686	13876.87
557.05	13901.72
557.413	13937.88
557.776	13893.14
558.139	13870.09
558.502	13826.25
558.865	13818.79
559.228	13849.07
559.59	13822.18
559.953	13841.84
560.316	13935.17
560.679	13764.55
561.041	13880.03
561.404	13810.88
561.767	13939.46
562.129	13778.79
562.492	13889.52
562.854	13842.74
563.217	13817.89
563.579	13812.46
563.941	13823.76
564.304	13869.64
564.666	14019.69
565.028	13958.45
565.39	14003.19
565.753	13966.81
566.115	13920.26
566.477	13957.77
566.839	13984.21
567.201	14027.15
567.563	13946.47
567.925	14066.69
568.287	13979.24
568.648	13989.63
569.01	14066.47
569.372	14090.65
569.734	14063.98
570.095	14159.8
570.457	14085.22
570.819	14038.22
571.18	14037.99
571.542	14100.36
571.903	14138.55
572.265	14141.49
572.626	14165.45
572.987	14180.14
573.349	14274.82
573.71	14179.68
574.071	14219.23
574.432	14286.57
574.794	14323.18
575.155	14347.59
575.516	14242.51
575.877	14301.04
576.238	14269.62
576.599	14298.78
576.96	14219.23
577.32	14251.77
577.681	14297.42
578.042	14378.77
578.403	14346.91
578.763	14328.83
579.124	14279.34
579.485	14275.73
579.845	14358.21
580.206	14284.54
580.566	14295.84
580.927	14355.05
581.287	14352.79
581.648	14278.89
582.008	14382.84
582.368	14332
582.728	14323.18
583.089	14310.75
583.449	14324.09
583.809	14357.76
584.169	14329.96
584.529	14231.43
584.889	14261.49
585.249	14122.51
585.609	14123.64
585.969	14218.1
586.329	14209.29
586.688	14248.16
587.048	14232.11
587.408	14243.64
587.768	14147.14
588.127	14185.79
588.487	14165.45
588.846	14253.35
589.206	14203.19
589.565	14149.18
589.925	14150.53
590.284	14167.03
590.643	14100.14
591.003	14156.41
591.362	14230.08
591.721	14080.03
592.08	14120.7
592.44	14126.35
592.799	14143.98
593.158	14107.37
593.517	14041.61
593.876	14028.28
594.235	14063.53
594.593	13981.95
594.952	14087.03
595.311	14024.66
595.67	14065.56
596.029	14084.54
596.387	14034.6
596.746	14117.76
597.104	14062.85
597.463	14004.32
597.822	14079.12
598.18	14041.38
598.538	13961.61
598.897	14014.72
599.255	13963.87
599.613	14114.37
599.972	14037.77
600.33	14070.53
600.688	13971.55
601.046	13984.66
601.404	14099.91
601.762	14015.62
602.12	14088.39
602.478	14107.37
602.836	14003.42
603.194	13986.24
603.552	13999.8
603.91	13915.06
604.268	14118.67
604.625	13929.97
604.983	14099.69
605.341	13940.14
605.698	14093.58
606.056	13998.67
606.413	14010.87
606.771	14054.72
607.128	14056.52
607.485	14003.42
607.843	14039.12
608.2	14096.52
608.557	14086.13
608.914	14060.14
609.272	14205.45
609.629	14098.1
609.986	14209.74
610.343	14124.77
610.7	14236.18
611.057	14186.01
611.414	14048.61
611.771	14157.76
612.127	14203.64
612.484	14137.42
612.841	14243.64
613.198	14176.52
613.554	14141.72
613.911	14227.37
614.267	14278.44
614.624	14221.72
614.98	14218.1
615.337	14356.18
615.693	14317.76
616.05	14299.23
616.406	14404.76
616.762	14304.2
617.118	14289.06
617.475	14385.1
617.831	14357.76
618.187	14364.76
618.543	14456.51
618.899	14444.31
619.255	14353.46
619.611	14312.79
619.967	14479.79
620.323	14412.22
620.678	14416.51
621.034	14376.74
621.39	14384.65
621.746	14313.92
622.101	14519.79
622.457	14386.68
622.812	14387.81
623.168	14444.54
623.523	14520.24
623.879	14505.78
624.234	14361.15
624.589	14414.25
624.945	14408.6
625.3	14430.75
625.655	14428.04
626.01	14451.09
626.365	14424.65
626.72	14343.52
627.075	14417.42
627.43	14464.42
627.785	14317.76
628.14	14435.04
628.495	14465.1
628.85	14427.36
629.205	14362.73
629.559	14409.28
629.914	14352.56
630.269	14437.53
630.623	14335.39
630.978	14404.54
631.332	14388.27
631.687	14402.05
632.041	14356.63
632.396	14244.54
632.75	14218.1
633.104	14280.02
633.459	14234.15
633.813	14215.84
634.167	14185.33
634.521	14198.21
634.875	14208.38
635.229	14172
635.583	14120.02
635.937	14129.97
636.291	14097.2
636.645	14122.06
636.999	14106.47
637.352	14153.7
637.706	14102.62
638.06	14129.29
638.413	14034.83
638.767	13991.21
639.121	14035.96
639.474	13979.24
639.828	13984.43
640.181	13997.09
640.534	13909.86
640.888	13906.47
641.241	13835.29
641.594	13866.92
641.947	13859.47
642.301	13789.41
642.654	13877.09
643.007	13898.79
643.36	13832.57
643.713	13757.77
644.066	13857.66
644.419	13732.46
644.771	13744.44
645.124	13593.48
645.477	13498.12
645.83	13459.48
646.182	13482.3
646.535	13408.4
646.888	13424.68
647.24	13408.63
647.593	13419.93
647.945	13429.87
648.298	13304.45
648.65	13379.93
649.002	13254.51
649.355	13344
649.707	13376.09
650.059	13383.09
650.411	13525.46
650.763	13527.05
651.115	13759.58
651.467	13622.86
651.819	13656.31
652.171	13709.87
652.523	13605.46
652.875	13643.43
653.227	13594.61
653.578	13640.71
653.93	13640.04
654.282	13641.62
654.633	13583.99
654.985	13610.21
655.337	13598.23
655.688	13659.25
656.039	13695.4
656.391	13549.87
656.742	13620.15
657.094	13568.85
657.445	13642.97
657.796	13688.62
658.147	13623.99
658.498	13621.05
658.849	13654.5
659.2	13642.07
659.551	13596.2
659.902	13616.99
660.253	13612.24
660.604	13609.98
660.955	13661.73
661.306	13711
661.656	13734.27
662.007	13650.88
662.358	13701.73
662.708	13712.35
663.059	13660.38
663.409	13580.15
663.76	13643.43
664.11	13657.21
664.461	13662.86
664.811	13711.9
665.161	13668.96
665.511	13663.77
665.862	13610.66
666.212	13758.68
666.562	13713.93
666.912	13773.37
667.262	13651.79
667.612	13740.37
667.962	13730.88
668.312	13647.04
668.662	13781.05
669.011	13753.71
669.361	13640.94
669.711	13683.88
670.06	13684.1
670.41	13665.12
670.76	13590.32
671.109	13662.18
671.459	13637.1
671.808	13596.65
672.157	13680.71
672.507	13556.2
672.856	13582.19
673.205	13552.81
673.554	13618.34
673.904	13577.89
674.253	13551
674.602	13574.95
674.951	13412.02
675.3	13349.65
675.649	13489.08
675.998	13491.57
676.346	13535.18
676.695	13559.81
677.044	13512.36
677.393	13489.08
677.741	13499.93
678.09	13395.3
678.438	13373.83
678.787	13449.53
679.135	13497.67
679.484	13340.38
679.832	13393.72
680.181	13310.55
680.529	13325.92
680.877	13296.54
681.225	13317.56
681.573	13337.45
681.922	13152.37
682.27	13227.39
682.618	13195.3
682.966	13130.45
683.314	13202.08
683.661	13158.69
684.009	13093.38
684.357	13053.61
684.705	13019.04
685.053	13058.36
685.4	12924.8
685.748	12925.93
686.095	12825.59
686.443	12845.26
686.79	12777.91
687.138	12892.03
687.485	12828.08
687.832	12789.44
688.18	12696.78
688.527	12721.19
688.874	12680.29
689.221	12670.34
689.568	12618.59
689.915	12560.52
690.262	12545.6
690.609	12535.21
690.956	12453.63
691.303	12509.22
691.65	12370.47
691.997	12364.82
692.344	12285.95
692.69	12249.56
693.037	12276.46
693.383	12130.47
693.73	12206.85
694.077	12186.97
694.423	12086.86
694.769	11944.26
695.116	12007.09
695.462	12014.54
695.808	11984.94
696.155	11934.54
696.501	11766.41
696.847	11820.65
697.193	11685.74
697.539	11767.09
697.885	11718.28
698.231	11708.56
698.577	11687.77
698.923	11639.86
699.269	11480.77
699.614	11457.27
699.96	11483.71
700.306	11456.37
700.651	11338.4
700.997	11354.45
701.342	11294.11
701.688	11241.46
702.033	11235.35
702.379	11193.1
702.724	11196.26
703.069	11239.2
703.415	11062.48
703.76	11051.4
704.105	11057.05
704.45	10988.13
704.795	10958.75
705.14	10889.15
705.485	10917.17
705.83	10725.54
706.175	10785.2
706.52	10832.65
706.865	10756.5
707.209	10666.1
707.554	10693.45
707.899	10662.04
708.243	10649.38
708.588	10592.89
708.932	10527.35
709.277	10436.73
709.621	10433.57
709.966	10546.11
710.31	10531.42
710.654	10387.47
710.998	10403.06
711.342	10415.04
711.687	10403.51
712.031	10335.94
712.375	10271.54
712.719	10311.54
713.063	10268.37
713.407	10265.21
713.75	10226.79
714.094	10272.44
714.438	10218.88
714.782	10228.38
715.125	10219.11
715.469	10152.22
715.812	10122.84
716.156	10072.45
716.499	10091.66
716.843	10158.32
717.186	10033.13
717.53	10052.11
717.873	10114.93
718.216	9964.65
718.559	9968.04
718.902	9958.1
719.246	9950.87
719.589	9889.85
719.932	9847.37
720.275	9885.79
720.617	9857.76
720.96	9853.02
721.303	9830.19
721.646	9829.97
721.989	9752.91
722.331	9823.41
722.674	9754.04
723.016	9779.12
723.359	9760.59
723.701	9767.37
724.044	9792.45
724.386	9660.25
724.729	9688.95
725.071	9737.09
725.413	9683.98
725.755	9624.1
726.097	9629.29
726.439	9640.59
726.782	9616.41
727.124	9669.07
727.465	9641.05
727.807	9545.68
728.149	9599.47
728.491	9598.34
728.833	9570.09
729.175	9576.64
729.516	9616.87
729.858	9590.43
730.199	9667.71
730.541	9614.38
730.882	9550.2
731.224	9654.83
731.565	9568.51
731.906	9618
732.248	9656.64
732.589	9535.51
732.93	9567.15
733.271	9535.51
733.612	9515.63
733.953	9567.83
734.294	9499.58
734.635	9507.72
734.976	9543.87
735.317	9460.03
735.658	9480.15
735.999	9530.99
736.339	9584.1
736.68	9612.8
737.021	9575.96
737.361	9556.08
737.702	9599.24
738.042	9549.52
738.383	9596.75
738.723	9585.68
739.063	9577.54
739.404	9624.32
739.744	9674.94
740.084	9637.43
740.424	9620.48
740.764	9626.58
741.104	9787.48
741.444	9646.24
741.784	9643.53
742.124	9713.13
742.464	9774.38
742.804	9755.17
743.143	9672.68
743.483	9825.67
743.823	9817.99
744.162	9806.24
744.502	9892.56
744.841	9820.48
745.181	9915.84
745.52	9986.12
745.86	10033.35
746.199	9996.29
746.538	10072.67
746.877	10107.47
747.216	10188.15
747.556	10139.34
747.895	10316.51
748.234	10280.58
748.573	10324.42
748.911	10407.13
749.25	10510.85
749.589	10528.48
749.928	10551.53
750.267	10660.68
750.605	10706.55
750.944	10824.52
751.283	10869.49
751.621	10923.95
751.96	11025.42
752.298	11147.67
752.636	11342.02
752.975	11373.88
753.313	11396.93
753.651	11598.51
753.989	11666.08
754.327	11829.46
754.666	11860.42
755.004	12057.48
755.342	12269.9
755.679	12381.09
756.017	12493.63
756.355	12673.51
756.693	12836.67
757.031	12999.38
757.368	13040.05
757.706	13209.54
758.044	13379.25
758.381	13594.39
758.719	13710.54
759.056	13984.43
759.394	14108.95
759.731	14192.11
760.068	14390.75
760.405	14628.03
760.743	14712.78
761.08	14899.44
761.417	15131.3
761.754	15308.69
762.091	15523.15
762.428	15694.67
762.765	15764.5
763.102	16043.14
763.438	16121.78
763.775	16268.22
764.112	16557.93
764.449	16667.75
764.785	16912.27
765.122	16924.47
765.458	17083.79
765.795	17338.7
766.131	17553.83
766.467	17670.21
766.804	17746.82
767.14	17922.64
767.476	18129.41
767.812	18306.35
768.148	18385.67
768.485	18624.09
768.821	18544.09
769.157	18756.51
769.492	18942.04
769.828	19074.24
770.164	19053.45
770.5	19103.62
770.836	19365.54
771.171	19319.21
771.507	19456.38
771.842	19540.45
772.178	19754.23
772.513	19819.31
772.849	19989.02
773.184	19993.09
773.519	20089.81
773.855	20048.68
774.19	20169.58
774.525	20187.21
774.86	20434.43
775.195	20458.39
775.53	20460.42
775.865	20422.46
776.2	20358.5
776.535	20415.23
776.87	20558.05
777.205	20597.59
777.539	20586.29
777.874	20675.56
778.209	20666.52
778.543	20641.89
778.878	20716.23
779.212	20716.91
779.547	20732.05
779.881	20902.22
780.215	20748.78
780.55	20851.82
780.884	20831.49
781.218	20726.86
781.552	20874.42
781.886	20812.96
782.22	20765.05
782.554	20844.37
782.888	20663.35
783.222	20819.28
783.556	20684.37
783.889	20623.81
784.223	20583.13
784.557	20616.58
784.89	20708.1
785.224	20647.76
785.557	20469.01
785.891	20540.65
786.224	20540.19
786.558	20563.92
786.891	20525.96
787.224	20415.23
787.557	20405.73
787.891	20373.42
788.224	20445.51
788.557	20409.35
788.89	20404.15
789.223	20485.05
789.556	20296.36
789.888	20306.3
790.221	20325.51
790.554	20127.1
790.887	20198.51
791.219	20132.75
791.552	20026.54
791.884	19974.33
792.217	20075.35
792.549	19958.06
792.882	19804.17
793.214	19881
793.546	19868.57
793.879	19697.28
794.211	19723.27
794.543	19721.01
794.875	19807.11
795.207	19841.23
795.539	19611.86
795.871	19674.68
796.203	19401.69
796.535	19396.04
796.867	19346.55
797.198	19282.6
797.53	19334.8
797.862	19276.27
798.193	19264.52
798.525	19209.38
798.856	19257.74
799.188	19046
799.519	19053.23
799.85	18956.28
800.182	18952.21
800.513	18923.51
800.844	18882.84
801.175	18879
801.506	18797.42
801.837	18800.35
802.168	18720.13
802.499	18711.09
802.83	18628.61
803.161	18607.14
803.491	18580.25
803.822	18565.78
804.153	18428.16
804.483	18340.25
804.814	18262.06
805.145	18264.32
805.475	18232.46
805.805	18179.35
806.136	18167.83
806.466	18144.1
806.796	18160.82
807.126	17989.3
807.457	18074.04
807.787	18093.71
808.117	17951.56
808.447	17990.66
808.777	17839.7
809.107	17789.76
809.436	17843.99
809.766	17819.36
810.096	17659.37
810.426	17681.51
810.755	17693.49
811.085	17583.44
811.414	17573.94
811.744	17452.37
812.073	17444.23
812.403	17482.42
812.732	17376.66
813.061	17376.44
813.39	17380.28
813.719	17245.59
814.049	17339.83
814.378	17297.79
814.707	17253.95
815.036	17188.64
815.365	17053.05
815.693	17002.89
816.022	17009.89
816.351	16953.85
816.68	16899.39
817.008	16936.67
817.337	16891.7
817.665	16776
817.994	16810.8
818.322	16748.66
818.651	16687.64
818.979	16631.37
819.307	16741.42
819.636	16719.05
819.964	16564.03
820.292	16763.12
820.62	16665.49
820.948	16588.66
821.276	16685.83
821.604	16561.77
821.932	16598.38
822.259	16603.8
822.587	16517.48
822.915	16567.64
823.243	16619.62
823.57	16541.88
823.898	16585.5
824.225	16486.06
824.553	16531.94
824.88	16528.55
825.207	16682.89
825.535	16604.25
825.862	16502.11
826.189	16612.61
826.516	16609.45
826.843	16593.86
827.17	16535.78
827.497	16689.9
827.824	16580.75
828.151	16653.06
828.478	16684.93
828.805	16618.26
829.131	16616
829.458	16531.49
829.785	16478.38
830.111	16558.83
830.438	16579.62
830.764	16532.16
831.09	16635.44
831.417	16462.79
831.743	16490.13
832.069	16472.96
832.395	16431.15
832.722	16418.27
833.048	16464.6
833.374	16507.53
833.7	16434.77
834.026	16475.67
834.351	16505.95
834.677	16430.47
835.003	16412.85
835.329	16383.24
835.654	16349.57
835.98	16340.98
836.306	16383.47
836.631	16292.85
836.956	16304.6
837.282	16338.5
837.607	16244.94
837.932	16297.59
838.258	16251.72
838.583	16211.04
838.908	16022.35
839.233	16096.7
839.558	16123.14
839.883	16025.06
840.208	15965.63
840.533	15981.22
840.858	16071.39
841.182	16026.19
841.507	15963.37
841.832	15872.07
842.156	15932.86
842.481	15864.39
842.805	15796.82
843.13	15772.86
843.454	15785.29
843.778	15679.08
844.103	15638.4
844.427	15641.11
844.751	15558.18
845.075	15547.11
845.399	15494.45
845.723	15357.51
846.047	15421.23
846.371	15332.2
846.695	15332.42
847.019	15251.29
847.343	15156.38
847.666	15092.65
847.99	15057.63
848.313	15073.67
848.637	14891.3
848.96	14907.8
849.284	14800.91
849.607	14746
849.931	14713.23
850.254	14606.34
850.577	14539.9
850.9	14529.28
851.223	14464.65
851.546	14337.87
851.869	14304.2
852.192	14297.19
852.515	14168.61
852.838	14091.55
853.161	14120.25
853.483	14138.1
853.806	14011.33
854.129	13909.41
854.451	13867.83
854.774	13879.35
855.096	13843.2
855.419	13823.08
855.741	13805.68
856.063	13693.14
856.385	13647.49
856.708	13630.77
857.03	13574.28
857.352	13577.89
857.674	13502.19
857.996	13405.92
858.318	13419.25
858.64	13442.98
858.961	13340.84
859.283	13322.53
859.605	13286.83
859.926	13361.4
860.248	13172.48
860.57	13180.61
860.891	13147.17
861.212	13144.46
861.534	12974.29
861.855	12999.15
862.176	13043.67
862.498	13087.28
862.819	13051.58
863.14	13012.71
863.461	12913.95
863.782	12891.13
864.103	12892.49
864.424	12837.35
864.745	12898.14
865.065	12764.35
865.386	12769.55
865.707	12691.81
866.027	12725.26
866.348	12741.08
866.668	12685.71
866.989	12710.12
867.309	12675.54
867.63	12607.3
867.95	12575.66
868.27	12517.81
868.59	12541.53
868.91	12514.42
869.23	12494.76
869.55	12389
869.87	12516.9
870.19	12530.69
870.51	12461.08
870.83	12450.46
871.15	12360.97
871.469	12346.29
871.789	12358.94
872.109	12401.43
872.428	12257.47
872.748	12260.86
873.067	12280.75
873.386	12308.09
873.706	12226.51
874.025	12104.48
874.344	12126.86
874.663	12200.3
874.982	12138.83
875.301	12122.34
875.62	12097.7
875.939	11998.72
876.258	12103.35
876.577	12016.35
876.896	12089.12
877.214	12024.49
877.533	12014.99
877.852	11922.12
878.17	11986.52
878.489	11929.35
878.807	11953.08
879.125	11946.75
879.444	11917.37
879.762	11780.65
880.08	11900.87
880.398	11781.55
880.716	11860.2
881.034	11640.09
881.352	11765.74
881.67	11695.68
881.988	11711.5
882.306	11674.44
882.624	11636.02
882.941	11577.27
883.259	11536.14
883.577	11528.91
883.894	11536.14
884.212	11549.47
884.529	11485.97
884.846	11437.38
885.164	11367.55
885.481	11299.99
885.798	11393.54
886.115	11321.91
886.432	11290.04
886.75	11175.24
887.067	11207.33
887.383	11257.95
887.7	11196.26
888.017	11153.77
888.334	11142.48
888.651	11125.75
888.967	11076.49
889.284	11077.84
889.6	11055.7
889.917	10954.46
890.233	11001.01
890.55	10892.99
890.866	10953.1
891.182	10841.24
891.498	10896.15
891.815	10884.18
892.131	10759.89
892.447	10709.27
892.763	10708.59
893.079	10700.45
893.395	10617.29
893.71	10658.42
894.026	10520.8
894.342	10578.87
894.657	10443.51
894.973	10444.41
895.289	10469.27
895.604	10394.02
895.92	10331.2
896.235	10348.82
896.55	10293.68
896.865	10271.09
897.181	10228.15
897.496	10156.29
897.811	10143.18
898.126	10241.48
898.441	10110.64
898.756	10063.86
899.071	10038.78
899.386	10083.75
899.7	9925.11
900.015	9865.9
900.33	9821.15
900.644	9736.86
900.959	9819.8
901.273	9789.29
901.588	9762.85
901.902	9677.2
902.216	9677.43
902.531	9638.56
902.845	9536.42
903.159	9529.18
903.473	9463.42
903.787	9418.23
904.101	9421.84
904.415	9434.95
904.729	9346.82
905.042	9297.78
905.356	9296.2
905.67	9241.73
905.984	9308.63
906.297	9202.87
906.611	9166.03
906.924	9177.56
907.237	9119.03
907.551	9082.19
907.864	9025.47
908.177	8970.1
908.491	8957
908.804	8846.26
909.117	8862.08
909.43	8815.3
909.743	8737.34
910.056	8787.74
910.368	8712.03
910.681	8685.82
910.994	8669.55
911.307	8636.33
911.619	8572.6
911.932	8560.17
912.244	8434.3
912.557	8468.42
912.869	8394.07
913.181	8418.25
913.494	8331.93
913.806	8300.97
914.118	8338.71
914.43	8255.55
914.742	8197.24
915.054	8211.25
915.366	8201.08
915.678	8127.64
915.99	8051.03
916.302	8022.78
916.613	8022.11
916.925	8003.8
917.236	7937.36
917.548	7928.55
917.859	7911.15
918.171	7892.17
918.482	7865.05
918.794	7825.95
919.105	7773.07
919.416	7677.48
919.727	7667.54
920.038	7696.01
920.349	7612.62
920.66	7595.9
920.971	7594.09
921.282	7512.74
921.593	7493.53
921.903	7490.14
922.214	7425.74
922.525	7391.61
922.835	7363.37
923.146	7346.19
923.456	7315.91
923.767	7287.89
924.077	7273.65
924.387	7193.2
924.697	7209.47
925.008	7159.76
925.318	7115.69
925.628	7090.38
925.938	7098.97
926.248	7057.61
926.558	7014.45
926.867	7018.52
927.177	6974.68
927.487	6919.08
927.796	6814.68
928.106	6852.42
928.416	6867.11
928.725	6848.8
929.034	6793.89
929.344	6783.95
929.653	6759.99
929.962	6707.34
930.271	6708.02
930.581	6583.95
930.89	6648.81
931.199	6570.17
931.508	6575.59
931.817	6575.82
932.125	6536.72
932.434	6539.88
932.743	6513.67
933.051	6429.6
933.36	6434.35
933.669	6368.36
933.977	6355.93
934.286	6318.65
934.594	6281.59
934.902	6223.51
935.21	6284.3
935.519	6233.45
935.827	6183.28
936.135	6135.6
936.443	6120.91
936.751	6101.03
937.059	6133.34
937.367	6040.01
937.674	6112.33
937.982	5989.62
938.29	6004.31
938.597	6028.26
938.905	5895.61
939.213	5899.68
939.52	5866.91
939.827	5905.55
940.135	5833.91
940.442	5828.04
940.749	5835.04
941.056	5830.98
941.363	5711.21
941.67	5722.96
941.977	5672.79
942.284	5609.74
942.591	5647.03
942.898	5604.54
943.205	5614.49
943.511	5542.62
943.818	5517.31
944.125	5535.84
944.431	5505.56
944.738	5504.21
945.044	5476.18
945.35	5397.54
945.657	5378.56
945.963	5376.07
946.269	5341.05
946.575	5358.67
946.881	5271.67
947.187	5299.92
947.493	5270.54
947.799	5226.47
948.105	5191.67
948.41	5174.27
948.716	5219.02
949.022	5160.03
949.327	5168.85
949.633	5099.24
949.938	5126.59
950.244	5106.48
950.549	5087.95
950.854	4994.39
951.16	5000.72
951.465	4957.78
951.77	4936.08
952.075	4906.26
952.38	4893.15
952.685	4900.15
952.99	4898.57
953.294	4854.28
953.599	4819.48
953.904	4786.48
954.209	4776.99
954.513	4786.48
954.818	4744.68
955.122	4714.17
955.426	4666.94
955.731	4666.71
956.035	4671.23
956.339	4590.78
956.643	4623.78
956.948	4623.78
957.252	4581.29
957.556	4548.07
957.86	4532.03
958.163	4573.16
958.467	4483.67
958.771	4475.08
959.075	4501.29
959.378	4439.6
959.682	4418.13
959.985	4386.04
960.289	4397.57
960.592	4349.89
960.896	4338.13
961.199	4330.45
961.502	4319.38
961.805	4297.01
962.108	4210.91
962.411	4247.52
962.714	4244.13
963.017	4174.3
963.32	4180.4
963.623	4214.3
963.926	4149.66
964.228	4130.46
964.531	4123.45
964.833	4076.45
965.136	4040.97
965.438	4043.9
965.741	4076.9
966.043	4044.13
966.345	4072.38
966.648	3974.75
966.95	3967.97
967.252	3935.43
967.554	3953.06
967.856	3904.93
968.158	3866.06
968.46	3897.47
968.761	3890.46
969.063	3831.03
969.365	3847.75
969.666	3859.5
969.968	3758.94
970.269	3788.09
970.571	3788.32
970.872	3746.29
971.174	3705.83
971.475	3672.39
971.776	3709.45
972.077	3704.48
972.378	3632.16
972.679	3653.86
972.98	3693.18
973.281	3615.44
973.582	3616.57
973.883	3617.7
974.183	3607.31
974.484	3610.7
974.785	3546.97
975.085	3541.77
975.386	3542.68
975.686	3494.09
975.986	3475.78
976.287	3473.75
976.587	3437.14
976.887	3467.2
977.187	3448.44
977.487	3415.22
977.787	3375.45
978.087	3385.17
978.387	3350.36
978.687	3335.68
978.987	3327.99
979.286	3306.75
979.586	3306.75
979.885	3275.56
980.185	3293.42
980.484	3257.03
980.784	3211.38
981.083	3238.5
981.382	3217.03
981.682	3198.28
981.981	3205.28
982.28	3169.35
982.579	3171.61
982.878	3171.84
983.177	3099.3
983.475	3113.76
983.774	3083.48
984.073	3081.9
984.372	3031.05
984.67	3070.82
984.969	3022.24
985.267	3059.52
985.566	3035.34
985.864	2968.45
986.162	2982.24
986.461	2993.54
986.759	2936.36
987.057	2946.53
987.355	2905.4
987.653	2928.68
987.951	2883.94
988.249	2890.94
988.547	2850.94
988.844	2830.6
989.142	2840.77
989.44	2844.39
989.737	2815.01
990.035	2801.9
990.332	2787.67
990.63	2806.65
990.927	2725.07
991.224	2711.06
991.521	2707.44
991.819	2754
992.116	2717.16
992.413	2690.27
992.71	2708.35
993.006	2682.36
993.303	2698.4
993.6	2659.99
993.897	2655.92
994.193	2646.88
994.49	2589.25
994.787	2615.69
995.083	2597.62
995.379	2604.85
995.676	2560.1
995.972	2546.77
996.268	2563.94
996.565	2503.15
996.861	2509.71
997.157	2497.5
997.453	2500.44
997.749	2456.83
998.044	2452.76
998.34	2486.88
998.636	2444.17
998.932	2426.32
999.227	2405.98
999.523	2402.82
999.818	2372.99
1000.114	2339.09
1000.409	2350.16
1000.704	2337.28
1001	2321.69
1001.295	2322.37
1001.59	2322.82
1001.885	2308.58
1002.18	2297.06
1002.475	2280.56
1002.77	2288.7
1003.065	2242.37
1003.359	2256.38
1003.654	2239.21
1003.949	2245.08
1004.243	2166.89
1004.538	2193.11
1004.832	2196.72
1005.127	2157.4
1005.421	2154.01
1005.715	2123.5
1006.009	2098.87
1006.304	2142.49
1006.598	2102.71
1006.892	2106.1
1007.186	2054.35
1007.48	2052.77
1007.773	2018.42
1008.067	2013.68
1008.361	2041.7
1008.655	2026.78
1008.948	2006.67
1009.242	1981.13
1009.535	1965.77
1009.829	2008.93
1010.122	1967.35
1010.415	1944.98
1010.708	1929.61
1011.001	1962.15
1011.295	1932.32
1011.588	1924.64
1011.881	1867.01
1012.173	1874.92
1012.466	1835.83
1012.759	1870.18
1013.052	1844.64
1013.344	1821.14
1013.637	1850.06
1013.93	1794.25
1014.222	1789.5
1014.514	1787.69
1014.807	1783.4
1015.099	1752.67
1015.391	1732.78
1015.683	1772.33
1015.976	1752.89
1016.268	1755.15
1016.56	1683.52
1016.851	1711.31
1017.143	1693.01
1017.435	1681.26
1017.727	1667.92
1018.018	1631.31
1018.31	1657.75
1018.602	1659.79
1018.893	1642.84
1019.185	1618.21
1019.476	1608.71
1019.767	1590.86
1020.058	1591.77
1020.35	1582.27
1020.641	1587.02
1020.932	1578.89
1021.223	1530.52
1021.514	1530.75
1021.804	1537.53
1022.095	1485.1
1022.386	1517.19
1022.677	1520.81
1022.967	1507.25
1023.258	1505.21
1023.548	1464.76
1023.839	1483.97
1024.129	1450.98
1024.419	1420.92
1024.709	1415.27
1025	1432
1025.29	1406.01
1025.58	1401.94
1025.87	1396.74
1026.16	1379.12
1026.449	1379.34
1026.739	1345.9
1027.029	1347.25
1027.319	1348.16
1027.608	1352.22
1027.898	1309.74
1028.187	1301.15
1028.477	1319.68
1028.766	1329.85
1029.055	1279.68
1029.344	1296.86
1029.634	1283.07
1029.923	1251.21
1030.212	1260.93
1030.501	1254.37
1030.79	1261.61
1031.078	1240.36
1031.367	1210.53
1031.656	1201.95
1031.945	1199.01
1032.233	1200.59
1032.522	1203.08
1032.81	1180.7
1033.099	1165.56
1033.387	1166.47
1033.675	1143.19
1033.963	1149.52
1034.251	1149.97
1034.54	1137.31
1034.828	1149.52
1035.116	1101.84
1035.403	1112.68
1035.691	1111.78
1035.979	1117.65
1036.267	1104.32
1036.554	1087.82
1036.842	1089.63
1037.129	1079.46
1037.417	1071.1
1037.704	1060.03
1037.992	1031.55
1038.279	1050.76
1038.566	1045.57
1038.853	1045.57
1039.14	1045.57
