Data from hue_180_FLMS001491_00061.txt Node
Date: Tue Feb 07 16:47:18 GMT 2017
User: dcchb
Spectrometer: FLMS00149
Trigger mode: 0
Integration Time (sec): 2.000000E-2
Scans to average: 10
Electric dark correction enabled: true
Nonlinearity correction enabled: false
Boxcar width: 0
XAxis mode: Wavelengths
Number of Pixels in Spectrum: 2048
>>>>>Begin Spectral Data<<<<<
341.393	-10.9
341.776	-10.9
342.16	-10.9
342.543	-76.21
342.927	-72.82
343.31	-61.75
343.693	-58.59
344.077	-80.28
344.46	-61.52
344.843	-47.51
345.226	-49.32
345.61	-33.05
345.993	-26.04
346.376	-4.35
346.759	22.54
347.142	37.91
347.525	32.71
347.908	59.38
348.291	66.61
348.674	85.36
349.057	117.91
349.44	122.2
349.823	128.08
350.206	167.17
350.588	202.2
350.971	204.46
351.354	204.46
351.737	213.72
352.119	218.69
352.502	253.27
352.884	262.76
353.267	272.25
353.65	278.58
354.032	271.57
354.414	301.18
354.797	284.46
355.179	289.65
355.562	328.3
355.944	303.66
356.326	321.97
356.709	320.16
357.091	324.68
357.473	307.51
357.855	346.15
358.238	343.21
358.62	344.34
359.002	319.03
359.384	343.89
359.766	312.03
360.148	324.68
360.53	350.44
360.912	324.91
361.294	328.3
361.676	310.22
362.057	312.7
362.439	325.58
362.821	315.87
363.203	311.35
363.584	305.47
363.966	310.9
364.348	300.27
364.729	296.21
365.111	307.28
365.493	308.41
365.874	300.5
366.256	289.43
366.637	306.83
367.019	314.74
367.4	281.97
367.781	307.96
368.163	318.35
368.544	301.18
368.925	285.81
369.306	310.67
369.688	298.24
370.069	307.73
370.45	287.85
370.831	291.91
371.212	294.4
371.593	302.76
371.974	294.4
372.355	303.66
372.736	320.61
373.117	295.3
373.498	305.02
373.879	302.76
374.26	289.88
374.641	303.89
375.021	293.5
375.402	306.6
375.783	294.4
376.163	303.44
376.544	312.25
376.925	326.49
377.305	313.16
377.686	296.88
378.066	307.05
378.447	324.68
378.827	316.09
379.208	305.47
379.588	320.61
379.968	314.51
380.349	327.39
380.729	336.88
381.109	335.98
381.489	319.03
381.87	334.4
382.25	342.76
382.63	325.36
383.01	336.43
383.39	307.05
383.77	337.56
384.15	328.07
384.53	344.34
384.91	340.95
385.29	328.97
385.67	336.88
386.049	337.56
386.429	336.21
386.809	312.93
387.189	359.03
387.568	334.17
387.948	324
388.328	359.03
388.707	343.66
389.087	337.11
389.466	348.63
389.846	354.51
390.225	333.27
390.605	351.12
390.984	366.04
391.363	353.15
391.743	359.26
392.122	367.39
392.501	362.19
392.881	373.04
393.26	360.39
393.639	377.79
394.018	386.15
394.397	371.69
394.776	374.62
395.155	372.82
395.534	367.62
395.913	377.56
396.292	372.14
396.671	391.8
397.05	369.2
397.429	371.01
397.808	352.93
398.186	391.8
398.565	391.12
398.944	408.75
399.323	404.23
399.701	386.37
400.08	406.26
400.458	401.74
400.837	400.84
401.215	399.71
401.594	390.67
401.972	399.26
402.351	392.25
402.729	396.32
403.107	430.67
403.486	435.86
403.864	421.18
404.242	431.8
404.62	432.25
404.999	434.06
405.377	420.05
405.755	444.45
406.133	438.35
406.511	419.37
406.889	431.8
407.267	458.01
407.645	449.42
408.023	478.8
408.401	468.86
408.779	489.2
409.156	470.89
409.534	486.48
409.912	502.76
410.29	510.44
410.667	499.14
411.045	506.37
411.422	530.78
411.8	520.83
412.178	521.51
412.555	547.95
412.933	546.82
413.31	551.12
413.687	545.92
414.065	559.48
414.442	530.78
414.819	589.08
415.197	598.8
415.574	571.91
415.951	589.08
416.328	609.19
416.705	598.8
417.082	594.28
417.46	608.52
417.837	604.67
418.214	620.94
418.591	627.5
418.967	638.12
419.344	632.7
419.721	658.91
420.098	678.8
420.475	714.73
420.852	693.71
421.228	683.99
421.605	728.74
421.982	706.59
422.358	736.2
422.735	761.96
423.111	773.48
423.488	751.56
423.864	781.39
424.241	783.2
424.617	778.68
424.994	786.59
425.37	795.18
425.746	828.62
426.123	836.08
426.499	843.31
426.875	855.51
427.251	864.1
427.627	888.96
428.003	893.71
428.379	879.02
428.756	887.83
429.132	931.44
429.507	946.59
429.883	945
430.259	921.28
430.635	946.13
431.011	966.92
431.387	1018.67
431.763	1010.54
432.138	990.65
432.514	1033.81
432.89	1026.36
433.265	1070.42
433.641	1051.44
434.016	1082.17
434.392	1122.4
434.767	1134.15
435.143	1151.33
435.518	1176.41
435.894	1183.64
436.269	1188.84
436.644	1232
437.02	1214.15
437.395	1221.38
437.77	1259.35
438.145	1273.81
438.52	1299.12
438.895	1312
439.271	1329.85
439.646	1378.21
440.021	1354.71
440.395	1385.44
440.77	1383.64
441.145	1421.83
441.52	1446.91
441.895	1444.88
442.27	1443.3
442.645	1467.02
443.019	1496.85
443.394	1462.05
443.769	1512.45
444.143	1502.95
444.518	1525.78
444.892	1535.72
445.267	1568.04
445.641	1578.21
446.016	1581.14
446.39	1573.24
446.764	1594.03
447.139	1622.73
447.513	1632.44
447.887	1651.88
448.262	1643.06
448.636	1673.12
449.01	1674.48
449.384	1691.42
449.758	1726.9
450.132	1743.4
450.506	1767.81
450.88	1770.07
451.254	1781.59
451.628	1796.73
452.002	1831.08
452.376	1818.43
452.75	1857.07
453.123	1872.21
453.497	1895.03
453.871	1907.24
454.244	1945.43
454.618	1940.46
454.992	1968.71
455.365	1970.51
455.739	2048.7
456.112	2056.39
456.486	2058.65
456.859	2081.7
457.232	2126.89
457.606	2168.47
457.979	2160.34
458.352	2230.17
458.725	2197.4
459.099	2233.78
459.472	2277.17
459.845	2280.11
460.218	2326.66
460.591	2370.28
460.964	2375.25
461.337	2417.96
461.71	2446.21
462.083	2500.67
462.456	2516.94
462.829	2527.11
463.201	2573.89
463.574	2582.7
463.947	2602.13
464.32	2678.29
464.692	2723.49
465.065	2738.85
465.438	2761
465.81	2810.72
466.183	2841
466.555	2931.17
466.928	2894.33
467.3	2895.46
467.672	3000.54
468.045	3065.17
468.417	3049.13
468.789	3122.12
469.161	3151.27
469.534	3210.25
469.906	3268.11
470.278	3313.53
470.65	3344.49
471.022	3387.43
471.394	3476.91
471.766	3517.37
472.138	3550.58
472.51	3672.62
472.882	3705.83
473.253	3745.61
473.625	3824.48
473.997	3896.34
474.369	3910.8
474.74	3953.06
475.112	4007.97
475.484	4154.18
475.855	4220.17
476.227	4277.35
476.598	4355.08
476.97	4492.48
477.341	4552.37
477.713	4609.31
478.084	4654.28
478.455	4798.46
478.827	4837.33
479.198	4993.26
479.569	4993.03
479.94	5163.88
480.311	5234.61
480.682	5333.59
481.053	5463.75
481.424	5566.12
481.795	5622.85
482.166	5725.22
482.537	5779
482.908	5901.94
483.279	6042.72
483.65	6206.56
484.021	6289.04
484.391	6347.8
484.762	6371.53
485.133	6509.38
485.503	6621.01
485.874	6756.6
486.244	6804.28
486.615	6982.13
486.985	7072.07
487.356	7203.37
487.726	7259.64
488.097	7444.95
488.467	7467.77
488.837	7678.61
489.207	7777.14
489.578	7887.87
489.948	7932.84
490.318	8036.57
490.688	8116.79
491.058	8339.84
491.428	8322.21
491.798	8464.81
492.168	8611.92
492.538	8663.67
492.908	8805.59
493.278	8865.47
493.648	8897.56
494.017	9075.41
494.387	9121.74
494.757	9263.88
495.126	9302.3
495.496	9378.68
495.866	9370.54
496.235	9512.01
496.605	9587.94
496.974	9618.22
497.344	9729.86
497.713	9754.49
498.082	9919.91
498.452	9907.03
498.821	9998.55
499.19	10008.95
499.559	10175.5
499.928	10147.02
500.298	10235.15
500.667	10336.62
501.036	10321.93
501.405	10337.3
501.774	10362.83
502.143	10432.66
502.512	10468.37
502.88	10578.42
503.249	10573.22
503.618	10646.67
503.987	10664.97
504.356	10678.08
504.724	10779.77
505.093	10772.54
505.462	10813.22
505.83	10823.84
506.199	10884.4
506.567	11038.75
506.936	10960.56
507.304	11020.22
507.672	11163.04
508.041	11121.23
508.409	11190.84
508.777	11222.93
509.145	11285.07
509.514	11284.17
509.882	11356.03
510.25	11252.98
510.618	11411.17
510.986	11340.66
511.354	11428.34
511.722	11469.25
512.09	11521.22
512.458	11511.96
512.826	11584.95
513.193	11614.55
513.561	11586.08
513.929	11602.58
514.297	11696.59
514.664	11746.53
515.032	11666.3
515.4	11811.38
515.767	11795.34
516.135	11842.57
516.502	11735
516.869	11822.23
517.237	11906.75
517.604	11687.09
517.972	11881.89
518.339	11875.34
518.706	11898.39
519.073	11829.24
519.44	11947.2
519.808	12042.34
520.175	11930.7
520.542	12030.81
520.909	12051.15
521.276	11984.49
521.643	12047.08
522.009	12019.51
522.376	12050.93
522.743	12080.98
523.11	12135.67
523.477	12229.68
523.843	12187.19
524.21	12256.34
524.577	12276.23
524.943	12337.47
525.31	12246.4
525.676	12302.9
526.043	12304.7
526.409	12248.44
526.776	12306.29
527.142	12299.06
527.508	12333.18
527.874	12291.82
528.241	12357.36
528.607	12376.57
528.973	12346.96
529.339	12319.17
529.705	12341.31
530.071	12420.86
530.437	12323.24
530.803	12412.27
531.169	12327.3
531.535	12260.19
531.901	12315.1
532.267	12253.18
532.632	12293.41
532.998	12241.66
533.364	12182.67
533.73	12211.6
534.095	12220.87
534.461	12056.35
534.826	12091.6
535.192	12081.21
535.557	12100.19
535.923	11996.46
536.288	12010.93
536.653	12020.42
537.019	11884.83
537.384	11876.02
537.749	11855.9
538.114	11880.99
538.479	11749.24
538.845	11772.74
539.21	11741.1
539.575	11651.84
539.94	11630.37
540.305	11656.13
540.67	11600.77
541.034	11625.17
541.399	11504.27
541.764	11529.13
542.129	11450.94
542.494	11435.8
542.858	11418.63
543.223	11329.36
543.587	11299.08
543.952	11291.17
544.316	11307.44
544.681	11123.94
545.045	11259.31
545.41	11137.96
545.774	11120.1
546.138	11019.99
546.503	10978.86
546.867	10908.58
547.231	11006.43
547.595	10860.9
547.959	10838.53
548.324	10792.88
548.688	10677.18
549.052	10718.53
549.416	10659.1
549.779	10630.85
550.143	10591.08
550.507	10620.91
550.871	10568.48
551.235	10483.74
551.599	10510.18
551.962	10462.95
552.326	10447.8
552.689	10463.17
553.053	10374.13
553.417	10315.15
553.78	10397.64
554.143	10312.67
554.507	10293.91
554.87	10207.13
555.234	10285.32
555.597	10154.25
555.96	10050.75
556.323	10084.42
556.686	10055.05
557.05	10103.86
557.413	10076.97
557.776	10074.48
558.139	10077.42
558.502	10018.89
558.865	9985.67
559.228	10037.42
559.59	9983.86
559.953	9930.3
560.316	10003.97
560.679	9943.64
561.041	9986.8
561.404	9939.8
561.767	9983.41
562.129	9902.96
562.492	9923.75
562.854	9864.77
563.217	9850.76
563.579	9888.95
563.941	9923.75
564.304	9821.38
564.666	9931.21
565.028	9956.97
565.39	9867.93
565.753	9897.08
566.115	9949.74
566.477	9885.11
566.839	9901.38
567.201	10002.62
567.563	9997.65
567.925	9942.96
568.287	9961.72
568.648	9962.17
569.01	9918.33
569.372	9946.8
569.734	9906.58
570.095	9940.7
570.457	9859.8
570.819	9982.28
571.18	9968.72
571.542	10034.93
571.903	9865.22
572.265	9926.91
572.626	9958.78
572.987	9979.57
573.349	10001.49
573.71	9992.22
574.071	9959.46
574.432	9993.81
574.794	9997.65
575.155	10003.3
575.516	9957.65
575.877	9959
576.238	9950.64
576.599	10055.5
576.96	9943.86
577.32	9984.77
577.681	9959
578.042	10046.91
578.403	10013.01
578.763	9939.34
579.124	10020.02
579.485	10034.71
579.845	10006.91
580.206	9926.69
580.566	9969.62
580.927	9935.95
581.287	9977.99
581.648	9969.85
582.008	9961.94
582.368	9937.31
582.728	9975.27
583.089	9917.42
583.449	9911.55
583.809	9901.83
584.169	10002.62
584.529	9938.44
584.889	9963.3
585.249	9862.51
585.609	9884.66
585.969	9852.79
586.329	9867.03
586.688	9906.8
587.048	9844.43
587.408	9897.54
587.768	9795.62
588.127	9871.1
588.487	9787.26
588.846	9838.33
589.206	9865.22
589.565	9735.05
589.925	9849.85
590.284	9779.12
590.643	9771.89
591.003	9774.38
591.362	9833.81
591.721	9720.14
592.08	9745.45
592.44	9710.2
592.799	9752
593.158	9705.45
593.517	9747.94
593.876	9701.16
594.235	9678.79
594.593	9680.14
594.952	9706.13
595.311	9678.11
595.67	9661.61
596.029	9722.17
596.387	9686.92
596.746	9697.99
597.104	9693.25
597.463	9635.17
597.822	9619.8
598.18	9635.17
598.538	9585
598.897	9653.93
599.255	9521.5
599.613	9679.01
599.972	9610.09
600.33	9625.68
600.688	9686.24
601.046	9631.55
601.404	9683.08
601.762	9611.22
602.12	9599.24
602.478	9665.23
602.836	9682.85
603.194	9576.41
603.552	9568.05
603.91	9571.9
604.268	9645.11
604.625	9579.13
604.983	9578
605.341	9536.64
605.698	9574.83
606.056	9551.56
606.413	9618.67
606.771	9662.74
607.128	9648.73
607.485	9526.02
607.843	9596.53
608.2	9600.37
608.557	9691.44
608.914	9552.01
609.272	9648.96
609.629	9630.88
609.986	9626.13
610.343	9612.12
610.7	9695.28
611.057	9674.94
611.414	9658.9
611.771	9648.28
612.127	9635.4
612.484	9675.4
612.841	9680.37
613.198	9636.75
613.554	9635.62
613.911	9703.42
614.267	9703.87
614.624	9687.6
614.98	9695.06
615.337	9718.11
615.693	9692.57
616.05	9730.76
616.406	9803.53
616.762	9673.59
617.118	9712.46
617.475	9723.08
617.831	9765.11
618.187	9802.4
618.543	9743.19
618.899	9815.28
619.255	9765.79
619.611	9737.09
619.967	9795.62
620.323	9716.98
620.678	9777.31
621.034	9747.94
621.39	9758.78
621.746	9730.76
622.101	9867.93
622.457	9753.81
622.812	9793.81
623.168	9773.92
623.523	9765.11
623.879	9824.32
624.234	9794.94
624.589	9813.02
624.945	9796.52
625.3	9727.6
625.655	9817.31
626.01	9761.95
626.365	9821.83
626.72	9781.83
627.075	9793.13
627.43	9814.6
627.785	9745.9
628.14	9784.54
628.495	9719.46
628.85	9738.67
629.205	9734.15
629.559	9775.96
629.914	9688.95
630.269	9643.98
630.623	9710.65
630.978	9637.66
631.332	9736.64
631.687	9706.13
632.041	9662.74
632.396	9670.2
632.75	9576.41
633.104	9608.28
633.459	9582.29
633.813	9563.76
634.167	9575.51
634.521	9560.6
634.875	9577.09
635.229	9598.34
635.583	9503.65
635.937	9507.94
636.291	9526.7
636.645	9521.05
636.999	9426.81
637.352	9554.49
637.706	9475.4
638.06	9499.13
638.413	9448.51
638.767	9467.94
639.121	9412.58
639.474	9436.53
639.828	9459.81
640.181	9402.63
640.534	9425.23
640.888	9369.41
641.241	9357.66
641.594	9414.39
641.947	9360.83
642.301	9322.64
642.654	9373.03
643.007	9416.87
643.36	9319.92
643.713	9328.51
644.066	9363.09
644.419	9255.52
644.771	9239.7
645.124	9148.86
645.477	9156.31
645.83	9106.14
646.182	9115.41
646.535	9095.52
646.888	9095.98
647.24	9010.1
647.593	9041.51
647.945	9039.25
648.298	9043.77
648.65	8988.18
649.002	9025.47
649.355	9068.63
649.707	8963.78
650.059	9052.59
650.411	9195.86
650.763	9230.44
651.115	9256.2
651.467	9259.59
651.819	9194.73
652.171	9193.15
652.523	9207.16
652.875	9208.29
653.227	9133.04
653.578	9210.77
653.93	9188.85
654.282	9193.6
654.633	9132.13
654.985	9255.29
655.337	9193.15
655.688	9180.04
656.039	9270.89
656.391	9165.8
656.742	9178.23
657.094	9202.87
657.445	9256.65
657.796	9178.46
658.147	9189.98
658.498	9160.38
658.849	9280.83
659.2	9206.48
659.551	9188.85
659.902	9262.3
660.253	9313.14
660.604	9262.98
660.955	9237.67
661.306	9157.67
661.656	9228.63
662.007	9314.5
662.358	9299.13
662.708	9300.49
663.059	9235.86
663.409	9205.58
663.76	9307.95
664.11	9292.58
664.461	9286.93
664.811	9340.94
665.161	9293.26
665.511	9208.97
665.862	9289.87
666.212	9326.25
666.562	9309.3
666.912	9297.55
667.262	9236.76
667.612	9256.65
667.962	9287.83
668.312	9289.64
668.662	9341.84
669.011	9176.65
669.361	9276.08
669.711	9239.93
670.06	9215.07
670.41	9211
670.76	9229.53
671.109	9287.83
671.459	9255.97
671.808	9190.89
672.157	9251.23
672.507	9206.03
672.856	9202.64
673.205	9229.31
673.554	9262.07
673.904	9204.67
674.253	9242.19
674.602	9229.98
674.951	9047.39
675.3	9001.06
675.649	9115.86
675.998	9140.04
676.346	9156.54
676.695	9221.4
677.044	9054.62
677.393	9188.18
677.741	9181.62
678.09	9114.28
678.438	9123.32
678.787	9108.86
679.135	9040.38
679.484	9005.13
679.832	9019.82
680.181	8947.28
680.529	8933.49
680.877	8967.62
681.225	8974.17
681.573	9018.69
681.922	8940.5
682.27	8925.36
682.618	8878.81
682.966	8892.14
683.314	8855.98
683.661	8858.47
684.009	8806.49
684.357	8764.68
684.705	8752.71
685.053	8764.46
685.4	8768.53
685.748	8726.49
686.095	8714.52
686.443	8707.96
686.79	8617.8
687.138	8693.27
687.485	8696.21
687.832	8632.03
688.18	8645.82
688.527	8519.27
688.874	8526.05
689.221	8568.53
689.568	8506.39
689.915	8498.7
690.262	8457.35
690.609	8446.28
690.956	8407.63
691.303	8350.91
691.65	8378.71
691.997	8377.58
692.344	8218.03
692.69	8232.04
693.037	8271.59
693.383	8201.76
693.73	8242.21
694.077	8157.02
694.423	8170.35
694.769	8075.21
695.116	8067.98
695.462	8091.71
695.808	8006.96
696.155	8035.66
696.501	8027.98
696.847	8024.14
697.193	7888.32
697.539	7944.82
697.885	7843.35
698.231	7808.1
698.577	7825.05
698.923	7802.45
699.269	7803.81
699.614	7681.78
699.96	7679.29
700.306	7681.78
700.651	7534.89
700.997	7569.01
701.342	7542.57
701.688	7576.47
702.033	7482.46
702.379	7468.45
702.724	7492.18
703.069	7477.71
703.415	7402.23
703.76	7386.64
704.105	7386.42
704.45	7378.28
704.795	7287.89
705.14	7294.67
705.485	7265.29
705.83	7247.44
706.175	7252.63
706.52	7176.03
706.865	7151.62
707.209	7208.79
707.554	7149.81
707.899	7116.59
708.243	7122.92
708.588	7065.97
708.932	7026.65
709.277	6985.07
709.621	7030.04
709.966	6977.84
710.31	7015.58
710.654	6937.84
710.998	6947.78
711.342	6955.01
711.687	6872.98
712.031	6887.9
712.375	6818.97
712.719	6854.9
713.063	6800.67
713.407	6828.01
713.75	6793.44
714.094	6830.72
714.438	6799.76
714.782	6750.95
715.125	6744.17
715.469	6752.99
715.812	6755.47
716.156	6698.3
716.499	6682.71
716.843	6737.85
717.186	6698.75
717.53	6725.19
717.873	6680.67
718.216	6630.73
718.559	6649.94
718.902	6648.36
719.246	6597.51
719.589	6564.52
719.932	6641.12
720.275	6628.02
720.617	6619.43
720.96	6625.31
721.303	6589.15
721.646	6603.84
721.989	6523.84
722.331	6537.62
722.674	6582.6
723.016	6504.41
723.359	6544.4
723.701	6490.39
724.044	6489.49
724.386	6478.42
724.729	6521.35
725.071	6513.22
725.413	6485.42
725.755	6503.5
726.097	6449.72
726.439	6452.88
726.782	6483.16
727.124	6471.64
727.465	6440.45
727.807	6471.41
728.149	6421.7
728.491	6435.03
728.833	6449.94
729.175	6415.37
729.516	6368.82
729.858	6454.01
730.199	6430.51
730.541	6385.31
730.882	6394.35
731.224	6406.1
731.565	6393.45
731.906	6394.8
732.248	6397.74
732.589	6401.36
732.93	6398.65
733.271	6379.21
733.612	6446.1
733.953	6491.98
734.294	6415.14
734.635	6390.96
734.976	6425.76
735.317	6386.67
735.658	6421.7
735.999	6384.86
736.339	6385.54
736.68	6466.67
737.021	6418.53
737.361	6479.77
737.702	6456.95
738.042	6430.73
738.383	6465.76
738.723	6407.01
739.063	6457.63
739.404	6514.12
739.744	6510.73
740.084	6441.58
740.424	6545.99
740.764	6489.72
741.104	6559.32
741.444	6506.21
741.784	6560
742.124	6585.99
742.464	6569.94
742.804	6609.49
743.143	6678.19
743.483	6644.06
743.823	6682.48
744.162	6666.66
744.502	6713.21
744.841	6696.94
745.181	6799.99
745.52	6761.8
745.86	6845.87
746.199	6876.82
746.538	6902.59
746.877	6986.43
747.216	6994.34
747.556	7037.72
747.895	7110.49
748.234	7054.9
748.573	7113.2
748.911	7145.97
749.25	7256.48
749.589	7286.53
749.928	7322.69
750.267	7458.96
750.605	7489.01
750.944	7578.95
751.283	7629.35
751.621	7739.63
751.96	7846.06
752.298	7887.19
752.636	7975.33
752.975	8057.36
753.313	8164.02
753.651	8319.27
753.989	8328.09
754.327	8478.82
754.666	8557.91
755.004	8662.77
755.342	8819.37
755.679	8897.34
756.017	9007.62
756.355	9201.28
756.693	9292.35
757.031	9425.91
757.368	9540.94
757.706	9662.51
758.044	9847.37
758.381	9967.14
758.719	10146.12
759.056	10390.4
759.394	10453.45
759.731	10590.63
760.068	10751.07
760.405	10877.62
760.743	11002.37
761.08	11301.79
761.417	11339.76
761.754	11571.39
762.091	11680.09
762.428	11909.46
762.765	12004.37
763.102	12242.33
763.438	12331.82
763.775	12467.41
764.112	12703.34
764.449	12910.11
764.785	13065.14
765.122	13051.35
765.458	13282.08
765.795	13429.65
766.131	13591.9
766.467	13626.93
766.804	13770.43
767.14	13960.03
767.476	14175.39
767.812	14243.86
768.148	14437.98
768.485	14455.83
768.821	14567.92
769.157	14743.51
769.492	14893.56
769.828	15043.39
770.164	15072.09
770.5	15193.67
770.836	15362.03
771.171	15402.25
771.507	15491.51
771.842	15550.95
772.178	15643.6
772.513	15769.02
772.849	15876.14
773.184	15955.91
773.519	16071.39
773.855	16052.4
774.19	16197.03
774.525	16232.96
774.86	16414.65
775.195	16437.7
775.53	16455.33
775.865	16472.05
776.2	16550.92
776.535	16508.89
776.87	16472.05
777.205	16629.56
777.539	16675.66
777.874	16761.54
778.209	16704.59
778.543	16750.92
778.878	16813.06
779.212	16883.57
779.547	16756.57
779.881	16914.3
780.215	16947.97
780.55	17050.34
780.884	16880.4
781.218	16976.22
781.552	17057.8
781.886	16978.25
782.22	17055.09
782.554	17043.79
782.888	16874.08
783.222	16973.51
783.556	16933.51
783.889	16891.93
784.223	16851.93
784.557	16959.5
784.89	16986.62
785.224	16942.55
785.557	16949.1
785.891	16898.71
786.224	16930.12
786.558	16893.96
786.891	16879.73
787.224	16811.7
787.557	16749.11
787.891	16826.62
788.224	16813.96
788.557	16824.59
788.89	16867.52
789.223	16774.87
789.556	16708.88
789.888	16729.9
790.221	16682.22
790.554	16566.51
790.887	16630.92
791.219	16591.37
791.552	16550.47
791.884	16508.66
792.217	16562.45
792.549	16471.6
792.882	16349.8
793.214	16360.42
793.546	16444.48
793.879	16293.75
794.211	16258.5
794.543	16362
794.875	16302.11
795.207	16352.28
795.539	16338.5
795.871	16204.26
796.203	16219.4
796.535	16095.11
796.867	16117.49
797.198	16063.93
797.53	15979.64
797.862	15861.67
798.193	15979.64
798.525	15905.06
798.856	15925.63
799.188	15767.89
799.519	15760.43
799.85	15651.28
800.182	15714.11
800.513	15809.25
800.844	15657.38
801.175	15677.72
801.506	15692.86
801.837	15538.74
802.168	15585.75
802.499	15574.9
802.83	15446.32
803.161	15533.32
803.491	15477.5
803.822	15407.67
804.153	15286.32
804.483	15265.98
804.814	15178.98
805.145	15202.71
805.475	15203.39
805.805	15151.18
806.136	15114.35
806.466	15041.13
806.796	15092.88
807.126	14988.48
807.457	14918.42
807.787	15050.4
808.117	14960.23
808.447	14920.91
808.777	14905.09
809.107	14779.89
809.436	14797.97
809.766	14839.78
810.096	14719.33
810.426	14720.01
810.755	14700.8
811.085	14663.29
811.414	14640.24
811.744	14537.41
812.073	14505.32
812.403	14484.99
812.732	14486.12
813.061	14532.22
813.39	14430.07
813.719	14300.13
814.049	14506.68
814.378	14388.04
814.707	14356.85
815.036	14305.1
815.365	14260.59
815.693	14194.6
816.022	14227.14
816.351	14094.04
816.68	14039.35
817.008	14137.65
817.337	14028.05
817.665	13988.5
817.994	14065.79
818.322	14049.29
818.651	13936.98
818.979	13892.69
819.307	14024.66
819.636	13902.63
819.964	13828.51
820.292	13916.64
820.62	13875.06
820.948	13837.55
821.276	13914.38
821.604	13877.54
821.932	13825.79
822.259	13853.59
822.587	13861.73
822.915	13729.3
823.243	13841.16
823.57	13827.6
823.898	13941.95
824.225	13798.9
824.553	13792.58
824.88	13808.62
825.207	13870.31
825.535	13809.3
825.862	13973.36
826.189	13897.43
826.516	13831.67
826.843	13931.78
827.17	13868.51
827.497	13904.21
827.824	13894.27
828.151	13893.82
828.478	13917.77
828.805	13952.35
829.131	13830.99
829.458	13865.57
829.785	13763.65
830.111	13833.48
830.438	13972.23
830.764	13900.82
831.09	13967.71
831.417	13748.06
831.743	13850.65
832.069	13831.9
832.395	13820.15
832.722	13869.86
833.048	13696.08
833.374	13782.18
833.7	13748.06
834.026	13797.09
834.351	13759.58
834.677	13773.82
835.003	13762.75
835.329	13757.32
835.654	13722.07
835.98	13764.33
836.306	13722.07
836.631	13721.39
836.956	13712.35
837.282	13729.53
837.607	13625.35
837.932	13623.77
838.258	13589.19
838.583	13576.54
838.908	13427.84
839.233	13509.42
839.558	13520.72
839.883	13508.06
840.208	13389.2
840.533	13478.46
840.858	13440.27
841.182	13413.15
841.507	13336.54
841.832	13332.93
842.156	13259.26
842.481	13269.65
842.805	13231.46
843.13	13198.01
843.454	13200.95
843.778	13087.73
844.103	13134.51
844.427	13037.11
844.751	13178.13
845.075	13004.35
845.399	13036.21
845.723	12913.95
846.047	12912.82
846.371	12824.69
846.695	12912.82
847.019	12676.45
847.343	12684.36
847.666	12613.17
847.99	12595.77
848.313	12511.25
848.637	12577.69
848.96	12532.27
849.284	12467.19
849.607	12327.75
849.931	12377.25
850.254	12300.86
850.577	12206.63
850.9	12101.32
851.223	12089.8
851.546	12068.1
851.869	11991.49
852.192	12079.17
852.515	11892.51
852.838	11853.87
853.161	11820.42
853.483	11815.68
853.806	11811.38
854.129	11776.81
854.451	11625.17
854.774	11620.43
855.096	11632.86
855.419	11594.21
855.741	11528.91
856.063	11440.77
856.385	11533.43
856.708	11450.49
857.03	11451.85
857.352	11361.9
857.674	11426.54
857.996	11326.43
858.318	11258.4
858.64	11244.17
858.961	11172.98
859.283	11212.53
859.605	11094.57
859.926	11111.74
860.248	11185.41
860.57	10994
860.891	10993.55
861.212	10970.73
861.534	10935.02
861.855	10923.72
862.176	10962.14
862.498	10938.64
862.819	10907.45
863.14	10826.78
863.461	10834.69
863.782	10789.04
864.103	10762.37
864.424	10773.22
864.745	10846.66
865.065	10668.82
865.386	10641.02
865.707	10702.26
866.027	10738.87
866.348	10712.2
866.668	10622.94
866.989	10639.44
867.309	10507.69
867.63	10576.16
867.95	10621.81
868.27	10511.76
868.59	10498.88
868.91	10535.03
869.23	10551.98
869.55	10465.66
869.87	10479.67
870.19	10501.59
870.51	10451.65
870.83	10447.13
871.15	10389.05
871.469	10395.6
871.789	10415.71
872.109	10370.74
872.428	10356.06
872.748	10321.71
873.067	10347.69
873.386	10304.53
873.706	10356.51
874.025	10281.26
874.344	10255.72
874.663	10189.73
874.982	10204.42
875.301	10197.64
875.62	10167.36
875.939	10140.69
876.258	10199.9
876.577	10108.38
876.896	10068.61
877.214	10114.25
877.533	10064.76
877.852	10062.05
878.17	10033.58
878.489	10000.13
878.807	9966.01
879.125	9999
879.444	9990.87
879.762	9979.79
880.08	10011.43
880.398	9895.28
880.716	9990.19
881.034	9932.79
881.352	9883.98
881.67	9854.15
881.988	9828.39
882.306	9739.57
882.624	9755.39
882.941	9778.22
883.259	9758.33
883.577	9709.74
883.894	9673.14
884.212	9626.58
884.529	9648.73
884.846	9605.34
885.164	9595.4
885.481	9628.62
885.798	9585.45
886.115	9532.12
886.432	9507.72
886.75	9450.32
887.067	9458
887.383	9439.02
887.7	9471.33
888.017	9415.74
888.334	9465.46
888.651	9392.24
888.967	9405.8
889.284	9343.65
889.6	9311.11
889.917	9207.84
890.233	9282.19
890.55	9208.29
890.866	9199.48
891.182	9114.05
891.498	9087.16
891.815	9083.55
892.131	9127.84
892.447	9041.74
892.763	9018.46
893.079	8986.37
893.395	8988.86
893.71	8943.44
894.026	8932.14
894.342	8913.16
894.657	8804.91
894.973	8852.37
895.289	8842.42
895.604	8764.46
895.92	8707.06
896.235	8672.03
896.55	8698.25
896.865	8645.59
897.181	8655.99
897.496	8634.52
897.811	8516.56
898.126	8542.09
898.441	8550.23
898.756	8516.1
899.071	8429.33
899.386	8453.73
899.7	8336
900.015	8305.71
900.33	8290.35
900.644	8239.73
900.959	8273.17
901.273	8178.49
901.588	8187.52
901.902	8142.78
902.216	8179.39
902.531	8122.89
902.845	8091.26
903.159	8038.15
903.473	7990.02
903.787	7939.62
904.101	7936.23
904.415	7898.94
904.729	7870.7
905.042	7851.94
905.356	7830.02
905.67	7850.13
905.984	7798.83
906.297	7773.07
906.611	7690.81
906.924	7665.5
907.237	7684.94
907.551	7672.06
907.864	7576.24
908.177	7581.89
908.491	7533.98
908.804	7532.63
909.117	7442.91
909.43	7410.82
909.743	7412.18
910.056	7354.1
910.368	7350.26
910.681	7303.03
910.994	7280.43
911.307	7285.85
911.619	7195.01
911.932	7271.84
912.244	7176.93
912.557	7194.1
912.869	7081.57
913.181	7067.78
913.494	7008.35
913.806	7001.34
914.118	6967.44
914.43	6936.48
914.742	6978.07
915.054	6929.48
915.366	6842.93
915.678	6899.88
915.99	6853.32
916.302	6787.79
916.613	6793.66
916.925	6760.22
917.236	6742.82
917.548	6727.22
917.859	6724.29
918.171	6635.93
918.482	6642.48
918.794	6602.26
919.105	6571.07
919.416	6545.31
919.727	6524.07
920.038	6471.86
920.349	6496.95
920.66	6402.26
920.971	6477.51
921.282	6356.84
921.593	6342.15
921.903	6305.77
922.214	6270.06
922.525	6277.74
922.835	6229.16
923.146	6209.95
923.456	6169.72
923.767	6192.78
924.077	6101.7
924.387	6089.27
924.697	6056.51
925.008	6043.85
925.318	6017.64
925.628	5990.29
925.938	6003.18
926.248	5972.22
926.558	5943.29
926.867	5924.08
927.177	5942.84
927.487	5926.79
927.796	5856.74
928.106	5862.39
928.416	5832.56
928.725	5750.3
929.034	5730.87
929.344	5752.79
929.653	5730.64
929.962	5644.09
930.271	5670.3
930.581	5658.78
930.89	5595.5
931.199	5599.34
931.508	5569.29
931.817	5560.48
932.125	5548.95
932.434	5468.95
932.743	5459.23
933.051	5459.46
933.36	5425.79
933.669	5448.84
933.977	5353.48
934.286	5371.33
934.594	5373.36
934.902	5282.06
935.21	5286.36
935.519	5281.84
935.827	5273.03
936.135	5227.15
936.443	5233.48
936.751	5226.47
937.059	5141.28
937.367	5160.49
937.674	5192.8
937.982	5127.04
938.29	5101.28
938.597	5101.05
938.905	5044.56
939.213	5005.01
939.52	4958.01
939.827	5020.38
940.135	4975.86
940.442	4944.9
940.749	4926.59
941.056	4940.6
941.363	4868.06
941.67	4853.6
941.977	4831
942.284	4815.86
942.591	4801.17
942.898	4735.19
943.205	4780.83
943.511	4754.17
943.818	4704.9
944.125	4648.63
944.431	4717.79
944.738	4706.49
945.044	4641.63
945.35	4576.55
945.657	4537
945.963	4572.03
946.269	4488.64
946.575	4556.89
946.881	4497.23
947.187	4514.18
947.493	4440.73
947.799	4445.48
948.105	4434.63
948.41	4412.71
948.716	4404.57
949.022	4386.04
949.327	4372.26
949.633	4295.42
949.938	4333.61
950.244	4328.42
950.549	4311.69
950.854	4235.09
951.16	4282.09
951.465	4255.42
951.77	4223.79
952.075	4252.71
952.38	4195.09
952.685	4187.4
952.99	4111.7
953.294	4089.78
953.599	4170.46
953.904	4086.84
954.209	4095.66
954.513	4087.75
954.818	4055.88
955.122	4022.89
955.426	4006.84
955.731	3960.29
956.035	3967.52
956.339	3947.64
956.643	3946.05
956.948	3884.14
957.252	3891.82
957.556	3847.98
957.86	3868.09
958.163	3860.86
958.467	3838.03
958.771	3817.7
959.075	3807.98
959.378	3810.24
959.682	3792.84
959.985	3730.92
960.289	3772.73
960.592	3732.73
960.896	3693.41
961.199	3669.9
961.502	3688.21
961.805	3635.55
962.108	3636.01
962.411	3649.34
962.714	3624.93
963.017	3625.61
963.32	3595.1
963.623	3578.38
963.926	3573.86
964.228	3546.06
964.531	3517.82
964.833	3519.62
965.136	3465.62
965.438	3484.37
965.741	3420.87
966.043	3450.02
966.345	3429.91
966.648	3387.2
966.95	3410.48
967.252	3387.43
967.554	3383.81
967.856	3412.51
968.158	3341.55
968.46	3307.88
968.761	3331.38
969.063	3297.03
969.365	3275.11
969.666	3248.22
969.968	3269.01
970.269	3273.08
970.571	3245.73
970.872	3204.15
971.174	3215.23
971.475	3193.98
971.776	3175.91
972.077	3115.79
972.378	3177.49
972.679	3144.95
972.98	3158.96
973.281	3095.68
973.582	3117.83
973.883	3108.11
974.183	3069.92
974.484	3038.28
974.785	3009.81
975.085	3062.91
975.386	3017.49
975.686	3001.22
975.986	2937.95
976.287	2986.98
976.587	2926.87
976.887	2932.52
977.187	2904.95
977.487	2915.8
977.787	2898.85
978.087	2891.84
978.387	2868.34
978.687	2902.01
978.987	2915.35
979.286	2853.88
979.586	2840.77
979.885	2808.91
980.185	2775.92
980.484	2803.26
980.784	2793.99
981.083	2793.54
981.382	2763.49
981.682	2728.23
981.981	2750.61
982.28	2690.04
982.579	2693.88
982.878	2684.39
983.177	2659.53
983.475	2670.61
983.774	2665.86
984.073	2653.66
984.372	2631.06
984.67	2615.02
984.969	2614.11
985.267	2605.52
985.566	2615.02
985.864	2577.05
986.162	2564.62
986.461	2546.09
986.759	2551.06
987.057	2536.83
987.355	2552.64
987.653	2505.64
987.951	2500.67
988.249	2481.01
988.547	2485.75
988.844	2477.39
989.142	2465.42
989.44	2437.17
989.737	2418.64
990.035	2425.42
990.332	2403.95
990.63	2399.88
990.927	2395.13
991.224	2370.28
991.521	2397.39
991.819	2361.24
992.116	2333.44
992.413	2309.94
992.71	2306.55
993.006	2286.66
993.303	2287.12
993.6	2302.03
993.897	2277.62
994.193	2280.79
994.49	2268.81
994.787	2259.09
995.083	2232.2
995.379	2207.12
995.676	2188.59
995.972	2198.98
996.268	2191.98
996.565	2184.07
996.861	2203.05
997.157	2159.21
997.453	2163.95
997.749	2140.23
998.044	2137.97
998.34	2132.32
998.636	2118.98
998.932	2083.28
999.227	2079.89
999.523	2030.85
999.818	2042.15
1000.114	2039.66
1000.409	2069.04
1000.704	2032.43
1001	2030.85
1001.295	2023.85
1001.59	2040.34
1001.885	2010.06
1002.18	1968.71
1002.475	1984.3
1002.77	1948.59
1003.065	1945.66
1003.359	1933.45
1003.654	1919.67
1003.949	1916.05
1004.243	1886.45
1004.538	1902.27
1004.832	1844.87
1005.127	1879.22
1005.421	1884.19
1005.715	1862.49
1006.009	1836.28
1006.304	1819.1
1006.598	1806.45
1006.892	1811.2
1007.186	1775.49
1007.48	1782.27
1007.773	1790.18
1008.067	1751.54
1008.361	1759.9
1008.655	1754.47
1008.948	1741.37
1009.242	1718.32
1009.535	1721.48
1009.829	1740.24
1010.122	1689.84
1010.415	1690.07
1010.708	1671.31
1011.001	1661.14
1011.295	1657.98
1011.588	1657.3
1011.881	1647.36
1012.173	1612.56
1012.466	1607.13
1012.759	1621.6
1013.052	1608.49
1013.344	1612.78
1013.637	1590.64
1013.93	1563.97
1014.222	1556.29
1014.514	1557.42
1014.807	1543.63
1015.099	1553.35
1015.391	1529.17
1015.683	1524.88
1015.976	1514.48
1016.268	1500.24
1016.56	1514.03
1016.851	1485.33
1017.143	1487.14
1017.435	1470.41
1017.727	1432.67
1018.018	1439
1018.31	1467.25
1018.602	1437.42
1018.893	1439
1019.185	1433.13
1019.476	1408.27
1019.767	1436.97
1020.058	1404.88
1020.35	1371.43
1020.641	1359
1020.932	1361.04
1021.223	1344.99
1021.514	1335.73
1021.804	1328.04
1022.095	1339.8
1022.386	1305.67
1022.677	1322.85
1022.967	1282.17
1023.258	1286.01
1023.548	1308.38
1023.839	1261.61
1024.129	1276.97
1024.419	1254.83
1024.709	1256.86
1025	1253.02
1025.29	1234.26
1025.58	1234.94
1025.87	1234.49
1026.16	1189.29
1026.449	1184.32
1026.739	1197.88
1027.029	1190.19
1027.319	1178.67
1027.608	1180.25
1027.898	1141.83
1028.187	1167.82
1028.477	1168.5
1028.766	1136.86
1029.055	1153.13
1029.344	1117.88
1029.634	1108.39
1029.923	1125.34
1030.212	1089.86
1030.501	1118.56
1030.79	1088.05
1031.078	1100.25
1031.367	1088.28
1031.656	1054.61
1031.945	1067.71
1032.233	1053.93
1032.522	1025.68
1032.81	1034.04
1033.099	1054.83
1033.387	1035.4
1033.675	1045.11
1033.963	1043.08
1034.251	1027.71
1034.54	998.34
1034.828	1006.92
1035.116	972.57
1035.403	999.01
1035.691	993.82
1035.979	1005.11
1036.267	971.44
1036.554	974.38
1036.842	957.88
1037.129	953.36
1037.417	950.43
1037.704	926.02
1037.992	944.55
1038.279	919.24
1038.566	918.79
1038.853	918.79
1039.14	918.79
