Data from hue_220_FLMS001491_00056.txt Node
Date: Tue Feb 07 16:39:39 GMT 2017
User: dcchb
Spectrometer: FLMS00149
Trigger mode: 0
Integration Time (sec): 2.000000E-2
Scans to average: 10
Electric dark correction enabled: true
Nonlinearity correction enabled: false
Boxcar width: 0
XAxis mode: Wavelengths
Number of Pixels in Spectrum: 2048
>>>>>Begin Spectral Data<<<<<
341.393	-4.63
341.776	-4.63
342.16	-4.63
342.543	-37.4
342.927	-55.93
343.31	-88.7
343.693	-77.4
344.077	-71.98
344.46	-42.82
344.843	-69.72
345.226	-30.39
345.61	-30.39
345.993	-12.99
346.376	-3.05
346.759	16.38
347.142	26.1
347.525	51.41
347.908	68.13
348.291	75.59
348.674	90.73
349.057	99.09
349.44	113.1
349.823	151.75
350.206	170.5
350.588	171.41
350.971	223.38
351.354	243.5
351.737	247.11
352.119	268.58
352.502	259.54
352.884	280.78
353.267	262.48
353.65	297.28
354.032	302.48
354.414	317.84
354.797	328.69
355.179	319.2
355.562	342.7
355.944	339.09
356.326	327.34
356.709	332.31
357.091	342.48
357.473	342.7
357.855	344.74
358.238	349.71
358.62	339.31
359.002	347.9
359.384	347.22
359.766	317.39
360.148	340.44
360.53	339.31
360.912	321.91
361.294	326.43
361.676	344.51
362.057	344.96
362.439	335.7
362.821	318.3
363.203	326.88
363.584	343.38
363.966	323.95
364.348	313.55
364.729	323.04
365.111	309.94
365.493	330.05
365.874	336.6
366.256	321.46
366.637	315.36
367.019	336.83
367.4	299.09
367.781	298.41
368.163	311.07
368.544	315.13
368.925	310.16
369.306	338.41
369.688	318.07
370.069	292.99
370.45	304.51
370.831	321.46
371.212	307.22
371.593	297.28
371.974	323.04
372.355	321.91
372.736	318.3
373.117	309.48
373.498	308.58
373.879	291.18
374.26	316.71
374.641	321.46
375.021	307.9
375.402	327.79
375.783	348.58
376.163	321.01
376.544	315.81
376.925	321.46
377.305	330.27
377.686	310.16
378.066	322.82
378.447	332.08
378.827	341.57
379.208	330.05
379.588	343.15
379.968	332.53
380.349	324.62
380.729	307.45
381.109	316.49
381.489	302.7
381.87	344.96
382.25	349.26
382.63	342.48
383.01	327.79
383.39	340.67
383.77	345.87
384.15	341.12
384.53	344.28
384.91	332.31
385.29	355.58
385.67	368.46
386.049	351.74
386.429	354.68
386.809	346.54
387.189	351.29
387.568	328.92
387.948	339.99
388.328	365.08
388.707	362.82
389.087	367.79
389.466	349.93
389.846	343.61
390.225	355.13
390.605	361.69
390.984	358.75
391.363	371.4
391.743	384.06
392.122	364.4
392.501	396.03
392.881	349.26
393.26	364.62
393.639	372.76
394.018	369.82
394.397	390.39
394.776	389.03
395.155	372.08
395.534	377.73
395.913	375.92
396.292	387.9
396.671	387.9
397.05	388.58
397.429	389.71
397.808	394.68
398.186	407.79
398.565	380.44
398.944	384.06
399.323	406.88
399.701	400.33
400.08	393.32
400.458	395.58
400.837	408.24
401.215	411.63
401.594	412.76
401.972	406.43
402.351	425.41
402.729	436.03
403.107	430.61
403.486	420.21
403.864	430.16
404.242	429.71
404.62	448.24
404.999	441.23
405.377	443.27
405.755	450.04
406.133	439.65
406.511	457.5
406.889	466.99
407.267	453.89
407.645	467.22
408.023	449.59
408.401	481.91
408.779	486.2
409.156	497.73
409.534	488.69
409.912	497.95
410.29	520.55
410.667	508.57
411.045	520.33
411.422	531.62
411.8	521.68
412.178	563.49
412.555	547.22
412.933	533.66
413.31	561
413.687	577.05
414.065	580.21
414.442	579.08
414.819	583.15
415.197	592.19
415.574	594.45
415.951	624.28
416.328	619.31
416.705	636.25
417.082	655.69
417.46	648.23
417.837	650.72
418.214	667.89
418.591	640.1
418.967	658.4
419.344	668.12
419.721	692.52
420.098	704.05
420.475	715.12
420.852	718.74
421.228	749.02
421.605	711.05
421.982	739.3
422.358	742.92
422.735	765.97
423.111	775.69
423.488	782.47
423.864	817.04
424.241	818.85
424.617	831.05
424.994	834.89
425.37	853.88
425.746	848.23
426.123	855.91
426.499	873.99
426.875	900.2
427.251	887.1
427.627	912.63
428.003	912.41
428.379	945.85
428.756	953.99
429.132	958.96
429.507	984.04
429.883	1000.09
430.259	998.5
430.635	1004.83
431.011	1021.1
431.387	1020.2
431.763	1057.71
432.138	1051.16
432.514	1064.94
432.89	1059.97
433.265	1115.56
433.641	1125.96
434.016	1132.96
434.392	1175.22
434.767	1182.45
435.143	1199.4
435.518	1229.69
435.894	1230.82
436.269	1279.4
436.644	1271.72
437.02	1297.25
437.395	1316.01
437.77	1360.08
438.145	1359.85
438.52	1381.32
438.895	1395.56
439.271	1427.42
439.646	1451.6
440.021	1452.05
440.395	1470.36
440.77	1484.59
441.145	1489.11
441.52	1522.33
441.895	1535.67
442.27	1580.18
442.645	1561.88
443.019	1619.73
443.394	1627.87
443.769	1614.08
444.143	1615.21
444.518	1642.33
444.892	1628.77
445.267	1668.54
445.641	1707.86
446.016	1679.62
446.39	1699.5
446.764	1708.54
447.139	1718.49
447.513	1765.49
447.887	1740.63
448.262	1736.34
448.636	1754.87
449.01	1769.33
449.384	1819.05
449.758	1787.86
450.132	1824.92
450.506	1868.54
450.88	1845.49
451.254	1843.91
451.628	1914.19
452.002	1880.74
452.376	1919.84
452.75	1941.98
453.123	1941.76
453.497	2001.64
453.871	2006.61
454.244	2040.74
454.618	2066.05
454.992	2070.12
455.365	2048.19
455.739	2120.96
456.112	2140.4
456.486	2120.28
456.859	2157.34
457.232	2228.75
457.606	2180.62
457.979	2218.13
458.352	2267.4
458.725	2279.83
459.099	2267.62
459.472	2328.87
459.845	2333.38
460.218	2395.76
460.591	2362.76
460.964	2397.34
461.337	2447.28
461.71	2475.75
462.083	2502.87
462.456	2524.57
462.829	2494.96
463.201	2585.36
463.574	2573.6
463.947	2584.45
464.32	2672.13
464.692	2673.49
465.065	2724.56
465.438	2742.19
465.81	2776.09
466.183	2787.38
466.555	2831.68
466.928	2848.85
467.3	2860.15
467.672	2916.87
468.045	2981.28
468.417	2963.2
468.789	2979.7
469.161	2993.48
469.534	3055.63
469.906	3130.2
470.278	3139.47
470.65	3142.4
471.022	3192.8
471.394	3255.62
471.766	3291.33
472.138	3326.81
472.51	3389.63
472.882	3422.62
473.253	3439.34
473.625	3438.44
473.997	3557.31
474.369	3560.02
474.74	3599.79
475.112	3655.38
475.484	3725.44
475.855	3758.21
476.227	3768.38
476.598	3898.54
476.97	3899.45
477.341	3955.04
477.713	4032.1
478.084	4051.76
478.455	4100.57
478.827	4175.6
479.198	4279.77
479.569	4258.31
479.94	4361.13
480.311	4377.85
480.682	4486.32
481.053	4555.93
481.424	4601.35
481.795	4665.53
482.166	4703.49
482.537	4794.79
482.908	4830.49
483.279	4852.19
483.65	4924.5
484.021	5015.12
484.391	5102.13
484.762	5054.22
485.133	5112.29
485.503	5219.18
485.874	5258.28
486.244	5335.79
486.615	5422.57
486.985	5492.85
487.356	5532.17
487.726	5594.77
488.097	5655.56
488.467	5622.79
488.837	5756.35
489.207	5831.15
489.578	5873.86
489.948	5929.9
490.318	5980.97
490.688	6065.26
491.058	6053.97
491.428	6193.17
491.798	6215.77
492.168	6291.47
492.538	6372.6
492.908	6385.26
493.278	6439.04
493.648	6477.46
494.017	6513.84
494.387	6509.77
494.757	6629.32
495.126	6659.15
495.496	6672.48
495.866	6676.77
496.235	6726.94
496.605	6802.65
496.974	6822.08
497.344	6863.21
497.713	6917.45
498.082	6951.12
498.452	6967.61
498.821	7020.95
499.19	6957.22
499.559	7062.07
499.928	7072.24
500.298	7095.07
500.667	7135.52
501.036	7114.28
501.405	7171.9
501.774	7140.04
502.143	7278.11
502.512	7236.98
502.88	7267.49
503.249	7307.94
503.618	7324.89
503.987	7347.04
504.356	7336.64
504.724	7317.66
505.093	7406.02
505.462	7380.26
505.83	7425.68
506.199	7473.36
506.567	7582.51
506.936	7491.67
507.304	7581.38
507.672	7552.68
508.041	7616.64
508.409	7634.94
508.777	7638.33
509.145	7616.86
509.514	7660.25
509.882	7641.27
510.25	7711.1
510.618	7777.76
510.986	7650.31
511.354	7781.83
511.722	7797.87
512.09	7755.16
512.458	7785.67
512.826	7840.13
513.193	7841.71
513.561	7797.42
513.929	7869.51
514.297	7869.96
514.664	7906.8
515.032	7902.96
515.4	7969.85
515.767	7892.11
516.135	7918.1
516.502	7879.68
516.869	7937.98
517.237	7994.03
517.604	8005.1
517.972	7960.58
518.339	8012.56
518.706	7982.95
519.073	7939.11
519.44	7937.98
519.808	8018.89
520.175	7910.19
520.542	8113.35
520.909	8041.03
521.276	7996.74
521.643	8033.12
522.009	8063.4
522.376	8078.09
522.743	8068.38
523.11	8056.17
523.477	8136.17
523.843	8152.67
524.21	8189.73
524.577	8204.64
524.943	8144.53
525.31	8174.14
525.676	8250.29
526.043	8243.74
526.409	8255.04
526.776	8279.9
527.142	8244.42
527.508	8246.9
527.874	8267.92
528.241	8242.83
528.607	8229.28
528.973	8247.35
529.339	8276.96
529.705	8246.68
530.071	8289.16
530.437	8264.98
530.803	8279.44
531.169	8367.12
531.535	8201.03
531.901	8220.01
532.267	8209.61
532.632	8313.57
532.998	8171.42
533.364	8260.69
533.73	8195.38
534.095	8245.32
534.461	8189.95
534.826	8150.86
535.192	8182.5
535.557	8204.87
535.923	8166.68
536.288	8148.6
536.653	8156.51
537.019	8111.99
537.384	8096.62
537.749	8138.66
538.114	8101.59
538.479	8084.87
538.845	8071.31
539.21	8041.94
539.575	8027.92
539.94	8021.6
540.305	8065.44
540.67	7998.32
541.034	7961.94
541.399	7975.27
541.764	7886.46
542.129	7894.59
542.494	7903.63
542.858	7899.11
543.223	7828.38
543.587	7841.94
543.952	7825.67
544.316	7807.14
544.681	7779.57
545.045	7736.63
545.41	7754.71
545.774	7717.88
546.138	7701.38
546.503	7705.9
546.867	7585.68
547.231	7717.2
547.595	7690.98
547.959	7729.85
548.324	7608.73
548.688	7595.85
549.052	7568.5
549.416	7590.87
549.779	7500.93
550.143	7524.66
550.507	7549.29
550.871	7481.72
551.235	7459.35
551.599	7512.68
551.962	7443.53
552.326	7453.7
552.689	7453.25
553.053	7379.58
553.417	7387.72
553.78	7477.43
554.143	7387.72
554.507	7365.12
554.87	7373.03
555.234	7489.41
555.597	7335.29
555.96	7301.84
556.323	7306.81
556.686	7277.66
557.05	7322.63
557.413	7308.85
557.776	7342.52
558.139	7375.51
558.502	7306.81
558.865	7303.42
559.228	7342.29
559.59	7323.08
559.953	7333.25
560.316	7377.09
560.679	7307.94
561.041	7323.31
561.404	7325.34
561.767	7349.07
562.129	7323.99
562.492	7386.36
562.854	7352.01
563.217	7320.37
563.579	7323.99
563.941	7294.84
564.304	7375.06
564.666	7447.15
565.028	7400.37
565.39	7340.94
565.753	7421.84
566.115	7373.7
566.477	7422.74
566.839	7458.9
567.201	7467.94
567.563	7403.99
567.925	7463.65
568.287	7442.86
568.648	7523.08
569.01	7557.65
569.372	7616.64
569.734	7549.52
570.095	7499.12
570.457	7559.46
570.819	7564.66
571.18	7561.72
571.542	7609.18
571.903	7650.08
572.265	7575.73
572.626	7661.83
572.987	7651.89
573.349	7650.08
573.71	7716.75
574.071	7726.24
574.432	7708.61
574.794	7735.28
575.155	7763.07
575.516	7700.7
575.877	7777.54
576.238	7787.03
576.599	7791.09
576.96	7803.52
577.32	7824.09
577.681	7855.27
578.042	7844.88
578.403	7833.13
578.763	7877.87
579.124	7858.44
579.485	7963.52
579.845	7969.39
580.206	7927.36
580.566	7970.52
580.927	7958.55
581.287	7961.94
581.648	8019.79
582.008	8015.72
582.368	8031.09
582.728	8073.35
583.089	8072.67
583.449	8037.87
583.809	8071.77
584.169	8060.69
584.529	8102.27
584.889	8188.82
585.249	8094.59
585.609	8130.29
585.969	8219.56
586.329	8132.55
586.688	8171.42
587.048	8230.18
587.408	8191.08
587.768	8174.81
588.127	8217.3
588.487	8184.76
588.846	8305.66
589.206	8203.29
589.565	8270.4
589.925	8351.08
590.284	8258.2
590.643	8355.15
591.003	8351.31
591.362	8357.63
591.721	8305.43
592.08	8358.31
592.44	8351.08
592.799	8341.81
593.158	8336.39
593.517	8407.35
593.876	8376.62
594.235	8375.26
594.593	8417.29
594.952	8489.38
595.311	8407.12
595.67	8449.16
596.029	8523.73
596.387	8502.71
596.746	8452.32
597.104	8509.49
597.463	8478.08
597.822	8492.55
598.18	8450.51
598.538	8443.73
598.897	8510.17
599.255	8428.59
599.613	8570.51
599.972	8574.8
600.33	8597.4
600.688	8469.95
601.046	8599.66
601.404	8637.17
601.762	8603.5
602.12	8601.69
602.478	8627
602.836	8586.1
603.194	8589.27
603.552	8563.05
603.91	8489.61
604.268	8603.73
604.625	8570.06
604.983	8604.63
605.341	8622.26
605.698	8623.39
606.056	8567.12
606.413	8626.1
606.771	8671.75
607.128	8699.55
607.485	8652.99
607.843	8638.3
608.2	8674.24
608.557	8700.9
608.914	8676.72
609.272	8698.42
609.629	8722.6
609.986	8791.29
610.343	8674.24
610.7	8725.31
611.057	8765.98
611.414	8761.92
611.771	8717.17
612.127	8771.63
612.484	8812.08
612.841	8801.69
613.198	8793.33
613.554	8789.71
613.911	8770.73
614.267	8773.67
614.624	8799.66
614.98	8812.31
615.337	8846.43
615.693	8814.12
616.05	8879.65
616.406	8870.16
616.762	8881.91
617.118	8853.21
617.475	8801.46
617.831	8937.28
618.187	8837.85
618.543	8864.74
618.899	8947
619.255	8972.31
619.611	8869.71
619.967	8930.5
620.323	8979.09
620.678	8857.96
621.034	8891.4
621.39	8898.86
621.746	8904.29
622.101	8972.53
622.457	8918.97
622.812	8918.52
623.168	8922.14
623.523	8967.33
623.879	8952.87
624.234	8840.11
624.589	8989.03
624.945	8986.09
625.3	9009.82
625.655	8970.72
626.01	9015.7
626.365	8960.1
626.72	8917.39
627.075	8970.72
627.43	8941.57
627.785	8884.85
628.14	8940.22
628.495	8935.25
628.85	8890.27
629.205	8932.76
629.559	8943.61
629.914	8851.86
630.269	8865.87
630.623	8933.21
630.978	8848.24
631.332	8822.71
631.687	8902.25
632.041	8855.47
632.396	8826.77
632.75	8847.34
633.104	8769.15
633.459	8791.29
633.813	8747.91
634.167	8766.21
634.521	8786.1
634.875	8822.48
635.229	8723.73
635.583	8804.63
635.937	8713.1
636.291	8745.87
636.645	8748.13
636.999	8720.34
637.352	8708.13
637.706	8648.7
638.06	8701.58
638.413	8714.69
638.767	8595.82
639.121	8651.64
639.474	8558.53
639.828	8632.43
640.181	8654.57
640.534	8606.89
640.888	8597.63
641.241	8567.12
641.594	8612.99
641.947	8582.49
642.301	8608.25
642.654	8590.85
643.007	8559.66
643.36	8618.42
643.713	8519.89
644.066	8579.55
644.419	8530.74
644.771	8469.72
645.124	8370.97
645.477	8407.8
645.83	8300.46
646.182	8328.03
646.535	8307.01
646.888	8317.18
647.24	8223.17
647.593	8246.45
647.945	8291.42
648.298	8288.48
648.65	8213.46
649.002	8193.34
649.355	8231.76
649.707	8295.94
650.059	8265.43
650.411	8402.38
650.763	8393.56
651.115	8440.12
651.467	8405.09
651.819	8488.7
652.171	8457.52
652.523	8431.3
652.875	8391.76
653.227	8389.72
653.578	8452.77
653.93	8402.83
654.282	8416.39
654.633	8398.76
654.985	8353.11
655.337	8351.31
655.688	8404.64
656.039	8480.79
656.391	8375.71
656.742	8428.59
657.094	8355.6
657.445	8456.39
657.796	8384.07
658.147	8402.6
658.498	8358.09
658.849	8449.61
659.2	8369.38
659.551	8397.63
659.902	8476.27
660.253	8433.11
660.604	8459.1
660.955	8403.28
661.306	8526.89
661.656	8530.06
662.007	8454.81
662.358	8497.52
662.708	8428.59
663.059	8442.6
663.409	8412.77
663.76	8455.48
664.11	8470.62
664.461	8479.66
664.811	8476.5
665.161	8451.87
665.511	8481.25
665.862	8442.6
666.212	8501.13
666.562	8519.44
666.912	8478.99
667.262	8521.47
667.612	8431.76
667.962	8535.71
668.312	8522.6
668.662	8506.1
669.011	8464.52
669.361	8440.8
669.711	8418.2
670.06	8413.23
670.41	8470.4
670.76	8428.59
671.109	8456.39
671.459	8445.99
671.808	8481.92
672.157	8478.31
672.507	8412.55
672.856	8389.04
673.205	8371.87
673.554	8455.71
673.904	8333.23
674.253	8399.89
674.602	8382.27
674.951	8241.48
675.3	8149.28
675.649	8321.7
675.998	8310.4
676.346	8307.24
676.695	8375.03
677.044	8334.13
677.393	8317.63
677.741	8341.14
678.09	8301.82
678.438	8320.12
678.787	8263.85
679.135	8287.13
679.484	8278.09
679.832	8233.12
680.181	8219.78
680.529	8253.46
680.877	8214.59
681.225	8191.08
681.573	8270.18
681.922	8166
682.27	8188.82
682.618	8133.46
682.966	8124.65
683.314	8157.86
683.661	8106.57
684.009	8050.97
684.357	8056.17
684.705	8072.22
685.053	8073.8
685.4	7989.73
685.748	7958.32
686.095	8001.71
686.443	7912
686.79	7958.32
687.138	7909.74
687.485	7954.48
687.832	7884.43
688.18	7911.77
688.527	7939.11
688.874	7858.89
689.221	7874.48
689.568	7779.34
689.915	7767.82
690.262	7738.67
690.609	7745.9
690.956	7712
691.303	7773.47
691.65	7667.03
691.997	7641.27
692.344	7624.09
692.69	7592.23
693.037	7545
693.383	7483.98
693.73	7550.65
694.077	7462.74
694.423	7408.51
694.769	7464.32
695.116	7435.62
695.462	7400.14
695.808	7411.9
696.155	7405.79
696.501	7328.28
696.847	7284.89
697.193	7238.34
697.539	7223.43
697.885	7190.88
698.231	7187.49
698.577	7138.46
698.923	7144.56
699.269	7132.58
699.614	7045.35
699.96	7064.33
700.306	7064.33
700.651	7045.58
700.997	6986.82
701.342	6974.17
701.688	6995.41
702.033	6924.45
702.379	6887.39
702.724	6893.27
703.069	6877.22
703.415	6816.43
703.76	6805.58
704.105	6818.69
704.45	6823.21
704.795	6722.2
705.14	6729.2
705.485	6720.61
705.83	6684.23
706.175	6726.94
706.52	6626.38
706.865	6586.61
707.209	6574.63
707.554	6611.01
707.899	6608.07
708.243	6542.31
708.588	6560.39
708.932	6511.13
709.277	6518.13
709.621	6522.65
709.966	6448.98
710.31	6515.42
710.654	6427.51
710.998	6434.97
711.342	6434.07
711.687	6405.37
712.031	6345.48
712.375	6325.37
712.719	6369.44
713.063	6360.85
713.407	6305.71
713.75	6342.77
714.094	6305.48
714.438	6271.81
714.782	6319.27
715.125	6270.46
715.469	6275.65
715.812	6243.56
716.156	6218.93
716.499	6198.37
716.843	6190.68
717.186	6167.18
717.53	6267.97
717.873	6216.67
718.216	6175.77
718.559	6196.33
718.902	6111.82
719.246	6145.71
719.589	6112.72
719.932	6131.03
720.275	6100.74
720.617	6101.42
720.96	6110.23
721.303	6111.82
721.646	6099.39
721.989	6044.47
722.331	6085.6
722.674	6106.17
723.016	6076.34
723.359	6052.38
723.701	6125.83
724.044	6007.86
724.386	6035.89
724.729	6027.98
725.071	6036.79
725.413	6025.27
725.755	6016.45
726.097	6026.62
726.439	5992.05
726.782	5988.2
727.124	6019.16
727.465	5981.42
727.807	6058.71
728.149	5964.93
728.491	5967.64
728.833	6010.35
729.175	5965.61
729.516	5934.87
729.858	5949.56
730.199	5978.03
730.541	5904.59
730.882	5955.21
731.224	5986.4
731.565	5977.81
731.906	5953.85
732.248	5973.29
732.589	5950.47
732.93	5937.58
733.271	5967.87
733.612	5982.78
733.953	5967.87
734.294	5999.05
734.635	5964.25
734.976	5982.33
735.317	5963.12
735.658	5985.27
735.999	5984.59
736.339	5976.23
736.68	6021.65
737.021	5976.45
737.361	6001.31
737.702	6057.35
738.042	5936
738.383	6013.06
738.723	6024.81
739.063	6016.9
739.404	6059.39
739.744	6032.27
740.084	6030.24
740.424	6036.34
740.764	6092.38
741.104	6072.27
741.444	6096
741.784	6060.74
742.124	6117.24
742.464	6098.71
742.804	6144.13
743.143	6133.29
743.483	6117.69
743.823	6155.21
744.162	6206.05
744.502	6185.04
744.841	6262.55
745.181	6284.47
745.52	6320.4
745.86	6313.39
746.199	6355.88
746.538	6377.12
746.877	6380.51
747.216	6445.14
747.556	6482.2
747.895	6507.74
748.234	6538.02
748.573	6618.47
748.911	6673.16
749.25	6756.77
749.589	6720.39
749.928	6806.49
750.267	6874.06
750.605	6945.47
750.944	7012.13
751.283	7055.75
751.621	7158.12
751.96	7182.97
752.298	7274.95
752.636	7400.6
752.975	7458
753.313	7511.33
753.651	7594.26
753.989	7727.37
754.327	7737.76
754.666	7866.12
755.004	8009.39
755.342	8155.38
755.679	8289.61
756.017	8341.59
756.355	8487.8
756.693	8659.55
757.031	8763.72
757.368	8895.02
757.706	9019.54
758.044	9106.09
758.381	9289.59
758.719	9418.4
759.056	9537.94
759.394	9713.98
759.731	9811.15
760.068	10028.78
760.405	10153.07
760.743	10285.27
761.08	10475.77
761.417	10635.09
761.754	10819.04
762.091	10936.32
762.428	11099.71
762.765	11259.7
763.102	11475.74
763.438	11586.02
763.775	11795.96
764.112	11865.56
764.449	12140.13
764.785	12302.84
765.122	12354.59
765.458	12501.93
765.795	12752.09
766.131	12947.12
766.467	12981.92
766.804	13148.47
767.14	13296.71
767.476	13495.13
767.812	13625.97
768.148	13761.33
768.485	13828.22
768.821	14000.2
769.157	14192.96
769.492	14290.13
769.828	14403.58
770.164	14456.91
770.5	14681.76
770.836	14707.75
771.171	14803.34
771.507	14959.72
771.842	14958.59
772.178	15204.68
772.513	15266.38
772.849	15319.48
773.184	15475.19
773.519	15552.92
773.855	15621.62
774.19	15721.96
774.525	15833.82
774.86	15866.81
775.195	15929.64
775.53	16033.36
775.865	16046.47
776.2	15938.45
776.535	16018.9
776.87	16123.76
777.205	16245.11
777.539	16193.81
777.874	16360.36
778.209	16321.72
778.543	16415.95
778.878	16338.89
779.212	16403.98
779.547	16507.48
779.881	16598.55
780.215	16539.79
780.55	16603.97
780.884	16632.67
781.218	16640.58
781.552	16637.64
781.886	16696.17
782.22	16708.37
782.554	16675.83
782.888	16556.51
783.222	16615.27
783.556	16684.87
783.889	16625.44
784.223	16593.8
784.557	16604.42
784.89	16771.88
785.224	16688.94
785.557	16696.62
785.891	16650.97
786.224	16643.29
786.558	16613.24
786.891	16528.04
787.224	16593.57
787.557	16583.63
787.891	16613.91
788.224	16663.63
788.557	16587.93
788.89	16602.16
789.223	16688.49
789.556	16495.72
789.888	16479.23
790.221	16494.37
790.554	16375.05
790.887	16480.36
791.219	16414.14
791.552	16366.69
791.884	16374.6
792.217	16327.59
792.549	16260.48
792.882	16226.35
793.214	16206.69
793.546	16278.78
793.879	16116.3
794.211	16082.18
794.543	16188.39
794.875	16062.52
795.207	16187.48
795.539	16128.73
795.871	16067.94
796.203	16044.21
796.535	15942.07
796.867	15894.16
797.198	15936.64
797.53	15880.37
797.862	15852.58
798.193	15904.33
798.525	15709.98
798.856	15853.26
799.188	15644.22
799.519	15614.62
799.85	15517.22
800.182	15626.59
800.513	15576.65
800.844	15466.82
801.175	15571.23
801.506	15550.89
801.837	15457.56
802.168	15415.98
802.499	15379.82
802.83	15341.4
803.161	15375.3
803.491	15262.76
803.822	15287.62
804.153	15363.32
804.483	15104.12
804.814	15034.29
805.145	15152.93
805.475	15088.08
805.805	14958.14
806.136	15066.38
806.466	14979.61
806.796	15048.98
807.126	14957.01
807.457	14919.27
807.787	14891.7
808.117	14837.24
808.447	14834.07
808.777	14875.43
809.107	14719.27
809.436	14753.17
809.766	14704.81
810.096	14675.21
810.426	14650.8
810.755	14681.53
811.085	14592.95
811.414	14638.82
811.744	14483.12
812.073	14484.25
812.403	14497.81
812.732	14373.97
813.061	14371.26
813.39	14342.33
813.719	14373.29
814.049	14399.96
814.378	14297.36
814.707	14225.73
815.036	14339.4
815.365	14183.47
815.693	14067.99
816.022	14060.53
816.351	14101.21
816.68	14059.63
817.008	14177.37
817.337	13995.23
817.665	14007.88
817.994	14083.81
818.322	13949.8
818.651	13907.54
818.979	13860.77
819.307	13948.67
819.636	13957.49
819.964	13833.42
820.292	13946.19
820.62	13935.34
820.948	13898.96
821.276	13915.23
821.604	13797.26
821.932	13865.51
822.259	13894.21
822.587	13840.43
822.915	13805.63
823.243	13892.86
823.57	13783.48
823.898	13805.4
824.225	13813.54
824.553	13837.49
824.88	13790.94
825.207	13898.28
825.535	13856.02
825.862	13812.41
826.189	13757.49
826.516	13849.69
826.843	13864.16
827.17	13856.92
827.497	13835.23
827.824	13884.72
828.151	13852.63
828.478	13837.94
828.805	13890.37
829.131	13893.31
829.458	13896.24
829.785	13729.47
830.111	13818.51
830.438	13861.22
830.764	13889.69
831.09	13842.91
831.417	13721.79
831.743	13779.19
832.069	13814.67
832.395	13764.27
832.722	13894.21
833.048	13794.55
833.374	13812.18
833.7	13761.79
834.026	13676.14
834.351	13775.8
834.677	13661.45
835.003	13705.06
835.329	13739.86
835.654	13710.71
835.98	13684.27
836.306	13746.42
836.631	13630.72
836.956	13682.69
837.282	13710.49
837.607	13640.43
837.932	13531.96
838.258	13548.91
838.583	13668.91
838.908	13513.43
839.233	13517.5
839.558	13448.12
839.883	13410.38
840.208	13335.81
840.533	13403.38
840.858	13489.7
841.182	13373.09
841.507	13352.98
841.832	13268.69
842.156	13297.16
842.481	13311.4
842.805	13331.06
843.13	13219.88
843.454	13176.72
843.778	13088.81
844.103	13134.68
844.427	13164.96
844.751	13119.77
845.075	13123.38
845.399	12998.19
845.723	12907.12
846.047	12979.88
846.371	12863.05
846.695	12893.33
847.019	12787.35
847.343	12792.32
847.666	12699.21
847.99	12703.96
848.313	12575.15
848.637	12491.08
848.96	12574.47
849.284	12461.93
849.607	12390.97
849.931	12286.12
850.254	12306
850.577	12172.22
850.9	12146.46
851.223	12184.65
851.546	11990.98
851.869	12041.38
852.192	12035.28
852.515	11920.03
852.838	11881.83
853.161	11868.28
853.483	11872.57
853.806	11755.28
854.129	11762.29
854.451	11789.63
854.774	11651.78
855.096	11557.32
855.419	11563.2
855.741	11538.34
856.063	11533.37
856.385	11500.38
856.708	11427.61
857.03	11346.48
857.352	11380.83
857.674	11395.29
857.996	11270.55
858.318	11236.43
858.64	11231.68
858.961	11200.72
859.283	11094.96
859.605	11153.94
859.926	11175.19
860.248	11120.27
860.57	11012.93
860.891	11078.01
861.212	11009.54
861.534	10934.51
861.855	10974.51
862.176	10919.6
862.498	10904.46
862.819	10906.27
863.14	10904.01
863.461	10913.05
863.782	10881.41
864.103	10851.35
864.424	10819.72
864.745	10811.13
865.065	10758.47
865.386	10686.84
865.707	10693.84
866.027	10777.23
866.348	10645.03
866.668	10723.22
866.989	10578.82
867.309	10612.04
867.63	10666.73
867.95	10563.23
868.27	10542.43
868.59	10580.17
868.91	10484.58
869.23	10511.7
869.55	10383.12
869.87	10526.16
870.19	10457.69
870.51	10468.31
870.83	10500.4
871.15	10404.36
871.469	10434.19
871.789	10445.04
872.109	10433.28
872.428	10372.95
872.748	10322.55
873.067	10335.21
873.386	10293.18
873.706	10281.65
874.025	10297.92
874.344	10213.86
874.663	10265.38
874.982	10204.14
875.301	10227.87
875.62	10134.54
875.939	10138.83
876.258	10200.3
876.577	10174.53
876.896	10133.41
877.214	10079.85
877.533	10113.29
877.852	10089.11
878.17	10063.8
878.489	10065.84
878.807	10132.73
879.125	10012.28
879.444	10031.49
879.762	10006.4
880.08	9989.23
880.398	9973.64
880.716	9893.64
881.034	9872.85
881.352	9907.65
881.67	9848.67
881.988	9858.84
882.306	9830.14
882.624	9796.92
882.941	9722.34
883.259	9726.18
883.577	9694.77
883.894	9652.06
884.212	9703.36
884.529	9620.65
884.846	9619.52
885.164	9657.26
885.481	9575.23
885.798	9592.18
886.115	9506.08
886.432	9540.43
886.75	9439.41
887.067	9525.96
887.383	9492.97
887.7	9455.68
888.017	9428.57
888.334	9395.35
888.651	9322.81
888.967	9285.52
889.284	9308.34
889.6	9275.35
889.917	9241.68
890.233	9254.78
890.55	9213.66
890.866	9199.87
891.182	9206.2
891.498	9102.02
891.815	9106.54
892.131	9072.64
892.447	9062.02
892.763	9022.25
893.079	9010.5
893.395	9012.08
893.71	8916.26
894.026	8886.88
894.342	8889.14
894.657	8871.52
894.973	8818.86
895.289	8846.21
895.604	8749.04
895.92	8705.42
896.235	8675.14
896.55	8685.76
896.865	8603.5
897.181	8636.27
897.496	8610.06
897.811	8547.23
898.126	8563.96
898.441	8541.13
898.756	8503.39
899.071	8441.47
899.386	8466.33
899.7	8378.2
900.015	8318.99
900.33	8257.97
900.644	8272.44
900.959	8307.69
901.273	8197.19
901.588	8203.51
901.902	8110.18
902.216	8155.15
902.531	8124.42
902.845	8109.05
903.159	8040.58
903.473	8025.44
903.787	8010.75
904.101	7951.77
904.415	7856.18
904.729	7901.37
905.042	7913.35
905.356	7791.09
905.67	7885.78
905.984	7830.64
906.297	7656.41
906.611	7693.24
906.924	7725.33
907.237	7640.36
907.551	7638.56
907.864	7635.84
908.177	7556.52
908.491	7527.6
908.804	7490.31
909.117	7426.58
909.43	7380.94
909.743	7355.85
910.056	7410.09
910.368	7316.76
910.681	7241.96
910.994	7297.1
911.307	7285.8
911.619	7173.48
911.932	7233.6
912.244	7158.12
912.557	7170.09
912.869	7095.75
913.181	7084.9
913.494	7053.71
913.806	7009.42
914.118	7012.81
914.43	6971.46
914.742	6912.7
915.054	6899.82
915.366	6891.68
915.678	6834.06
915.99	6860.05
916.302	6779.14
916.613	6720.39
916.925	6736.66
917.236	6768.97
917.548	6723.33
917.859	6714.74
918.171	6645.36
918.482	6634.97
918.794	6586.15
919.105	6591.58
919.416	6500.28
919.727	6476.1
920.038	6480.17
920.349	6392.71
920.66	6408.31
920.971	6373.28
921.282	6392.94
921.593	6385.71
921.903	6314.3
922.214	6362.43
922.525	6239.27
922.835	6258.71
923.146	6279.5
923.456	6168.54
923.767	6139.84
924.077	6161.76
924.387	6116.56
924.697	6056.45
925.008	6152.27
925.318	6068.65
925.628	6062.33
925.938	5979.39
926.248	5928.77
926.558	5933.52
926.867	5940.75
927.177	5866.4
927.487	5869.56
927.796	5844.48
928.106	5879.73
928.416	5823.91
928.725	5821.88
929.034	5768.55
929.344	5738.49
929.653	5731.26
929.962	5690.36
930.271	5685.84
930.581	5642.68
930.89	5591.83
931.199	5609.68
931.508	5617.59
931.817	5570.36
932.125	5585.73
932.434	5551.83
932.743	5515
933.051	5470.7
933.36	5447.88
933.669	5392.97
933.977	5390.93
934.286	5365.85
934.594	5356.58
934.902	5314.78
935.21	5296.02
935.519	5286.53
935.827	5259.86
936.135	5196.13
936.443	5196.36
936.751	5192.52
937.059	5177.83
937.367	5129.7
937.674	5111.62
937.982	5124.05
938.29	5070.71
938.597	5083.37
938.905	5011.73
939.213	5056.25
939.52	5011.05
939.827	4979.87
940.135	4971.51
940.442	4951.17
940.749	4993.88
941.056	4955.01
941.363	4871.85
941.67	4878.18
941.977	4787.33
942.284	4832.75
942.591	4771.51
942.898	4771.74
943.205	4750.72
943.511	4777.61
943.818	4674.79
944.125	4682.02
944.431	4697.62
944.738	4693.55
945.044	4662.14
945.35	4663.95
945.657	4582.59
945.963	4599.54
946.269	4530.84
946.575	4569.48
946.881	4495.81
947.187	4520.22
947.493	4494.23
947.799	4476.83
948.105	4412.2
948.41	4438.64
948.716	4430.05
949.022	4447.91
949.327	4405.65
949.633	4346.21
949.938	4330.85
950.244	4348.93
950.549	4276.61
950.854	4326.1
951.16	4234.8
951.465	4230.06
951.77	4235.71
952.075	4218.76
952.38	4193
952.685	4222.83
952.99	4162.26
953.294	4133.56
953.599	4130.17
953.904	4050.18
954.209	4085.43
954.513	4068.93
954.818	4054.02
955.122	4029.16
955.426	4023.06
955.731	3967.24
956.035	3978.99
956.339	3960.23
956.643	3965.88
956.948	3887.47
957.252	3919.33
957.556	3896.06
957.86	3872.1
958.163	3871.42
958.467	3828.94
958.771	3846.79
959.075	3869.62
959.378	3801.14
959.682	3807.24
959.985	3756.4
960.289	3733.57
960.592	3729.51
960.896	3727.92
961.199	3722.05
961.502	3700.81
961.805	3694.93
962.108	3661.49
962.411	3640.47
962.714	3581.71
963.017	3603.41
963.32	3641.37
963.623	3562.05
963.926	3575.16
964.228	3530.42
964.531	3536.07
964.833	3559.57
965.136	3480.25
965.438	3514.82
965.741	3492.22
966.043	3462.17
966.345	3436.41
966.648	3438.21
966.95	3394.37
967.252	3403.19
967.554	3381.49
967.856	3380.36
968.158	3355.5
968.46	3343.53
968.761	3324.55
969.063	3366.35
969.365	3327.94
969.666	3295.85
969.968	3247.71
970.269	3205
970.571	3267.82
970.872	3214.94
971.174	3196.41
971.475	3212.23
971.776	3198.9
972.077	3164.55
972.378	3165.91
972.679	3132.46
972.98	3142.63
973.281	3114.61
973.582	3084.55
973.883	3104.66
974.183	3093.36
974.484	3073.7
974.785	3042.74
975.085	3025.34
975.386	3028.73
975.686	2996.42
975.986	3001.62
976.287	2994.38
976.587	2947.83
976.887	2958.45
977.187	2947.15
977.487	2944.67
977.787	2897.44
978.087	2916.42
978.387	2899.47
978.687	2901.73
978.987	2852.02
979.286	2870.32
979.586	2839.36
979.885	2836.65
980.185	2831
980.484	2852.69
980.784	2783.54
981.083	2790.77
981.382	2798.91
981.682	2736.76
981.981	2743.54
982.28	2728.18
982.579	2719.14
982.878	2722.08
983.177	2692.02
983.475	2653.6
983.774	2665.35
984.073	2710.78
984.372	2630.33
984.67	2621.74
984.969	2635.3
985.267	2617.45
985.566	2602.98
985.864	2577.22
986.162	2609.08
986.461	2547.16
986.759	2550.78
987.057	2521.18
987.355	2513.49
987.653	2520.05
987.951	2473.49
988.249	2490.89
988.547	2457
988.844	2499.93
989.142	2486.6
989.44	2437.56
989.737	2457.68
990.035	2424.23
990.332	2459.26
990.63	2400.5
990.927	2405.02
991.224	2368.86
991.521	2360.95
991.819	2368.86
992.116	2359.82
992.413	2350.79
992.71	2310.11
993.006	2333.16
993.303	2308.3
993.6	2309.2
993.897	2292.93
994.193	2309.88
994.49	2229.66
994.787	2258.36
995.083	2248.64
995.379	2201.19
995.676	2249.09
995.972	2213.61
996.268	2219.26
996.565	2193.28
996.861	2219.49
997.157	2142.43
997.453	2125.25
997.749	2180.62
998.044	2179.49
998.34	2138.59
998.636	2126.84
998.932	2119.83
999.227	2107.85
999.523	2082.54
999.818	2100.62
1000.114	2054.97
1000.409	2067.18
1000.704	2043.45
1001	2034.64
1001.295	2045.71
1001.59	1972.49
1001.885	2012.94
1002.18	1952.6
1002.475	1961.19
1002.77	1983.56
1003.065	1978.82
1003.359	1968.65
1003.654	1959.16
1003.949	1908.76
1004.243	1908.99
1004.538	1927.07
1004.832	1908.76
1005.127	1877.35
1005.421	1856.11
1005.715	1855.66
1006.009	1831.7
1006.304	1825.15
1006.598	1823.12
1006.892	1789.67
1007.186	1817.92
1007.48	1792.38
1007.773	1812.49
1008.067	1784.7
1008.361	1749.45
1008.655	1755.32
1008.948	1776.56
1009.242	1749.45
1009.535	1730.01
1009.829	1719.39
1010.122	1680.75
1010.415	1708.32
1010.708	1704.25
1011.001	1684.36
1011.295	1676.68
1011.588	1676.23
1011.881	1631.03
1012.173	1639.39
1012.466	1665.38
1012.759	1640.3
1013.052	1627.41
1013.344	1612.5
1013.637	1621.99
1013.93	1584.93
1014.222	1580.64
1014.514	1562.56
1014.807	1577.7
1015.099	1544.93
1015.391	1549.22
1015.683	1538.38
1015.976	1520.75
1016.268	1510.13
1016.56	1502.67
1016.851	1498.15
1017.143	1494.76
1017.435	1479.17
1017.727	1479.17
1018.018	1457.48
1018.31	1446.18
1018.602	1417.02
1018.893	1432.17
1019.185	1451.37
1019.476	1411.15
1019.767	1427.65
1020.058	1398.95
1020.35	1399.62
1020.641	1364.14
1020.932	1372.28
1021.223	1371.15
1021.514	1358.04
1021.804	1329.34
1022.095	1352.17
1022.386	1333.41
1022.677	1332.06
1022.967	1316.01
1023.258	1282.11
1023.548	1285.28
1023.839	1286.18
1024.129	1284.82
1024.419	1257.48
1024.709	1271.72
1025	1279.63
1025.29	1239.63
1025.58	1229.01
1025.87	1223.36
1026.16	1220.65
1026.449	1240.53
1026.739	1208.67
1027.029	1185.17
1027.319	1200.76
1027.608	1191.27
1027.898	1174.32
1028.187	1174.55
1028.477	1166.86
1028.766	1184.71
1029.055	1155.11
1029.344	1165.05
1029.634	1132.29
1029.923	1129.57
1030.212	1127.54
1030.501	1118.5
1030.79	1120.54
1031.078	1099.07
1031.367	1108.33
1031.656	1064.94
1031.945	1052.74
1032.233	1063.14
1032.522	1075.11
1032.81	1062.23
1033.099	1048.22
1033.387	1036.02
1033.675	1033.08
1033.963	1025.17
1034.251	1013.19
1034.54	1019.52
1034.828	1006.41
1035.116	987.43
1035.403	987.88
1035.691	1025.85
1035.979	1005.51
1036.267	984.49
1036.554	997.37
1036.842	975.45
1037.129	961.22
1037.417	977.94
1037.704	977.26
1037.992	944.04
1038.279	931.16
1038.566	963.48
1038.853	963.48
1039.14	963.48
