Data from hue_100_FLMS001491_00034.txt Node
Date: Tue Feb 07 17:03:04 GMT 2017
User: dcchb
Spectrometer: FLMS00149
Trigger mode: 0
Integration Time (sec): 2.000000E-2
Scans to average: 10
Electric dark correction enabled: true
Nonlinearity correction enabled: false
Boxcar width: 0
XAxis mode: Wavelengths
Number of Pixels in Spectrum: 2048
>>>>>Begin Spectral Data<<<<<
341.393	1.54
341.776	1.54
342.16	1.54
342.543	-79.81
342.927	-55.86
343.31	-49.08
343.693	-70.55
344.077	-79.59
344.46	-54.96
344.843	-66.71
345.226	-36.2
345.61	-21.74
345.993	-31
346.376	-11.57
346.759	9.22
347.142	20.07
347.525	49.9
347.908	60.3
348.291	80.63
348.674	97.36
349.057	103.91
349.44	132.16
349.823	148.43
350.206	160.86
350.588	214.87
350.971	218.26
351.354	232.27
351.737	238.82
352.119	246.05
352.502	277.69
352.884	285.6
353.267	291.7
353.65	297.8
354.032	300.74
354.414	332.6
354.797	325.6
355.179	315.2
355.562	333.51
355.944	345.71
356.326	324.02
356.709	360.17
357.091	348.42
357.473	375.77
357.855	339.84
358.238	366.05
358.62	355.2
359.002	347.07
359.384	373.06
359.766	350.23
360.148	344.36
360.53	361.76
360.912	354.98
361.294	351.81
361.676	352.04
362.057	371.7
362.439	354.98
362.821	352.72
363.203	342.32
363.584	339.84
363.966	336.22
364.348	327.86
364.729	335.54
365.111	338.48
365.493	334.41
365.874	324.69
366.256	331.25
366.637	324.92
367.019	330.12
367.4	328.54
367.781	319.72
368.163	327.63
368.544	291.48
368.925	328.99
369.306	317.01
369.688	330.12
370.069	325.15
370.45	333.51
370.831	337.12
371.212	327.86
371.593	317.24
371.974	352.26
372.355	329.21
372.736	332.15
373.117	350
373.498	347.07
373.879	353.62
374.26	352.04
374.641	349.33
375.021	344.81
375.402	353.39
375.783	356.11
376.163	355.88
376.544	356.78
376.925	327.63
377.305	358.14
377.686	340.97
378.066	345.03
378.447	350
378.827	322.89
379.208	354.98
379.588	340.74
379.968	352.04
380.349	375.77
380.729	364.69
381.109	346.62
381.489	361.53
381.87	363.56
382.25	377.12
382.63	353.17
383.01	354.75
383.39	346.39
383.77	375.54
384.15	379.61
384.53	365.37
384.91	376.67
385.29	367.86
385.67	370.12
386.049	396.78
386.429	380.74
386.809	397.24
387.189	377.35
387.568	388.2
387.948	388.42
388.328	408.76
388.707	380.06
389.087	408.99
389.466	392.72
389.846	393.85
390.225	398.82
390.605	396.56
390.984	380.29
391.363	392.04
391.743	393.62
392.122	400.17
392.501	404.47
392.881	404.01
393.26	419.16
393.639	417.57
394.018	403.79
394.397	398.82
394.776	430.45
395.155	445.14
395.534	429.78
395.913	414.18
396.292	430.45
396.671	408.31
397.05	427.97
397.429	436.78
397.808	428.19
398.186	425.94
398.565	436.78
398.944	430.45
399.323	432.94
399.701	433.39
400.08	433.62
400.458	437.91
400.837	451.7
401.215	433.39
401.594	446.05
401.972	438.36
402.351	472.04
402.729	448.31
403.107	468.87
403.486	455.31
403.864	455.31
404.242	447.86
404.62	472.04
404.999	475.65
405.377	500.96
405.755	484.46
406.133	468.65
406.511	490.11
406.889	494.86
407.267	494.41
407.645	496.89
408.023	502.32
408.401	510.23
408.779	513.39
409.156	495.99
409.534	527.18
409.912	512.49
410.29	516.33
410.667	525.37
411.045	514.29
411.422	541.19
411.8	538.25
412.178	549.77
412.555	546.16
412.933	557.23
413.31	559.94
413.687	563.33
414.065	589.09
414.442	580.51
414.819	579.38
415.197	574.41
415.574	588.42
415.951	591.58
416.328	572.82
416.705	584.8
417.082	587.29
417.46	592.03
417.837	599.94
418.214	625.48
418.591	613.27
418.967	619.15
419.344	623.67
419.721	625.48
420.098	633.84
420.475	645.14
420.852	641.3
421.228	639.04
421.605	657.34
421.982	656.66
422.358	656.44
422.735	678.58
423.111	666.38
423.488	681.75
423.864	669.54
424.241	690.56
424.617	694.85
424.994	687.85
425.37	682.2
425.746	682.2
426.123	726.49
426.499	710.22
426.875	724.01
427.251	741.41
427.627	759.71
428.003	761.07
428.379	755.42
428.756	739.6
429.132	769.65
429.507	780.28
429.883	793.61
430.259	780.05
430.635	804.68
431.011	782.31
431.387	797
431.763	800.84
432.138	811.69
432.514	815.08
432.89	840.61
433.265	847.62
433.641	844
434.016	863.66
434.392	890.56
434.767	896.21
435.143	872.48
435.518	912.02
435.894	895.98
436.269	913.38
436.644	934.17
437.02	933.49
437.395	937.79
437.77	926.94
438.145	952.47
438.52	967.62
438.895	968.52
439.271	985.69
439.646	985.47
440.021	978.69
440.395	975.75
440.77	1012.36
441.145	1000.61
441.52	1031.57
441.895	1020.04
442.27	1041.74
442.645	1025.92
443.019	1042.42
443.394	1058.23
443.769	1081.29
444.143	1067.73
444.518	1075.86
444.892	1062.98
445.267	1082.87
445.641	1113.6
446.016	1120.38
446.39	1105.01
446.764	1096.43
447.139	1101.85
447.513	1120.15
447.887	1148.63
448.262	1129.65
448.636	1127.61
449.01	1172.58
449.384	1187.95
449.758	1191.56
450.132	1196.31
450.506	1207.16
450.88	1206.48
451.254	1197.44
451.628	1219.59
452.002	1261.17
452.376	1228.85
452.75	1292.58
453.123	1277.44
453.497	1272.92
453.871	1281.05
454.244	1326.93
454.618	1351.33
454.992	1357.66
455.365	1359.47
455.739	1387.72
456.112	1385.46
456.486	1378.68
456.859	1428.39
457.232	1449.86
457.606	1437.21
457.979	1460.03
458.352	1498.45
458.725	1522.86
459.099	1540.71
459.472	1567.15
459.845	1544.1
460.218	1570.54
460.591	1623.19
460.964	1626.81
461.337	1617.99
461.71	1670.65
462.083	1657.99
462.456	1704.09
462.829	1742.96
463.201	1716.75
463.574	1754.94
463.947	1787.71
464.32	1804.88
464.692	1852.34
465.065	1851.66
465.438	1888.95
465.81	1918.78
466.183	1940.7
466.555	2049.4
466.928	1986.12
467.3	1977.53
467.672	2036.97
468.045	2085.78
468.417	2146.34
468.789	2096.17
469.161	2175.72
469.534	2223.18
469.906	2216.85
470.278	2279.22
470.65	2328.26
471.022	2323.96
471.394	2422.04
471.766	2490.51
472.138	2506.11
472.51	2584.75
472.882	2620.23
473.253	2635.59
473.625	2688.25
473.997	2770.51
474.369	2786.78
474.74	2822.48
475.112	2912.42
475.484	3001.69
475.855	3081.68
476.227	3088.01
476.598	3179.76
476.97	3250.04
477.341	3371.17
477.713	3429.47
478.084	3478.74
478.455	3632.86
478.827	3704.94
479.198	3824.49
479.569	3836.69
479.94	3974.09
480.311	4025.16
480.682	4140.87
481.053	4313.06
481.424	4413.17
481.795	4506.51
482.166	4601.19
482.537	4730.45
482.908	4875.76
483.279	4969.77
483.65	5068.98
484.021	5268.75
484.391	5388.97
484.762	5481.4
485.133	5611.79
485.503	5750.09
485.874	5891.1
486.244	5998.44
486.615	6174.26
486.985	6313.69
487.356	6492.44
487.726	6629.84
488.097	6781.47
488.467	6871.19
488.837	7103.5
489.207	7281.57
489.578	7438.18
489.948	7599.76
490.318	7763.14
490.688	7878.17
491.058	8060.76
491.428	8275.22
491.798	8432.73
492.168	8658.94
492.538	8764.25
492.908	8974.86
493.278	9121.98
493.648	9174.41
494.017	9437.68
494.387	9589.54
494.757	9705.24
495.126	9913.82
495.496	10020.94
495.866	10155.62
496.235	10293.47
496.605	10478.78
496.974	10621.6
497.344	10804.42
497.713	10896.17
498.082	11080.8
498.452	11186.33
498.821	11354.46
499.19	11463.61
499.559	11596.04
499.928	11738.41
500.298	11891.4
500.667	12043.93
501.036	12029.7
501.405	12314.44
501.774	12346.07
502.143	12511.27
502.512	12640.76
502.88	12793.07
503.249	12885.72
503.618	12934.98
503.987	12998.71
504.356	13222.21
504.724	13273.73
505.093	13329.78
505.462	13419.49
505.83	13591.24
506.199	13739.26
506.567	13922.76
506.936	13816.54
507.304	14020.38
507.672	14122.75
508.041	14191.45
508.409	14324.33
508.777	14387.38
509.145	14467.15
509.514	14521.16
509.882	14688.61
510.25	14755.05
510.618	14852
510.986	14938.32
511.354	14975.16
511.722	15082.05
512.09	15233
512.458	15174.93
512.826	15382.38
513.193	15441.59
513.561	15470.96
513.929	15568.59
514.297	15680
514.664	15756.61
515.032	15837.96
515.4	15896.94
515.767	15945.53
516.135	16035.02
516.502	15894.45
516.869	16166.09
517.237	16278.4
517.604	16151.62
517.972	16263.26
518.339	16317.72
518.706	16362.92
519.073	16455.34
519.44	16550.03
519.808	16576.7
520.175	16543.7
520.542	16742.57
520.909	16746.86
521.276	16765.39
521.643	16861.44
522.009	16982.11
522.376	16978.27
522.743	17036.35
523.11	17233.4
523.477	17284.47
523.843	17303.46
524.21	17406.96
524.577	17557.24
524.943	17496.9
525.31	17647.18
525.676	17641.53
526.043	17749.55
526.409	17650.57
526.776	17865.02
527.142	17842.2
527.508	17971.01
527.874	17940.73
528.241	18004.23
528.607	17937.57
528.973	18195.86
529.339	18087.39
529.705	18224.11
530.071	18260.49
530.437	18316.31
530.803	18309.53
531.169	18324.9
531.535	18262.75
531.901	18284.22
532.267	18268.4
532.632	18341.4
532.998	18268.4
533.364	18363.54
533.73	18307.05
534.095	18502.52
534.461	18448.06
534.826	18392.47
535.192	18467.72
535.557	18466.82
535.923	18492.8
536.288	18460.26
536.653	18430.21
537.019	18354.05
537.384	18366.03
537.749	18342.07
538.114	18332.58
538.479	18331.45
538.845	18332.13
539.21	18293.94
539.575	18325.13
539.94	18303.21
540.305	18368.74
540.67	18241.29
541.034	18212.36
541.399	18285.35
541.764	18286.48
542.129	18164.9
542.494	18277.44
542.858	18203.77
543.223	18140.05
543.587	18224.34
543.952	18118.35
544.316	18144.79
544.681	18035.64
545.045	18110.22
545.41	18129.42
545.774	18019.82
546.138	17936.89
546.503	18009.65
546.867	17965.59
547.231	18057.56
547.595	17988.64
547.959	17911.35
548.324	17803.11
548.688	17859.15
549.052	17912.26
549.416	17826.61
549.779	17858.47
550.143	17806.04
550.507	17825.25
550.871	17853.05
551.235	17706.16
551.599	17914.74
551.962	17756.78
552.326	17769.66
552.689	17802.2
553.053	17640.62
553.417	17610.34
553.78	17728.76
554.143	17647.63
554.507	17683.11
554.87	17749.1
555.234	17821.41
555.597	17657.57
555.96	17677.23
556.323	17731.47
556.686	17653.5
557.05	17708.87
557.413	17729.66
557.776	17686.05
558.139	17787.06
558.502	17672.71
558.865	17669.1
559.228	17681.3
559.59	17665.93
559.953	17733.73
560.316	17945.47
560.679	17809.21
561.041	17869.32
561.404	17843.33
561.767	17910.67
562.129	17844.69
562.492	17986.38
562.854	17952.93
563.217	17935.53
563.579	17937.79
563.941	18045.58
564.304	17931.24
564.666	17985.02
565.028	18101.63
565.39	18056.88
565.753	18160.84
566.115	18100.72
566.477	18228.18
566.839	18124.45
567.201	18267.5
567.563	18258.91
567.925	18283.32
568.287	18213.94
568.648	18331.68
569.01	18449.19
569.372	18400.38
569.734	18335.97
570.095	18506.82
570.457	18545.23
570.819	18589.53
571.18	18510.66
571.542	18530.77
571.903	18602.41
572.265	18656.42
572.626	18758.56
572.987	18647.6
573.349	18785
573.71	18786.81
574.071	18674.27
574.432	18737.54
574.794	18857.99
575.155	18789.97
575.516	18752.91
575.877	18775.74
576.238	18760.82
576.599	18852.8
576.96	18897.54
577.32	18805.56
577.681	18905
578.042	18908.61
578.403	18905
578.763	18929.18
579.124	18955.17
579.485	18963.98
579.845	19094.37
580.206	18986.35
580.566	18964.43
580.927	18946.8
581.287	18963.3
581.648	18914.94
582.008	18981.15
582.368	18887.14
582.728	18995.39
583.089	18992.9
583.449	18919.69
583.809	18982.96
584.169	19018.44
584.529	18920.59
584.889	18973.7
585.249	18877.65
585.609	18913.13
585.969	18964.2
586.329	18855.06
586.688	18948.39
587.048	18839.24
587.408	18821.38
587.768	18757.2
588.127	18799.01
588.487	18751.55
588.846	18895.96
589.206	18706.36
589.565	18760.37
589.925	18869.52
590.284	18608.06
590.643	18850.08
591.003	18823.42
591.362	18826.58
591.721	18763.98
592.08	18718.79
592.44	18840.14
592.799	18780.71
593.158	18690.77
593.517	18736.87
593.876	18816.64
594.235	18830.65
594.593	18722.63
594.952	18706.13
595.311	18647.38
595.67	18708.62
596.029	18829.75
596.387	18787.49
596.746	18738.45
597.104	18638.11
597.463	18730.54
597.822	18759.46
598.18	18697.55
598.538	18640.15
598.897	18793.59
599.255	18594.5
599.613	18895.96
599.972	18684.89
600.33	18728.96
600.688	18668.39
601.046	18818.45
601.404	18782.51
601.762	18706.13
602.12	18787.03
602.478	18745
602.836	18756.3
603.194	18715.62
603.552	18762.85
603.91	18675.85
604.268	18769.63
604.625	18666.59
604.983	18733.02
605.341	18652.57
605.698	18730.99
606.056	18771.67
606.413	18691.44
606.771	18834.49
607.128	18719.92
607.485	18697.32
607.843	18702.52
608.2	18786.58
608.557	18843.53
608.914	18851.67
609.272	18907.71
609.629	18967.37
609.986	18936.63
610.343	18964.88
610.7	18988.38
611.057	18988.84
611.414	18904.55
611.771	19048.95
612.127	19080.81
612.484	19056.18
612.841	19097.08
613.198	19001.94
613.554	18942.06
613.911	19135.95
614.267	19072.45
614.624	19023.64
614.98	18969.18
615.337	19128.04
615.693	19122.62
616.05	19153.13
616.406	19282.39
616.762	19180.47
617.118	19092.34
617.475	19058.44
617.831	19194.93
618.187	19264.31
618.543	19237.19
618.899	19347.92
619.255	19312.67
619.611	19147.93
619.967	19313.57
620.323	19384.98
620.678	19373.69
621.034	19285.1
621.39	19318.09
621.746	19280.81
622.101	19453.01
622.457	19286
622.812	19402.84
623.168	19330.97
623.523	19327.81
623.879	19412.33
624.234	19327.59
624.589	19371.65
624.945	19426.11
625.3	19339.34
625.655	19368.49
626.01	19397.19
626.365	19373.69
626.72	19337.08
627.075	19317.87
627.43	19270.64
627.785	19244.2
628.14	19258.66
628.495	19373.69
628.85	19254.59
629.205	19221.15
629.559	19416.62
629.914	19317.64
630.269	19249.17
630.623	19184.99
630.978	19129.85
631.332	19156.29
631.687	19244.2
632.041	19138.21
632.396	19142.51
632.75	19068.61
633.104	19128.49
633.459	18919.69
633.813	19028.61
634.167	18925.11
634.521	19041.04
634.875	18946.58
635.229	18953.58
635.583	18808.28
635.937	18829.29
636.291	18768.73
636.645	18816.64
636.999	18841.5
637.352	18786.36
637.706	18782.51
638.06	18757.88
638.413	18758.56
638.767	18728.28
639.121	18704.78
639.474	18601.95
639.828	18627.04
640.181	18672.69
640.534	18634.72
640.888	18673.14
641.241	18576.19
641.594	18581.84
641.947	18574.84
642.301	18602.18
642.654	18688.51
643.007	18599.24
643.36	18511.11
643.713	18540.71
644.066	18582.07
644.419	18413.26
644.771	18314.96
645.124	18229.08
645.477	18151.57
645.83	18079.03
646.182	17985.25
646.535	17942.99
646.888	17925.14
647.24	17860.5
647.593	17944.34
647.945	17962.42
648.298	17805.82
648.65	17729.66
649.002	17764.69
649.355	17870.67
649.707	17858.7
650.059	17969.43
650.411	18110.67
650.763	18173.94
651.115	18337.78
651.467	18253.49
651.819	18199.71
652.171	18308.85
652.523	18161.97
652.875	18060.5
653.227	18081.29
653.578	18287.39
653.93	18146.15
654.282	18124.9
654.633	18074.28
654.985	18164.45
655.337	18212.81
655.688	18103.66
656.039	18243.09
656.391	18040.61
656.742	18133.49
657.094	18102.76
657.445	18254.17
657.796	18244
658.147	18136.43
658.498	18158.8
658.849	18225.02
659.2	18112.48
659.551	18085.81
659.902	18170.78
660.253	18195.86
660.604	18242.19
660.955	18172.81
661.306	18307.5
661.656	18197.22
662.007	18284.9
662.358	18319.7
662.708	18147.05
663.059	18189.54
663.409	18163.1
663.76	18219.14
664.11	18181.17
664.461	18196.54
664.811	18205.35
665.161	18168.75
665.511	18163.77
665.862	18268.18
666.212	18255.75
666.562	18140.95
666.912	18267.95
667.262	18210.33
667.612	18220.5
667.962	18251
668.312	18133.27
668.662	18180.5
669.011	18250.78
669.361	18227.95
669.711	18150.89
670.06	18126.03
670.41	18179.82
670.76	18074.06
671.109	18158.8
671.459	18091.01
671.808	18174.62
672.157	18181.63
672.507	17964.01
672.856	18082.87
673.205	18014.17
673.554	18060.95
673.904	18016.89
674.253	18040.39
674.602	17988.86
674.951	17694.63
675.3	17651.92
675.649	17954.51
675.998	17976.66
676.346	17928.3
676.695	17970.33
677.044	17862.76
677.393	17844.23
677.741	17940.73
678.09	17855.99
678.438	17745.93
678.787	17892.14
679.135	17775.99
679.484	17655.31
679.832	17686.05
680.181	17567.41
680.529	17674.97
680.877	17601.98
681.225	17606.95
681.573	17645.14
681.922	17505.03
682.27	17517.46
682.618	17526.73
682.966	17448.76
683.314	17370.8
683.661	17434.98
684.009	17291.93
684.357	17303.46
684.705	17365.83
685.053	17288.99
685.4	17227.75
685.748	17102.33
686.095	17154.53
686.443	17008.1
686.79	17037.25
687.138	17002.67
687.485	17107.3
687.832	16886.52
688.18	16924.48
688.527	16864.15
688.874	16741.89
689.221	16681.1
689.568	16725.17
689.915	16735.34
690.262	16656.69
690.609	16644.27
690.956	16571.95
691.303	16521.56
691.65	16441.11
691.997	16436.14
692.344	16422.12
692.69	16260.55
693.037	16345.06
693.383	16152.3
693.73	16201.79
694.077	16098.97
694.423	16065.98
694.769	16009.93
695.116	15980.33
695.462	15911.18
695.808	15862.14
696.155	15891.97
696.501	15800.22
696.847	15795.47
697.193	15577.18
697.539	15615.59
697.885	15470.74
698.231	15479.32
698.577	15498.53
698.923	15487.01
699.269	15371.08
699.614	15253.12
699.96	15226.22
700.306	15172.21
700.651	15128.83
700.997	15067.13
701.342	15043.18
701.688	15037.98
702.033	14994.37
702.379	15003.63
702.724	14868.95
703.069	14867.14
703.415	14654.94
703.76	14663.3
704.105	14770.87
704.45	14604.55
704.795	14479.8
705.14	14541.27
705.485	14555.73
705.83	14479.35
706.175	14466.02
706.52	14362.97
706.865	14229.87
707.209	14197.1
707.554	14197.1
707.899	14244.1
708.243	14179.02
708.588	14058.8
708.932	13977.22
709.277	13996.43
709.621	13916.88
709.966	13824
710.31	13961.17
710.654	13794.17
710.998	13846.15
711.342	13880.27
711.687	13735.64
712.031	13752.14
712.375	13616.32
712.719	13635.31
713.063	13722.99
713.407	13675.98
713.75	13553.27
714.094	13510.34
714.438	13517.34
714.782	13519.6
715.125	13504.24
715.469	13492.26
715.812	13356.44
716.156	13330.68
716.499	13331.81
716.843	13316.67
717.186	13257.91
717.53	13348.31
717.873	13341.53
718.216	13317.8
718.559	13149.89
718.902	13084.81
719.246	13158.71
719.589	13156.22
719.932	13088.88
720.275	13111.48
720.617	13106.28
720.96	13058.6
721.303	13086.39
721.646	12997.81
721.989	12994.42
722.331	13013.63
722.674	12983.35
723.016	12938.6
723.359	12997.58
723.701	13050.46
724.044	12859.28
724.386	12932.5
724.729	12919.84
725.071	12818.38
725.413	12867.42
725.755	12877.59
726.097	12867.42
726.439	12817.7
726.782	12789.68
727.124	12850.24
727.465	12678.04
727.807	12771.83
728.149	12789.45
728.491	12697.48
728.833	12726.63
729.175	12678.49
729.516	12722.33
729.858	12669.46
730.199	12664.48
730.541	12661.09
730.882	12722.56
731.224	12740.19
731.565	12597.82
731.906	12674.43
732.248	12710.13
732.589	12651.15
732.93	12516.24
733.271	12480.31
733.612	12677.82
733.953	12574.54
734.294	12575.67
734.635	12547.88
734.976	12678.49
735.317	12478.5
735.658	12625.39
735.999	12593.98
736.339	12554.2
736.68	12607.76
737.021	12523.02
737.361	12492.51
737.702	12573.19
738.042	12548.1
738.383	12586.97
738.723	12590.14
739.063	12604.37
739.404	12646.63
739.744	12643.02
740.084	12645.5
740.424	12652.28
740.764	12661.09
741.104	12674.43
741.444	12547.88
741.784	12553.75
742.124	12615.9
742.464	12592.17
742.804	12753.97
743.143	12671.04
743.483	12708.32
743.823	12676.46
744.162	12683.47
744.502	12791.03
744.841	12694.09
745.181	12877.59
745.52	12949.9
745.86	12962.78
746.199	12917.36
746.538	12958.03
746.877	13154.41
747.216	13171.14
747.556	13138.14
747.895	13251.81
748.234	13167.52
748.573	13339.72
748.911	13294.52
749.25	13484.12
749.589	13435.31
749.928	13597.34
750.267	13642.08
750.605	13731.57
750.944	13720.27
751.283	13805.92
751.621	13983.09
751.96	14003.66
752.298	14162.75
752.636	14317.1
752.975	14313.03
753.313	14369.07
753.651	14597.09
753.989	14726.35
754.327	14785.56
754.666	14903.75
755.004	15016.74
755.342	15185.32
755.679	15252.44
756.017	15340.12
756.355	15523.39
756.693	15688.36
757.031	15906.21
757.368	15957.05
757.706	16073.89
758.044	16300.77
758.381	16463.25
758.719	16590.48
759.056	16755.45
759.394	17004.71
759.731	17019.4
760.068	17166.96
760.405	17343
760.743	17417.58
761.08	17702.32
761.417	17840.62
761.754	18071.57
762.091	18213.04
762.428	18312.92
762.765	18331.45
763.102	18616.19
763.438	18763.08
763.775	18934.6
764.112	19101.6
764.449	19352.9
764.785	19398.54
765.122	19494.59
765.458	19630.63
765.795	19783.39
766.131	19979.55
766.467	20090.73
766.804	20217.28
767.14	20283.72
767.476	20518.06
767.812	20586.31
768.148	20842.8
768.485	20747.66
768.821	20894.32
769.157	20990.59
769.492	21159.63
769.828	21347.64
770.164	21240.98
770.5	21339.06
770.836	21550.13
771.171	21498.83
771.507	21687.52
771.842	21654.98
772.178	21817.92
772.513	21851.36
772.849	21974.75
773.184	22030.34
773.519	22008.87
773.855	22127.74
774.19	22115.08
774.525	22087.96
774.86	22229.2
775.195	22343.1
775.53	22253.84
775.865	22260.16
776.2	22264.46
776.535	22281.41
776.87	22384.68
777.205	22441.85
777.539	22350.1
777.874	22469.88
778.209	22329.77
778.543	22402.76
778.878	22357.79
779.212	22389.43
779.547	22380.84
779.881	22527.05
780.215	22430.33
780.55	22544
780.884	22438.01
781.218	22492.25
781.552	22457.9
781.886	22381.74
782.22	22320.05
782.554	22377.9
782.888	22364.12
783.222	22309.2
783.556	22249.77
783.889	22068.98
784.223	22092.26
784.557	22162.31
784.89	22287.73
785.224	22104.91
785.557	22028.3
785.891	21914.64
786.224	21913.96
786.558	21940.17
786.891	21836.45
787.224	21786.73
787.557	21780.4
787.891	21855.65
788.224	21738.14
788.557	21760.29
788.89	21745.15
789.223	21676.45
789.556	21595.32
789.888	21629.22
790.221	21595.32
790.554	21377.02
790.887	21416.57
791.219	21312.84
791.552	21247.76
791.884	21163.47
792.217	21160.98
792.549	21127.54
792.882	21135.9
793.214	21044.15
793.546	21184.71
793.879	20897.04
794.211	20801.67
794.543	20880.54
794.875	20918.5
795.207	21034.66
795.539	20801.44
795.871	20777.94
796.203	20747.21
796.535	20563.71
796.867	20547.67
797.198	20569.59
797.53	20526.65
797.862	20412.08
798.193	20404.17
798.525	20278.75
798.856	20393.09
799.188	20120.56
799.519	20113.33
799.85	19989.04
800.182	19942.94
800.513	20020.9
800.844	19852.77
801.175	19952.2
801.506	19947.23
801.837	19838.98
802.168	19840.57
802.499	19725.31
802.83	19676.73
803.161	19654.58
803.491	19675.37
803.822	19561.48
804.153	19521.03
804.483	19309.73
804.814	19302.95
805.145	19318.77
805.475	19276.29
805.805	19190.19
806.136	19222.96
806.466	19323.52
806.796	19164.65
807.126	18977.09
807.457	19010.98
807.787	19044.2
808.117	18929.86
808.447	18827.26
808.777	18849.63
809.107	18743.65
809.436	18606.02
809.766	18715.85
810.096	18567.61
810.426	18591.79
810.755	18453.03
811.085	18450.55
811.414	18477.89
811.744	18408.51
812.073	18375.52
812.403	18337.78
812.732	18271.12
813.061	18315.18
813.39	18176.2
813.719	18224.79
814.049	18304.34
814.378	18184.34
814.707	18067.96
815.036	18089.2
815.365	17959.03
815.693	17851.47
816.022	17896.66
816.351	17892.82
816.68	17719.94
817.008	17845.36
817.337	17687.4
817.665	17727.18
817.994	17733.5
818.322	17627.97
818.651	17580.06
818.979	17526.05
819.307	17621.19
819.636	17555.2
819.964	17444.02
820.292	17480.4
820.62	17495.32
820.948	17462.78
821.276	17411.93
821.604	17308.43
821.932	17424.58
822.259	17412.38
822.587	17324.02
822.915	17362.21
823.243	17374.87
823.57	17288.77
823.898	17394.75
824.225	17341.2
824.553	17310.46
824.88	17384.36
825.207	17373.74
825.535	17449.67
825.862	17442.89
826.189	17257.81
826.516	17396.11
826.843	17517.24
827.17	17332.61
827.497	17417.58
827.824	17388.2
828.151	17472.27
828.478	17360.18
828.805	17505.26
829.131	17452.38
829.458	17446.73
829.785	17289.22
830.111	17320.18
830.438	17443.57
830.764	17412.38
831.09	17384.36
831.417	17317.69
831.743	17302.1
832.069	17390.69
832.395	17246.06
832.722	17375.77
833.048	17243.57
833.374	17263.91
833.7	17158.15
834.026	17243.12
834.351	17284.25
834.677	17214.65
835.003	17255.78
835.329	17248.32
835.654	17098.72
835.98	17151.6
836.306	17173.74
836.631	17080.86
836.956	17081.54
837.282	17177.59
837.607	16924.26
837.932	16987.31
838.258	16909.8
838.583	16961.09
838.908	16851.49
839.233	16829.8
839.558	16867.08
839.883	16767.88
840.208	16751.38
840.533	16731.95
840.858	16710.7
841.182	16746.64
841.507	16653.98
841.832	16608.33
842.156	16567.21
842.481	16632.97
842.805	16500.99
843.13	16501.44
843.454	16414.44
843.778	16376.7
844.103	16404.05
844.427	16301.68
844.751	16275.91
845.075	16326.53
845.399	16130.83
845.723	16118.18
846.047	16163.83
846.371	16032.98
846.695	16028.46
847.019	15956.15
847.343	15910.27
847.666	15798.41
847.99	15715.02
848.313	15713.67
848.637	15570.4
848.96	15539.21
849.284	15588.7
849.607	15348.48
849.931	15363.4
850.254	15243.62
850.577	15255.83
850.9	15121.82
851.223	15080.47
851.546	15023.97
851.869	14938.77
852.192	15029.39
852.515	14840.7
852.838	14862.39
853.161	14757.08
853.483	14671.89
853.806	14705.79
854.129	14648.39
854.451	14599.57
854.774	14499.46
855.096	14440.93
855.419	14403.19
855.741	14416.98
856.063	14289.75
856.385	14266.48
856.708	14260.83
857.03	14211.56
857.352	14147.61
857.674	14155.52
857.996	14069.87
858.318	13970.66
858.64	14071.45
858.961	14019.93
859.283	13867.62
859.605	13817.67
859.926	13835.07
860.248	13756.21
860.57	13753.04
860.891	13738.58
861.212	13653.61
861.534	13594.18
861.855	13475.99
862.176	13557.12
862.498	13612.48
862.819	13543.78
863.14	13502.2
863.461	13530.68
863.782	13414.97
864.103	13497.91
864.424	13363.67
864.745	13388.08
865.065	13400.96
865.386	13358.48
865.707	13268.76
866.027	13281.19
866.348	13314.86
866.668	13304.24
866.989	13268.76
867.309	13162.32
867.63	13218.59
867.95	13185.83
868.27	13091.14
868.59	13083.23
868.91	13088.43
869.23	13071.03
869.55	12941.76
869.87	13084.81
870.19	13042.1
870.51	13098.37
870.83	13026.06
871.15	12985.15
871.469	12942.67
871.789	12892.05
872.109	12920.97
872.428	12803.46
872.748	12877.81
873.067	12864.25
873.386	12827.42
873.706	12817.47
874.025	12727.08
874.344	12759.62
874.663	12695.44
874.982	12680.08
875.301	12675.56
875.62	12614.54
875.939	12587.42
876.258	12610.47
876.577	12570.47
876.896	12605.73
877.214	12570.93
877.533	12562.11
877.852	12537.48
878.17	12503.58
878.489	12487.99
878.807	12423.36
879.125	12471.95
879.444	12451.16
879.762	12388.56
880.08	12366.86
880.398	12338.62
880.716	12376.36
881.034	12337.49
881.352	12337.26
881.67	12285.28
881.988	12223.82
882.306	12157.83
882.624	12098.62
882.941	12228.79
883.259	12094.55
883.577	12102.01
883.894	12027.44
884.212	12052.3
884.529	12070.37
884.846	12022.24
885.164	11981.56
885.481	11859.98
885.798	11898.18
886.115	11743.83
886.432	11829.48
886.75	11804.84
887.067	11767.11
887.383	11692.76
887.7	11766.43
888.017	11700.44
888.334	11741.57
888.651	11581.35
888.967	11625.64
889.284	11620.44
889.6	11556.72
889.917	11505.64
890.233	11541.8
890.55	11421.8
890.866	11391.97
891.182	11373.44
891.498	11290.51
891.815	11335.03
892.131	11262.71
892.447	11227.91
892.763	11113.56
893.079	11116.5
893.395	11092.77
893.71	11089.16
894.026	11056.62
894.342	11053.9
894.657	10931.2
894.973	10903.85
895.289	10867.47
895.604	10914.7
895.92	10789.96
896.235	10765.32
896.55	10793.57
896.865	10734.82
897.181	10660.47
897.496	10750.64
897.811	10654.37
898.126	10628.6
898.441	10553.13
898.756	10509.06
899.071	10487.37
899.386	10467.7
899.7	10345.45
900.015	10293.7
900.33	10166.92
900.644	10310.2
900.959	10314.49
901.273	10198.11
901.588	10161.27
901.902	10161.95
902.216	10095.29
902.531	10074.49
902.845	10095.96
903.159	9949.07
903.473	9940.49
903.787	9901.62
904.101	9867.27
904.415	9814.84
904.729	9805.8
905.042	9702.53
905.356	9706.37
905.67	9667.27
905.984	9759.48
906.297	9611.91
906.611	9584.34
906.924	9574.62
907.237	9549.31
907.551	9445.13
907.864	9381.41
908.177	9471.8
908.491	9328.75
908.804	9274.52
909.117	9236.55
909.43	9206.5
909.743	9207.4
910.056	9159.72
910.368	9109.55
910.681	9074.97
910.994	9076.78
911.307	9040.62
911.619	8934.41
911.932	8908.88
912.244	8832.72
912.557	8920.63
912.869	8769.9
913.181	8772.16
913.494	8748.88
913.806	8653.74
914.118	8619.62
914.43	8627.53
914.742	8598.38
915.054	8545.5
915.366	8571.71
915.678	8551.82
915.99	8432.96
916.302	8388.21
916.613	8351.15
916.925	8319.29
917.236	8349.34
917.548	8270.47
917.859	8306.41
918.171	8237.26
918.482	8214.43
918.794	8094.89
919.105	8160.2
919.416	8070.93
919.727	8063.7
920.038	8046.3
920.349	7930.14
920.66	7952.29
920.971	7887.43
921.282	7884.27
921.593	7864.38
921.903	7820.77
922.214	7845.4
922.525	7744.39
922.835	7733.09
923.146	7654.9
923.456	7687.44
923.767	7550.27
924.077	7603.83
924.387	7571.51
924.697	7540.78
925.008	7483.15
925.318	7477.28
925.628	7458.74
925.938	7376.26
926.248	7362.25
926.558	7357.05
926.867	7343.49
927.177	7308.92
927.487	7234.34
927.796	7179.66
928.106	7161.58
928.416	7114.12
928.725	7097.85
929.034	7091.3
929.344	7120
929.653	7036.16
929.962	6998.42
930.271	6921.36
930.581	6907.57
930.89	6940.79
931.199	6851.53
931.508	6837.74
931.817	6831.87
932.125	6844.3
932.434	6818.54
932.743	6756.16
933.051	6699.67
933.36	6689.05
933.669	6621.03
933.977	6636.17
934.286	6605.66
934.594	6546.45
934.902	6467.13
935.21	6531.76
935.519	6496.51
935.827	6511.2
936.135	6435.49
936.443	6375.16
936.751	6349.4
937.059	6362.5
937.367	6293.35
937.674	6348.49
937.982	6259.91
938.29	6224.2
938.597	6252
938.905	6153.02
939.213	6201.6
939.52	6083.64
939.827	6111.44
940.135	6028.05
940.442	6055.39
940.749	6071.44
941.056	6047.93
941.363	5973.13
941.67	5937.88
941.977	5936.3
942.284	5848.62
942.591	5894.72
942.898	5802.74
943.205	5808.84
943.511	5768.85
943.818	5782.18
944.125	5729.98
944.431	5682.07
944.738	5716.87
945.044	5740.82
945.35	5631.22
945.657	5569.3
945.963	5584.9
946.269	5570.66
946.575	5588.06
946.881	5526.14
947.187	5491.11
947.493	5508.29
947.799	5452.92
948.105	5446.14
948.41	5414.73
948.716	5430.78
949.022	5303.1
949.327	5344.22
949.633	5322.53
949.938	5244.11
950.244	5256.99
950.549	5241.63
950.854	5260.61
951.16	5222.87
951.465	5207.28
951.77	5192.59
952.075	5134.96
952.38	5122.76
952.685	5118.47
952.99	5058.36
953.294	5052.25
953.599	5002.76
953.904	4974.74
954.209	4965.48
954.513	4993.72
954.818	4964.57
955.122	4959.83
955.426	4884.35
955.731	4874.63
956.035	4839.6
956.339	4861.98
956.643	4795.99
956.948	4764.13
957.252	4717.57
957.556	4752.15
957.86	4723.68
958.163	4727.06
958.467	4673.06
958.771	4676.22
959.075	4693.62
959.378	4588.31
959.682	4606.16
959.985	4553.06
960.289	4561.19
960.592	4566.17
960.896	4505.6
961.199	4514.19
961.502	4453.85
961.805	4473.74
962.108	4416.11
962.411	4454.08
962.714	4402.1
963.017	4401.42
963.32	4388.54
963.623	4341.54
963.926	4333.18
964.228	4340.18
964.531	4285.27
964.833	4295.44
965.136	4280.52
965.438	4270.13
965.741	4230.35
966.043	4170.92
966.345	4205.5
966.648	4177.02
966.95	4189.68
967.252	4132.96
967.554	4052.73
967.856	4127.76
968.158	4064.71
968.46	4038.95
968.761	3996.69
969.063	4000.53
969.365	3952.62
969.666	3970.7
969.968	3958.72
970.269	3923.02
970.571	3960.08
970.872	3923.47
971.174	3904.71
971.475	3910.59
971.776	3856.58
972.077	3831.04
972.378	3859.74
972.679	3812.51
972.98	3815.45
973.281	3779.29
973.582	3790.37
973.883	3764.15
974.183	3744.94
974.484	3703.82
974.785	3710.14
975.085	3696.81
975.386	3692.06
975.686	3641.9
975.986	3664.95
976.287	3688.22
976.587	3600.09
976.887	3630.37
977.187	3630.37
977.487	3540.2
977.787	3549.47
978.087	3534.55
978.387	3519.87
978.687	3496.36
978.987	3532.29
979.286	3467.66
979.586	3469.47
979.885	3401.45
980.185	3402.81
980.484	3370.49
980.784	3360.77
981.083	3406.2
981.382	3362.81
981.682	3316.25
981.981	3304.28
982.28	3289.81
982.579	3282.81
982.878	3273.77
983.177	3291.85
983.475	3238.52
983.774	3245.97
984.073	3205.98
984.372	3196.71
984.67	3151.97
984.969	3147.45
985.267	3182.02
985.566	3133.89
985.864	3142.7
986.162	3146.77
986.461	3127.78
986.759	3086.66
987.057	3046.66
987.355	3036.71
987.653	3020.22
987.951	3031.74
988.249	3014.79
988.547	2993.1
988.844	2992.2
989.142	2944.06
989.44	2927.56
989.737	2959.2
990.035	2946.77
990.332	2905.42
990.63	2903.38
990.927	2891.86
991.224	2852.31
991.521	2851.63
991.819	2845.31
992.116	2834.23
992.413	2873.33
992.71	2787.23
993.006	2801.01
993.303	2745.65
993.6	2758.08
993.897	2756.27
994.193	2718.98
994.49	2744.29
994.787	2747.68
995.083	2722.6
995.379	2669.49
995.676	2663.16
995.972	2685.54
996.268	2654.35
996.565	2620.45
996.861	2643.05
997.157	2607.57
997.453	2589.04
997.749	2607.57
998.044	2539.78
998.34	2521.02
998.636	2550.4
998.932	2522.38
999.227	2514.47
999.523	2547.01
999.818	2521.7
1000.114	2492.32
1000.409	2444.19
1000.704	2446.45
1001	2428.59
1001.295	2433.34
1001.59	2397.63
1001.885	2399.22
1002.18	2366.9
1002.475	2399.44
1002.77	2381.59
1003.065	2346.34
1003.359	2336.62
1003.654	2304.76
1003.949	2289.84
1004.243	2299.33
1004.538	2282.84
1004.832	2307.92
1005.127	2274.93
1005.421	2236.51
1005.715	2198.54
1006.009	2235.61
1006.304	2208.04
1006.598	2176.62
1006.892	2178.21
1007.186	2181.37
1007.48	2129.62
1007.773	2155.38
1008.067	2120.13
1008.361	2109.73
1008.655	2091.65
1008.948	2093.91
1009.242	2061.82
1009.535	2053.46
1009.829	2083.97
1010.122	2040.13
1010.415	2023.86
1010.708	2025.89
1011.001	1986.57
1011.295	2005.78
1011.588	1986.8
1011.881	1952.22
1012.173	1927.14
1012.466	1976.85
1012.759	1945.67
1013.052	1912
1013.344	1915.84
1013.637	1895.05
1013.93	1893.24
1014.222	1880.36
1014.514	1864.54
1014.807	1871.55
1015.099	1853.02
1015.391	1844.88
1015.683	1808.72
1015.976	1806.69
1016.268	1808.27
1016.56	1788.84
1016.851	1807.59
1017.143	1785.45
1017.435	1760.59
1017.727	1755.39
1018.018	1719.91
1018.31	1726.01
1018.602	1712.45
1018.893	1721.04
1019.185	1690.53
1019.476	1677.43
1019.767	1646.02
1020.058	1658.67
1020.35	1640.37
1020.641	1618.22
1020.932	1605.57
1021.223	1634.72
1021.514	1625
1021.804	1582.06
1022.095	1577.77
1022.386	1592.01
1022.677	1574.15
1022.967	1565.11
1023.258	1566.47
1023.548	1516.53
1023.839	1493.48
1024.129	1509.75
1024.419	1495.96
1024.709	1499.35
1025	1476.53
1025.29	1439.24
1025.58	1426.59
1025.87	1445.12
1026.16	1443.99
1026.449	1431.11
1026.739	1422.29
1027.029	1422.07
1027.319	1379.13
1027.608	1391.33
1027.898	1375.29
1028.187	1382.97
1028.477	1346.81
1028.766	1362.18
1029.055	1346.59
1029.344	1321.5
1029.634	1319.92
1029.923	1334.84
1030.212	1308.62
1030.501	1325.35
1030.79	1298.23
1031.078	1296.65
1031.367	1282.41
1031.656	1252.13
1031.945	1268.62
1032.233	1247.16
1032.522	1232.69
1032.81	1208.51
1033.099	1221.85
1033.387	1231.79
1033.675	1220.72
1033.963	1234.05
1034.251	1221.85
1034.54	1213.26
1034.828	1183.88
1035.116	1169.64
1035.403	1159.93
1035.691	1145.69
1035.979	1137.78
1036.267	1144.79
1036.554	1139.14
1036.842	1131.68
1037.129	1091.45
1037.417	1112.92
1037.704	1096.43
1037.992	1103.21
1038.279	1068.86
1038.566	1072.92
1038.853	1072.92
1039.14	1072.92
