Data from hue_130_FLMS001491_00079.txt Node
Date: Tue Feb 07 16:58:05 GMT 2017
User: dcchb
Spectrometer: FLMS00149
Trigger mode: 0
Integration Time (sec): 2.000000E-2
Scans to average: 10
Electric dark correction enabled: true
Nonlinearity correction enabled: false
Boxcar width: 0
XAxis mode: Wavelengths
Number of Pixels in Spectrum: 2048
>>>>>Begin Spectral Data<<<<<
341.393	-35.11
341.776	-35.11
342.16	-35.11
342.543	-59.07
342.927	-64.04
343.31	-53.19
343.693	-57.94
344.077	-62
344.46	-65.62
344.843	-32.4
345.226	-37.37
345.61	-32.85
345.993	-14.32
346.376	-23.59
346.759	12.8
347.142	9.63
347.525	33.59
347.908	62.74
348.291	65.45
348.674	90.53
349.057	104.55
349.44	126.92
349.823	130.53
350.206	167.14
350.588	211.66
350.971	205.33
351.354	216.86
351.737	256.86
352.119	255.73
352.502	253.47
352.884	280.13
353.267	283.3
353.65	297.76
354.032	292.34
354.414	314.71
354.797	299.57
355.179	309.74
355.562	316.07
355.944	350.64
356.326	326.23
356.709	328.95
357.091	321.49
357.473	331.66
357.855	304.31
358.238	334.82
358.62	323.52
359.002	342.05
359.384	341.15
359.766	336.4
360.148	356.29
360.53	331.66
360.912	330.53
361.294	341.15
361.676	349.96
362.057	323.3
362.439	335.05
362.821	339.34
363.203	339.57
363.584	314.03
363.966	322.84
364.348	314.26
364.729	307.7
365.111	325.33
365.493	321.71
365.874	305.22
366.256	306.35
366.637	312.68
367.019	300.7
367.4	314.48
367.781	300.25
368.163	327.14
368.544	337.53
368.925	324.2
369.306	306.12
369.688	332.11
370.069	305.9
370.45	313.35
370.831	307.25
371.212	293.69
371.593	306.57
371.974	331.66
372.355	301.38
372.736	280.36
373.117	302.05
373.498	321.71
373.879	310.87
374.26	302.73
374.641	307.48
375.021	320.58
375.402	310.19
375.783	319.68
376.163	320.81
376.544	300.92
376.925	325.56
377.305	316.52
377.686	303.18
378.066	332.34
378.447	324.88
378.827	324.65
379.208	303.86
379.588	330.98
379.968	321.04
380.349	316.97
380.729	308.83
381.109	334.14
381.489	312.22
381.87	335.5
382.25	315.84
382.63	335.73
383.01	345.22
383.39	326.69
383.77	346.57
384.15	343.18
384.53	345.22
384.91	344.76
385.29	333.69
385.67	325.33
386.049	338.66
386.429	343.18
386.809	354.71
387.189	332.56
387.568	350.41
387.948	338.44
388.328	356.29
388.707	352.67
389.087	356.74
389.466	367.59
389.846	350.64
390.225	333.24
390.605	357.87
390.984	332.79
391.363	369.17
391.743	369.85
392.122	358.55
392.501	369.62
392.881	373.92
393.26	366.23
393.639	372.56
394.018	376.18
394.397	398.55
394.776	376.18
395.155	357.19
395.534	356.06
395.913	371.66
396.292	377.98
396.671	395.84
397.05	393.8
397.429	389.51
397.808	360.81
398.186	400.81
398.565	375.27
398.944	399
399.323	398.55
399.701	383.18
400.08	384.99
400.458	397.42
400.837	401.94
401.215	399.23
401.594	401.03
401.972	411.66
402.351	407.36
402.729	395.84
403.107	399.23
403.486	401.49
403.864	411.88
404.242	399.23
404.62	423.63
404.999	426.8
405.377	403.75
405.755	410.75
406.133	399.9
406.511	427.47
406.889	444.65
407.267	423.86
407.645	410.53
408.023	413.46
408.401	422.73
408.779	425.67
409.156	453.69
409.534	426.57
409.912	439.45
410.29	438.77
410.667	433.12
411.045	442.84
411.422	450.98
411.8	468.83
412.178	472.22
412.555	445.78
412.933	444.42
413.31	472.9
413.687	461.15
414.065	463.18
414.442	497.98
414.819	488.94
415.197	480.13
415.574	488.26
415.951	502.05
416.328	493.24
416.705	493.01
417.082	473.58
417.46	489.62
417.837	485.78
418.214	512.44
418.591	503.63
418.967	480.35
419.344	488.04
419.721	509.05
420.098	519.45
420.475	495.5
420.852	520.58
421.228	533.91
421.605	508.83
421.982	516.74
422.358	536.4
422.735	535.49
423.111	549.51
423.488	529.62
423.864	534.59
424.241	563.29
424.617	558.77
424.994	570.3
425.37	555.61
425.746	559.67
426.123	576.85
426.499	544.76
426.875	581.37
427.251	588.6
427.627	560.58
428.003	604.87
428.379	564.87
428.756	599.67
429.132	569.39
429.507	595.83
429.883	622.72
430.259	606.45
430.635	634.02
431.011	606.68
431.387	612.33
431.763	624.76
432.138	625.66
432.514	640.8
432.89	646.68
433.265	660.01
433.641	677.64
434.016	658.65
434.392	660.24
434.767	672.67
435.143	660.91
435.518	680.8
435.894	668.15
436.269	702.95
436.644	686
437.02	718.09
437.395	714.47
437.77	733
438.145	722.38
438.52	737.75
438.895	750.63
439.271	771.42
439.646	745.43
440.021	738.43
440.395	735.94
440.77	759.9
441.145	756.96
441.52	764.87
441.895	758.31
442.27	764.19
442.645	776.39
443.019	784.3
443.394	780.23
443.769	768.71
444.143	801.93
444.518	801.48
444.892	798.54
445.267	779.1
445.641	801.25
446.016	813.23
446.39	825.2
446.764	852.32
447.139	833.57
447.513	860.46
447.887	856.16
448.262	829.5
448.636	824.3
449.01	842.6
449.384	862.49
449.758	859.78
450.132	850.51
450.506	876.05
450.88	884.41
451.254	890.74
451.628	899.78
452.002	916.28
452.376	920.34
452.75	912.21
453.123	942.49
453.497	944.98
453.871	944.07
454.244	982.04
454.618	977.29
454.992	980.91
455.365	986.78
455.739	1016.16
456.112	1006.89
456.486	1007.57
456.859	1022.94
457.232	1029.72
457.606	1044.18
457.979	1043.96
458.352	1095.48
458.725	1064.97
459.099	1082.37
459.472	1112.43
459.845	1148.36
460.218	1109.94
460.591	1143.84
460.964	1158.3
461.337	1163.5
461.71	1175.48
462.083	1211.63
462.456	1194.01
462.829	1245.53
463.201	1251.86
463.574	1250.96
463.947	1271.52
464.32	1303.84
464.692	1318.52
465.065	1351.07
465.438	1354
465.81	1363.27
466.183	1375.7
466.555	1393.78
466.928	1427.9
467.3	1442.82
467.672	1436.71
468.045	1478.29
468.417	1498.86
468.789	1492.31
469.161	1548.58
469.534	1556.94
469.906	1611.4
470.278	1639.87
470.65	1666.76
471.022	1712.19
471.394	1737.5
471.766	1752.86
472.138	1783.37
472.51	1820.21
472.882	1857.49
473.253	1886.19
473.625	1937.27
473.997	1981.56
474.369	2009.81
474.74	2071.05
475.112	2078.28
475.484	2143.14
475.855	2212.96
476.227	2229.46
476.598	2347.2
476.97	2365.28
477.341	2442.34
477.713	2473.07
478.084	2539.06
478.455	2643.24
478.827	2671.71
479.198	2772.95
479.569	2805.49
479.94	2886.17
480.311	2939.05
480.682	3031.02
481.053	3151.92
481.424	3245.93
481.795	3316.66
482.166	3372.93
482.537	3498.13
482.908	3603.21
483.279	3639.82
483.65	3735.18
484.021	3871.68
484.391	3944.67
484.762	4071.67
485.133	4118.9
485.503	4229.63
485.874	4372.23
486.244	4475.28
486.615	4633.01
486.985	4724.31
487.356	4833.69
487.726	4907.13
488.097	5116.16
488.467	5146.45
488.837	5312.09
489.207	5430.51
489.578	5562.03
489.948	5684.06
490.318	5858.07
490.688	5930.38
491.058	6071.85
491.428	6209.02
491.798	6332.4
492.168	6507.09
492.538	6582.34
492.908	6738.72
493.278	6893.97
493.648	6880.19
494.017	7128.54
494.387	7217.35
494.757	7351.59
495.126	7527.17
495.496	7558.36
495.866	7658.92
496.235	7805.13
496.605	7947.05
496.974	8038.35
497.344	8140.72
497.713	8255.07
498.082	8401.73
498.452	8514.72
498.821	8603.3
499.19	8711.32
499.559	8773.02
499.928	8882.85
500.298	8945.89
500.667	9077.87
501.036	9117.64
501.405	9270.86
501.774	9305.21
502.143	9534.13
502.512	9508.37
502.88	9659.55
503.249	9663.62
503.618	9811.18
503.987	9837.62
504.356	9911.75
504.724	10089.82
505.093	10093.66
505.462	10102.7
505.83	10231.06
506.199	10274.67
506.567	10457.04
506.936	10420.43
507.304	10596.47
507.672	10634.66
508.041	10689.8
508.409	10855.45
508.777	10826.75
509.145	10946.97
509.514	10912.85
509.882	11073.75
510.25	11077.14
510.618	11146.29
510.986	11093.63
511.354	11327.08
511.722	11367.53
512.09	11410.01
512.458	11407.3
512.826	11386.73
513.193	11504.7
513.561	11553.51
513.929	11638.03
514.297	11699.04
514.664	11744.92
515.032	11726.39
515.4	11863.33
515.767	11854.29
516.135	11880.51
516.502	11797.8
516.869	11994.4
517.237	12022.88
517.604	11946.95
517.972	12123.44
518.339	12081.18
518.706	12097.68
519.073	12172.93
519.44	12172.93
519.808	12277.11
520.175	12240.27
520.542	12336.31
520.909	12470.55
521.276	12352.58
521.643	12492.69
522.009	12460.83
522.376	12457.21
522.743	12508.51
523.11	12656.76
523.477	12639.13
523.843	12679.13
524.21	12798.45
524.577	12764.55
524.943	12709.86
525.31	12785.34
525.676	12892.46
526.043	12842.06
526.409	12872.12
526.776	12993.47
527.142	12949.18
527.508	12927.71
527.874	13053.36
528.241	13047.93
528.607	13046.35
528.973	13050.65
529.339	13014.26
529.705	13063.75
530.071	13119.57
530.437	13118.67
530.803	13174.48
531.169	13132.23
531.535	13070.31
531.901	13070.76
532.267	13108.72
532.632	13085.67
532.998	13075.05
533.364	13164.99
533.73	13025.79
534.095	13184.2
534.461	13091.32
534.826	13076.18
535.192	13037.99
535.557	13112.56
535.923	13037.31
536.288	13010.65
536.653	12976.75
537.019	12919.12
537.384	12946.02
537.749	12995.28
538.114	12909.41
538.479	12910.99
538.845	12913.25
539.21	12780.82
539.575	12817.88
539.94	12904.43
540.305	12746.47
540.67	12834.15
541.034	12678
541.399	12762.97
541.764	12712.35
542.129	12692.46
542.494	12610.43
542.858	12645.91
543.223	12518.46
543.587	12647.04
543.952	12519.59
544.316	12551
544.681	12522.07
545.045	12484.11
545.41	12453.15
545.774	12452.24
546.138	12403.2
546.503	12334.05
546.867	12335.41
547.231	12327.27
547.595	12369.53
547.959	12300.61
548.324	12226.71
548.688	12158.47
549.052	12191.01
549.416	12105.81
549.779	12052.03
550.143	12019.71
550.507	12048.41
550.871	12062.65
551.235	12024.68
551.599	12057.23
551.962	11974.29
552.326	12028.75
552.689	11948.98
553.053	11874.41
553.417	11876.67
553.78	11931.8
554.143	11853.39
554.507	11802.99
554.87	11813.39
555.234	11913.5
555.597	11746.05
555.96	11753.96
556.323	11778.59
556.686	11713.28
557.05	11792.15
557.413	11675.09
557.776	11734.75
558.139	11767.06
558.502	11712.83
558.865	11694.97
559.228	11692.04
559.59	11726.16
559.953	11711.7
560.316	11714.18
560.679	11724.8
561.041	11747.18
561.404	11645.71
561.767	11725.48
562.129	11720.29
562.492	11758.48
562.854	11706.5
563.217	11641.87
563.579	11640.51
563.941	11673.28
564.304	11809.32
564.666	11776.33
565.028	11774.97
565.39	11798.7
565.753	11808.87
566.115	11760.96
566.477	11847.29
566.839	11808.64
567.201	11864.24
567.563	11827.85
567.925	11814.97
568.287	11878.25
568.648	11797.8
569.01	11960.73
569.372	11949.43
569.734	11832.37
570.095	11920.05
570.457	11964.35
570.819	11987.17
571.18	11968.87
571.542	11917.57
571.903	11986.04
572.265	11940.84
572.626	11986.04
572.987	11994.85
573.349	12024.91
573.71	12113.72
574.071	12032.37
574.432	12103.1
574.794	12104
575.155	12019.94
575.516	12098.81
575.877	12054.97
576.238	12073.04
576.599	12090.44
576.96	12030.79
577.32	12105.36
577.681	12087.28
578.042	12060.39
578.403	12059.49
578.763	12057
579.124	12144.91
579.485	12069.2
579.845	12157.34
580.206	12089.77
580.566	12115.3
580.927	12097.68
581.287	12173.38
581.648	12097.68
582.008	12133.16
582.368	12117.34
582.728	12079.6
583.089	12100.84
583.449	12137.9
583.809	12100.84
584.169	12108.98
584.529	12015.87
584.889	12151.01
585.249	11975.19
585.609	12059.49
585.969	12071.91
586.329	12048.86
586.688	12011.58
587.048	12031.92
587.408	11967.06
587.768	12025.14
588.127	11898.59
588.487	11916.66
588.846	12040.95
589.206	11945.14
589.565	11958.24
589.925	12044.8
590.284	11904.91
590.643	11880.05
591.003	11895.65
591.362	11971.13
591.721	11885.03
592.08	11901.3
592.44	11980.39
592.799	11907.17
593.158	11850.23
593.517	11802.99
593.876	11873.73
594.235	11839.83
594.593	11848.87
594.952	11877.57
595.311	11860.17
595.67	11895.87
596.029	11961.86
596.387	11896.55
596.746	11893.61
597.104	11828.53
597.463	11729.55
597.822	11892.48
598.18	11733.62
598.538	11854.74
598.897	11859.26
599.255	11696.33
599.613	11950.11
599.972	11723.9
600.33	11822.43
600.688	11815.88
601.046	11810
601.404	11925.03
601.762	11775.2
602.12	11884.57
602.478	11842.77
602.836	11842.32
603.194	11772.04
603.552	11765.26
603.91	11717.57
604.268	11773.62
604.625	11740.4
604.983	11827.63
605.341	11724.35
605.698	11770.91
606.056	11882.31
606.413	11817.68
606.771	11838.25
607.128	11853.61
607.485	11781.53
607.843	11807.06
608.2	11885.48
608.557	11824.01
608.914	11898.81
609.272	11933.84
609.629	11919.83
609.986	11894.97
610.343	11874.18
610.7	11954.86
611.057	11926.61
611.414	11915.99
611.771	11903.11
612.127	11930.45
612.484	11924.8
612.841	11894.74
613.198	11943.33
613.554	11988.75
613.911	12087.96
614.267	12014.51
614.624	11906.27
614.98	11963.44
615.337	12041.86
615.693	12024.68
616.05	11937.23
616.406	12059.94
616.762	12055.42
617.118	11993.5
617.475	11977.23
617.831	12071.46
618.187	12183.78
618.543	12070.56
618.899	12142.19
619.255	12162.31
619.611	12152.82
619.967	12167.28
620.323	12174.06
620.678	12204.79
621.034	12107.62
621.39	12177.22
621.746	12091.35
622.101	12269.42
622.457	12153.27
622.812	12173.15
623.168	12194.4
623.523	12167.96
623.879	12236.2
624.234	12201.85
624.589	12167.05
624.945	12169.09
625.3	12191.01
625.655	12189.43
626.01	12118.24
626.365	12128.41
626.72	12061.97
627.075	12088.64
627.43	12120.5
627.785	12117.56
628.14	12054.51
628.495	12065.81
628.85	12095.19
629.205	12089.31
629.559	12130.44
629.914	12008.41
630.269	12022.88
630.623	12014.29
630.978	12010.22
631.332	12066.04
631.687	12028.53
632.041	11995.98
632.396	12009.32
632.75	11970.67
633.104	11974.06
633.459	11951.69
633.813	11961.63
634.167	11887.96
634.521	11973.16
634.875	11958.02
635.229	11911.01
635.583	11885.03
635.937	11923.67
636.291	11862.88
636.645	11873.5
636.999	11807.74
637.352	11829.89
637.706	11733.62
638.06	11821.75
638.413	11839.38
638.767	11735.88
639.121	11712.15
639.474	11670.12
639.828	11746.95
640.181	11723.45
640.534	11807.74
640.888	11689.1
641.241	11601.42
641.594	11704.24
641.947	11704.01
642.301	11605.03
642.654	11682.09
643.007	11606.16
643.36	11678.48
643.713	11626.5
644.066	11674.18
644.419	11623.56
644.771	11511.03
645.124	11417.24
645.477	11418.82
645.83	11305.61
646.182	11301.99
646.535	11248.66
646.888	11247.08
647.24	11257.47
647.593	11292.73
647.945	11275.32
648.298	11285.49
648.65	11264.93
649.002	11182.67
649.355	11290.69
649.707	11216.12
650.059	11294.76
650.411	11461.08
650.763	11426.06
651.115	11481.65
651.467	11516.67
651.819	11455.43
652.171	11498.82
652.523	11430.58
652.875	11454.98
653.227	11372.95
653.578	11565.71
653.93	11418.15
654.282	11410.24
654.633	11443.23
654.985	11512.38
655.337	11483.46
655.688	11476.22
656.039	11525.71
656.391	11444.13
656.742	11439.39
657.094	11459.05
657.445	11511.7
657.796	11527.52
658.147	11506.73
658.498	11497.47
658.849	11506.51
659.2	11467.41
659.551	11481.42
659.902	11534.3
660.253	11544.02
660.604	11414.98
660.955	11437.81
661.306	11562.32
661.656	11491.14
662.007	11469.44
662.358	11511.7
662.708	11561.19
663.059	11531.14
663.409	11507.64
663.76	11577.92
664.11	11597.12
664.461	11538.14
664.811	11544.92
665.161	11609.55
665.511	11526.62
665.862	11564.36
666.212	11598.25
666.562	11486.17
666.912	11526.17
667.262	11468.09
667.612	11482.55
667.962	11506.96
668.312	11558.71
668.662	11512.83
669.011	11516.45
669.361	11602.77
669.711	11437.58
670.06	11485.94
670.41	11468.77
670.76	11541.76
671.109	11566.39
671.459	11529.78
671.808	11499.95
672.157	11495.66
672.507	11404.14
672.856	11475.77
673.205	11481.2
673.554	11456.56
673.904	11486.84
674.253	11540.4
674.602	11448.2
674.951	11306.06
675.3	11306.96
675.649	11439.61
675.998	11363.23
676.346	11378.83
676.695	11438.03
677.044	11264.25
677.393	11340.63
677.741	11345.15
678.09	11291.37
678.438	11227.19
678.787	11332.27
679.135	11330.01
679.484	11151.26
679.832	11293.63
680.181	11182.67
680.529	11205.04
680.877	11192.16
681.225	11223.35
681.573	11277.81
681.922	11154.2
682.27	11111.94
682.618	11128.89
682.966	11057.25
683.314	11072.39
683.661	11036.91
684.009	10979.74
684.357	10918.5
684.705	10957.14
685.053	10880.53
685.4	10917.14
685.748	10907.88
686.095	10892.51
686.443	10837.6
686.79	10798.73
687.138	10817.94
687.485	10795.11
687.832	10775
688.18	10756.47
688.527	10702.91
688.874	10722.12
689.221	10716.7
689.568	10650.71
689.915	10610.26
690.262	10649.58
690.609	10591.28
690.956	10523.48
691.303	10452.97
691.65	10377.04
691.997	10425.4
692.344	10377.95
692.69	10318.29
693.037	10374.11
693.383	10242.58
693.73	10303.83
694.077	10222.7
694.423	10203.49
694.769	10107.45
695.116	10069.48
695.462	10093.21
695.808	10031.97
696.155	10082.14
696.501	9973.66
696.847	10074
697.193	9874.91
697.539	9949.48
697.885	9819.77
698.231	9858.64
698.577	9852.99
698.923	9748.59
699.269	9712.43
699.614	9664.52
699.96	9613
700.306	9612.54
700.651	9567.12
700.997	9581.58
701.342	9515.82
701.688	9511.76
702.033	9461.81
702.379	9459.1
702.724	9427.69
703.069	9425.43
703.415	9299.33
703.76	9311.08
704.105	9326.22
704.45	9293
704.795	9283.74
705.14	9118.77
705.485	9142.27
705.83	9130.75
706.175	9129.62
706.52	9181.14
706.865	9063.63
707.209	9041.71
707.554	8977.08
707.899	9042.16
708.243	8934.82
708.588	8934.82
708.932	8901.15
709.277	8837.65
709.621	8825.67
709.966	8768.5
710.31	8855.95
710.654	8754.04
710.998	8723.3
711.342	8781.38
711.687	8701.61
712.031	8684.21
712.375	8628.39
712.719	8638.11
713.063	8680.82
713.407	8653.25
713.75	8652.57
714.094	8568.96
714.438	8509.97
714.782	8552.01
715.125	8536.64
715.469	8542.97
715.812	8491.44
716.156	8470.65
716.499	8399.02
716.843	8460.94
717.186	8387.94
717.53	8499.58
717.873	8401.5
718.216	8449.86
718.559	8384.1
718.902	8344.78
719.246	8398.11
719.589	8320.6
719.932	8360.37
720.275	8281.73
720.617	8303.43
720.96	8235.4
721.303	8276.53
721.646	8241.96
721.989	8257.55
722.331	8331.9
722.674	8250.09
723.016	8235.4
723.359	8290.54
723.701	8262.52
724.044	8196.31
724.386	8199.93
724.729	8194.73
725.071	8190.43
725.413	8151.11
725.755	8130.1
726.097	8108.63
726.439	8144.79
726.782	8151.11
727.124	8179.14
727.465	8147.05
727.807	8097.78
728.149	8138.68
728.491	8141.17
728.833	8162.41
729.175	8098.46
729.516	8135.97
729.858	8091
730.199	8072.25
730.541	8056.88
730.882	8045.35
731.224	8110.44
731.565	8014.17
731.906	8067.5
732.248	8061.85
732.589	8043.32
732.93	8055.97
733.271	8045.58
733.612	8052.81
733.953	8003.09
734.294	8017.33
734.635	8006.71
734.976	8062.75
735.317	7991.34
735.658	8057.56
735.999	7995.41
736.339	8052.81
736.68	8063.21
737.021	8027.27
737.361	7994.96
737.702	8114.73
738.042	8016.2
738.383	8088.52
738.723	8079.7
739.063	8073.83
739.404	8145.92
739.744	8124.9
740.084	8061.17
740.424	8100.04
740.764	8167.16
741.104	8164.9
741.444	8177.1
741.784	8164.22
742.124	8180.27
742.464	8239.02
742.804	8188.17
743.143	8252.81
743.483	8259.81
743.823	8250.77
744.162	8327.83
744.502	8306.59
744.841	8310.88
745.181	8425.23
745.52	8390.2
745.86	8427.94
746.199	8426.36
746.538	8414.16
746.877	8592.91
747.216	8549.07
747.556	8645.34
747.895	8674.49
748.234	8700.25
748.573	8749.97
748.911	8764.88
749.25	8850.3
749.589	8902.05
749.928	8992.9
750.267	9098.21
750.605	9122.39
750.944	9180.01
751.283	9215.04
751.621	9316.96
751.96	9368.71
752.298	9529.83
752.636	9614.58
752.975	9672.66
753.313	9782.93
753.651	9901.12
753.989	9975.02
754.327	10055.47
754.666	10104.06
755.004	10251.85
755.342	10421.79
755.679	10510.83
756.017	10648.67
756.355	10813.87
756.693	10797.15
757.031	11036.01
757.368	11016.12
757.706	11246.17
758.044	11351.93
758.381	11555.09
758.719	11681.42
759.056	11818.36
759.394	12000.96
759.731	12013.61
760.068	12199.82
760.405	12242.76
760.743	12467.16
761.08	12753.7
761.417	12899.24
761.754	12991.89
762.091	13173.58
762.428	13308.49
762.765	13425.1
763.102	13555.04
763.438	13710.06
763.775	13748.71
764.112	14056.04
764.449	14139.43
764.785	14350.72
765.122	14400.89
765.458	14453.09
765.795	14724.05
766.131	14890.6
766.467	15042.91
766.804	15017.37
767.14	15228.22
767.476	15392.28
767.812	15466.4
768.148	15552.5
768.485	15710.69
768.821	15745.49
769.157	15867.75
769.492	15995.2
769.828	16187.06
770.164	16132.82
770.5	16244.69
770.836	16348.41
771.171	16471.57
771.507	16495.75
771.842	16458.92
772.178	16643.32
772.513	16748.18
772.849	16836.76
773.184	16870.66
773.519	17003.31
773.855	17006.7
774.19	17035.63
774.525	17188.84
774.86	17355.17
775.195	17333.7
775.53	17348.61
775.865	17296.18
776.2	17319.23
776.535	17245.56
776.87	17365.79
777.205	17454.15
777.539	17537.53
777.874	17476.29
778.209	17417.08
778.543	17561.04
778.878	17472.9
779.212	17565.56
779.547	17421.15
779.881	17512.22
780.215	17514.26
780.55	17564.88
780.884	17579.57
781.218	17620.92
781.552	17606.01
781.886	17571.88
782.22	17560.81
782.554	17469.29
782.888	17416.86
783.222	17396.07
783.556	17403.98
783.889	17531.43
784.223	17410.76
784.557	17501.83
784.89	17455.95
785.224	17352.23
785.557	17349.74
785.891	17304.09
786.224	17348.16
786.558	17339.12
786.891	17279.01
787.224	17285.56
787.557	17354.49
787.891	17303.19
788.224	17282.4
788.557	17269.29
788.89	17173.02
789.223	17250.76
789.556	17241.72
789.888	17072.01
790.221	17040.6
790.554	16963.99
790.887	17005.57
791.219	16908.85
791.552	16992.46
791.884	16931
792.217	16762.64
792.549	16815.29
792.882	16714.05
793.214	16709.76
793.546	16768.97
793.879	16670.66
794.211	16573.04
794.543	16740.72
794.875	16608.07
795.207	16672.47
795.539	16626.14
795.871	16617.33
796.203	16449.43
796.535	16411.01
796.867	16400.61
797.198	16325.36
797.53	16366.26
797.862	16196.55
798.193	16260.05
798.525	16161.75
798.856	16146.61
799.188	16113.16
799.519	15976.9
799.85	15918.82
800.182	15943.68
800.513	16009.66
800.844	15892.38
801.175	15962.21
801.506	15853.51
801.837	15849.44
802.168	15778.48
802.499	15768.77
802.83	15627.07
803.161	15651.48
803.491	15707.07
803.822	15650.35
804.153	15554.76
804.483	15471.15
804.814	15474.54
805.145	15373.52
805.475	15383.92
805.805	15388.44
806.136	15336.46
806.466	15361.55
806.796	15339.85
807.126	15249.91
807.457	15191.61
807.787	15226.18
808.117	15077.48
808.447	15079.07
808.777	15137.6
809.107	15019.41
809.436	15044.04
809.766	14897.6
810.096	14894.66
810.426	14929.01
810.755	14876.36
811.085	14898.51
811.414	14739.64
811.744	14759.08
812.073	14687.66
812.403	14662.35
812.732	14630.72
813.061	14645.41
813.39	14582.81
813.719	14527.44
814.049	14579.87
814.378	14603.37
814.707	14495.13
815.036	14537.39
815.365	14453.32
815.693	14344.17
816.022	14383.94
816.351	14301.01
816.68	14297.39
817.008	14292.19
817.337	14189.6
817.665	14169.49
817.994	14199.09
818.322	14129.71
818.651	14140.33
818.979	14000.9
819.307	14103.95
819.636	14016.04
819.964	14028.7
820.292	14070.05
820.62	14099.66
820.948	13980.56
821.276	14029.6
821.604	13991.41
821.932	13977.85
822.259	13942.83
822.587	13953.22
822.915	13880
823.243	13962.03
823.57	13973.11
823.898	13868.03
824.225	13921.13
824.553	13947.12
824.88	13929.72
825.207	14019.66
825.535	13892.43
825.862	13934.01
826.189	13864.86
826.516	13924.29
826.843	13967.68
827.17	13951.19
827.497	14019.66
827.824	13949.6
828.151	13991.41
828.478	13984.63
828.805	14031.64
829.131	13951.41
829.458	13950.96
829.785	13857.18
830.111	13950.28
830.438	13978.76
830.764	13996.61
831.09	13946.67
831.417	13809.27
831.743	14014.91
832.069	13962.03
832.395	13856.95
832.722	13862.83
833.048	13907.8
833.374	13901.47
833.7	13853.56
834.026	13867.57
834.351	13905.76
834.677	13776.95
835.003	13885.43
835.329	13891.75
835.654	13803.85
835.98	13773.56
836.306	13788.03
836.631	13731.08
836.956	13772.89
837.282	13807.46
837.607	13697.18
837.932	13698.09
838.258	13685.21
838.583	13729.05
838.908	13553.91
839.233	13600.69
839.558	13636.17
839.883	13623.51
840.208	13485.44
840.533	13474.36
840.858	13463.06
841.182	13547.36
841.507	13521.37
841.832	13423.74
842.156	13363.18
842.481	13432.1
842.805	13419.68
843.13	13287.25
843.454	13303.52
843.778	13273.46
844.103	13177.42
844.427	13164.54
844.751	13214.26
845.075	13157.99
845.399	13088.38
845.723	12972.23
846.047	13039.35
846.371	12936.75
846.695	12968.61
847.019	12893.81
847.343	12713.03
847.666	12703.08
847.99	12667.83
848.313	12669.19
848.637	12671.45
848.96	12552.58
849.284	12595.74
849.607	12478.23
849.931	12420.15
850.254	12338.8
850.577	12329.08
850.9	12217.45
851.223	12215.41
851.546	12108.07
851.869	12048.19
852.192	12187.39
852.515	11982.88
852.838	11977.91
853.161	11925.03
853.483	11842.77
853.806	11779.72
854.129	11799.15
854.451	11783.33
854.774	11649.33
855.096	11638.25
855.419	11637.8
855.741	11592.15
856.063	11565.03
856.385	11547.63
856.708	11439.61
857.03	11491.36
857.352	11424.7
857.674	11373.4
857.996	11364.14
858.318	11292.05
858.64	11320.52
858.961	11327.53
859.283	11240.07
859.605	11189
859.926	11178.83
860.248	11117.82
860.57	11108.1
860.891	11173.86
861.212	11092.5
861.534	11008.44
861.855	11007.08
862.176	10993.3
862.498	10982.45
862.819	10955.56
863.14	10949.46
863.461	10924.83
863.782	10862
864.103	10945.84
864.424	10870.36
864.745	10790.14
865.065	10853.87
865.386	10749.01
865.707	10762.8
866.027	10791.27
866.348	10759.63
866.668	10753.3
866.989	10660.2
867.309	10635.57
867.63	10726.64
867.95	10671.5
868.27	10600.99
868.59	10603.03
868.91	10553.99
869.23	10634.66
869.55	10530.71
869.87	10567.55
870.19	10530.49
870.51	10530.71
870.83	10547.21
871.15	10426.08
871.469	10504.95
871.789	10461.34
872.109	10462.01
872.428	10407.33
872.748	10374.78
873.067	10389.25
873.386	10410.49
873.706	10387.21
874.025	10318.97
874.344	10275.35
874.663	10292.75
874.982	10195.58
875.301	10267.67
875.62	10238.74
875.939	10198.74
876.258	10237.84
876.577	10117.39
876.896	10158.97
877.214	10123.04
877.533	10153.09
877.852	10112.87
878.17	10089.37
878.489	10122.36
878.807	10169.82
879.125	10062.02
879.444	10070.38
879.762	9974.34
880.08	10022.48
880.398	9981.35
880.716	10041.23
881.034	9944.51
881.352	9929.82
881.67	9853.44
881.988	9875.59
882.306	9880.11
882.624	9854.57
882.941	9788.36
883.259	9735.48
883.577	9693.22
883.894	9731.86
884.212	9650.51
884.529	9669.94
884.846	9702.48
885.164	9634.92
885.481	9570.06
885.798	9650.51
886.115	9599.66
886.432	9537.97
886.75	9563.05
887.067	9538.65
887.383	9493.68
887.7	9504.98
888.017	9464.07
888.334	9490.97
888.651	9425.66
888.967	9363.28
889.284	9415.94
889.6	9333
889.917	9313.79
890.233	9301.59
890.55	9306.11
890.866	9294.81
891.182	9195.83
891.498	9188.37
891.815	9230.63
892.131	9153.57
892.447	9114.03
892.763	9058.43
893.079	9008.27
893.395	8972.11
893.71	9032.9
894.026	8984.31
894.342	8944.99
894.657	8922.17
894.973	8830.19
895.289	8836.07
895.604	8899.57
895.92	8743.87
896.235	8753.36
896.55	8714.49
896.865	8645.11
897.181	8622.29
897.496	8639.69
897.811	8615.51
898.126	8576.64
898.441	8572.8
898.756	8509.3
899.071	8456.64
899.386	8423.65
899.7	8389.07
900.015	8346.36
900.33	8325.8
900.644	8301.62
900.959	8335.74
901.273	8228.63
901.588	8247.61
901.902	8199.25
902.216	8154.05
902.531	8109.76
902.845	8048.74
903.159	8044.68
903.473	8054.39
903.787	8020.5
904.101	7973.72
904.415	7996.54
904.729	7966.71
905.042	7891.91
905.356	7838.58
905.67	7869.31
905.984	7777.79
906.297	7747.28
906.611	7771.24
906.924	7736.89
907.237	7755.64
907.551	7630.45
907.864	7637.68
908.177	7667.28
908.491	7589.32
908.804	7553.84
909.117	7468.42
909.43	7487.4
909.743	7444.92
910.056	7432.71
910.368	7373.73
910.681	7313.62
910.994	7318.82
911.307	7319.27
911.619	7268.2
911.932	7242.89
912.244	7211.48
912.557	7200.18
912.869	7119.73
913.181	7123.12
913.494	7091.93
913.806	7051.48
914.118	7028.88
914.43	7008.09
914.742	6993.18
915.054	6947.08
915.366	6928.32
915.678	6937.59
915.99	6841.54
916.302	6771.71
916.613	6746.18
916.925	6766.97
917.236	6731.94
917.548	6679.51
917.859	6693.75
918.171	6690.81
918.482	6609.46
918.794	6635
919.105	6538.5
919.416	6497.82
919.727	6570.59
920.038	6509.57
920.349	6507.77
920.66	6452.4
920.971	6421.89
921.282	6406.07
921.593	6368.34
921.903	6371.05
922.214	6292.18
922.525	6314.1
922.835	6272.29
923.146	6210.83
923.456	6284.5
923.767	6192.52
924.077	6143.71
924.387	6115.91
924.697	6094.9
925.008	6118.4
925.318	6069.59
925.628	6075.46
925.938	6018.51
926.248	6009.93
926.558	5947.33
926.867	5943.49
927.177	5951.62
927.487	5902.58
927.796	5858.97
928.106	5857.61
928.416	5787.11
928.725	5854.68
929.034	5816.94
929.344	5768.13
929.653	5705.53
929.962	5731.52
930.271	5663.04
930.581	5627.34
930.89	5602.93
931.199	5601.35
931.508	5585.08
931.817	5584.63
932.125	5568.13
932.434	5530.84
932.743	5497.85
933.051	5466.66
933.36	5444.74
933.669	5407.91
933.977	5400.68
934.286	5352.77
934.594	5357.29
934.902	5313
935.21	5313.67
935.519	5319.1
935.827	5259.66
936.135	5256.05
936.443	5234.81
936.751	5198.65
937.059	5192.55
937.367	5179.67
937.674	5174.02
937.982	5167.69
938.29	5115.26
938.597	5099.44
938.905	5013.12
939.213	4983.96
939.52	4980.8
939.827	5004.08
940.135	4978.77
940.442	4988.03
940.749	4923.85
941.056	4978.32
941.363	4879.56
941.67	4874.59
941.977	4869.84
942.284	4839.56
942.591	4852.89
942.898	4766.8
943.205	4794.37
943.511	4783.29
943.818	4761.37
944.125	4676.63
944.431	4676.85
944.738	4652.67
945.044	4643.86
945.35	4668.95
945.657	4623.3
945.963	4583.3
946.269	4567.93
946.575	4521.6
946.881	4485.22
947.187	4489.97
947.493	4456.3
947.799	4525.67
948.105	4518.44
948.41	4467.37
948.716	4446.13
949.022	4396.18
949.327	4381.04
949.633	4331.33
949.938	4370.65
950.244	4355.73
950.549	4305.56
950.854	4295.85
951.16	4295.85
951.465	4228.5
951.77	4252.91
952.075	4188.28
952.38	4183.08
952.685	4163.65
952.99	4150.31
953.294	4095.4
953.599	4125.23
953.904	4103.31
954.209	4097.89
954.513	4021.5
954.818	4026.7
955.122	3995.74
955.426	4019.02
955.731	3990.77
956.035	3997.32
956.339	3972.47
956.643	3957.33
956.948	3898.8
957.252	3920.04
957.556	3899.93
957.86	3890.43
958.163	3888.17
958.467	3848.63
958.771	3832.36
959.075	3850.21
959.378	3791.91
959.682	3812.02
959.985	3779.02
960.289	3751.91
960.592	3738.35
960.896	3710.1
961.199	3718.69
961.502	3691.57
961.805	3682.76
962.108	3639.14
962.411	3662.19
962.714	3616.54
963.017	3611.8
963.32	3621.29
963.623	3567.05
963.926	3594.62
964.228	3552.59
964.531	3525.7
964.833	3560.05
965.136	3497.22
965.438	3502.2
965.741	3461.75
966.043	3485.02
966.345	3444.57
966.648	3422.65
966.95	3430.79
967.252	3425.14
967.554	3400.96
967.856	3391.01
968.158	3324.12
968.46	3319.15
968.761	3344.23
969.063	3274.18
969.365	3300.62
969.666	3305.59
969.968	3263.56
970.269	3250
970.571	3249.77
970.872	3223.11
971.174	3209.32
971.475	3212.49
971.776	3201.64
972.077	3190.57
972.378	3129.32
972.679	3134.97
972.98	3116.22
973.281	3126.16
973.582	3125.48
973.883	3093.85
974.183	3059.95
974.484	3060.4
974.785	3022.21
975.085	3028.76
975.386	3019.95
975.686	3057.01
975.986	2992.15
976.287	3000.97
976.587	2966.16
976.887	2954.19
977.187	2962.55
977.487	2959.84
977.787	2942.89
978.087	2886.62
978.387	2886.62
978.687	2926.84
978.987	2852.95
979.286	2876.68
979.586	2845.04
979.885	2844.36
980.185	2777.47
980.484	2809.33
980.784	2789.9
981.083	2768.88
981.382	2781.31
981.682	2753.06
981.981	2776.34
982.28	2734.08
982.579	2749.45
982.878	2673.52
983.177	2698.38
983.475	2712.39
983.774	2631.48
984.073	2652.73
984.372	2617.93
984.67	2631.03
984.969	2641.43
985.267	2625.83
985.566	2629.9
985.864	2583.58
986.162	2593.07
986.461	2546.97
986.759	2565.72
987.057	2527.08
987.355	2549.45
987.653	2493.63
987.951	2536.12
988.249	2494.31
988.547	2506.52
988.844	2457.7
989.142	2441.66
989.44	2420.64
989.737	2426.29
990.035	2435.78
990.332	2419.06
990.63	2405.95
990.927	2415.44
991.224	2373.86
991.521	2374.77
991.819	2405.73
992.116	2379.06
992.413	2379.29
992.71	2356.92
993.006	2335.22
993.303	2308.56
993.6	2325.96
993.897	2322.11
994.193	2277.82
994.49	2277.6
994.787	2265.39
995.083	2224.04
995.379	2222.23
995.676	2231.27
995.972	2199.86
996.268	2230.82
996.565	2187.65
996.861	2174.32
997.157	2170.48
997.453	2155.56
997.749	2146.07
998.044	2155.56
998.34	2158.5
998.636	2128.22
998.932	2077.37
999.227	2093.19
999.523	2090.03
999.818	2083.02
1000.114	2067.21
1000.409	2039.41
1000.704	2043.93
1001	2019.52
1001.295	1990.37
1001.59	2020.43
1001.885	2038.28
1002.18	1964.61
1002.475	1973.65
1002.77	1943.59
1003.065	1977.26
1003.359	1932.52
1003.654	1922.58
1003.949	1929.58
1004.243	1905.85
1004.538	1910.6
1004.832	1880.09
1005.127	1898.62
1005.421	1887.55
1005.715	1852.07
1006.009	1846.65
1006.304	1840.77
1006.598	1842.58
1006.892	1826.53
1007.186	1803.71
1007.48	1788.34
1007.773	1769.36
1008.067	1788.57
1008.361	1782.92
1008.655	1774.11
1008.948	1744.05
1009.242	1726.88
1009.535	1732.98
1009.829	1699.53
1010.122	1723.26
1010.415	1669.93
1010.708	1671.51
1011.001	1710.6
1011.295	1650.49
1011.588	1665.63
1011.881	1644.84
1012.173	1643.04
1012.466	1625.86
1012.759	1617.5
1013.052	1595.58
1013.344	1615.24
1013.637	1624.05
1013.93	1563.49
1014.222	1587.67
1014.514	1569.59
1014.807	1549.93
1015.099	1556.48
1015.391	1550.16
1015.683	1525.52
1015.976	1506.09
1016.268	1529.37
1016.56	1476.71
1016.851	1506.32
1017.143	1482.59
1017.435	1473.55
1017.727	1459.54
1018.018	1484.85
1018.31	1462.02
1018.602	1454.79
1018.893	1440.56
1019.185	1441.23
1019.476	1435.58
1019.767	1391.07
1020.058	1418.18
1020.35	1393.55
1020.641	1379.09
1020.932	1362.14
1021.223	1336.6
1021.514	1353.33
1021.804	1339.77
1022.095	1338.86
1022.386	1333.21
1022.677	1299.54
1022.967	1307.68
1023.258	1311.97
1023.548	1283.5
1023.839	1302.71
1024.129	1294.34
1024.419	1274.68
1024.709	1244.18
1025	1251.86
1025.29	1260.22
1025.58	1263.38
1025.87	1229.71
1026.16	1226.55
1026.449	1261.13
1026.739	1208.7
1027.029	1176.83
1027.319	1193.33
1027.608	1210.5
1027.898	1204.18
1028.187	1140.68
1028.477	1173.9
1028.766	1141.58
1029.055	1150.39
1029.344	1154.91
1029.634	1134.12
1029.923	1143.84
1030.212	1123.28
1030.501	1136.38
1030.79	1118.53
1031.078	1093.67
1031.367	1104.29
1031.656	1072.66
1031.945	1079.21
1032.233	1072.66
1032.522	1059.77
1032.81	1053.67
1033.099	1051.64
1033.387	1030.62
1033.675	1038.76
1033.963	993.11
1034.251	1001.47
1034.54	1006.89
1034.828	1012.09
1035.116	1001.02
1035.403	994.69
1035.691	1001.24
1035.979	992.88
1036.267	982.04
1036.554	966.44
1036.842	954.24
1037.129	956.5
1037.417	965.77
1037.704	958.31
1037.992	923.73
1038.279	945.65
1038.566	910.85
1038.853	910.85
1039.14	910.85
