Data from hue_310_FLMS001491_90.txt Node
Date: Mon Feb 06 15:50:21 GMT 2017
User: dcchb
Spectrometer: FLMS00149
Trigger mode: 0
Integration Time (sec): 2.000000E-2
Scans to average: 10
Electric dark correction enabled: true
Nonlinearity correction enabled: false
Boxcar width: 0
XAxis mode: Wavelengths
Number of Pixels in Spectrum: 2048
>>>>>Begin Spectral Data<<<<<
341.393	-15.37
341.776	-15.37
342.16	-15.37
342.543	-55.82
342.927	-61.02
343.31	-63.5
343.693	-86.1
344.077	-76.83
344.46	-64.86
344.843	-61.69
345.226	-36.38
345.61	-38.42
345.993	-8.81
346.376	-9.72
346.759	24.63
347.142	43.39
347.525	41.35
347.908	52.65
348.291	76.61
348.674	70.96
349.057	136.72
349.44	139.66
349.823	141.92
350.206	169.49
350.588	192.99
350.971	207.9
351.354	238.64
351.737	228.92
352.119	238.86
352.502	260.56
352.884	270.95
353.267	261.01
353.65	279.77
354.032	290.16
354.414	325.64
354.797	305.75
355.179	322.7
355.562	326.77
355.944	327.45
356.326	341.91
356.709	336.26
357.091	346.21
357.473	332.87
357.855	329.03
358.238	347.34
358.62	334.91
359.002	344.17
359.384	345.98
359.766	347.79
360.148	332.19
360.53	329.48
360.912	337.17
361.294	343.72
361.676	322.93
362.057	338.52
362.439	335.81
362.821	329.26
363.203	342.14
363.584	329.71
363.966	321.35
364.348	350.05
364.729	317.73
365.111	324.74
365.493	312.31
365.874	310.27
366.256	318.86
366.637	326.32
367.019	317.73
367.4	337.62
367.781	318.86
368.163	313.21
368.544	316.38
368.925	309.14
369.306	318.18
369.688	307.79
370.069	313.21
370.45	325.64
370.831	330.84
371.212	316.6
371.593	312.53
371.974	299.65
372.355	329.93
372.736	329.48
373.117	325.42
373.498	327.68
373.879	318.64
374.26	310.05
374.641	313.89
375.021	328.35
375.402	333.1
375.783	333.55
376.163	353.89
376.544	318.86
376.925	310.73
377.305	323.61
377.686	314.34
378.066	336.94
378.447	307.11
378.827	324.96
379.208	341.91
379.588	335.81
379.968	345.08
380.349	343.72
380.729	342.59
381.109	320.9
381.489	323.38
381.87	347.79
382.25	353.66
382.63	367.22
383.01	334
383.39	343.04
383.77	341.01
384.15	341.69
384.53	334
384.91	341.69
385.29	353.44
385.67	339.2
386.049	352.76
386.429	372.19
386.809	373.32
387.189	355.7
387.568	343.72
387.948	353.89
388.328	376.49
388.707	350.05
389.087	363.15
389.466	354.79
389.846	368.13
390.225	383.27
390.605	367.9
390.984	373.1
391.363	351.18
391.743	383.72
392.122	387.56
392.501	364.96
392.881	377.17
393.26	377.84
393.639	362.25
394.018	375.13
394.397	376.94
394.776	378.3
395.155	397.28
395.534	381.01
395.913	399.31
396.292	392.53
396.671	386.66
397.05	407.45
397.429	398.63
397.808	392.53
398.186	423.27
398.565	400.89
398.944	406.54
399.323	403.38
399.701	390.72
400.08	416.94
400.458	433.21
400.837	428.01
401.215	431.18
401.594	444.28
401.972	416.49
402.351	414.9
402.729	430.5
403.107	425.75
403.486	452.19
403.864	425.53
404.242	449.25
404.62	434.79
404.999	444.28
405.377	432.76
405.755	442.02
406.133	447.67
406.511	455.81
406.889	475.69
407.267	460.78
407.645	489.25
408.023	484.06
408.401	481.12
408.779	483.38
409.156	500.33
409.534	514.34
409.912	506.65
410.29	529.7
410.667	522.25
411.045	507.11
411.422	539.19
411.8	520.66
412.178	561.57
412.555	533.09
412.933	552.75
413.31	556.37
413.687	586.65
414.065	582.81
414.442	575.35
414.819	579.65
415.197	587.56
415.574	605.86
415.951	600.44
416.328	629.59
416.705	649.25
417.082	642.92
417.46	639.31
417.837	639.53
418.214	668.46
418.591	676.37
418.967	690.15
419.344	696.25
419.721	711.62
420.098	711.39
420.475	687.44
420.852	711.85
421.228	717.04
421.605	735.8
421.982	761.11
422.358	754.33
422.735	743.26
423.111	775.12
423.488	786.87
423.864	785.97
424.241	793.43
424.617	805.18
424.994	792.97
425.37	820.54
425.746	828
426.123	824.39
426.499	857.83
426.875	857.6
427.251	873.88
427.627	878.17
428.003	886.08
428.379	887.89
428.756	893.54
429.132	913.87
429.507	911.61
429.883	955.23
430.259	954.78
430.635	958.17
431.011	959.07
431.387	964.72
431.763	1020.31
432.138	1004.72
432.514	1020.99
432.89	1017.83
433.265	1023.25
433.641	1043.36
434.016	1068.45
434.392	1070.71
434.767	1073.87
435.143	1081.1
435.518	1095.56
435.894	1131.5
436.269	1140.53
436.644	1171.27
437.02	1149.57
437.395	1161.55
437.77	1190.93
438.145	1195
438.52	1195.45
438.895	1182.12
439.271	1198.16
439.646	1231.83
440.021	1212.62
440.395	1231.38
440.77	1242.91
441.145	1254.2
441.52	1282.45
441.895	1281.77
442.27	1265.73
442.645	1268.89
443.019	1318.84
443.394	1321.32
443.769	1290.59
444.143	1304.37
444.518	1337.82
444.892	1298.5
445.267	1312.28
445.641	1322.9
446.016	1354.54
446.39	1353.64
446.764	1330.81
447.139	1354.54
447.513	1375.56
447.887	1387.99
448.262	1354.99
448.636	1378.49
449.01	1371.72
449.384	1414.43
449.758	1386.4
450.132	1410.81
450.506	1428.21
450.88	1415.78
451.254	1405.84
451.628	1444.71
452.002	1473.18
452.376	1435.67
452.75	1458.49
453.123	1460.3
453.497	1520.41
453.871	1525.16
454.244	1531.49
454.618	1511.37
454.992	1525.84
455.365	1527.87
455.739	1557.02
456.112	1575.1
456.486	1553.63
456.859	1586.4
457.232	1596.12
457.606	1624.82
457.979	1645.15
458.352	1619.39
458.725	1644.25
459.099	1650.8
459.472	1700.52
459.845	1689
460.218	1689.67
460.591	1713.18
460.964	1710.69
461.337	1727.41
461.71	1754.98
462.083	1763.12
462.456	1788.43
462.829	1781.87
463.201	1815.55
463.574	1808.54
463.947	1860.06
464.32	1860.97
464.692	1867.3
465.065	1851.93
465.438	1869.78
465.81	1877.46
466.183	1931.47
466.555	1951.14
466.928	1992.04
467.3	1974.64
467.672	1980.51
468.045	2023.22
468.417	2025.48
468.789	2008.31
469.161	2033.62
469.534	2057.35
469.906	2088.53
470.278	2096.44
470.65	2110.9
471.022	2148.64
471.394	2204.46
471.766	2146.38
472.138	2251.92
472.51	2246.27
472.882	2241.97
473.253	2261.86
473.625	2309.54
473.997	2317.23
474.369	2335.98
474.74	2367.62
475.112	2397.68
475.484	2389.54
475.855	2454.85
476.227	2451.23
476.598	2545.02
476.97	2502.53
477.341	2536.66
477.713	2597.9
478.084	2599.25
478.455	2665.47
478.827	2682.87
479.198	2720.15
479.569	2719.25
479.94	2752.92
480.311	2799.02
480.682	2835.18
481.053	2900.26
481.424	2923.09
481.795	2923.99
482.166	2949.53
482.537	2985.46
482.908	3058.9
483.279	3043.76
483.65	3117.21
484.021	3157.66
484.391	3133.02
484.762	3167.6
485.133	3192.23
485.503	3264.77
485.874	3283.3
486.244	3310.87
486.615	3319.46
486.985	3380.48
487.356	3441.27
487.726	3422.06
488.097	3456.86
488.467	3490.98
488.837	3551.55
489.207	3627.25
489.578	3599
489.948	3639.68
490.318	3696.85
490.688	3685.1
491.058	3736.4
491.428	3806
491.798	3788.83
492.168	3917.19
492.538	3875.15
492.908	3912.67
493.278	3928.94
493.648	3920.8
494.017	3960.35
494.387	3983.17
494.757	4015.04
495.126	4090.06
495.496	4088.03
495.866	4107.69
496.235	4133.45
496.605	4151.08
496.974	4132.77
497.344	4237.4
497.713	4231.98
498.082	4220.23
498.452	4299.77
498.821	4277.4
499.19	4297.51
499.559	4298.19
499.928	4382.26
500.298	4377.06
500.667	4374.35
501.036	4376.61
501.405	4414.12
501.774	4424.97
502.143	4444.18
502.512	4459.77
502.88	4546.32
503.249	4461.58
503.618	4512.2
503.987	4565.08
504.356	4588.13
504.724	4572.54
505.093	4619.09
505.462	4605.3
505.83	4604.85
506.199	4640.33
506.567	4666.32
506.936	4710.84
507.304	4724.62
507.672	4722.14
508.041	4721.91
508.409	4794.68
508.777	4838.74
509.145	4815.24
509.514	4829.48
509.882	4906.31
510.25	4832.87
510.618	4884.17
510.986	4896.14
511.354	4953.09
511.722	4923.03
512.09	4966.65
512.458	4961.9
512.826	5014.11
513.193	5002.81
513.561	5028.79
513.929	5038.51
514.297	5084.84
514.664	5088
515.032	5116.7
515.4	5151.95
515.767	5188.56
516.135	5096.36
516.502	5124.61
516.869	5193.31
517.237	5166.87
517.604	5156.25
517.972	5217.49
518.339	5210.94
518.706	5237.6
519.073	5254.55
519.44	5273.31
519.808	5294.55
520.175	5276.92
520.542	5362.57
520.909	5411.38
521.276	5368.67
521.643	5385.4
522.009	5425.17
522.376	5454.77
522.743	5431.04
523.11	5461.78
523.477	5530.25
523.843	5536.58
524.21	5593.75
524.577	5646.86
524.943	5621.55
525.31	5688.21
525.676	5718.49
526.043	5732.73
526.409	5771.6
526.776	5776.35
527.142	5817.93
527.508	5787.64
527.874	5820.19
528.241	5877.81
528.607	5935.66
528.973	5954.65
529.339	5940.41
529.705	6013.4
530.071	5976.79
530.437	6014.31
530.803	6096.79
531.169	6104.47
531.535	6088.65
531.901	6198.71
532.267	6189.44
532.632	6233.28
532.998	6272.6
533.364	6234.19
533.73	6275.99
534.095	6351.7
534.461	6374.07
534.826	6387.4
535.192	6309.89
535.557	6455.42
535.923	6407.74
536.288	6459.94
536.653	6515.53
537.019	6526.83
537.384	6568.41
537.749	6602.54
538.114	6541.97
538.479	6629.88
538.845	6717.56
539.21	6642.54
539.575	6616.32
539.94	6683.21
540.305	6786.04
540.67	6748.07
541.034	6797.56
541.399	6823.1
541.764	6819.71
542.129	6890.89
542.494	6867.16
542.858	6945.35
543.223	6902.87
543.587	7003.43
543.952	7002.98
544.316	6995.3
544.681	7067.16
545.045	7182.18
545.41	7141.73
545.774	7174.95
546.138	7124.33
546.503	7209.08
546.867	7158.68
547.231	7277.55
547.595	7231.22
547.959	7263.31
548.324	7290.2
548.688	7350.77
549.052	7407.49
549.416	7345.57
549.779	7385.12
550.143	7409.52
550.507	7469.18
550.871	7461.72
551.235	7484.55
551.599	7563.64
551.962	7550.99
552.326	7577.2
552.689	7578.33
553.053	7564.55
553.417	7647.93
553.78	7705.11
554.143	7702.17
554.507	7703.98
554.87	7720.25
555.234	7831.43
555.597	7683.64
555.96	7791.43
556.323	7807.03
556.686	7838.89
557.05	7885.22
557.413	7947.81
557.776	7919.11
558.139	7966.8
558.502	7980.81
558.865	8010.18
559.228	8074.59
559.59	8035.72
559.953	7999.34
560.316	8141.03
560.679	8153.01
561.041	8196.17
561.404	8223.51
561.767	8275.04
562.129	8164.76
562.492	8258.09
562.854	8295.83
563.217	8259.44
563.579	8328.14
563.941	8333.79
564.304	8432.09
564.666	8460.34
565.028	8425.54
565.39	8462.6
565.753	8513.67
566.115	8479.33
566.477	8568.14
566.839	8574.69
567.201	8662.82
567.563	8682.26
567.925	8670.28
568.287	8701.01
568.648	8741.01
569.01	8779.43
569.372	8849.03
569.734	8798.19
570.095	8895.59
570.457	8967.9
570.819	8940.1
571.18	8950.73
571.542	9093.77
571.903	9082.02
572.265	9194.11
572.626	9117.05
572.987	9170.15
573.349	9266.65
573.71	9347.78
574.071	9381.22
574.432	9451.95
574.794	9491.05
575.155	9543.03
575.516	9573.99
575.877	9710.93
576.238	9655.79
576.599	9794.77
576.96	9879.97
577.32	9959.96
577.681	10034.99
578.042	10189.34
578.403	10200.64
578.763	10277.92
579.124	10448.76
579.485	10554.75
579.845	10606.95
580.206	10745.48
580.566	10854.4
580.927	10904.8
581.287	11255.75
581.648	11244.9
582.008	11439.47
582.368	11516.31
582.728	11684.44
583.089	11908.61
583.449	12097.99
583.809	12132.56
584.169	12389.28
584.529	12564.64
584.889	12892.54
585.249	12925.54
585.609	13162.14
585.969	13436.93
586.329	13563.94
586.688	13840.99
587.048	14045.51
587.408	14202.56
587.768	14578.37
588.127	14768.43
588.487	15062.88
588.846	15419.93
589.206	15526.15
589.565	15772.92
589.925	16212.68
590.284	16409.06
590.643	16692.89
591.003	16980.57
591.362	17287.91
591.721	17540.78
592.08	17740.1
592.44	18188.9
592.799	18469.57
593.158	18659.85
593.517	18988.2
593.876	19419.6
594.235	19614.85
594.593	19825.24
594.952	20282.4
595.311	20500.93
595.67	20772.79
596.029	21315.6
596.387	21630.62
596.746	21972.08
597.104	22110.15
597.463	22453.87
597.822	22782.9
598.18	23146.06
598.538	23464.24
598.897	23777.23
599.255	23934.29
599.613	24507.15
599.972	24628.5
600.33	24916.86
600.688	25241.14
601.046	25659.66
601.404	25954.12
601.762	26201.12
602.12	26588.91
602.478	26972.17
602.836	27133.98
603.194	27177.59
603.552	27710.91
603.91	27841.75
604.268	28168.3
604.625	28393.83
604.983	28751.11
605.341	28962.4
605.698	29217.54
606.056	29643.29
606.413	29763.74
606.771	30163.05
607.128	30384.51
607.485	30539.31
607.843	30831.28
608.2	31165.51
608.557	31526.63
608.914	31629.45
609.272	31857.92
609.629	32132.26
609.986	32521.86
610.343	32521.18
610.7	32905.12
611.057	33084.33
611.414	33204.55
611.771	33576.74
612.127	33824.42
612.484	33900.35
612.841	34192.32
613.198	34202.72
613.554	34485.87
613.911	34651.52
614.267	34897.84
614.624	34990.94
614.98	35287.43
615.337	35487.2
615.693	35558.39
616.05	35696.91
616.406	36094.87
616.762	36011.93
617.118	36322.43
617.475	36442.66
617.831	36647.62
618.187	36778.69
618.543	36980.04
618.899	37334.16
619.255	37295.97
619.611	37344.33
619.967	37643.3
620.323	37848.04
620.678	37723.98
621.034	37785.45
621.39	37987.25
621.746	38042.62
622.101	38442.61
622.457	38331.2
622.812	38502.26
623.168	38660.45
623.523	38589.27
623.879	38852.09
624.234	38897.96
624.589	38912.88
624.945	39089.37
625.3	39260.44
625.655	39314.67
626.01	39264.96
626.365	39395.35
626.72	39566.19
627.075	39571.84
627.43	39683.7
627.785	39542.69
628.14	39818.61
628.495	39821.1
628.85	39797.37
629.205	39705.4
629.559	40110.36
629.914	39989.68
630.269	40037.14
630.623	40030.81
630.978	39989.23
631.332	40235.55
631.687	40272.61
632.041	40142.22
632.396	40318.26
632.75	40061.55
633.104	40312.39
633.459	40135.67
633.813	40180.19
634.167	40219.06
634.521	40301.77
634.875	40365.72
635.229	40218.38
635.583	40202.11
635.937	40263.12
636.291	40266.74
636.645	40296.79
636.999	40196.01
637.352	40277.13
637.706	40210.02
638.06	40416.34
638.413	40286.62
638.767	40208.43
639.121	40311.48
639.474	40087.31
639.828	40079.4
640.181	40291.6
640.534	40293.4
640.888	40043.69
641.241	40114.88
641.594	40126.4
641.947	40290.47
642.301	40069
642.654	40210.92
643.007	40192.84
643.36	40071.71
643.713	40289.79
644.066	40257.25
644.419	40004.82
644.771	39813.64
645.124	39359.19
645.477	39432.86
645.83	39073.32
646.182	39186.54
646.535	38928.24
646.888	39182.92
647.24	38776.61
647.593	39039.43
647.945	38937.51
648.298	38804.63
648.65	38682.6
649.002	38654.58
649.355	38850.05
649.707	38803.27
650.059	39026.77
650.411	39312.64
650.763	39425.18
651.115	39923.24
651.467	39653.65
651.819	39651.84
652.171	39563.48
652.523	39549.24
652.875	39587.89
653.227	39397.38
653.578	39737.49
653.93	39706.3
654.282	39502.69
654.633	39394.67
654.985	39393.09
655.337	39537.27
655.688	39482.13
656.039	39603.7
656.391	39257.72
656.742	39367.78
657.094	39215.24
657.445	39530.49
657.796	39345.86
658.147	39274
658.498	39446.87
658.849	39500.43
659.2	39371.17
659.551	39186.31
659.902	39495.23
660.253	39295.01
660.604	39394.67
660.955	39146.54
661.306	39358.06
661.656	39225.86
662.007	39304.5
662.358	39323.26
662.708	39252.98
663.059	39192.64
663.409	38913.78
663.76	39318.97
664.11	39271.74
664.461	39267.44
664.811	39284.39
665.161	39260.89
665.511	39227.9
665.862	39278.74
666.212	39271.06
666.562	39280.1
666.912	39107.45
667.262	39199.87
667.612	39073.32
667.962	39083.27
668.312	39102.47
668.662	39290.27
669.011	39169.59
669.361	39067.45
669.711	39099.54
670.06	39182.47
670.41	39015.25
670.76	38997.39
671.109	39054.11
671.459	39042.82
671.808	38899.54
672.157	39021.35
672.507	38757.4
672.856	38971.4
673.205	38932.31
673.554	38864.97
673.904	38907.45
674.253	38923.27
674.602	38914.91
674.951	38356.51
675.3	38201.03
675.649	38808.92
675.998	38667.46
676.346	38658.19
676.695	38896.38
677.044	38519.67
677.393	38700.23
677.741	38722.15
678.09	38588.82
678.438	38596.27
678.787	38552.88
679.135	38642.37
679.484	38382.72
679.832	38611.87
680.181	38370.06
680.529	38475.6
680.877	38199.45
681.225	38207.13
681.573	38523.28
681.922	38208.03
682.27	38158.54
682.618	38173.69
682.966	37956.74
683.314	38134.59
683.661	38077.42
684.009	37814.15
684.357	37817.76
684.705	37848.27
685.053	37816.18
685.4	37680.82
685.748	37491.22
686.095	37634.94
686.443	37528.05
686.79	37386.59
687.138	37429.07
687.485	37402.86
687.832	37269.53
688.18	37321.5
688.527	37081.51
688.874	37112.7
689.221	37000.16
689.568	36902.31
689.915	36889.88
690.262	36981.63
690.609	36655.08
690.956	36663.22
691.303	36519.94
691.65	36434.75
691.997	36381.19
692.344	36220.74
692.69	36313.62
693.037	36215.77
693.383	35992.5
693.73	36036.34
694.077	35880.41
694.423	35931.26
694.769	35734.2
695.116	35640.87
695.462	35700.98
695.808	35587.99
696.155	35475.45
696.501	35424.83
696.847	35344.83
697.193	35113.65
697.539	35214.67
697.885	34977.84
698.231	34853.09
698.577	34816.26
698.923	34773.32
699.269	34590.28
699.614	34474.8
699.96	34477.96
700.306	34456.27
700.651	34410.17
700.997	34317.52
701.342	34139.22
701.688	34167.01
702.033	34174.92
702.379	33993.23
702.724	33936.06
703.069	34097.18
703.415	33586.01
703.76	33695.16
704.105	33693.8
704.45	33566.35
704.795	33366.35
705.14	33246.81
705.485	33273.02
705.83	33162.52
706.175	32988.51
706.52	33036.87
706.865	32814.5
707.209	32831.23
707.554	32744
707.899	32972.24
708.243	32569.31
708.588	32617.22
708.932	32392.37
709.277	32451.8
709.621	32343.1
709.966	32215.42
710.31	32300.39
710.654	32104.24
710.998	32070.34
711.342	32059.95
711.687	31965.71
712.031	31824.25
712.375	31778.6
712.719	31796
713.063	31626.97
713.407	31689.34
713.75	31555.33
714.094	31564.37
714.438	31529.34
714.782	31539.74
715.125	31273.53
715.469	31432.17
715.812	31285.51
716.156	31175.23
716.499	31124.38
716.843	31110.82
717.186	30937.49
717.53	31040.09
717.873	31047.09
718.216	30954.67
718.559	30704.96
718.902	30515.13
719.246	30725.97
719.589	30676.26
719.932	30551.51
720.275	30517.62
720.617	30471.97
720.96	30376.6
721.303	30326.89
721.646	30352.65
721.989	30241.24
722.331	30176.38
722.674	30197.62
723.016	30086.21
723.359	30050.74
723.701	30160.11
724.044	29918.99
724.386	29806.67
724.729	29970.51
725.071	29708.15
725.413	29835.83
725.755	29744.53
726.097	29650.75
726.439	29335.05
726.782	29537.98
727.124	29609.16
727.465	29297.31
727.807	29431.32
728.149	29268.16
728.491	29385.67
728.833	29241.49
729.175	29185.9
729.516	29253.02
729.858	29241.04
730.199	29209.85
730.541	28978
730.882	28937.32
731.224	29103.64
731.565	28967.15
731.906	29010.08
732.248	28961.5
732.589	28711.56
732.93	28604.9
733.271	28708.17
733.612	28682.41
733.953	28691.9
734.294	28611.9
734.635	28526.48
734.976	28625.69
735.317	28369.2
735.658	28405.13
735.999	28386.6
736.339	28312.25
736.68	28414.85
737.021	28332.81
737.361	28271.57
737.702	28342.53
738.042	28194.96
738.383	28189.77
738.723	28184.34
739.063	28049.21
739.404	27963.78
739.744	28006.04
740.084	27805.37
740.424	27839.72
740.764	27728.08
741.104	28012.82
741.444	27717.69
741.784	27612.61
742.124	27734.64
742.464	27639.95
742.804	27701.64
743.143	27598.82
743.483	27455.78
743.823	27495.1
744.162	27504.36
744.502	27548.43
744.841	27284.93
745.181	27477.92
745.52	27312.5
745.86	27364.93
746.199	27221.21
746.538	27091.72
746.877	27237.48
747.216	27153.18
747.556	27044.26
747.895	27113.41
748.234	27015.56
748.573	26873.19
748.911	26812.63
749.25	26787.09
749.589	26725.62
749.928	26711.39
750.267	26818.96
750.605	26546.19
750.944	26670.03
751.283	26617.38
751.621	26629.58
751.96	26457.84
752.298	26350.72
752.636	26340.55
752.975	26281.12
753.313	26135.13
753.651	26261.23
753.989	26042.71
754.327	26075.92
754.666	25837.96
755.004	25906.89
755.342	25895.36
755.679	25830.73
756.017	25705.54
756.355	25787.8
756.693	25613.79
757.031	25745.76
757.368	25667.8
757.706	25483.62
758.044	25516.84
758.381	25484.53
758.719	25328.83
759.056	25423.51
759.394	25234.59
759.731	25049.96
760.068	25057.42
760.405	25031.88
760.743	24906.24
761.08	24900.59
761.417	24817.43
761.754	24724.55
762.091	24751.89
762.428	24557.09
762.765	24561.16
763.102	24457.89
763.438	24417.89
763.775	24264.9
764.112	24214.73
764.449	24329.53
764.785	24007.5
765.122	23987.39
765.458	23880.05
765.795	23888.19
766.131	23746.27
766.467	23626.5
766.804	23615.88
767.14	23556.67
767.476	23616.78
767.812	23337.24
768.148	23358.26
768.485	23296.34
768.821	23166.85
769.157	23094.31
769.492	22988.55
769.828	23011.15
770.164	22800.76
770.5	22744.71
770.836	22724.6
771.171	22629.46
771.507	22522.12
771.842	22412.07
772.178	22431.05
772.513	22339.98
772.849	22276.48
773.184	22109.93
773.519	22173.88
773.855	21980.66
774.19	21954.23
774.525	21891.85
774.86	21805.98
775.195	21869.71
775.53	21718.98
775.865	21625.42
776.2	21533.22
776.535	21462.26
776.87	21335.26
777.205	21235.6
777.539	21129.84
777.874	21276.28
778.209	20953.35
778.543	20905.44
778.878	20778.21
779.212	20808.94
779.547	20577.76
779.881	20673.58
780.215	20508.61
780.55	20541.38
780.884	20418.9
781.218	20369.18
781.552	20461.83
781.886	20190.88
782.22	20113.37
782.554	19961.74
782.888	19879.7
783.222	19846.26
783.556	19729.65
783.889	19805.81
784.223	19587.96
784.557	19557
784.89	19546.15
785.224	19561.07
785.557	19314.29
785.891	19382.54
786.224	19183.45
786.558	19193.17
786.891	19105.71
787.224	19015.55
787.557	18960.86
787.891	18952.27
788.224	18947.75
788.557	18882.67
788.89	18862.55
789.223	18741.65
789.556	18619.85
789.888	18623.24
790.221	18447.42
790.554	18375.79
790.887	18417.14
791.219	18229.13
791.552	18235.45
791.884	18226.64
792.217	18171.73
792.549	18059.64
792.882	18006.08
793.214	17843.37
793.546	17848.12
793.879	17740.32
794.211	17740.55
794.543	17644.28
794.875	17690.16
795.207	17636.6
795.539	17544.17
795.871	17644.96
796.203	17445.42
796.535	17297.85
796.867	17261.47
797.198	17189.15
797.53	17198.42
797.862	17171.3
798.193	17126.56
798.525	16946.22
798.856	17006.11
799.188	16799.56
799.519	16740.12
799.85	16731.54
800.182	16702.16
800.513	16733.12
800.844	16553.92
801.175	16599.56
801.506	16531.99
801.837	16474.82
802.168	16416.52
802.499	16452.22
802.83	16312.34
803.161	16202.29
803.491	16260.14
803.822	16238.44
804.153	16054.27
804.483	15950.09
804.814	16063.53
805.145	15920.94
805.475	16018.56
805.805	15854.72
806.136	15868.51
806.466	15772.69
806.796	15704.22
807.126	15650.21
807.457	15631.23
807.787	15594.17
808.117	15565.47
808.447	15611.11
808.777	15564.56
809.107	15411.35
809.436	15389.2
809.766	15405.24
810.096	15296.77
810.426	15306.49
810.755	15260.84
811.085	15164.35
811.414	15199.6
811.744	15015.88
812.073	15106.27
812.403	14999.15
812.732	14932.49
813.061	15048.87
813.39	14938.59
813.719	14828.76
814.049	14877.12
814.378	14753.74
814.707	14802.55
815.036	14738.6
815.365	14616.11
815.693	14540.18
816.022	14545.15
816.351	14522.78
816.68	14382.67
817.008	14469.22
817.337	14400.07
817.665	14304.93
817.994	14322.34
818.322	14276.01
818.651	14201.21
818.979	14200.98
819.307	14185.84
819.636	14322.79
819.964	14059.29
820.292	14154.88
820.62	14153.07
820.948	14026.3
821.276	14154.43
821.604	14090.7
821.932	14072.17
822.259	14070.14
822.587	14053.42
822.915	14004.6
823.243	14134.09
823.57	14029.46
823.898	14006.41
824.225	14018.39
824.553	14005.96
824.88	13965.06
825.207	14067.65
825.535	14015
825.862	14105.39
826.189	14019.07
826.516	14130.25
826.843	14090.7
827.17	14069.69
827.497	14104.49
827.824	14059.29
828.151	14093.87
828.478	13998.5
828.805	14091.15
829.131	14006.86
829.458	13954.89
829.785	13886.64
830.111	13973.42
830.438	14015
830.764	13994.89
831.09	14102
831.417	13949.69
831.743	13942.91
832.069	13940.42
832.395	13857.04
832.722	13993.53
833.048	13918.73
833.374	13841.9
833.7	13879.64
834.026	13789.92
834.351	13825.4
834.677	13902.23
835.003	13861.78
835.329	13798.06
835.654	13798.96
835.98	13798.51
836.306	13719.87
836.631	13768.68
836.956	13759.64
837.282	13736.36
837.607	13666.31
837.932	13588.34
838.258	13681
838.583	13585.63
838.908	13415.92
839.233	13513.32
839.558	13536.14
839.883	13451.17
840.208	13432.64
840.533	13449.14
840.858	13469.25
841.182	13368.01
841.507	13330.72
841.832	13278.07
842.156	13259.99
842.481	13351.06
842.805	13221.35
843.13	13217.96
843.454	13209.37
843.778	13111.29
844.103	13077.85
844.427	13058.19
844.751	13097.96
845.075	13032.65
845.399	12945.2
845.723	12903.62
846.047	12902.71
846.371	12844.18
846.695	12891.41
847.019	12692.32
847.343	12656.39
847.666	12608.48
847.99	12637.18
848.313	12611.87
848.637	12479.9
848.96	12453.23
849.284	12406.23
849.607	12448.71
849.931	12307.47
850.254	12216.4
850.577	12147.03
850.9	12092.34
851.223	11966.47
851.546	11998.78
851.869	11927.82
852.192	12022.06
852.515	11814.15
852.838	11886.92
853.161	11759.24
853.483	11801.27
853.806	11773.93
854.129	11667.49
854.451	11612.8
854.774	11608.51
855.096	11564.22
855.419	11616.42
855.741	11527.38
856.063	11487.38
856.385	11430.89
856.708	11355.41
857.03	11373.26
857.352	11365.8
857.674	11269.31
857.996	11316.54
858.318	11106.83
858.64	11233.38
858.961	11161.97
859.283	11152.93
859.605	11098.01
859.926	11074.06
860.248	11015.3
860.57	11029.31
860.891	11042.65
861.212	11017.34
861.534	10908.87
861.855	10892.14
862.176	10855.76
862.498	10911.58
862.819	10870.67
863.14	10793.16
863.461	10799.72
863.782	10782.09
864.103	10780.28
864.424	10732.6
864.745	10773.95
865.065	10657.8
865.386	10738.47
865.707	10612.6
866.027	10609.66
866.348	10595.2
866.668	10605.82
866.989	10511.81
867.309	10485.15
867.63	10432.04
867.95	10472.94
868.27	10458.48
868.59	10535.77
868.91	10399.5
869.23	10492.38
869.55	10411.25
869.87	10427.75
870.19	10376.22
870.51	10351.37
870.83	10387.3
871.15	10342.78
871.469	10343.68
871.789	10316.79
872.109	10338.94
872.428	10249.45
872.748	10248.54
873.067	10275.44
873.386	10230.47
873.706	10263.46
874.025	10132.61
874.344	10122.67
874.663	10090.58
874.982	10144.59
875.301	10065.95
875.62	10056.68
875.939	10069.34
876.258	10034.31
876.577	9965.84
876.896	10010.13
877.214	10010.36
877.533	9983.47
877.852	9969.46
878.17	9912.28
878.489	9946.63
878.807	9942.11
879.125	9911.6
879.444	9945.05
879.762	9911.38
880.08	9877.71
880.398	9871.6
880.716	9904.6
881.034	9829.57
881.352	9785.05
881.67	9795.9
881.988	9821.21
882.306	9703.25
882.624	9766.3
882.941	9703.25
883.259	9683.14
883.577	9631.16
883.894	9628.9
884.212	9610.82
884.529	9549.81
884.846	9531.73
885.164	9600.88
885.481	9456.93
885.798	9523.82
886.115	9534.21
886.432	9442.01
886.75	9392.52
887.067	9438.62
887.383	9344.39
887.7	9392.97
888.017	9297.83
888.334	9342.13
888.651	9267.55
888.967	9230.49
889.284	9188.68
889.6	9129.25
889.917	9188.23
890.233	9169.02
890.55	9125.41
890.866	9113.43
891.182	9060.33
891.498	9080.67
891.815	9036.37
892.131	8979.88
892.447	9003.61
892.763	8876.15
893.079	8893.33
893.395	8878.18
893.71	8802.93
894.026	8857.17
894.342	8834.34
894.657	8734.91
894.973	8681.81
895.289	8760.22
895.604	8715.25
895.92	8625.99
896.235	8640.22
896.55	8630.06
896.865	8641.58
897.181	8570.62
897.496	8564.29
897.811	8568.81
898.126	8438.2
898.441	8434.81
898.756	8383.96
899.071	8347.58
899.386	8398.42
899.7	8297.18
900.015	8227.13
900.33	8220.8
900.644	8230.97
900.959	8285.66
901.273	8223.74
901.588	8135.38
901.902	8113.91
902.216	8025.33
902.531	8099.67
902.845	8040.47
903.159	7989.85
903.473	7937.42
903.787	7933.35
904.101	7861.71
904.415	7904.88
904.729	7859
905.042	7815.61
905.356	7841.15
905.67	7798.44
905.984	7776.97
906.297	7738.55
906.611	7707.59
906.924	7616.97
907.237	7581.95
907.551	7589.4
907.864	7536.98
908.177	7516.64
908.491	7538.33
908.804	7505.57
909.117	7418.34
909.43	7426.02
909.743	7360.26
910.056	7307.83
910.368	7306.25
910.681	7270.54
910.994	7221.51
911.307	7194.16
911.619	7167.72
911.932	7223.09
912.244	7170.66
912.557	7050.89
912.869	7072.36
913.181	7116.42
913.494	7051.79
913.806	7013.83
914.118	6925.02
914.43	6901.97
914.742	6901.74
915.054	6905.58
915.366	6861.06
915.678	6876.2
915.99	6882.53
916.302	6765.47
916.613	6778.58
916.925	6700.39
917.236	6671.24
917.548	6699.48
917.859	6633.27
918.171	6636.44
918.482	6566.16
918.794	6506.95
919.105	6550.11
919.416	6474.41
919.727	6433.28
920.038	6454.75
920.349	6409.55
920.66	6361.41
920.971	6375.88
921.282	6372.71
921.593	6297.46
921.903	6253.17
922.214	6270.12
922.525	6244.81
922.835	6216.11
923.146	6197.8
923.456	6164.58
923.767	6127.52
924.077	6107.86
924.387	6097.24
924.697	6070.35
925.008	6049.33
925.318	5979.73
925.628	6014.76
925.938	5930.92
926.248	5870.81
926.558	5888.43
926.867	5889.79
927.177	5855.67
927.487	5902.9
927.796	5843.01
928.106	5780.64
928.416	5705.61
928.725	5754.88
929.034	5716.23
929.344	5661.32
929.653	5665.61
929.962	5671.49
930.271	5614.77
930.581	5596.01
930.89	5535.45
931.199	5481.21
931.508	5504.04
931.817	5486.41
932.125	5474.88
932.434	5479.86
932.743	5458.61
933.051	5384.49
933.36	5348.11
933.669	5353.76
933.977	5353.98
934.286	5276.02
934.594	5302.01
934.902	5270.14
935.21	5284.38
935.519	5220.88
935.827	5220.2
936.135	5154.44
936.443	5118.06
936.751	5161.22
937.059	5135.01
937.367	5083.03
937.674	5105.18
937.982	5034.9
938.29	5005.97
938.597	5001.9
938.905	4946.54
939.213	4949.02
939.52	4936.82
939.827	4916.25
940.135	4898.85
940.442	4868.8
940.749	4849.59
941.056	4830.61
941.363	4812.53
941.67	4772.3
941.977	4723.49
942.284	4704.51
942.591	4763.72
942.898	4700.89
943.205	4709.93
943.511	4721.23
943.818	4622.03
944.125	4623.16
944.431	4622.03
944.738	4593.78
945.044	4608.69
945.35	4583.83
945.657	4518.75
945.963	4551.52
946.269	4494.57
946.575	4480.56
946.881	4450.28
947.187	4471.29
947.493	4413.44
947.799	4419.09
948.105	4401.24
948.41	4349.49
948.716	4384.29
949.022	4268.14
949.327	4321.47
949.633	4264.07
949.938	4298.87
950.244	4214.8
950.549	4234.46
950.854	4195.82
951.16	4168.48
951.465	4174.81
951.77	4109.04
952.075	4160.79
952.38	4132.55
952.685	4102.94
952.99	4036.05
953.294	4084.41
953.599	4047.13
953.904	4052.32
954.209	4035.6
954.513	3978.43
954.818	3970.74
955.122	3957.41
955.426	3987.92
955.731	3924.87
956.035	3898.88
956.339	3923.29
956.643	3889.84
956.948	3875.83
957.252	3839.45
957.556	3807.13
957.86	3825.44
958.163	3773.69
958.467	3763.29
958.771	3786.34
959.075	3777.53
959.378	3780.24
959.682	3705.89
959.985	3711.09
960.289	3672.22
960.592	3653.01
960.896	3675.16
961.199	3657.08
961.502	3625.22
961.805	3623.63
962.108	3609.62
962.411	3563.75
962.714	3603.97
963.017	3550.42
963.32	3582.73
963.623	3535.5
963.926	3468.84
964.228	3462.73
964.531	3429.51
964.833	3474.26
965.136	3410.76
965.438	3385.67
965.741	3419.12
966.043	3367.14
966.345	3392.23
966.648	3375.96
966.95	3391.32
967.252	3337.99
967.554	3351.78
967.856	3309.29
968.158	3298.44
968.46	3263.87
968.761	3241.72
969.063	3257.54
969.365	3256.41
969.666	3243.98
969.968	3208.28
970.269	3166.02
970.571	3210.31
970.872	3197.2
971.174	3143.87
971.475	3133.7
971.776	3132.8
972.077	3097.09
972.378	3102.97
972.679	3126.25
972.98	3071.56
973.281	3050.32
973.582	3033.59
973.883	3005.34
974.183	3083.31
974.484	3014.16
974.785	3004.67
975.085	3023.65
975.386	2993.37
975.686	2962.18
975.986	2944.56
976.287	2937.55
976.587	2878.34
976.887	2848.06
977.187	2887.61
977.487	2903.88
977.787	2901.84
978.087	2837.44
978.387	2846.93
978.687	2856.42
978.987	2815.97
979.286	2804.9
979.586	2766.93
979.885	2784.11
980.185	2779.81
980.484	2714.05
980.784	2728.74
981.083	2715.63
981.382	2742.07
981.682	2724.67
981.981	2665.47
982.28	2694.84
982.579	2703.88
982.878	2663.88
983.177	2668.4
983.475	2634.51
983.774	2663.88
984.073	2628.63
984.372	2604
984.67	2609.42
984.969	2614.85
985.267	2585.69
985.566	2568.97
985.864	2567.39
986.162	2546.15
986.461	2521.97
986.759	2533.72
987.057	2513.15
987.355	2449.65
987.653	2497.34
987.951	2503.21
988.249	2435.42
988.547	2412.82
988.844	2436.55
989.142	2414.63
989.44	2426.15
989.737	2421.63
990.035	2394.97
990.332	2386.15
990.63	2382.54
990.927	2372.37
991.224	2356.55
991.521	2344.8
991.819	2328.07
992.116	2314.97
992.413	2306.15
992.71	2317.23
993.006	2320.62
993.303	2252.6
993.6	2260.05
993.897	2228.42
994.193	2253.5
994.49	2203.11
994.787	2221.41
995.083	2200.85
995.379	2198.36
995.676	2161.53
995.972	2185.71
996.268	2142.09
996.565	2134.63
996.861	2142.32
997.157	2126.05
997.453	2147.97
997.749	2116.1
998.044	2100.28
998.34	2087.85
998.636	2098.25
998.932	2102.54
999.227	2067.52
999.523	2064.58
999.818	2043.79
1000.114	2005.82
1000.409	2037.23
1000.704	1982.55
1001	1998.37
1001.295	2001.76
1001.59	1994.52
1001.885	1980.06
1002.18	1961.08
1002.475	1950.68
1002.77	1921.31
1003.065	1919.95
1003.359	1908.42
1003.654	1906.84
1003.949	1891.93
1004.243	1884.47
1004.538	1874.98
1004.832	1863.68
1005.127	1881.08
1005.421	1849.22
1005.715	1848.31
1006.009	1824.58
1006.304	1816.22
1006.598	1801.99
1006.892	1806.96
1007.186	1793.85
1007.48	1804.7
1007.773	1794.76
1008.067	1767.19
1008.361	1738.71
1008.655	1744.81
1008.948	1714.53
1009.242	1713.18
1009.535	1697.81
1009.829	1691.71
1010.122	1677.47
1010.415	1693.74
1010.708	1692.84
1011.001	1668.2
1011.295	1651.48
1011.588	1649.22
1011.881	1641.31
1012.173	1620.07
1012.466	1636.79
1012.759	1613.74
1013.052	1593.18
1013.344	1578.49
1013.637	1605.83
1013.93	1587.53
1014.222	1569.45
1014.514	1594.31
1014.807	1550.47
1015.099	1551.6
1015.391	1553.41
1015.683	1533.07
1015.976	1504.82
1016.268	1506.85
1016.56	1516.57
1016.851	1515.67
1017.143	1484.25
1017.435	1486.51
1017.727	1432.73
1018.018	1454.43
1018.31	1454.43
1018.602	1409.68
1018.893	1438.15
1019.185	1419.85
1019.476	1423.69
1019.767	1416.69
1020.058	1383.01
1020.35	1368.1
1020.641	1347.54
1020.932	1364.48
1021.223	1354.31
1021.514	1349.12
1021.804	1319.74
1022.095	1319.29
1022.386	1342.79
1022.677	1312.28
1022.967	1291.27
1023.258	1291.49
1023.548	1308.21
1023.839	1292.62
1024.129	1289.01
1024.419	1267.09
1024.709	1264.37
1025	1269.8
1025.29	1237.71
1025.58	1230.7
1025.87	1222.34
1026.16	1221.66
1026.449	1223.02
1026.739	1206.97
1027.029	1198.39
1027.319	1186.18
1027.608	1180.99
1027.898	1170.59
1028.187	1179.4
1028.477	1162.46
1028.766	1144.15
1029.055	1133.53
1029.344	1143.7
1029.634	1099.18
1029.923	1098.95
1030.212	1100.76
1030.501	1100.99
1030.79	1083.59
1031.078	1090.59
1031.367	1089.24
1031.656	1078.16
1031.945	1097.82
1032.233	1092.63
1032.522	1053.53
1032.81	1027.09
1033.099	1083.59
1033.387	1029.13
1033.675	1081.1
1033.963	1019.18
1034.251	1011.95
1034.54	1003.14
1034.828	997.71
1035.116	978.05
1035.403	981.67
1035.691	983.02
1035.979	976.7
1036.267	953.65
1036.554	959.75
1036.842	951.16
1037.129	971.5
1037.417	952.74
1037.704	937.6
1037.992	935.79
1038.279	969.24
1038.566	923.37
1038.853	923.37
1039.14	923.37
