Data from hue_170_FLMS001491_00010.txt Node
Date: Tue Feb 07 16:48:10 GMT 2017
User: dcchb
Spectrometer: FLMS00149
Trigger mode: 0
Integration Time (sec): 2.000000E-2
Scans to average: 10
Electric dark correction enabled: true
Nonlinearity correction enabled: false
Boxcar width: 0
XAxis mode: Wavelengths
Number of Pixels in Spectrum: 2048
>>>>>Begin Spectral Data<<<<<
341.393	-17.98
341.776	-17.98
342.16	-17.98
342.543	-80.13
342.927	-54.36
343.31	-77.87
343.693	-60.01
344.077	-57.53
344.46	-61.82
344.843	-73.12
345.226	-37.41
345.61	-19.56
345.993	-13.01
346.376	-13.69
346.759	2.13
347.142	34.45
347.525	54.33
347.908	63.15
348.291	68.57
348.674	87.55
349.057	103.82
349.44	127.55
349.823	127.33
350.206	144.73
350.588	190.38
350.971	195.8
351.354	200.32
351.737	257.27
352.119	240.54
352.502	244.39
352.884	267.66
353.267	265.63
353.65	276.25
354.032	274.89
354.414	299.98
354.797	322.35
355.179	306.76
355.562	322.58
355.944	321.45
356.326	309.02
356.709	315.12
357.091	338.62
357.473	343.82
357.855	335.01
358.238	339.75
358.62	318.73
359.002	319.41
359.384	316.47
359.766	343.82
360.148	342.46
360.53	327.55
360.912	344.5
361.294	322.12
361.676	348.56
362.057	331.39
362.439	310.83
362.821	324.38
363.203	313.08
363.584	332.75
363.966	326.19
364.348	328.9
364.729	305.4
365.111	324.16
365.493	316.7
365.874	313.54
366.256	291.84
366.637	300.2
367.019	300.2
367.4	324.16
367.781	308.79
368.163	319.64
368.544	291.39
368.925	328.23
369.306	311.05
369.688	309.47
370.069	320.54
370.45	304.5
370.831	304.05
371.212	294.33
371.593	311.05
371.974	318.28
372.355	331.16
372.736	314.44
373.117	329.58
373.498	318.28
373.879	307.66
374.26	284.16
374.641	322.35
375.021	314.67
375.402	322.8
375.783	311.96
376.163	322.58
376.544	296.81
376.925	321.45
377.305	313.08
377.686	308.57
378.066	327.1
378.447	351.5
378.827	345.4
379.208	313.54
379.588	309.92
379.968	343.59
380.349	323.25
380.729	321.9
381.109	343.59
381.489	365.51
381.87	336.81
382.25	341.11
382.63	348.11
383.01	330.26
383.39	353.54
383.77	352.18
384.15	341.11
384.53	347.21
384.91	355.34
385.29	344.72
385.67	321.67
386.049	349.69
386.429	340.88
386.809	373.2
387.189	338.17
387.568	373.65
387.948	363.71
388.328	343.82
388.707	370.71
389.087	369.81
389.466	361.45
389.846	377.94
390.225	355.12
390.605	346.76
390.984	362.58
391.363	370.71
391.743	371.61
392.122	346.08
392.501	386.3
392.881	385.85
393.26	392.63
393.639	388.56
394.018	389.24
394.397	383.37
394.776	373.42
395.155	379.52
395.534	377.04
395.913	397.83
396.292	388.11
396.671	382.91
397.05	388.34
397.429	394.21
397.808	384.5
398.186	396.25
398.565	388.34
398.944	396.92
399.323	394.89
399.701	379.3
400.08	404.83
400.458	394.21
400.837	411.39
401.215	425.85
401.594	412.97
401.972	431.95
402.351	429.47
402.729	417.72
403.107	410.03
403.486	437.15
403.864	431.05
404.242	438.28
404.62	426.53
404.999	436.47
405.377	427.43
405.755	436.7
406.133	436.25
406.511	456.13
406.889	457.71
407.267	461.56
407.645	449.13
408.023	460.43
408.401	462.01
408.779	473.76
409.156	479.86
409.534	457.04
409.912	464.72
410.29	489.13
410.667	471.72
411.045	490.03
411.422	517.15
411.8	484.83
412.178	518.5
412.555	514.44
412.933	528.9
413.31	524.6
413.687	532.74
414.065	520.76
414.442	546.53
414.819	528.45
415.197	542.01
415.574	550.37
415.951	588.56
416.328	553.08
416.705	584.72
417.082	578.61
417.46	571.16
417.837	587.43
418.214	573.42
418.591	590.82
418.967	592.63
419.344	581.1
419.721	620.87
420.098	621.33
420.475	609.57
420.852	593.76
421.228	624.72
421.605	648.67
421.982	643.7
422.358	640.76
422.735	664.49
423.111	662.23
423.488	664.26
423.864	696.13
424.241	687.76
424.617	692.06
424.994	678.27
425.37	690.02
425.746	696.35
426.123	716.69
426.499	727.31
426.875	749.01
427.251	729.57
427.627	777.25
428.003	768.44
428.379	768.89
428.756	779.51
429.132	774.99
429.507	781.55
429.883	775.67
430.259	810.47
430.635	796.46
431.011	831.04
431.387	828.33
431.763	821.09
432.138	843.69
432.514	873.75
432.89	835.78
433.265	874.65
433.641	895.67
434.016	882.34
434.392	894.76
434.767	913.97
435.143	932.96
435.518	950.58
435.894	974.54
436.269	961.66
436.644	957.59
437.02	991.03
437.395	985.38
437.77	993.75
438.145	1008.89
438.52	1025.61
438.895	1061.09
439.271	1050.01
439.646	1062.67
440.021	1059.05
440.395	1087.3
440.77	1086.17
441.145	1076.23
441.52	1130.92
441.895	1134.53
442.27	1132.05
442.645	1127.3
443.019	1152.16
443.394	1133.85
443.769	1168.43
444.143	1160.97
444.518	1181.08
444.892	1195.1
445.267	1206.85
445.641	1229.9
446.016	1228.32
446.39	1239.39
446.764	1223.34
447.139	1256.34
447.513	1268.99
447.887	1269.9
448.262	1253.4
448.636	1269.67
449.01	1297.01
449.384	1300.18
449.758	1329.33
450.132	1335.43
450.506	1332.04
450.88	1342.66
451.254	1355.77
451.628	1367.52
452.002	1412.27
452.376	1431.93
452.75	1420.63
453.123	1416.33
453.497	1461.76
453.871	1451.13
454.244	1473.05
454.618	1486.39
454.992	1503.34
455.365	1511.7
455.739	1567.97
456.112	1558.25
456.486	1567.06
456.859	1595.54
457.232	1633.73
457.606	1638.93
457.979	1663.11
458.352	1694.29
458.725	1703.1
459.099	1724.8
459.472	1758.47
459.845	1752.82
460.218	1793.72
460.591	1790.79
460.964	1832.82
461.337	1860.61
461.71	1882.31
462.083	1907.85
462.456	1916.88
462.829	1944
463.201	1954.4
463.574	1986.94
463.947	2034.85
464.32	2085.92
464.692	2061.06
465.065	2109.65
465.438	2157.1
465.81	2163.88
466.183	2162.3
466.555	2248.85
466.928	2247.5
467.3	2272.13
467.672	2330.66
468.045	2358.23
468.417	2383.77
468.789	2430.32
469.161	2493.37
469.534	2528.62
469.906	2590.77
470.278	2628.05
470.65	2620.59
471.022	2691.1
471.394	2766.35
471.766	2795.73
472.138	2840.48
472.51	2867.59
472.882	2965.22
473.253	3014.26
473.625	3043.18
473.997	3149.85
474.369	3183.29
474.74	3277.53
475.112	3262.61
475.484	3399.11
475.855	3460.57
476.227	3526.56
476.598	3613.79
476.97	3646.56
477.341	3744.86
477.713	3822.37
478.084	3872.31
478.455	3971.29
478.827	4066.88
479.198	4209.03
479.569	4284.05
479.94	4453.77
480.311	4482.69
480.682	4607.66
481.053	4728.34
481.424	4812.63
481.795	4897.6
482.166	5019.63
482.537	5115.67
482.908	5293.52
483.279	5336
483.65	5449
484.021	5602.89
484.391	5725.82
484.762	5841.08
485.133	5934.86
485.503	6042.2
485.874	6201.97
486.244	6258.47
486.615	6444.45
486.985	6583.65
487.356	6726.02
487.726	6829.52
488.097	6975.06
488.467	7081.04
488.837	7275.61
489.207	7430.41
489.578	7512.44
489.948	7604.87
490.318	7859.78
490.688	7893.22
491.058	8093.22
491.428	8201.24
491.798	8353.33
492.168	8484.85
492.538	8641.68
492.908	8747.44
493.278	8932.75
493.648	8963.25
494.017	9066.98
494.387	9266.52
494.757	9321.21
495.126	9424.03
495.496	9549.68
495.866	9643.01
496.235	9730.24
496.605	9881.42
496.974	10019.5
497.344	10071.25
497.713	10224.91
498.082	10266.04
498.452	10404.12
498.821	10523.21
499.19	10485.25
499.559	10689.99
499.928	10706.48
500.298	10867.61
500.667	10926.37
501.036	10868.29
501.405	11120.03
501.774	11146.92
502.143	11201.84
502.512	11301.04
502.88	11437.76
503.249	11487.03
503.618	11488.16
503.987	11536.29
504.356	11666.23
504.724	11704.88
505.093	11760.92
505.462	11840.24
505.83	11931.31
506.199	11934.25
506.567	12057.18
506.936	12111.64
507.304	12200.23
507.672	12312.54
508.041	12290.4
508.409	12441.13
508.777	12505.76
509.145	12591.18
509.514	12524.52
509.882	12639.99
510.25	12618.3
510.618	12687.22
510.986	12705.75
511.354	12791.85
511.722	12860.55
512.09	12969.48
512.458	12930.38
512.826	13037.04
513.193	13123.6
513.561	13079.3
513.929	13143.48
514.297	13220.09
514.664	13276.81
515.032	13251.95
515.4	13371.95
515.767	13312.52
516.135	13452.4
516.502	13337.83
516.869	13494.43
517.237	13511.16
517.604	13452.4
517.972	13587.31
518.339	13654.2
518.706	13591.38
519.073	13579.85
519.44	13650.59
519.808	13788.21
520.175	13738.04
520.542	13868.66
520.909	13863.69
521.276	13821.88
521.643	13777.36
522.009	13895.33
522.376	13948.66
522.743	13982.33
523.11	14085.38
523.477	14081.31
523.843	14157.69
524.21	14131.25
524.577	14206.28
524.943	14251.48
525.31	14255.32
525.676	14361.3
526.043	14274.98
526.409	14344.58
526.776	14506.38
527.142	14400.17
527.508	14526.04
527.874	14430
528.241	14500.73
528.607	14419.15
528.973	14526.04
529.339	14456.22
529.705	14460.06
530.071	14512.94
530.437	14473.84
530.803	14588.64
531.169	14559.72
531.535	14400.62
531.901	14448.31
532.267	14403.79
532.632	14410.57
532.998	14398.36
533.364	14410.12
533.73	14432.04
534.095	14510.68
534.461	14467.52
534.826	14428.42
535.192	14361.53
535.557	14444.92
535.923	14392.71
536.288	14379.83
536.653	14307.97
537.019	14270.01
537.384	14296.22
537.749	14256.45
538.114	14183
538.479	14156.79
538.845	14146.17
539.21	14030.01
539.575	14015.32
539.94	14011.03
540.305	13978.26
540.67	13921.31
541.034	13963.57
541.399	13919.05
541.764	13867.76
542.129	13975.78
542.494	13783.01
542.858	13759.96
543.223	13806.06
543.587	13719.74
543.952	13682.68
544.316	13645.84
544.681	13599.52
545.045	13617.37
545.41	13667.31
545.774	13489.24
546.138	13489.46
546.503	13400.88
546.867	13386.64
547.231	13461.89
547.595	13388
547.959	13327.43
548.324	13221.9
548.688	13170.6
549.052	13191.39
549.416	13099.19
549.779	13152.75
550.143	13118.62
550.507	13084.73
550.871	13019.42
551.235	12934.45
551.599	13006.54
551.962	12957.72
552.326	12949.36
552.689	12956.37
553.053	12778.07
553.417	12810.61
553.78	12879.99
554.143	12735.81
554.507	12863.49
554.87	12813.55
555.234	12832.53
555.597	12675.02
555.96	12668.92
556.323	12698.75
556.686	12604.74
557.05	12618.3
557.413	12640.22
557.776	12589.15
558.139	12627.34
558.502	12573.1
558.865	12540.11
559.228	12569.71
559.59	12516.61
559.953	12513.67
560.316	12672.08
560.679	12541.92
561.041	12530.39
561.404	12608.81
561.767	12597.06
562.129	12468.47
562.492	12639.54
562.854	12550.05
563.217	12487.23
563.579	12587.56
563.941	12662.59
564.304	12609.71
564.666	12637.05
565.028	12563.16
565.39	12564.29
565.753	12633.89
566.115	12578.98
566.477	12606.32
566.839	12605.87
567.201	12625.76
567.563	12643.61
567.925	12736.94
568.287	12698.52
568.648	12710.5
569.01	12647.68
569.372	12695.58
569.734	12718.18
570.095	12687
570.457	12795.92
570.819	12755.7
571.18	12775.36
571.542	12726.32
571.903	12813.1
572.265	12782.81
572.626	12755.92
572.987	12742.59
573.349	12717.96
573.71	12877.73
574.071	12755.7
574.432	12787.33
574.794	12908.01
575.155	12912.3
575.516	12800.21
575.877	12882.7
576.238	12824.85
576.599	12854.22
576.96	12843.15
577.32	12863.49
577.681	12872.3
578.042	12872.75
578.403	12917.05
578.763	12771.97
579.124	12904.17
579.485	12869.59
579.845	12966.76
580.206	12867.11
580.566	12890.61
580.927	12871.85
581.287	12867.56
581.648	12870.27
582.008	12860.55
582.368	12850.83
582.728	12824.39
583.089	12785.3
583.449	12820.1
583.809	12809.03
584.169	12832.3
584.529	12759.54
584.889	12837.28
585.249	12785.75
585.609	12676.6
585.969	12805.19
586.329	12665.98
586.688	12750.72
587.048	12714.79
587.408	12653.1
587.768	12673.44
588.127	12625.53
588.487	12604.97
588.846	12752.08
589.206	12640.44
589.565	12670.73
589.925	12759.31
590.284	12671.63
590.643	12675.47
591.003	12641.57
591.362	12662.59
591.721	12673.89
592.08	12636.83
592.44	12593.89
592.799	12571.97
593.158	12572.2
593.517	12532.2
593.876	12559.09
594.235	12549.6
594.593	12551.41
594.952	12559.54
595.311	12460.34
595.67	12557.28
596.029	12563.84
596.387	12534.01
596.746	12524.74
597.104	12476.38
597.463	12500.11
597.822	12451.07
598.18	12495.36
598.538	12500.56
598.897	12529.49
599.255	12486.78
599.613	12604.51
599.972	12470.28
600.33	12498.08
600.688	12550.28
601.046	12503.95
601.404	12491.07
601.762	12567
602.12	12615.59
602.478	12458.08
602.836	12456.95
603.194	12507.34
603.552	12468.25
603.91	12434.57
604.268	12513.44
604.625	12472.31
604.983	12571.07
605.341	12414.46
605.698	12497.17
606.056	12547.34
606.413	12522.48
606.771	12496.95
607.128	12465.08
607.485	12467.79
607.843	12457.85
608.2	12564.06
608.557	12621.46
608.914	12472.99
609.272	12600.9
609.629	12588.47
609.986	12634.12
610.343	12555.47
610.7	12599.99
611.057	12622.59
611.414	12609.94
611.771	12596.38
612.127	12684.06
612.484	12606.55
612.841	12664.4
613.198	12662.59
613.554	12623.27
613.911	12651.52
614.267	12696.49
614.624	12715.7
614.98	12683.83
615.337	12759.76
615.693	12688.58
616.05	12670.27
616.406	12747.11
616.762	12675.47
617.118	12765.86
617.475	12704.17
617.831	12767.67
618.187	12818.74
618.543	12834.56
618.899	12813.77
619.255	12832.76
619.611	12835.24
619.967	12778.29
620.323	12844.96
620.678	12775.81
621.034	12806.09
621.39	12788.69
621.746	12822.36
622.101	12975.35
622.457	12839.99
622.812	12827.78
623.168	12869.59
623.523	12791.85
623.879	12938.74
624.234	12795.92
624.589	12906.2
624.945	12814.68
625.3	12863.72
625.655	12865.98
626.01	12818.52
626.365	12818.74
626.72	12765.19
627.075	12826.65
627.43	12824.62
627.785	12852.19
628.14	12761.57
628.495	12741.01
628.85	12819.65
629.205	12739.2
629.559	12765.64
629.914	12707.11
630.269	12682.25
630.623	12689.26
630.978	12727.22
631.332	12615.81
631.687	12683.16
632.041	12667.56
632.396	12659.43
632.75	12602.71
633.104	12678.86
633.459	12597.96
633.813	12630.73
634.167	12576.04
634.521	12520.67
634.875	12642.7
635.229	12501.69
635.583	12587.34
635.937	12543.72
636.291	12504.85
636.645	12527
636.999	12492.43
637.352	12544.4
637.706	12468.7
638.06	12530.62
638.413	12427.57
638.767	12438.64
639.121	12384.18
639.474	12332.88
639.828	12365.2
640.181	12362.71
640.534	12415.82
640.888	12340.34
641.241	12225.99
641.594	12307.35
641.947	12303.5
642.301	12338.08
642.654	12320.68
643.007	12281.81
643.36	12313
643.713	12245.88
644.066	12221.02
644.419	12211.3
644.771	12185.09
645.124	12035.49
645.477	11979.22
645.83	11889.96
646.182	11898.54
646.535	11808.6
646.888	11828.26
647.24	11817.64
647.593	11905.32
647.945	11830.3
648.298	11799.56
648.65	11815.16
649.002	11776.06
649.355	11832.33
649.707	11864.65
650.059	11915.94
650.411	12012.44
650.763	12048.82
651.115	12131.76
651.467	12099.22
651.819	12060.35
652.171	12067.8
652.523	12080.23
652.875	12081.59
653.227	12017.41
653.578	12122.94
653.93	12116.62
654.282	12072.55
654.633	12044.53
654.985	12093.57
655.337	12025.77
655.688	12033.68
656.039	12161.81
656.391	11997.07
656.742	12113.9
657.094	12121.36
657.445	12143.51
657.796	12089.72
658.147	12084.3
658.498	12101.02
658.849	12129.5
659.2	12110.74
659.551	12130.4
659.902	12092.89
660.253	12156.84
660.604	12113.45
660.955	12083.85
661.306	12181.47
661.656	12143.96
662.007	12168.59
662.358	12083.4
662.708	12175.82
663.059	12120.91
663.409	12026.68
663.76	12188.93
664.11	12153.45
664.461	12172.43
664.811	12224.86
665.161	12184.41
665.511	12113.68
665.862	12147.8
666.212	12217.86
666.562	12217.4
666.912	12160.68
667.262	12153.23
667.612	12154.13
667.962	12157.29
668.312	12284.97
668.662	12254.01
669.011	12251.98
669.361	12157.52
669.711	12207.69
670.06	12190.29
670.41	12148.48
670.76	12122.72
671.109	12136.73
671.459	12180.34
671.808	12139.21
672.157	12097.86
672.507	12035.94
672.856	12030.07
673.205	12096.73
673.554	12065.32
673.904	12085.43
674.253	12056.73
674.602	11983.06
674.951	11901.03
675.3	11886.11
675.649	12052.66
675.998	12020.57
676.346	11928.15
676.695	12013.34
677.044	11906.9
677.393	11963.17
677.741	11959.56
678.09	11892.89
678.438	11880.69
678.787	11827.58
679.135	11893.12
679.484	11842.05
679.832	11880.69
680.181	11815.38
680.529	11826.23
680.877	11750.3
681.225	11703.97
681.573	11807.7
681.922	11685.22
682.27	11605.44
682.618	11748.72
682.966	11651.77
683.314	11607.25
683.661	11586.69
684.009	11494.71
684.357	11574.71
684.705	11550.53
685.053	11457.88
685.4	11530.87
685.748	11426.01
686.095	11447.93
686.443	11437.31
686.79	11364.77
687.138	11349.4
687.485	11375.62
687.832	11315.73
688.18	11245.23
688.527	11193.48
688.874	11275.73
689.221	11184.66
689.568	11110.99
689.915	11147.15
690.262	11086.81
690.609	10992.58
690.956	11016.08
691.303	10976.99
691.65	11009.98
691.997	10967.72
692.344	10869.64
692.69	10841.85
693.037	10831.68
693.383	10732.47
693.73	10829.42
694.077	10743.09
694.423	10709.42
694.769	10696.54
695.116	10614.06
695.462	10569.31
695.808	10656.09
696.155	10542.87
696.501	10502.87
696.847	10424.91
697.193	10356.89
697.539	10334.74
697.885	10321.64
698.231	10339.04
698.577	10295.65
698.923	10245.93
699.269	10167.52
699.614	10097.23
699.96	10121.87
700.306	10077.8
700.651	10072.83
700.997	9965.03
701.342	9955.09
701.688	9994.64
702.033	9886.17
702.379	9972.49
702.724	9843.46
703.069	9872.16
703.415	9749.45
703.76	9792.38
704.105	9798.03
704.45	9747.64
704.795	9691.14
705.14	9622.22
705.485	9519.4
705.83	9492.73
706.175	9497.7
706.52	9483.69
706.865	9451.15
707.209	9475.33
707.554	9411.83
707.899	9400.98
708.243	9349.68
708.588	9289.57
708.932	9314.2
709.277	9295.9
709.621	9313.3
709.966	9184.04
710.31	9234.66
710.654	9163.47
710.998	9211.61
711.342	9083.02
711.687	9138.62
712.031	9104.27
712.375	9069.46
712.719	9049.58
713.063	8993.08
713.407	9008.45
713.75	9027.66
714.094	8976.36
714.438	8928
714.782	8935.91
715.125	8863.37
715.469	8855.23
715.812	8867.89
716.156	8808
716.499	8857.04
716.843	8849.36
717.186	8760.55
717.53	8823.14
717.873	8822.92
718.216	8827.44
718.559	8799.64
718.902	8670.61
719.246	8723.71
719.589	8709.93
719.932	8686.2
720.275	8726.88
720.617	8678.51
720.96	8669.93
721.303	8698.18
721.646	8674
721.989	8638.29
722.331	8612.98
722.674	8612.08
723.016	8616.14
723.359	8615.01
723.701	8558.52
724.044	8512.19
724.386	8521.68
724.729	8509.93
725.071	8551.51
725.413	8554
725.755	8551.51
726.097	8509.93
726.439	8481.46
726.782	8501.12
727.124	8484.4
727.465	8467.67
727.807	8487.79
728.149	8451.4
728.491	8441.68
728.833	8476.71
729.175	8404.17
729.516	8429.93
729.858	8430.16
730.199	8466.99
730.541	8459.76
730.882	8398.07
731.224	8471.74
731.565	8402.82
731.906	8437.84
732.248	8406.66
732.589	8402.82
732.93	8376.83
733.271	8425.87
733.612	8435.81
733.953	8497.5
734.294	8475.81
734.635	8431.52
734.976	8474.45
735.317	8426.09
735.658	8505.41
735.999	8472.64
736.339	8396.71
736.68	8429.26
737.021	8376.6
737.361	8463.83
737.702	8510.38
738.042	8475.13
738.383	8452.08
738.723	8479.88
739.063	8450.72
739.404	8516.71
739.744	8516.26
740.084	8489.59
740.424	8584.05
740.764	8519.2
741.104	8555.58
741.444	8585.86
741.784	8512.42
742.124	8626.76
742.464	8584.05
742.804	8598.97
743.143	8575.24
743.483	8708.34
743.823	8647.78
744.162	8737.95
744.502	8814.78
744.841	8794.44
745.181	8777.27
745.52	8853.43
745.86	8851.17
746.199	8980.65
746.538	8942.46
746.877	9002.57
747.216	8969.81
747.556	9024.72
747.895	9084.83
748.234	9117.15
748.573	9274.66
748.911	9276.92
749.25	9334.32
749.589	9369.8
749.928	9475.78
750.267	9527.53
750.605	9632.61
750.944	9670.58
751.283	9716.68
751.621	9911.93
751.96	9952.38
752.298	10017.91
752.636	10119.38
752.975	10232.6
753.313	10238.93
753.651	10472.82
753.989	10464.68
754.327	10664.9
754.666	10688.86
755.004	10842.07
755.342	11026.48
755.679	11140.37
756.017	11264.21
756.355	11455.84
756.693	11566.35
757.031	11709.17
757.368	11806.12
757.706	12019.67
758.044	12139.89
758.381	12278.87
758.719	12412.43
759.056	12629.6
759.394	12811.06
759.731	12834.56
760.068	13121.79
760.405	13200.43
760.743	13378.05
761.08	13637.48
761.417	13748.44
761.754	13971.26
762.091	14061.88
762.428	14167.64
762.765	14301.42
763.102	14527.85
763.438	14799.48
763.775	14944.56
764.112	15124.67
764.449	15216.87
764.785	15423.2
765.122	15625.22
765.458	15693.47
765.795	15762.17
766.131	16074.03
766.467	16134.36
766.804	16291.2
767.14	16437.41
767.476	16615.93
767.812	16763.5
768.148	16982.7
768.485	16968.92
768.821	17050.05
769.157	17261.11
769.492	17331.85
769.828	17517.38
770.164	17479.41
770.5	17654.1
770.836	17804.6
771.171	17868.78
771.507	17962.56
771.842	18085.5
772.178	18152.16
772.513	18260.41
772.849	18350.8
773.184	18362.78
773.519	18480.74
773.855	18491.82
774.19	18627.86
774.525	18557.13
774.86	18748.53
775.195	18863.11
775.53	18849.32
775.865	18818.81
776.2	18841.41
776.535	18924.12
776.87	18966.15
777.205	18938.58
777.539	18974.29
777.874	19141.97
778.209	19052.25
778.543	19039.15
778.878	19062.2
779.212	19216.77
779.547	19131.57
779.881	19254.51
780.215	19174.51
780.55	19304.68
780.884	19214.51
781.218	19268.07
781.552	19347.39
781.886	19283.89
782.22	19339.03
782.554	19268.29
782.888	19209.09
783.222	19168.41
783.556	19175.87
783.889	19127.28
784.223	19094.96
784.557	19166.37
784.89	19228.75
785.224	19093.61
785.557	19045.47
785.891	19103.33
786.224	19033.27
786.558	19064.23
786.891	19006.15
787.224	18936.1
787.557	18885.48
787.891	18908.3
788.224	18888.64
788.557	18919.15
788.89	18945.59
789.223	18890.9
789.556	18820.17
789.888	18863.11
790.221	18720.96
790.554	18686.61
790.887	18661.3
791.219	18686.39
791.552	18606.16
791.884	18573.4
792.217	18599.84
792.549	18668.76
792.882	18460.63
793.214	18452.5
793.546	18394.19
793.879	18323.68
794.211	18272.39
794.543	18413.4
794.875	18265.38
795.207	18330.01
795.539	18232.61
795.871	18246.4
796.203	18146.51
796.535	18181.99
796.867	18110.13
797.198	18047.53
797.53	18087.53
797.862	17972.51
798.193	17991.49
798.525	17928.67
798.856	17860.19
799.188	17672.4
799.519	17656.13
799.85	17614.55
800.182	17643.93
800.513	17670.37
800.844	17503.37
801.175	17667.2
801.506	17583.37
801.837	17433.31
802.168	17396.93
802.499	17419.3
802.83	17238.29
803.161	17230.61
803.491	17237.84
803.822	17291.17
804.153	17114.68
804.483	17047.56
804.814	17017.73
805.145	17121.91
805.475	17088.24
805.805	16982.7
806.136	16944.74
806.466	17015.47
806.796	16982.03
807.126	16805.98
807.457	16784.06
807.787	16785.19
808.117	16604.18
808.447	16563.28
808.777	16649.15
809.107	16659.32
809.436	16517.4
809.766	16602.37
810.096	16484.19
810.426	16456.84
810.755	16438.99
811.085	16466.33
811.414	16385.2
811.744	16261.14
812.073	16248.49
812.403	16254.36
812.732	16229.05
813.061	16192.22
813.39	16100.69
813.719	16048.72
814.049	16141.14
814.378	16077.19
814.707	16041.94
815.036	16014.14
815.365	15934.6
815.693	15892.11
816.022	15855.73
816.351	15754.94
816.68	15671.55
817.008	15827.93
817.337	15637.65
817.665	15589.52
817.994	15718.1
818.322	15620.03
818.651	15563.53
818.979	15507.94
819.307	15646.47
819.636	15518.33
819.964	15456.19
820.292	15596.52
820.62	15467.04
820.948	15462.52
821.276	15464.78
821.604	15427.72
821.932	15558.33
822.259	15551.55
822.587	15475.4
822.915	15402.18
823.243	15433.37
823.57	15389.07
823.898	15524.44
824.225	15276.99
824.553	15447.83
824.88	15427.04
825.207	15443.08
825.535	15355.4
825.862	15502.97
826.189	15377.55
826.516	15520.14
826.843	15551.1
827.17	15485.34
827.497	15462.74
827.824	15427.04
828.151	15523.98
828.478	15400.37
828.805	15587.71
829.131	15575.51
829.458	15386.59
829.785	15411.22
830.111	15456.87
830.438	15495.74
830.764	15504.55
831.09	15441.5
831.417	15356.31
831.743	15526.7
832.069	15442.86
832.395	15300.04
832.722	15493.48
833.048	15392.01
833.374	15379.36
833.7	15289.64
834.026	15266.14
834.351	15347.49
834.677	15234.73
835.003	15338
835.329	15308.62
835.654	15277.21
835.98	15187.95
836.306	15274.95
836.631	15169.42
836.956	15311.33
837.282	15220.04
837.607	15131.9
837.932	15129.64
838.258	15207.61
838.583	15074.5
838.908	15016.88
839.233	15099.59
839.558	14965.13
839.883	14960.61
840.208	14882.42
840.533	14906.37
840.858	14876.77
841.182	14895.53
841.507	14929.42
841.832	14792.48
842.156	14775.98
842.481	14839.26
842.805	14800.39
843.13	14722.65
843.454	14677.68
843.778	14599.49
844.103	14694.18
844.427	14571.02
844.751	14599.71
845.075	14504.35
845.399	14468.87
845.723	14406.27
846.047	14417.35
846.371	14322.66
846.695	14250.8
847.019	14136.22
847.343	14128.54
847.666	14088.99
847.99	14073.4
848.313	14019.39
848.637	13897.36
848.96	13883.58
849.284	13812.17
849.607	13686.97
849.931	13739.4
850.254	13678.16
850.577	13566.75
850.9	13503.02
851.223	13449.01
851.546	13406.07
851.869	13375.11
852.192	13388
852.515	13225.74
852.838	13243.37
853.161	13199.3
853.483	13114.78
853.806	13030.49
854.129	13066.2
854.451	13076.37
854.774	12908.01
855.096	12873.21
855.419	12872.08
855.741	12900.78
856.063	12720.44
856.385	12774.45
856.708	12690.84
857.03	12666.66
857.352	12728.8
857.674	12598.41
857.996	12590.28
858.318	12465.99
858.64	12518.19
858.961	12497.17
859.283	12362.49
859.605	12348.47
859.926	12422.37
860.248	12397.06
860.57	12271.87
860.891	12287.01
861.212	12215.82
861.534	12188.48
861.855	12208.37
862.176	12181.25
862.498	12155.94
862.819	12137.86
863.14	12111.64
863.461	12039.33
863.782	12017.41
864.103	11990.97
864.424	12008.14
864.745	11993
865.065	11952.55
865.386	11884.98
865.707	11913.91
866.027	11939.9
866.348	11910.52
866.668	11841.14
866.989	11790.98
867.309	11807.25
867.63	11833.01
867.95	11690.64
868.27	11665.1
868.59	11717.76
868.91	11660.13
869.23	11699.23
869.55	11596.4
869.87	11727.02
870.19	11583.75
870.51	11647.93
870.83	11678.44
871.15	11581.49
871.469	11604.09
871.789	11590.98
872.109	11506.46
872.428	11528.84
872.748	11490.64
873.067	11478.89
873.386	11522.06
873.706	11411.55
874.025	11367.03
874.344	11287.03
874.663	11387.14
874.982	11333.81
875.301	11349.4
875.62	11295.4
875.939	11315.96
876.258	11301.5
876.577	11230.54
876.896	11199.13
877.214	11141.95
877.533	11128.17
877.852	11186.7
878.17	11231.67
878.489	11188.73
878.807	11103.99
879.125	11092.46
879.444	11014.5
879.762	11037.32
880.08	11073.93
880.398	10988.06
880.716	11074.84
881.034	10991.45
881.352	10950.55
881.67	10918.91
881.988	10961.17
882.306	10908.06
882.624	10809.08
882.941	10803.43
883.259	10759.82
883.577	10781.74
883.894	10756.88
884.212	10754.39
884.529	10802.53
884.846	10675.52
885.164	10717.11
885.481	10678.91
885.798	10681.63
886.115	10589.42
886.432	10578.35
886.75	10425.59
887.067	10604.79
887.383	10461.29
887.7	10499.94
888.017	10439.15
888.334	10426.72
888.651	10429.43
888.967	10414.06
889.284	10294.74
889.6	10322.77
889.917	10269.43
890.233	10199.38
890.55	10201.86
890.866	10225.59
891.182	10253.16
891.498	10087.29
891.815	10112.15
892.131	10053.62
892.447	10034.64
892.763	9983.57
893.079	9993.51
893.395	9916.67
893.71	9899.5
894.026	9929.56
894.342	9862.21
894.657	9787.86
894.973	9780.63
895.289	9748.54
895.604	9760.52
895.92	9619.28
896.235	9672.39
896.55	9568.89
896.865	9563.01
897.181	9617.7
897.496	9593.97
897.811	9557.59
898.126	9488.89
898.441	9431.26
898.756	9357.82
899.071	9332.73
899.386	9363.47
899.7	9236.47
900.015	9274.66
900.33	9111.5
900.644	9144.04
900.959	9155.11
901.273	9185.85
901.588	9116.92
901.902	9044.38
902.216	8993.31
902.531	9015.91
902.845	8935.68
903.159	8898.85
903.473	8839.41
903.787	8841.9
904.101	8819.98
904.415	8853.65
904.729	8780.66
905.042	8717.84
905.356	8702.92
905.67	8656.82
905.984	8681.9
906.297	8613.43
906.611	8558.07
906.924	8481.68
907.237	8506.54
907.551	8484.85
907.864	8451.4
908.177	8447.33
908.491	8349.94
908.804	8349.48
909.117	8292.54
909.43	8177.96
909.743	8210.96
910.056	8154.69
910.368	8162.14
910.681	8107.46
910.994	8052.77
911.307	8048.7
911.619	8017.52
911.932	8041.24
912.244	7975.03
912.557	7872.21
912.869	7803.74
913.181	7841.02
913.494	7850.74
913.806	7795.83
914.118	7829.5
914.43	7710.86
914.742	7695.94
915.054	7653.46
915.366	7671.31
915.678	7650.52
915.99	7484.2
916.302	7525.32
916.613	7493.24
916.925	7492.11
917.236	7436.06
917.548	7384.99
917.859	7461.6
918.171	7398.55
918.482	7314.93
918.794	7306.57
919.105	7297.31
919.416	7213.47
919.727	7209.85
920.038	7151.55
920.349	7118.1
920.66	7175.96
920.971	7119.01
921.282	7103.19
921.593	7020.71
921.903	7006.47
922.214	7006.92
922.525	6922.85
922.835	6925.57
923.146	6898.67
923.456	6876.53
923.767	6846.47
924.077	6844.21
924.387	6803.99
924.697	6710.88
925.008	6741.39
925.318	6673.14
925.628	6632.01
925.938	6609.87
926.248	6621.39
926.558	6576.42
926.867	6560.83
927.177	6490.1
927.487	6487.39
927.796	6447.16
928.106	6405.13
928.416	6450.1
928.725	6373.49
929.034	6340.95
929.344	6370.55
929.653	6342.76
929.962	6239.03
930.271	6316.77
930.581	6229.77
930.89	6208.75
931.199	6176.21
931.508	6148.86
931.817	6173.95
932.125	6097.11
932.434	6099.83
932.743	6037.68
933.051	5992.26
933.36	5999.72
933.669	5919.04
933.977	5984.12
934.286	5954.07
934.594	5896.89
934.902	5896.22
935.21	5800.62
935.519	5870.9
935.827	5818.93
936.135	5780.96
936.443	5766.5
936.751	5738.71
937.059	5701.42
937.367	5698.25
937.674	5712.27
937.982	5669.33
938.29	5667.07
938.597	5670.68
938.905	5560.86
939.213	5553.4
939.52	5494.64
939.827	5496.23
940.135	5469.33
940.442	5491.48
940.749	5452.84
941.056	5436.11
941.363	5343.91
941.67	5385.72
941.977	5306.63
942.284	5258.27
942.591	5343.91
942.898	5272.28
943.205	5275.67
943.511	5180.53
943.818	5220.07
944.125	5152.73
944.431	5105.95
944.738	5155.44
945.044	5085.39
945.35	5102.56
945.657	4994.54
945.963	5010.14
946.269	5025.5
946.575	4993.19
946.881	4937.14
947.187	5009.01
947.493	4946.64
947.799	4894.89
948.105	4867.77
948.41	4842.01
948.716	4861.44
949.022	4796.81
949.327	4825.28
949.633	4783.02
949.938	4769.69
950.244	4773.31
950.549	4708.68
950.854	4682.24
951.16	4690.37
951.465	4672.29
951.77	4606.76
952.075	4614.67
952.38	4614.44
952.685	4592.97
952.99	4522.01
953.294	4510.49
953.599	4514.78
953.904	4501.68
954.209	4486.53
954.513	4489.02
954.818	4450.15
955.122	4412.19
955.426	4384.39
955.731	4387.1
956.035	4400.66
956.339	4331.28
956.643	4312.53
956.948	4281.79
957.252	4293.77
957.556	4248.12
957.86	4244.51
958.163	4236.37
958.467	4188.24
958.771	4164.06
959.075	4199.08
959.378	4156.37
959.682	4180.55
959.985	4114.57
960.289	4107.34
960.592	4131.74
960.896	4046.77
961.199	4035.92
961.502	4097.39
961.805	4042.48
962.108	4000.9
962.411	3978.75
962.714	3987.34
963.017	3950.73
963.32	3944.63
963.623	3941.46
963.926	3924.29
964.228	3869.83
964.531	3877.51
964.833	3852.88
965.136	3866.66
965.438	3830.28
965.741	3773.56
966.043	3765.88
966.345	3722.94
966.648	3738.53
966.95	3755.03
967.252	3693.79
967.554	3696.05
967.856	3719.1
968.158	3691.53
968.46	3624.86
968.761	3636.61
969.063	3656.5
969.365	3624.18
969.666	3596.16
969.968	3576.5
970.269	3579.21
970.571	3550.74
970.872	3546.22
971.174	3491.08
971.475	3460.57
971.776	3454.7
972.077	3498.31
972.378	3464.41
972.679	3415.38
972.98	3448.6
973.281	3415.15
973.582	3421.7
973.883	3364.98
974.183	3356.62
974.484	3317.98
974.785	3315.94
975.085	3334.7
975.386	3335.15
975.686	3282.27
975.986	3265.55
976.287	3269.17
976.587	3265.32
976.887	3205.89
977.187	3211.31
977.487	3158.66
977.787	3212.9
978.087	3154.82
978.387	3135.38
978.687	3143.75
978.987	3118.21
979.286	3078.21
979.586	3122.05
979.885	3094.48
980.185	3073.69
980.484	3055.16
980.784	3059.91
981.083	3016.97
981.382	3032.34
981.682	3011.55
981.981	3024.43
982.28	3000.25
982.579	2953.02
982.878	2942.62
983.177	2924.77
983.475	2950.3
983.774	2920.47
984.073	2869.85
984.372	2873.24
984.67	2888.38
984.969	2876.86
985.267	2865.33
985.566	2843.64
985.864	2837.99
986.162	2787.14
986.461	2810.87
986.759	2791.21
987.057	2768.16
987.355	2739.01
987.653	2757.99
987.951	2729.52
988.249	2735.62
988.547	2734.94
988.844	2702.17
989.142	2689.29
989.44	2661.95
989.737	2643.87
990.035	2634.83
990.332	2603.65
990.63	2643.19
990.927	2597.09
991.224	2583.76
991.521	2558.22
991.819	2554.16
992.116	2569.3
992.413	2551.22
992.71	2554.83
993.006	2507.6
993.303	2534.27
993.6	2486.59
993.897	2510.99
994.193	2494.5
994.49	2489.52
994.787	2459.7
995.083	2441.39
995.379	2447.04
995.676	2404.56
995.972	2417.21
996.268	2405.69
996.565	2360.71
996.861	2386.7
997.157	2362.07
997.453	2360.26
997.749	2333.37
998.044	2348.74
998.34	2310.77
998.636	2312.13
998.932	2273.94
999.227	2275.75
999.523	2264.9
999.818	2278.46
1000.114	2229.87
1000.409	2235.07
1000.704	2203.2
1001	2216.54
1001.295	2192.58
1001.59	2171.79
1001.885	2184.22
1002.18	2127.73
1002.475	2124.34
1002.77	2136.09
1003.065	2138.12
1003.359	2113.04
1003.654	2128.4
1003.949	2101.51
1004.243	2090.67
1004.538	2071.91
1004.832	2089.99
1005.127	2022.42
1005.421	1999.59
1005.715	2044.79
1006.009	2002.76
1006.304	1992.14
1006.598	1936.77
1006.892	1967.28
1007.186	1927.73
1007.48	1952.59
1007.773	1925.25
1008.067	1963.44
1008.361	1915.08
1008.655	1903.78
1008.948	1906.26
1009.242	1883.89
1009.535	1863.33
1009.829	1858.81
1010.122	1809.54
1010.415	1843.89
1010.708	1824.68
1011.001	1816.77
1011.295	1794.4
1011.588	1830.79
1011.881	1798.24
1012.173	1758.47
1012.466	1765.48
1012.759	1746.04
1013.052	1777.45
1013.344	1728.87
1013.637	1743.33
1013.93	1699.72
1014.222	1702.43
1014.514	1719.6
1014.807	1669.43
1015.099	1671.47
1015.391	1674.18
1015.683	1687.96
1015.976	1659.72
1016.268	1637.34
1016.56	1610
1016.851	1620.17
1017.143	1585.59
1017.435	1606.61
1017.727	1580.62
1018.018	1553.05
1018.31	1549.66
1018.602	1560.28
1018.893	1570.23
1019.185	1539.49
1019.476	1532.49
1019.767	1514.86
1020.058	1508.99
1020.35	1502.66
1020.641	1505.6
1020.932	1504.24
1021.223	1461.08
1021.514	1441.42
1021.804	1449.55
1022.095	1453.39
1022.386	1430.8
1022.677	1421.98
1022.967	1435.99
1023.258	1404.36
1023.548	1384.47
1023.839	1381.31
1024.129	1373.17
1024.419	1392.38
1024.709	1325.49
1025	1363
1025.29	1359.39
1025.58	1327.07
1025.87	1334.75
1026.16	1313.51
1026.449	1325.26
1026.739	1315.09
1027.029	1271.03
1027.319	1267.41
1027.608	1269.9
1027.898	1273.06
1028.187	1246.85
1028.477	1224.7
1028.766	1254.76
1029.055	1214.3
1029.344	1225.38
1029.634	1233.51
1029.923	1212.5
1030.212	1206.62
1030.501	1212.95
1030.79	1178.82
1031.078	1184.25
1031.367	1179.73
1031.656	1133.4
1031.945	1158.03
1032.233	1166.62
1032.522	1106.51
1032.81	1124.82
1033.099	1112.84
1033.387	1112.16
1033.675	1112.61
1033.963	1104.48
1034.251	1107.87
1034.54	1088.43
1034.828	1083.69
1035.116	1069
1035.403	1082.78
1035.691	1050.01
1035.979	1036.23
1036.267	1040.75
1036.554	1050.47
1036.842	1032.84
1037.129	1023.8
1037.417	1012.5
1037.704	997.59
1037.992	977.7
1038.279	986.51
1038.566	986.51
1038.853	986.51
1039.14	986.51
