Data from hue_170_FLMS001491_00020.txt Node
Date: Tue Feb 07 16:48:20 GMT 2017
User: dcchb
Spectrometer: FLMS00149
Trigger mode: 0
Integration Time (sec): 2.000000E-2
Scans to average: 10
Electric dark correction enabled: true
Nonlinearity correction enabled: false
Boxcar width: 0
XAxis mode: Wavelengths
Number of Pixels in Spectrum: 2048
>>>>>Begin Spectral Data<<<<<
341.393	-9.27
341.776	-9.27
342.16	-9.27
342.543	-63.95
342.927	-68.47
343.31	-80.22
343.693	-69.15
344.077	-65.08
344.46	-58.76
344.843	-54.91
345.226	-41.13
345.61	-18.53
345.993	-27.8
346.376	-5.2
346.759	36.61
347.142	31.19
347.525	38.42
347.908	37.06
348.291	81.13
348.674	82.94
349.057	113.44
349.44	148.47
349.823	143.05
350.206	148.02
350.588	204.51
350.971	206.1
351.354	225.98
351.737	227.11
352.119	229.37
352.502	256.94
352.884	256.94
353.267	279.09
353.65	298.75
354.032	301.46
354.414	308.69
354.797	326.55
355.179	321.35
355.562	307.11
355.944	336.94
356.326	342.59
356.709	329.26
357.091	339.2
357.473	326.77
357.855	339.43
358.238	330.39
358.62	341.91
359.002	337.62
359.384	336.04
359.766	332.87
360.148	357.5
360.53	322.03
360.912	331.97
361.294	350.27
361.676	321.8
362.057	335.58
362.439	356.83
362.821	317.51
363.203	327.45
363.584	326.32
363.966	341.46
364.348	326.32
364.729	310.5
365.111	305.53
365.493	306.88
365.874	312.31
366.256	294.46
366.637	282.7
367.019	312.99
367.4	320.44
367.781	313.89
368.163	311.4
368.544	312.76
368.925	307.34
369.306	328.13
369.688	310.5
370.069	312.53
370.45	322.25
370.831	326.09
371.212	307.11
371.593	315.02
371.974	329.26
372.355	301.91
372.736	326.09
373.117	309.14
373.498	313.89
373.879	296.94
374.26	309.6
374.641	298.98
375.021	309.82
375.402	315.25
375.783	333.32
376.163	344.4
376.544	316.15
376.925	307.34
377.305	332.42
377.686	312.31
378.066	316.83
378.447	336.04
378.827	348.92
379.208	336.94
379.588	337.62
379.968	329.48
380.349	322.25
380.729	353.21
381.109	331.52
381.489	341.01
381.87	352.31
382.25	345.98
382.63	335.36
383.01	327.67
383.39	335.13
383.77	326.55
384.15	329.93
384.53	346.88
384.91	359.31
385.29	344.17
385.67	345.08
386.049	356.37
386.429	343.04
386.809	367.9
387.189	351.63
387.568	349.14
387.948	354.57
388.328	357.05
388.707	353.66
389.087	351.86
389.466	361.35
389.846	358.63
390.225	356.6
390.605	368.35
390.984	358.18
391.363	361.8
391.743	368.35
392.122	374.45
392.501	399.99
392.881	367.9
393.26	383.04
393.639	382.14
394.018	396.83
394.397	400.67
394.776	374
395.155	383.49
395.534	392.08
395.913	373.1
396.292	379.88
396.671	384.17
397.05	377.39
397.429	399.99
397.808	396.6
398.186	395.02
398.565	399.76
398.944	408.35
399.323	400.89
399.701	415.58
400.08	417.62
400.458	417.16
400.837	407.45
401.215	416.26
401.594	403.61
401.972	400.22
402.351	415.81
402.729	427.56
403.107	441.57
403.486	426.43
403.864	414.45
404.242	424.85
404.62	421.23
404.999	460.78
405.377	439.99
405.755	433.66
406.133	441.8
406.511	449.25
406.889	430.05
407.267	446.54
407.645	454.68
408.023	442.93
408.401	459.87
408.779	439.76
409.156	464.17
409.534	484.51
409.912	463.72
410.29	494
410.667	459.65
411.045	495.81
411.422	514.56
411.8	495.58
412.178	504.85
412.555	508.01
412.933	520.44
413.31	538.06
413.687	518.18
414.065	530.38
414.442	553.21
414.819	549.82
415.197	548.69
415.574	552.98
415.951	582.13
416.328	557.95
416.705	572.41
417.082	569.02
417.46	566.31
417.837	587.33
418.214	586.65
418.591	592.53
418.967	605.63
419.344	584.39
419.721	603.15
420.098	613.09
420.475	634.56
420.852	608.12
421.228	635.46
421.605	646.99
421.982	622.58
422.358	651.73
422.735	655.58
423.111	664.39
423.488	670.49
423.864	687.67
424.241	690.38
424.617	707.1
424.994	715.91
425.37	706.87
425.746	711.17
426.123	706.87
426.499	724.05
426.875	736.7
427.251	745.97
427.627	733.54
428.003	779.41
428.379	767.66
428.756	767.44
429.132	792.3
429.507	786.65
429.883	790.71
430.259	822.13
430.635	824.39
431.011	812.18
431.387	792.07
431.763	827.77
432.138	857.38
432.514	852.63
432.89	829.81
433.265	892.41
433.641	910.03
434.016	891.73
434.392	914.78
434.767	923.37
435.143	932.18
435.518	953.42
435.894	951.84
436.269	961.56
436.644	988
437.02	985.74
437.395	986.41
437.77	1013.76
438.145	1026.19
438.52	1041.33
438.895	1070.48
439.271	1047.88
439.646	1098.95
440.021	1079.52
440.395	1119.52
440.77	1091.04
441.145	1116.13
441.52	1141.89
441.895	1135.79
442.27	1124.04
442.645	1159.97
443.019	1136.92
443.394	1170.82
443.769	1156.81
444.143	1180.53
444.518	1211.27
444.892	1189.8
445.267	1221.66
445.641	1241.55
446.016	1243.81
446.39	1239.06
446.764	1254.43
447.139	1260.76
447.513	1273.64
447.887	1270.25
448.262	1302.56
448.636	1280.19
449.01	1287.42
449.384	1314.77
449.758	1336.69
450.132	1329.68
450.506	1371.49
450.88	1365.84
451.254	1349.8
451.628	1379.17
452.002	1432.73
452.376	1430.24
452.75	1449.68
453.123	1425.05
453.497	1454.43
453.871	1459.4
454.244	1491.71
454.618	1540.98
454.992	1534.2
455.365	1539.62
455.739	1601.99
456.112	1591.82
456.486	1606.96
456.859	1639.05
457.232	1638.83
457.606	1628.43
457.979	1642.44
458.352	1673.85
458.725	1724.02
459.099	1742.1
459.472	1790.46
459.845	1791.14
460.218	1792.04
460.591	1835.88
460.964	1831.82
461.337	1915.88
461.71	1931.47
462.083	1953.17
462.456	1938.25
462.829	1981.19
463.201	2011.47
463.574	2027.07
463.947	2085.37
464.32	2112.71
464.692	2086.27
465.065	2146.38
465.438	2187.06
465.81	2216.21
466.183	2233.84
466.555	2285.82
466.928	2266.83
467.3	2307.06
467.672	2349.32
468.045	2415.08
468.417	2440.39
468.789	2472.93
469.161	2514.74
469.534	2545.47
469.906	2618.01
470.278	2648.29
470.65	2655.98
471.022	2728.97
471.394	2824.78
471.766	2840.38
472.138	2885.57
472.51	2937.32
472.882	3005.12
473.253	3069.3
473.625	3118.34
473.997	3206.02
474.369	3215.06
474.74	3300.93
475.112	3388.39
475.484	3453.02
475.855	3482.62
476.227	3541.15
476.598	3665.44
476.97	3728.94
477.341	3789.05
477.713	3860.01
478.084	3942.04
478.455	4064.75
478.827	4112.21
479.198	4301.13
479.569	4303.84
479.94	4427.91
480.311	4494.57
480.682	4614.57
481.053	4742.25
481.424	4876.93
481.795	4937.95
482.166	5051.84
482.537	5191.95
482.908	5341.33
483.279	5363.7
483.65	5544.49
484.021	5622.45
484.391	5771.6
484.762	5861.09
485.133	5960.52
485.503	6080.52
485.874	6229.67
486.244	6363.9
486.615	6482.99
486.985	6620.39
487.356	6757.56
487.726	6850.89
488.097	7049.08
488.467	7049.31
488.837	7263.31
489.207	7400.26
489.578	7527.94
489.948	7656.07
490.318	7843.41
490.688	7950.07
491.058	8066.45
491.428	8193.68
491.798	8322.94
492.168	8520.45
492.538	8575.82
492.908	8725.42
493.278	8848.13
493.648	8929.26
494.017	9100.55
494.387	9214.9
494.757	9319.75
495.126	9468.9
495.496	9517.04
495.866	9618.73
496.235	9759.52
496.605	9836.35
496.974	9920.87
497.344	10104.59
497.713	10086.06
498.082	10218.49
498.452	10369.22
498.821	10442.21
499.19	10509.55
499.559	10651.47
499.928	10758.59
500.298	10821.64
500.667	10880.84
501.036	10929.66
501.405	10984.12
501.774	11082.19
502.143	11196.54
502.512	11194.51
502.88	11318.12
503.249	11319.93
503.618	11426.37
503.987	11407.84
504.356	11575.74
504.724	11549.3
505.093	11646.47
505.462	11750.43
505.83	11803.76
506.199	11874.26
506.567	12025.67
506.936	11989.29
507.304	12104.09
507.672	12118.33
508.041	12222.96
508.409	12230.41
508.777	12331.2
509.145	12357.42
509.514	12388.15
509.882	12468.6
510.25	12534.59
510.618	12617.3
510.986	12537.52
511.354	12619.78
511.722	12681.7
512.09	12775.03
512.458	12735.94
512.826	12926.21
513.193	12899.55
513.561	12983.84
513.929	13026.55
514.297	13099.32
514.664	13105.64
515.032	13128.47
515.4	13240.56
515.767	13161.69
516.135	13162.14
516.502	13115.36
516.869	13375.47
517.237	13305.64
517.604	13229.03
517.972	13417.95
518.339	13399.87
518.706	13412.08
519.073	13447.56
519.44	13510.83
519.808	13608.91
520.175	13504.96
520.542	13672.41
520.909	13637.61
521.276	13648.68
521.643	13715.57
522.009	13759.19
522.376	13783.14
522.743	13739.53
523.11	13797.83
523.477	13905.85
523.843	13963.47
524.21	14060.42
524.577	14080.53
524.943	14080.53
525.31	14033.76
525.676	14130.02
526.043	14239.17
526.409	14207.76
526.776	14277.59
527.142	14206.41
527.508	14190.14
527.874	14232.17
528.241	14254.54
528.607	14262.45
528.973	14325.27
529.339	14142.9
529.705	14348.32
530.071	14333.63
530.437	14267.42
530.803	14359.85
531.169	14335.22
531.535	14302.67
531.901	14268.78
532.267	14254.54
532.632	14291.83
532.998	14311.04
533.364	14290.25
533.73	14278.72
534.095	14215.67
534.461	14265.39
534.826	14299.96
535.192	14226.74
535.557	14325.05
535.923	14163.92
536.288	14177.03
536.653	14160.08
537.019	14100.42
537.384	14074.66
537.749	14080.53
538.114	14055
538.479	13943.81
538.845	14025.17
539.21	13911.27
539.575	13886.64
539.94	13870.6
540.305	13905.4
540.67	13724.38
541.034	13802.35
541.399	13760.54
541.764	13662.01
542.129	13719.87
542.494	13557.61
542.858	13577.5
543.223	13538.85
543.587	13582.02
543.952	13520.55
544.316	13502.92
544.681	13419.31
545.045	13459.76
545.41	13384.73
545.774	13400.33
546.138	13339.99
546.503	13324.17
546.867	13217.05
547.231	13240.33
547.595	13222.03
547.959	13181.12
548.324	13115.14
548.688	13069.49
549.052	13054.57
549.416	12975.7
549.779	12969.6
550.143	12947.23
550.507	12956.04
550.871	12913.11
551.235	12873.11
551.599	12857.06
551.962	12829.95
552.326	12759.66
552.689	12776.61
553.053	12689.16
553.417	12690.51
553.78	12748.59
554.143	12613.91
554.507	12644.64
554.87	12681.47
555.234	12613.68
555.597	12633.79
555.96	12610.97
556.323	12528.03
556.686	12500.69
557.05	12545.21
557.413	12584.3
557.776	12439.9
558.139	12610.97
558.502	12401.26
558.865	12488.71
559.228	12522.61
559.59	12505.89
559.953	12470.63
560.316	12513.57
560.679	12419.56
561.041	12496.17
561.404	12506.34
561.767	12545.66
562.129	12294.14
562.492	12436.96
562.854	12454.59
563.217	12381.37
563.579	12438.99
563.941	12515.38
564.304	12481.71
564.666	12478.09
565.028	12441.93
565.39	12465.43
565.753	12554.92
566.115	12589.27
566.477	12535.72
566.839	12561.03
567.201	12583.85
567.563	12609.16
567.925	12594.02
568.287	12570.52
568.648	12451.65
569.01	12626.79
569.372	12651.87
569.734	12606.67
570.095	12727.8
570.457	12694.58
570.819	12623.17
571.18	12584.98
571.542	12676.05
571.903	12667.01
572.265	12713.79
572.626	12701.81
572.987	12696.84
573.349	12692.1
573.71	12748.59
574.071	12749.04
574.432	12733.45
574.794	12802.15
575.155	12716.5
575.516	12687.35
575.877	12750.4
576.238	12760.12
576.599	12883.96
576.96	12787.69
577.32	12775.26
577.681	12786.56
578.042	12935.93
578.403	12742.04
578.763	12814.35
579.124	12751.3
579.485	12823.62
579.845	12826.33
580.206	12822.26
580.566	12779.78
580.927	12744.98
581.287	12812.77
581.648	12808.02
582.008	12836.95
582.368	12833.33
582.728	12801.7
583.089	12764.41
583.449	12729.16
583.809	12764.64
584.169	12766.44
584.529	12672.66
584.889	12843.73
585.249	12655.26
585.609	12659.33
585.969	12747.69
586.329	12676.95
586.688	12718.08
587.048	12653
587.408	12602.38
587.768	12566.68
588.127	12586.79
588.487	12557.41
588.846	12650.06
589.206	12616.62
589.565	12545.88
589.925	12615.94
590.284	12562.61
590.643	12626.56
591.003	12607.8
591.362	12645.77
591.721	12598.99
592.08	12505.66
592.44	12547.01
592.799	12539.33
593.158	12522.16
593.517	12529.16
593.876	12517.41
594.235	12489.16
594.593	12525.32
594.952	12538.2
595.311	12402.39
595.67	12492.78
596.029	12501.14
596.387	12511.08
596.746	12508.82
597.104	12487.81
597.463	12460.01
597.822	12463.18
598.18	12493
598.538	12360.58
598.897	12481.48
599.255	12375.72
599.613	12504.53
599.972	12447.13
600.33	12418.43
600.688	12377.53
601.046	12477.19
601.404	12464.53
601.762	12431.09
602.12	12504.53
602.478	12530.52
602.836	12507.24
603.194	12381.6
603.552	12437.19
603.91	12413.23
604.268	12481.71
604.625	12340.69
604.983	12429.28
605.341	12338.66
605.698	12464.76
606.056	12463.63
606.413	12410.07
606.771	12430.18
607.128	12436.96
607.485	12440.58
607.843	12401.93
608.2	12444.64
608.557	12475.15
608.914	12446
609.272	12503.17
609.629	12604.64
609.986	12576.62
610.343	12502.27
610.7	12578.88
611.057	12527.58
611.414	12553.12
611.771	12508.6
612.127	12608.71
612.484	12573.91
612.841	12620.91
613.198	12507.92
613.554	12558.09
613.911	12700.23
614.267	12683.96
614.624	12606.45
614.98	12649.61
615.337	12694.13
615.693	12634.02
616.05	12697.52
616.406	12721.7
616.762	12623.17
617.118	12679.21
617.475	12681.47
617.831	12746.78
618.187	12778.42
618.543	12670.4
618.899	12784.97
619.255	12768.25
619.611	12811.19
619.967	12774.13
620.323	12802.83
620.678	12712.66
621.034	12745.43
621.39	12799.21
621.746	12674.24
622.101	12863.16
622.457	12709.72
622.812	12805.54
623.168	12860.45
623.523	12782.49
623.879	12811.87
624.234	12747.24
624.589	12758.99
624.945	12763.73
625.3	12764.41
625.655	12746.11
626.01	12833.79
626.365	12685.54
626.72	12730.29
627.075	12838.31
627.43	12732.09
627.785	12763.51
628.14	12772.77
628.495	12730.06
628.85	12776.39
629.205	12692.1
629.559	12787.46
629.914	12668.37
630.269	12759.89
630.623	12771.42
630.978	12792.88
631.332	12763.51
631.687	12720.12
632.041	12622.72
632.396	12716.95
632.75	12546.79
633.104	12643.74
633.459	12544.98
633.813	12552.89
634.167	12585.21
634.521	12572.32
634.875	12541.14
635.229	12530.74
635.583	12450.52
635.937	12434.02
636.291	12427.92
636.645	12413.91
636.999	12452.78
637.352	12509.05
637.706	12409.62
638.06	12380.69
638.413	12422.5
638.767	12407.58
639.121	12359.45
639.474	12284.65
639.828	12364.65
640.181	12345.89
640.534	12344.76
640.888	12310.41
641.241	12246.68
641.594	12327.13
641.947	12307.7
642.301	12274.25
642.654	12254.59
643.007	12236.74
643.36	12230.41
643.713	12274.48
644.066	12248.49
644.419	12129.4
644.771	12036.97
645.124	12007.14
645.477	11977.76
645.83	11862.96
646.182	11870.2
646.535	11828.62
646.888	11864.55
647.24	11788.16
647.593	11815.28
647.945	11811.21
648.298	11673.82
648.65	11718.11
649.002	11763.53
649.355	11780.03
649.707	11842.4
650.059	11794.94
650.411	12031.1
650.763	12024.54
651.115	12119.46
651.467	12031.32
651.819	12062.96
652.171	11990.42
652.523	12043.3
652.875	11947.71
653.227	11978.22
653.578	12128.95
653.93	12103.18
654.282	12006.01
654.633	11976.41
654.985	12013.47
655.337	12110.64
655.688	12049.85
656.039	12066.12
656.391	12007.82
656.742	12036.07
657.094	12042.62
657.445	12115.39
657.796	12079.91
658.147	12086.24
658.498	12070.19
658.849	12062.96
659.2	12062.73
659.551	12037.65
659.902	12049.17
660.253	12041.49
660.604	12098.66
660.955	12048.95
661.306	12028.38
661.656	12070.64
662.007	12109.29
662.358	12095.28
662.708	12169.85
663.059	12098.89
663.409	12039.23
663.76	12136.86
664.11	12159
664.461	12169.85
664.811	12122.62
665.161	12111.32
665.511	12122.17
665.862	12134.14
666.212	12132.11
666.562	12116.07
666.912	12121.26
667.262	12095.5
667.612	12161.71
667.962	12245.55
668.312	12100.02
668.662	12199.68
669.011	12109.96
669.361	12099.57
669.711	12144.54
670.06	12057.08
670.41	12081.26
670.76	12132.56
671.109	12103.18
671.459	12110.87
671.808	12051.21
672.157	12047.59
672.507	12016.63
672.856	11999.01
673.205	12027.93
673.554	12044.66
673.904	12044.88
674.253	12040.14
674.602	12044.66
674.951	11856.86
675.3	11786.81
675.649	12023.64
675.998	11985.22
676.346	11920.59
676.695	11988.39
677.044	11916.97
677.393	11888.5
677.741	11952.68
678.09	11862.96
678.438	11849.41
678.787	11892.12
679.135	11785.68
679.484	11809.86
679.832	11818.9
680.181	11727.83
680.529	11789.29
680.877	11714.72
681.225	11749.3
681.573	11843.08
681.922	11639.47
682.27	11635.85
682.618	11582.52
682.966	11582.75
683.314	11675.85
683.661	11593.37
684.009	11527.83
684.357	11554.05
684.705	11516.08
685.053	11441.51
685.4	11468.62
685.748	11322.87
686.095	11349.98
686.443	11371
686.79	11367.84
687.138	11328.29
687.485	11362.87
687.832	11240.83
688.18	11364.45
688.527	11241.06
688.874	11251
689.221	11174.4
689.568	11114.06
689.915	11127.84
690.262	11133.49
690.609	11020.95
690.956	10977.11
691.303	11022.99
691.65	10895.31
691.997	10893.5
692.344	10810.11
692.69	10826.83
693.037	10814.63
693.383	10761.98
693.73	10832.94
694.077	10738.7
694.423	10651.25
694.769	10594.07
695.116	10590
695.462	10570.12
695.808	10506.39
696.155	10556.78
696.501	10436.56
696.847	10492.61
697.193	10364.93
697.539	10454.64
697.885	10283.35
698.231	10264.14
698.577	10242.67
698.923	10226.85
699.269	10231.6
699.614	10138.49
699.96	10166.96
700.306	10048.78
700.651	10023.92
700.997	10054.2
701.342	9946.63
701.688	9936.91
702.033	9935.11
702.379	9867.54
702.724	9901.21
703.069	9838.61
703.415	9770.14
703.76	9666.41
704.105	9713.42
704.45	9689.01
704.795	9605.85
705.14	9581.67
705.485	9564.49
705.83	9487.21
706.175	9567.66
706.52	9477.72
706.865	9500.32
707.209	9463.03
707.554	9368.12
707.899	9382.58
708.243	9347.78
708.588	9333.77
708.932	9299.19
709.277	9335.57
709.621	9274.11
709.966	9243.6
710.31	9203.83
710.654	9096.03
710.998	9133.09
711.342	9104.17
711.687	9077.73
712.031	9052.19
712.375	9051.97
712.719	9042.25
713.063	8975.81
713.407	9015.58
713.75	8993.66
714.094	8976.94
714.438	8924.06
714.782	8958.18
715.125	8878.18
715.469	8950.95
715.812	8913.21
716.156	8798.86
716.499	8848.81
716.843	8835.93
717.186	8775.81
717.53	8792.09
717.873	8780.56
718.216	8797.06
718.559	8767.45
718.902	8757.06
719.246	8761.58
719.589	8732.88
719.932	8732.65
720.275	8645.87
720.617	8633.45
720.96	8664.86
721.303	8652.65
721.646	8662.6
721.989	8615.59
722.331	8609.72
722.674	8595.25
723.016	8616.04
723.359	8463.73
723.701	8592.54
724.044	8541.24
724.386	8587.8
724.729	8567.01
725.071	8542.83
725.413	8481.81
725.755	8525.43
726.097	8474.13
726.439	8427.35
726.782	8398.2
727.124	8513.45
727.465	8464.41
727.807	8417.86
728.149	8444.07
728.491	8453.56
728.833	8430.06
729.175	8457.86
729.516	8398.88
729.858	8468.48
730.199	8430.96
730.541	8422.83
730.882	8437.29
731.224	8420.57
731.565	8332.21
731.906	8444.75
732.248	8407.69
732.589	8431.19
732.93	8414.02
733.271	8408.82
733.612	8372.66
733.953	8451.98
734.294	8431.19
734.635	8346.45
734.976	8435.48
735.317	8392.77
735.658	8391.87
735.999	8437.29
736.339	8407.01
736.68	8437.97
737.021	8379.89
737.361	8432.32
737.702	8493.11
738.042	8406.11
738.383	8482.94
738.723	8437.29
739.063	8466.44
739.404	8492.66
739.744	8475.94
740.084	8460.34
740.424	8456.73
740.764	8513.45
741.104	8533.33
741.444	8486.56
741.784	8575.37
742.124	8611.75
742.464	8594.35
742.804	8553.9
743.143	8602.03
743.483	8716.61
743.823	8630.06
744.162	8662.37
744.502	8766.78
744.841	8769.03
745.181	8829.6
745.52	8797.96
745.86	8843.61
746.199	8891.29
746.538	8824.85
746.877	8944.62
747.216	8998.86
747.556	9001.57
747.895	9086.54
748.234	9131.96
748.573	9182.81
748.911	9227.33
749.25	9284.73
749.589	9329.7
749.928	9404.27
750.267	9533.08
750.605	9571.95
750.944	9576.47
751.283	9674.55
751.621	9845.84
751.96	9832.06
752.298	9859.4
752.636	10091.94
752.975	10101.88
753.313	10193.63
753.651	10305.94
753.989	10396.79
754.327	10446.5
754.666	10603.56
755.004	10805.59
755.342	10892.37
755.679	11085.13
756.017	11050.56
756.355	11279.03
756.693	11433.37
757.031	11601.95
757.368	11656.42
757.706	11788.39
758.044	11956.3
758.381	12180.02
758.719	12240.13
759.056	12535.72
759.394	12650.29
759.731	12777.07
760.068	12905.2
760.405	13065.42
760.743	13185.87
761.08	13411.4
761.417	13554.22
761.754	13798.28
762.091	13919.86
762.428	14025.62
762.765	14109.23
763.102	14384.03
763.438	14624.7
763.775	14649.78
764.112	14791.7
764.449	14971.36
764.785	15189.66
765.122	15250.45
765.458	15423.32
765.795	15581.29
766.131	15703.32
766.467	15959.81
766.804	15961.39
767.14	16126.58
767.476	16215.39
767.812	16356.41
768.148	16558.89
768.485	16677.98
768.821	16741.48
769.157	16948.25
769.492	17055.82
769.828	17256.04
770.164	17203.16
770.5	17369.49
770.836	17475.47
771.171	17538.52
771.507	17653.32
771.842	17715.24
772.178	17789.14
772.513	17981.9
772.849	18015.35
773.184	17940.09
773.519	18222.8
773.855	18230.93
774.19	18181.67
774.525	18342.79
774.86	18430.93
775.195	18512.51
775.53	18559.74
775.865	18519.51
776.2	18505.28
776.535	18499.17
776.87	18570.81
777.205	18639.74
777.539	18688.32
777.874	18858.26
778.209	18667.76
778.543	18773.74
778.878	18740.3
779.212	18900.52
779.547	18809.22
779.881	19014.64
780.215	18912.95
780.55	19031.36
780.884	18895.77
781.218	19043.12
781.552	18999.5
781.886	19016.22
782.22	19037.47
782.554	18976.68
782.888	18860.07
783.222	18935.55
783.556	18792.73
783.889	18887.19
784.223	18717.02
784.557	18699.4
784.89	18791.14
785.224	18727.64
785.557	18663.01
785.891	18736.68
786.224	18691.03
786.558	18698.27
786.891	18629.34
787.224	18590.7
787.557	18541.21
787.891	18510.93
788.224	18601.54
788.557	18677.02
788.89	18581.43
789.223	18563.35
789.556	18519.51
789.888	18406.97
790.221	18442.23
790.554	18392.51
790.887	18409.91
791.219	18301.44
791.552	18326.07
791.884	18285.85
792.217	18345.05
792.549	18195.45
792.882	18173.31
793.214	17968.57
793.546	18156.81
793.879	18073.65
794.211	17936.48
794.543	18050.6
794.875	17982.13
795.207	18029.36
795.539	18041.11
795.871	18058.96
796.203	17774.45
796.535	17777.39
796.867	17734.45
797.198	17694.9
797.53	17719.76
797.862	17599.54
798.193	17693.32
798.525	17564.06
798.856	17547.56
799.188	17421.24
799.519	17361.58
799.85	17264.63
800.182	17378.98
800.513	17287.23
800.844	17224.18
801.175	17253.11
801.506	17246.1
801.837	17155.71
802.168	17034.81
802.499	17093.11
802.83	16979.89
803.161	16989.38
803.491	16924.3
803.822	17055.14
804.153	16837.98
804.483	16849.73
804.814	16736.51
805.145	16770.41
805.475	16718.43
805.805	16671.43
806.136	16772.89
806.466	16670.75
806.796	16662.16
807.126	16408.16
807.457	16481.15
807.787	16446.8
808.117	16322.96
808.447	16327.48
808.777	16390.08
809.107	16315.73
809.436	16241.38
809.766	16220.82
810.096	16246.35
810.426	16132.23
810.755	16176.98
811.085	16140.37
811.414	16099.46
811.744	15988.73
812.073	15968.85
812.403	16047.26
812.732	15880.03
813.061	15958.45
813.39	15809.98
813.719	15857.89
814.049	15941.05
814.378	15765.46
814.707	15693.37
815.036	15725.46
815.365	15676.2
815.693	15532.25
816.022	15630.1
816.351	15580.16
816.68	15493.15
817.008	15461.97
817.337	15431.23
817.665	15361.18
817.994	15365.47
818.322	15387.84
818.651	15286.6
818.979	15199.83
819.307	15351.69
819.636	15226.49
819.964	15191.69
820.292	15261.97
820.62	15270.11
820.948	15183.33
821.276	15231.92
821.604	15190.34
821.932	15141.75
822.259	15275.08
822.587	15134.29
822.915	15169.54
823.243	15223.1
823.57	15190.34
823.898	15090
824.225	15153.95
824.553	15181.3
824.88	15153.5
825.207	15223.78
825.535	15118.7
825.862	15195.53
826.189	15151.92
826.516	15252.93
826.843	15217.68
827.17	15128.64
827.497	15228.3
827.824	15209.77
828.151	15192.14
828.478	15232.82
828.805	15246.83
829.131	15158.47
829.458	15236.44
829.785	15241.18
830.111	15180.39
830.438	15181.07
830.764	15168.87
831.09	15237.11
831.417	15186.95
831.743	15237.57
832.069	15263.1
832.395	15127.96
832.722	15213.84
833.048	15180.17
833.374	15186.49
833.7	15181.97
834.026	15093.84
834.351	15083.67
834.677	15071.02
835.003	14978.36
835.329	15054.75
835.654	15078.93
835.98	14941.98
836.306	14945.37
836.631	14979.04
836.956	15076.44
837.282	14957.12
837.607	14917.35
837.932	14886.39
838.258	14963.9
838.583	14865.15
838.908	14782.44
839.233	14787.18
839.558	14822.44
839.883	14681.42
840.208	14730.23
840.533	14656.56
840.858	14646.17
841.182	14682.1
841.507	14668.77
841.832	14624.02
842.156	14540.86
842.481	14558.26
842.805	14483.01
843.13	14497.47
843.454	14437.13
843.778	14397.81
844.103	14298.61
844.427	14382.9
844.751	14428.77
845.075	14232.17
845.399	14264.03
845.723	14212.73
846.047	14170.93
846.371	14094.54
846.695	14089.8
847.019	13964.15
847.343	13972.51
847.666	13911.5
847.99	13761.9
848.313	13867.43
848.637	13709.47
848.96	13634.9
849.284	13557.84
849.607	13528.01
849.931	13483.04
850.254	13502.47
850.577	13338.86
850.9	13307.45
851.223	13225.87
851.546	13151.29
851.869	13036.27
852.192	13157.17
852.515	13079.88
852.838	13038.3
853.161	13036.72
853.483	12948.36
853.806	12829.95
854.129	12838.31
854.451	12813.22
854.774	12739.33
855.096	12774.58
855.419	12714.47
855.741	12624.3
856.063	12584.08
856.385	12578.65
856.708	12556.73
857.03	12509.5
857.352	12438.77
857.674	12435.15
857.996	12325.78
858.318	12316.96
858.64	12400.58
858.961	12251.88
859.283	12255.5
859.605	12202.62
859.926	12249.85
860.248	12132.79
860.57	12136.63
860.891	12143.86
861.212	12112.68
861.534	11949.97
861.855	12015.28
862.176	12036.29
862.498	11973.24
862.819	11943.41
863.14	11910.42
863.461	11862.06
863.782	11826.81
864.103	11918.33
864.424	11793.81
864.745	11811.21
865.065	11780.71
865.386	11750.88
865.707	11717.88
866.027	11693.48
866.348	11681.05
866.668	11670.2
866.989	11647.83
867.309	11575.06
867.63	11593.82
867.95	11637.89
868.27	11509.98
868.59	11546.82
868.91	11524.44
869.23	11447.83
869.55	11474.73
869.87	11491.22
870.19	11481.96
870.51	11381.85
870.83	11410.77
871.15	11426.82
871.469	11398.57
871.789	11409.64
872.109	11414.62
872.428	11250.33
872.748	11351.79
873.067	11312.7
873.386	11297.56
873.706	11240.16
874.025	11218.69
874.344	11154.28
874.663	11264.79
874.982	11129.65
875.301	11192.47
875.62	11191.12
875.939	11128.29
876.258	11077
876.577	11098.69
876.896	11156.99
877.214	11049.88
877.533	11051.69
877.852	11039.26
878.17	10973.27
878.489	11056.88
878.807	10994.29
879.125	10966.94
879.444	10911.35
879.762	10878.36
880.08	10866.38
880.398	10881.3
880.716	10891.92
881.034	10845.82
881.352	10792.03
881.67	10761.98
881.988	10769.43
882.306	10739.38
882.624	10738.25
882.941	10709.32
883.259	10681.53
883.577	10651.7
883.894	10656.67
884.212	10656.89
884.529	10559.27
884.846	10537.8
885.164	10549.1
885.481	10459.16
885.798	10486.73
886.115	10447.63
886.432	10392.5
886.75	10381.87
887.067	10352.5
887.383	10302.78
887.7	10336.9
888.017	10341.65
888.334	10293.29
888.651	10294.64
888.967	10267.3
889.284	10177.59
889.6	10146.85
889.917	10112.73
890.233	10137.59
890.55	10067.76
890.866	10031.15
891.182	9971.49
891.498	9952.96
891.815	9937.82
892.131	9942.56
892.447	9889.23
892.763	9840.65
893.079	9866.63
893.395	9832.74
893.71	9784.15
894.026	9792.06
894.342	9675.9
894.657	9691.72
894.973	9631.84
895.289	9674.77
895.604	9580.99
895.92	9535.79
896.235	9482.69
896.55	9473.2
896.865	9459.64
897.181	9409.7
897.496	9431.16
897.811	9302.58
898.126	9304.84
898.441	9286.08
898.756	9265.97
899.071	9153.66
899.386	9163.6
899.7	9085.86
900.015	9069.59
900.33	9072.76
900.644	9008.12
900.959	9045.64
901.273	8989.14
901.588	8941.91
901.902	8837.51
902.216	8859.65
902.531	8824.17
902.845	8832.08
903.159	8741.01
903.473	8751.63
903.787	8718.19
904.101	8642.26
904.415	8680.45
904.729	8621.92
905.042	8582.83
905.356	8583.28
905.67	8524.52
905.984	8540.57
906.297	8497.4
906.611	8387.8
906.924	8384.86
907.237	8423.73
907.551	8355.03
907.864	8261.03
908.177	8289.95
908.491	8294.25
908.804	8189.84
909.117	8239.11
909.43	8109.39
909.743	8088.37
910.056	8080.47
910.368	8049.73
910.681	7961.82
910.994	7980.13
911.307	7946.23
911.619	7875.95
911.932	7880.7
912.244	7862.84
912.557	7813.81
912.869	7796.63
913.181	7789.63
913.494	7713.92
913.806	7619.01
914.118	7636.86
914.43	7599.57
914.742	7558.67
915.054	7564.55
915.366	7501.5
915.678	7463.53
915.99	7463.53
916.302	7373.82
916.613	7357.77
916.925	7367.94
917.236	7334.5
917.548	7298.79
917.859	7263.99
918.171	7243.2
918.482	7141.06
918.794	7139.7
919.105	7208.62
919.416	7156.2
919.727	7096.76
920.038	7053.83
920.349	7059.25
920.66	6987.84
920.971	6985.58
921.282	6982.42
921.593	6898.58
921.903	6878.01
922.214	6863.1
922.525	6828.97
922.835	6816.77
923.146	6816.77
923.456	6764.12
923.767	6779.26
924.077	6680.5
924.387	6618.81
924.697	6617.68
925.008	6637.11
925.318	6595.08
925.628	6623.55
925.938	6551.92
926.248	6469.66
926.558	6498.81
926.867	6483.22
927.177	6442.54
927.487	6347.86
927.796	6382.66
928.106	6327.97
928.416	6368.87
928.725	6337.46
929.034	6272.83
929.344	6287.74
929.653	6257.24
929.962	6158.71
930.271	6132.95
930.581	6117.81
930.89	6099.95
931.199	6072.38
931.508	6053.85
931.817	6053.17
932.125	6021.76
932.434	6018.82
932.743	5942.22
933.051	5900.18
933.36	5907.64
933.669	5858.83
933.977	5857.02
934.286	5780.64
934.594	5832.84
934.902	5766.4
935.21	5799.4
935.519	5753.07
935.827	5718.27
936.135	5685.5
936.443	5587.42
936.751	5621.77
937.059	5660.64
937.367	5635.78
937.674	5598.95
937.982	5523.47
938.29	5550.81
938.597	5502.91
938.905	5432.63
939.213	5446.41
939.52	5411.16
939.827	5415.9
940.135	5410.48
940.442	5377.26
940.749	5347.88
941.056	5328.67
941.363	5264.72
941.67	5313.53
941.977	5243.03
942.284	5229.47
942.591	5214.55
942.898	5172.29
943.205	5181.56
943.511	5153.08
943.818	5159.64
944.125	5030.83
944.431	5061.79
944.738	5045.97
945.044	5051.62
945.35	4994.44
945.657	4999.64
945.963	4987.44
946.269	4961.23
946.575	4977.5
946.881	4916.71
947.187	4913.32
947.493	4837.61
947.799	4905.18
948.105	4869.93
948.41	4781.8
948.716	4810.49
949.022	4790.83
949.327	4759.65
949.633	4663.61
949.938	4700.89
950.244	4754.68
950.549	4646.21
950.854	4654.11
951.16	4624.51
951.465	4635.58
951.77	4599.2
952.075	4571.63
952.38	4532.99
952.685	4546.77
952.99	4491.41
953.294	4469.49
953.599	4511.75
953.904	4480.79
954.209	4442.14
954.513	4438.53
954.818	4352.88
955.122	4412.31
955.426	4367.57
955.731	4328.47
956.035	4300.9
956.339	4280.11
956.643	4283.28
956.948	4238.08
957.252	4249.61
957.556	4248.7
957.86	4216.84
958.163	4183.17
958.467	4161.02
958.771	4182.49
959.075	4149.5
959.378	4114.24
959.682	4122.6
959.985	4083.28
960.289	4039.44
960.592	4052.55
960.896	4035.83
961.199	4037.41
961.502	3998.54
961.805	3956.96
962.108	3939.78
962.411	3937.07
962.714	3909.73
963.017	3890.29
963.32	3858.43
963.623	3881.03
963.926	3836.51
964.228	3839.22
964.531	3773.46
964.833	3791.99
965.136	3792.44
965.438	3747.25
965.741	3721.71
966.043	3745.66
966.345	3712.67
966.648	3685.55
966.95	3699.11
967.252	3676.29
967.554	3666.34
967.856	3643.07
968.158	3614.14
968.46	3603.75
968.761	3618.89
969.063	3603.07
969.365	3579.79
969.666	3589.28
969.968	3486.46
970.269	3506.57
970.571	3522.17
970.872	3470.87
971.174	3441.27
971.475	3467.25
971.776	3462.28
972.077	3420.48
972.378	3403.53
972.679	3408.95
972.98	3372.79
973.281	3365.34
973.582	3384.32
973.883	3335.73
974.183	3360.14
974.484	3320.14
974.785	3320.82
975.085	3290.99
975.386	3292.79
975.686	3270.2
975.986	3272.68
976.287	3267.94
976.587	3202.18
976.887	3219.35
977.187	3162.18
977.487	3172.12
977.787	3157.21
978.087	3157.66
978.387	3118.11
978.687	3147.94
978.987	3123.99
979.286	3072.46
979.586	3054.61
979.885	3048.73
980.185	2993.14
980.484	3030.88
980.784	3022.52
981.083	3009.19
981.382	3016.42
981.682	2999.7
981.981	2933.93
982.28	2954.5
982.579	2900.49
982.878	2949.98
983.177	2921.28
983.475	2895.29
983.774	2896.65
984.073	2866.59
984.372	2849.42
984.67	2874.95
984.969	2836.31
985.267	2812.36
985.566	2803.32
985.864	2806.71
986.162	2786.14
986.461	2768.51
986.759	2750.89
987.057	2695.3
987.355	2752.02
987.653	2715.63
987.951	2718.57
988.249	2714.73
988.547	2690.78
988.844	2667.5
989.142	2624.79
989.44	2644.22
989.737	2621.17
990.035	2631.12
990.332	2578.46
990.63	2613.26
990.927	2601.74
991.224	2574.4
991.521	2552.7
991.819	2555.41
992.116	2542.53
992.413	2498.24
992.71	2504.79
993.006	2481.29
993.303	2498.24
993.6	2492.59
993.897	2455.3
994.193	2455.08
994.49	2431.35
994.787	2432.25
995.083	2464.57
995.379	2408.52
995.676	2361.07
995.972	2402.65
996.268	2343.67
996.565	2330.33
996.861	2336.89
997.157	2303.44
997.453	2317.23
997.749	2290.11
998.044	2304.12
998.34	2297.57
998.636	2305.25
998.932	2266.38
999.227	2256.66
999.523	2253.27
999.818	2237.23
1000.114	2227.74
1000.409	2200.85
1000.704	2174.63
1001	2201.3
1001.295	2172.6
1001.59	2138.25
1001.885	2157.01
1002.18	2137.12
1002.475	2097.12
1002.77	2119.94
1003.065	2114.75
1003.359	2086.5
1003.654	2078.59
1003.949	2091.24
1004.243	2057.57
1004.538	2081.08
1004.832	2055.77
1005.127	2023.22
1005.421	2008.31
1005.715	2003.79
1006.009	1985.94
1006.304	1972.6
1006.598	1947.07
1006.892	1964.24
1007.186	1955.88
1007.48	1925.15
1007.773	1901.19
1008.067	1878.14
1008.361	1918.14
1008.655	1874.08
1008.948	1916.79
1009.242	1875.66
1009.535	1864.13
1009.829	1847.86
1010.122	1850.12
1010.415	1844.92
1010.708	1800.18
1011.001	1794.08
1011.295	1795.43
1011.588	1797.01
1011.881	1774.42
1012.173	1776.68
1012.466	1764.7
1012.759	1753.17
1013.052	1746.17
1013.344	1736.9
1013.637	1722.44
1013.93	1695.55
1014.222	1693.29
1014.514	1683.12
1014.807	1689.22
1015.099	1656
1015.391	1663.46
1015.683	1625.72
1015.976	1660.97
1016.268	1593.86
1016.56	1613.74
1016.851	1601.99
1017.143	1587.53
1017.435	1584.14
1017.727	1573.97
1018.018	1544.37
1018.31	1549.56
1018.602	1533.74
1018.893	1552.73
1019.185	1513.18
1019.476	1528.32
1019.767	1482.22
1020.058	1472.96
1020.35	1456.68
1020.641	1471.37
1020.932	1443.58
1021.223	1456.23
1021.514	1458.72
1021.804	1403.58
1022.095	1441.54
1022.386	1414.65
1022.677	1415.1
1022.967	1432.05
1023.258	1394.09
1023.548	1383.01
1023.839	1373.3
1024.129	1356.8
1024.419	1349.8
1024.709	1338.04
1025	1349.12
1025.29	1325.84
1025.58	1318.61
1025.87	1317.03
1026.16	1291.72
1026.449	1298.04
1026.739	1300.98
1027.029	1297.14
1027.319	1247.42
1027.608	1291.72
1027.898	1270.93
1028.187	1251.27
1028.477	1267.09
1028.766	1216.92
1029.055	1227.31
1029.344	1200.87
1029.634	1217.37
1029.923	1176.01
1030.212	1192.29
1030.501	1155.9
1030.79	1185.28
1031.078	1197.26
1031.367	1160.2
1031.656	1138.5
1031.945	1152.06
1032.233	1139.86
1032.522	1145.05
1032.81	1121.55
1033.099	1099.41
1033.387	1125.85
1033.675	1097.82
1033.963	1107.09
1034.251	1091.95
1034.54	1090.82
1034.828	1069.58
1035.116	1072.29
1035.403	1046.3
1035.691	1046.98
1035.979	1039.07
1036.267	1046.07
1036.554	1027.32
1036.842	1024.61
1037.129	1003.14
1037.417	1010.59
1037.704	1010.82
1037.992	998.17
1038.279	1008.34
1038.566	985.28
1038.853	985.28
1039.14	985.28
