Data from hue_230_FLMS001491_00070.txt Node
Date: Tue Feb 07 16:37:36 GMT 2017
User: dcchb
Spectrometer: FLMS00149
Trigger mode: 0
Integration Time (sec): 2.000000E-2
Scans to average: 10
Electric dark correction enabled: true
Nonlinearity correction enabled: false
Boxcar width: 0
XAxis mode: Wavelengths
Number of Pixels in Spectrum: 2048
>>>>>Begin Spectral Data<<<<<
341.393	-15.32
341.776	-15.32
342.16	-15.32
342.543	-33.86
342.927	-69.56
343.31	-81.99
343.693	-75.89
344.077	-53.06
344.46	-60.97
344.843	-60.07
345.226	-52.39
345.61	-26.17
345.993	-5.16
346.376	-23.69
346.759	20.15
347.142	32.13
347.525	54.73
347.908	54.5
348.291	60.38
348.674	109.19
349.057	108.29
349.44	118.23
349.823	154.84
350.206	141.28
350.588	185.8
350.971	206.59
351.354	201.84
351.737	224.67
352.119	249.53
352.502	239.81
352.884	271
353.267	274.84
353.65	278.68
354.032	298.34
354.414	282.29
354.797	313.03
355.179	311.22
355.562	314.84
355.944	321.16
356.326	318.68
356.709	319.36
357.091	326.14
357.473	321.39
357.855	329.98
358.238	339.47
358.62	338.56
359.002	348.73
359.384	331.11
359.766	309.64
360.148	326.36
360.53	339.92
360.912	308.28
361.294	341.05
361.676	303.31
362.057	307.83
362.439	304.44
362.821	314.84
363.203	304.22
363.584	305.35
363.966	306.02
364.348	310.54
364.729	301.28
365.111	293.37
365.493	301.96
365.874	299.24
366.256	307.6
366.637	323.42
367.019	307.83
367.4	304.89
367.781	304.44
368.163	301.05
368.544	304.44
368.925	307.15
369.306	317.77
369.688	313.48
370.069	295.18
370.45	282.07
370.831	304.22
371.212	286.36
371.593	287.49
371.974	315.51
372.355	298.57
372.736	303.31
373.117	307.38
373.498	290.66
373.879	301.05
374.26	293.59
374.641	303.99
375.021	290.88
375.402	307.38
375.783	308.28
376.163	287.49
376.544	306.47
376.925	320.94
377.305	329.98
377.686	332.24
378.066	309.64
378.447	336.53
378.827	298.34
379.208	311.22
379.588	325.68
379.968	325.91
380.349	318.68
380.729	334.95
381.109	324.55
381.489	322.75
381.87	322.52
382.25	337.66
382.63	341.95
383.01	328.4
383.39	343.76
383.77	342.41
384.15	360.94
384.53	324.33
384.91	323.65
385.29	319.13
385.67	338.11
386.049	359.81
386.429	345.34
386.809	307.15
387.189	329.98
387.568	337.43
387.948	345.8
388.328	356.64
388.707	349.64
389.087	350.99
389.466	346.7
389.846	353.48
390.225	355.51
390.605	356.64
390.984	341.5
391.363	363.87
391.743	344.67
392.122	381.95
392.501	362.52
392.881	362.97
393.26	363.65
393.639	349.19
394.018	399.35
394.397	357.1
394.776	382.86
395.155	365.91
395.534	366.59
395.913	367.26
396.292	369.52
396.671	371.11
397.05	400.48
397.429	377.21
397.808	386.47
398.186	390.31
398.565	385.12
398.944	392.35
399.323	408.85
399.701	389.41
400.08	376.3
400.458	379.92
400.837	409.07
401.215	399.35
401.594	392.12
401.972	396.64
402.351	399.81
402.729	411.56
403.107	429.64
403.486	420.37
403.864	407.26
404.242	416.98
404.62	417.21
404.999	415.85
405.377	430.09
405.755	423.53
406.133	432.12
406.511	452.23
406.889	445
407.267	455.62
407.645	449.3
408.023	472.57
408.401	462.18
408.779	454.27
409.156	467.6
409.534	478.22
409.912	488.17
410.29	477.54
410.667	501.27
411.045	484.55
411.422	533.36
411.8	506.02
412.178	508.28
412.555	515.74
412.933	514.38
413.31	544.66
413.687	524.77
414.065	545.11
414.442	563.19
414.819	544.66
415.197	553.93
415.574	581.27
415.951	565.23
416.328	584.89
416.705	588.28
417.082	573.59
417.46	585.79
417.837	609.97
418.214	604.77
418.591	605.22
418.967	635.96
419.344	638.67
419.721	651.1
420.098	635.73
420.475	631.21
420.852	639.57
421.228	631.21
421.605	689.06
421.982	673.02
422.358	683.87
422.735	696.97
423.111	712.79
423.488	686.8
423.864	723.64
424.241	720.7
424.617	758.21
424.994	753.69
425.37	758.67
425.746	748.95
426.123	782.39
426.499	800.93
426.875	808.16
427.251	818.33
427.627	856.52
428.003	815.61
428.379	835.05
428.756	850.87
429.132	849.06
429.507	877.76
429.883	895.84
430.259	889.51
430.635	876.18
431.011	876.63
431.387	922.05
431.763	934.48
432.138	936.51
432.514	930.41
432.89	956.85
433.265	992.33
433.641	1007.47
434.016	1020.35
434.392	1042.5
434.767	1023.97
435.143	1066.68
435.518	1083.18
435.894	1091.99
436.269	1118.43
436.644	1121.82
437.02	1119.79
437.395	1159.79
437.77	1145.55
438.145	1181.71
438.52	1196.62
438.895	1232.33
439.271	1210.63
439.646	1246.56
440.021	1264.64
440.395	1301.48
440.77	1276.62
441.145	1286.11
441.52	1311.42
441.895	1302.83
442.27	1345.32
442.645	1355.49
443.019	1375.15
443.394	1371.08
443.769	1401.14
444.143	1364.75
444.518	1416.28
444.892	1403.17
445.267	1409.04
445.641	1426.22
446.016	1456.5
446.39	1469.38
446.764	1488.59
447.139	1496.5
447.513	1490.62
447.887	1468.7
448.262	1489.49
448.636	1503.73
449.01	1526.1
449.384	1559.1
449.758	1578.31
450.132	1574.69
450.506	1579.66
450.88	1572.2
451.254	1601.81
451.628	1611.75
452.002	1617.17
452.376	1669.15
452.75	1656.95
453.123	1654.46
453.497	1700.34
453.871	1731.07
454.244	1727.91
454.618	1746.21
454.992	1761.35
455.365	1785.08
455.739	1794.8
456.112	1823.27
456.486	1861.91
456.859	1864.4
457.232	1863.95
457.606	1880.67
457.979	1894.23
458.352	1940.1
458.725	1957.28
459.099	1951.4
459.472	2004.96
459.845	2022.14
460.218	2027.79
460.591	2019.42
460.964	2019.88
461.337	2080.67
461.71	2126.54
462.083	2159.08
462.456	2153.88
462.829	2149.82
463.201	2177.16
463.574	2216.71
463.947	2239.76
464.32	2280.21
464.692	2293.77
465.065	2287.89
465.438	2318.63
465.81	2348.23
466.183	2421.22
466.555	2431.39
466.928	2472.52
467.3	2472.52
467.672	2467.55
468.045	2551.16
468.417	2522.46
468.789	2575.79
469.161	2585.29
469.534	2646.75
469.906	2693.3
470.278	2710.03
470.65	2710.03
471.022	2741.44
471.394	2815.79
471.766	2832.51
472.138	2842.91
472.51	2887.2
472.882	2943.02
473.253	2949.8
473.625	3026.4
473.997	3053.75
474.369	3067.98
474.74	3124.71
475.112	3157.47
475.484	3185.27
475.855	3221.65
476.227	3274.98
476.598	3349.33
476.97	3378.26
477.341	3450.12
477.713	3467.52
478.084	3500.06
478.455	3570.12
478.827	3624.81
479.198	3725.82
479.569	3698.02
479.94	3740.96
480.311	3807.17
480.682	3838.13
481.053	3943.22
481.424	3962.2
481.795	4037.9
482.166	4137.79
482.537	4123.1
482.908	4189.54
483.279	4242.42
483.65	4285.81
484.021	4336.43
484.391	4384.56
484.762	4427.95
485.133	4491.45
485.503	4544.33
485.874	4614.84
486.244	4651.9
486.615	4732.8
486.985	4771.89
487.356	4826.36
487.726	4845.11
488.097	4970.76
488.467	4954.04
488.837	5071.55
489.207	5119.68
489.578	5150.64
489.948	5194.93
490.318	5268.38
490.688	5250.07
491.058	5315.38
491.428	5369.17
491.798	5443.97
492.168	5530.74
492.538	5529.16
492.908	5607.35
493.278	5648.26
493.648	5637.63
494.017	5708.14
494.387	5746.33
494.757	5796.95
495.126	5916.5
495.496	5824.97
495.866	5876.72
496.235	5965.08
496.605	5913.33
496.974	5963.28
497.344	6071.52
497.713	6060.9
498.082	6111.52
498.452	6161.24
498.821	6153.55
499.19	6209.37
499.559	6216.38
499.928	6234.91
500.298	6228.81
500.667	6342.47
501.036	6325.53
501.405	6358.75
501.774	6354.68
502.143	6392.19
502.512	6451.85
502.88	6466.99
503.249	6448.69
503.618	6458.63
503.987	6501.79
504.356	6531.17
504.724	6550.6
505.093	6575.91
505.462	6554.67
505.83	6596.25
506.199	6646.65
506.567	6690.26
506.936	6694.56
507.304	6700.66
507.672	6706.76
508.041	6765.97
508.409	6859.07
508.777	6833.76
509.145	6848.9
509.514	6850.26
509.882	6867.21
510.25	6915.79
510.618	6935
510.986	6923.48
511.354	6913.76
511.722	7017.26
512.09	7041.67
512.458	7050.48
512.826	6979.52
513.193	7068.33
513.561	7052.51
513.929	7082.79
514.297	7158.05
514.664	7142
515.032	7143.13
515.4	7184.26
515.767	7148.55
516.135	7181.32
516.502	7086.18
516.869	7248.21
517.237	7220.42
517.604	7194.2
517.972	7218.84
518.339	7270.81
518.706	7246.63
519.073	7309
519.44	7256.12
519.808	7349.91
520.175	7320.75
520.542	7365.05
520.909	7370.02
521.276	7307.42
521.643	7329.79
522.009	7386.74
522.376	7388.55
522.743	7391.49
523.11	7440.52
523.477	7468.32
523.843	7478.49
524.21	7596.9
524.577	7516.23
524.943	7498.83
525.31	7473.07
525.676	7561.43
526.043	7579.5
526.409	7569.79
526.776	7597.13
527.142	7617.7
527.508	7629.45
527.874	7661.54
528.241	7626.51
528.607	7668.09
528.973	7770.01
529.339	7634.87
529.705	7714.64
530.071	7740.4
530.437	7733.4
530.803	7680.52
531.169	7754.87
531.535	7729.33
531.901	7691.82
532.267	7606.17
532.632	7703.34
532.998	7673.06
533.364	7709.67
533.73	7651.82
534.095	7697.69
534.461	7682.1
534.826	7658.15
535.192	7618.6
535.557	7715.09
535.923	7703.12
536.288	7694.98
536.653	7703.57
537.019	7695.21
537.384	7667.41
537.749	7699.27
538.114	7675.09
538.479	7687.52
538.845	7619.5
539.21	7596.23
539.575	7605.27
539.94	7595.77
540.305	7618.37
540.67	7551.26
541.034	7533.63
541.399	7617.92
541.764	7531.6
542.129	7511.94
542.494	7527.08
542.858	7553.74
543.223	7546.51
543.587	7530.69
543.952	7448.21
544.316	7479.62
544.681	7494.31
545.045	7442.33
545.41	7513.97
545.774	7395.33
546.138	7395.78
546.503	7404.37
546.867	7373.18
547.231	7426.97
547.595	7404.59
547.959	7348.78
548.324	7340.87
548.688	7378.15
549.052	7330.7
549.416	7369.34
549.779	7322.11
550.143	7301.09
550.507	7292.96
550.871	7334.99
551.235	7258.83
551.599	7297.03
551.962	7329.79
552.326	7333.63
552.689	7239.85
553.053	7235.56
553.417	7268.55
553.78	7339.51
554.143	7244.6
554.507	7263.35
554.87	7183.13
555.234	7228.33
555.597	7196.46
555.96	7226.52
556.323	7195.11
556.686	7218.61
557.05	7298.38
557.413	7217.48
557.776	7234.2
558.139	7231.26
558.502	7226.52
558.865	7276.46
559.228	7293.64
559.59	7305.16
559.953	7257.03
560.316	7309
560.679	7313.97
561.041	7304.94
561.404	7314.2
561.767	7346.06
562.129	7321.43
562.492	7349.68
562.854	7367.08
563.217	7341.32
563.579	7348.1
563.941	7390.13
564.304	7391.26
564.666	7378.83
565.028	7403.69
565.39	7436.91
565.753	7478.49
566.115	7446.4
566.477	7484.14
566.839	7427.87
567.201	7521.2
567.563	7493.63
567.925	7591.71
568.287	7562.78
568.648	7530.92
569.01	7603.01
569.372	7622.67
569.734	7551.03
570.095	7643.46
570.457	7585.15
570.819	7659.73
571.18	7639.16
571.542	7673.74
571.903	7669.45
572.265	7704.02
572.626	7730.01
572.987	7736.79
573.349	7711.03
573.71	7793.51
574.071	7801.65
574.432	7791.25
574.794	7874.64
575.155	7797.13
575.516	7818.59
575.877	7866.73
576.238	7858.37
576.599	7928.2
576.96	7929.33
577.32	7900.17
577.681	7943.11
578.042	8002.77
578.403	7998.48
578.763	7975.2
579.124	7963
579.485	8023.33
579.845	7960.74
580.206	8115.31
580.566	8024.01
580.927	8058.14
581.287	8062.43
581.648	8035.31
582.008	8172.26
582.368	8100.39
582.728	8149.21
583.089	8153.95
583.449	8187.62
583.809	8163.22
584.169	8160.51
584.529	8164.57
584.889	8233.27
585.249	8175.87
585.609	8172.03
585.969	8231.46
586.329	8176.78
586.688	8271.46
587.048	8194.18
587.408	8246.61
587.768	8234.4
588.127	8277.34
588.487	8257.23
588.846	8261.75
589.206	8243.44
589.565	8236.66
589.925	8338.13
590.284	8246.61
590.643	8317.56
591.003	8361.18
591.362	8413.38
591.721	8373.16
592.08	8348.07
592.44	8375.42
592.799	8444.57
593.158	8394.85
593.517	8407.73
593.876	8395.3
594.235	8377.22
594.593	8480.72
594.952	8487.28
595.311	8392.82
595.67	8370.44
596.029	8507.84
596.387	8494.51
596.746	8528.41
597.104	8492.02
597.463	8461.97
597.822	8537.67
598.18	8507.39
598.538	8407.5
598.897	8509.65
599.255	8500.61
599.613	8613.6
599.972	8516.43
600.33	8570.66
600.688	8501.97
601.046	8574.96
601.404	8583.55
601.762	8562.53
602.12	8624.45
602.478	8635.52
602.836	8575.41
603.194	8546.94
603.552	8656.54
603.91	8535.19
604.268	8639.36
604.625	8598.91
604.983	8605.01
605.341	8546.71
605.698	8654.96
606.056	8566.6
606.413	8613.38
606.771	8662.41
607.128	8656.54
607.485	8595.97
607.843	8630.32
608.2	8662.41
608.557	8653.37
608.914	8717.33
609.272	8727.27
609.629	8722.07
609.986	8743.09
610.343	8712.13
610.7	8814.05
611.057	8739.93
611.414	8674.84
611.771	8794.84
612.127	8795.07
612.484	8750.32
612.841	8783.77
613.198	8763.2
613.554	8757.78
613.911	8790.32
614.267	8844.78
614.624	8800.49
614.98	8817.89
615.337	8865.12
615.693	8880.26
616.05	8849.08
616.406	8871.67
616.762	8801.84
617.118	8857.44
617.475	8847.27
617.831	8915.06
618.187	8908.96
618.543	8881.39
618.899	8904.67
619.255	8878.23
619.611	8946.93
619.967	8943.99
620.323	8943.08
620.678	8971.78
621.034	8945.12
621.39	8917.1
621.746	8897.66
622.101	9003.87
622.457	8932.01
622.812	8930.88
623.168	8942.63
623.523	8927.94
623.879	8996.42
624.234	8916.64
624.589	8997.55
624.945	8937.43
625.3	8946.7
625.655	8922.52
626.01	8944.89
626.365	8949.64
626.72	8911.9
627.075	8894.72
627.43	8941.73
627.785	8860.83
628.14	8861.5
628.495	8949.41
628.85	8910.77
629.205	8880.94
629.559	8911.9
629.914	8886.59
630.269	8859.02
630.623	8850.66
630.978	8854.72
631.332	8872.13
631.687	8921.39
632.041	8837.55
632.396	8819.25
632.75	8812.24
633.104	8860.6
633.459	8809.75
633.813	8788.74
634.167	8811.79
634.521	8836.19
634.875	8740.15
635.229	8754.39
635.583	8730.21
635.937	8734.95
636.291	8725.24
636.645	8766.14
636.999	8696.31
637.352	8661.96
637.706	8643.66
638.06	8640.49
638.413	8646.82
638.767	8571.34
639.121	8680.04
639.474	8623.77
639.828	8570.21
640.181	8576.54
640.534	8615.18
640.888	8572.92
641.241	8556.2
641.594	8547.61
641.947	8612.7
642.301	8501.74
642.654	8532.47
643.007	8612.7
643.36	8532.93
643.713	8486.82
644.066	8602.08
644.419	8530.67
644.771	8456.54
645.124	8373.16
645.477	8399.82
645.83	8264.46
646.182	8286.6
646.535	8331.12
646.888	8334.51
647.24	8153.05
647.593	8253.16
647.945	8198.7
648.298	8274.63
648.65	8240.73
649.002	8197.34
649.355	8234.18
649.707	8227.62
650.059	8225.59
650.411	8355.3
650.763	8329.31
651.115	8420.61
651.467	8406.15
651.819	8378.81
652.171	8490.21
652.523	8397.11
652.875	8416.32
653.227	8391.91
653.578	8413.38
653.93	8426.26
654.282	8354.17
654.633	8381.74
654.985	8347.17
655.337	8409.09
655.688	8338.13
656.039	8399.82
656.391	8306.49
656.742	8339.71
657.094	8362.08
657.445	8368.64
657.796	8393.27
658.147	8360.05
658.498	8344.23
658.849	8425.36
659.2	8435.3
659.551	8373.38
659.902	8390.33
660.253	8386.71
660.604	8391.23
660.955	8288.86
661.306	8356.43
661.656	8378.13
662.007	8376.09
662.358	8418.8
662.708	8418.8
663.059	8391.46
663.409	8344.91
663.76	8367.51
664.11	8420.16
664.461	8412.25
664.811	8417.22
665.161	8377.9
665.511	8381.97
665.862	8390.56
666.212	8459.03
666.562	8429.65
666.912	8446.6
667.262	8397.34
667.612	8428.07
667.962	8414.51
668.312	8386.49
668.662	8411.35
669.011	8361.86
669.361	8337.9
669.711	8362.76
670.06	8382.65
670.41	8370.9
670.76	8334.29
671.109	8373.38
671.459	8312.37
671.808	8351.24
672.157	8304.46
672.507	8329.31
672.856	8285.7
673.205	8259.71
673.554	8261.52
673.904	8365.7
674.253	8364.34
674.602	8337.9
674.951	8162.77
675.3	8179.49
675.649	8233.5
675.998	8191.47
676.346	8255.19
676.695	8300.16
677.044	8237.34
677.393	8265.81
677.741	8215.87
678.09	8226.72
678.438	8214.06
678.787	8219.26
679.135	8217.91
679.484	8104.91
679.832	8176.78
680.181	8107.63
680.529	8134.52
680.877	8130
681.225	8129.09
681.573	8096.55
681.922	8100.85
682.27	8055.42
682.618	8092.03
682.966	8056.78
683.314	8051.81
683.661	8008.65
684.009	7974.75
684.357	7968.87
684.705	7921.42
685.053	7947.18
685.4	7971.58
685.748	7906.95
686.095	7884.35
686.443	7802.55
686.79	7856.33
687.138	7862.21
687.485	7880.97
687.832	7779.72
688.18	7785.37
688.527	7783.57
688.874	7756.9
689.221	7753.96
689.568	7737.92
689.915	7728.2
690.262	7691.14
690.609	7643.91
690.956	7603.46
691.303	7613.63
691.65	7600.07
691.997	7548.54
692.344	7519.39
692.69	7465.61
693.037	7501.31
693.383	7418.15
693.73	7455.21
694.077	7410.47
694.423	7400.07
694.769	7337.25
695.116	7321.66
695.462	7346.06
695.808	7243.69
696.155	7307.65
696.501	7250.7
696.847	7190.14
697.193	7181.77
697.539	7233.98
697.885	7222.9
698.231	7124.83
698.577	7115.34
698.923	7154.43
699.269	7089.57
699.614	7088.44
699.96	7001.21
700.306	6986.75
700.651	6997.6
700.997	6946.75
701.342	6964.83
701.688	6904.27
702.033	6859.52
702.379	6839.18
702.724	6865.62
703.069	6811.39
703.415	6776.36
703.76	6769.58
704.105	6712.63
704.45	6730.94
704.795	6745.85
705.14	6701.34
705.485	6646.87
705.83	6643.94
706.175	6670.83
706.52	6603.94
706.865	6613.2
707.209	6580.89
707.554	6608.23
707.899	6547.89
708.243	6503.83
708.588	6523.49
708.932	6487.78
709.277	6488.23
709.621	6474.9
709.966	6420.21
710.31	6457.05
710.654	6428.12
710.998	6408.01
711.342	6386.54
711.687	6374.79
712.031	6310.16
712.375	6338.63
712.719	6352.42
713.063	6290.5
713.407	6342.7
713.75	6292.08
714.094	6350.61
714.438	6209.6
714.782	6260.22
715.125	6275.81
715.469	6252.76
715.812	6220.67
716.156	6229.71
716.499	6224.96
716.843	6209.82
717.186	6175.02
717.53	6220.67
717.873	6174.8
718.216	6156.94
718.559	6183.83
718.902	6151.29
719.246	6177.51
719.589	6109.03
719.932	6089.37
720.275	6084.18
720.617	6076.94
720.96	6073.1
721.303	6087.79
721.646	6038.75
721.989	6054.8
722.331	6067
722.674	6075.14
723.016	6052.54
723.359	6038.08
723.701	6041.92
724.044	5969.83
724.386	5975.48
724.729	6002.14
725.071	5981.58
725.413	6002.37
725.755	5958.76
726.097	5939.55
726.439	5963.28
726.782	5945.87
727.124	5977.96
727.465	5942.48
727.807	5927.34
728.149	5884.18
728.491	5906.33
728.833	5964.18
729.175	5921.92
729.516	5930.51
729.858	5915.37
730.199	5946.78
730.541	5898.19
730.882	5908.14
731.224	5933.67
731.565	5914.01
731.906	5920.11
732.248	5928.02
732.589	5871.07
732.93	5869.49
733.271	5878.31
733.612	5945.65
733.953	5950.39
734.294	5871.75
734.635	5874.69
734.976	5932.09
735.317	5902.71
735.658	5863.62
735.999	5885.54
736.339	5835.6
736.68	5900.68
737.021	5858.19
737.361	5846.67
737.702	5895.93
738.042	5869.04
738.383	5922.15
738.723	5927.12
739.063	5918.08
739.404	5910.62
739.744	5926.89
740.084	5947.46
740.424	5929.38
740.764	5922.6
741.104	5940.23
741.444	5978.64
741.784	5971.18
742.124	5995.36
742.464	5990.62
742.804	5967.12
743.143	5968.47
743.483	6035.59
743.823	6073.78
744.162	5999.43
744.502	6028.13
744.841	6074.23
745.181	6071.52
745.52	6115.14
745.86	6186.09
746.199	6138.64
746.538	6179.54
746.877	6229.26
747.216	6224.74
747.556	6234.45
747.895	6293.44
748.234	6314.23
748.573	6332.08
748.911	6390.38
749.25	6434.45
749.589	6447.33
749.928	6578.17
750.267	6541.79
750.605	6579.53
750.944	6656.82
751.283	6728.9
751.621	6764.38
751.96	6820.88
752.298	6856.81
752.636	6882.8
752.975	6922.12
753.313	7060.42
753.651	7148.55
753.989	7191.94
754.327	7309.91
754.666	7383.13
755.004	7383.58
755.342	7582.22
755.679	7665.38
756.017	7710.57
756.355	7826.5
756.693	7890.91
757.031	7998.93
757.368	8091.36
757.706	8195.76
758.044	8262.2
758.381	8421.06
758.719	8475.75
759.056	8654.73
759.394	8667.39
759.731	8843.65
760.068	8895.63
760.405	8934.5
760.743	9111.44
761.08	9252.23
761.417	9310.98
761.754	9475.5
762.091	9601.15
762.428	9719.56
762.765	9758.66
763.102	9939.89
763.438	9979.22
763.775	10064.64
764.112	10236.16
764.449	10414.68
764.785	10460.33
765.122	10554.57
765.458	10687.9
765.795	10753.43
766.131	10885.86
766.467	10930.15
766.804	11112.52
767.14	11152.74
767.476	11286.07
767.812	11283.36
768.148	11436.8
768.485	11483.58
768.821	11577.14
769.157	11712.5
769.492	11722.22
769.828	11867.3
770.164	11912.27
770.5	11968.77
770.836	12103
771.171	12119.5
771.507	12178.48
771.842	12260.28
772.178	12374.63
772.513	12377.8
772.849	12406.27
773.184	12453.73
773.519	12594.06
773.855	12562.42
774.19	12635.42
774.525	12587.96
774.86	12667.05
775.195	12739.59
775.53	12710.44
775.865	12830.89
776.2	12785.69
776.535	12707.5
776.87	12861.17
777.205	12873.83
777.539	12879.7
777.874	13006.03
778.209	12910.66
778.543	12914.28
778.878	12908.63
779.212	12933.94
779.547	12913.38
779.881	12999.93
780.215	12967.39
780.55	13015.29
780.884	13023.65
781.218	12994.28
781.552	12995.86
781.886	12996.54
782.22	12983.43
782.554	12993.83
782.888	12936.65
783.222	12891.68
783.556	12820.95
783.889	12919.25
784.223	12801.97
784.557	12831.8
784.89	12890.1
785.224	12920.15
785.557	12808.97
785.891	12850.1
786.224	12812.13
786.558	12968.97
786.891	12688.07
787.224	12767.16
787.557	12781.63
787.891	12780.95
788.224	12779.14
788.557	12745.7
788.89	12741.4
789.223	12789.76
789.556	12665.92
789.888	12666.6
790.221	12696.43
790.554	12585.93
790.887	12668.86
791.219	12593.38
791.552	12551.35
791.884	12522.65
792.217	12491.69
792.549	12494.4
792.882	12460.51
793.214	12332.6
793.546	12447.17
793.879	12388.42
794.211	12301.41
794.543	12301.41
794.875	12322.66
795.207	12344.35
795.539	12330.34
795.871	12285.14
796.203	12228.2
796.535	12149.1
796.867	12117.46
797.198	12144.58
797.53	12119.72
797.862	12054.87
798.193	12052.15
798.525	12034.08
798.856	12027.97
799.188	11953.4
799.519	11859.62
799.85	11791.37
800.182	11912.72
800.513	11847.41
800.844	11720.19
801.175	11813.29
801.506	11835.66
801.837	11764.48
802.168	11634.76
802.499	11699.17
802.83	11663.01
803.161	11590.7
803.491	11557.25
803.822	11603.81
804.153	11586.18
804.483	11492.62
804.814	11465.05
805.145	11470.25
805.475	11440.42
805.805	11376.24
806.136	11411.95
806.466	11383.47
806.796	11324.04
807.126	11259.18
807.457	11254.89
807.787	11225.06
808.117	11229.8
808.447	11117.04
808.777	11225.06
809.107	11109.81
809.436	11117.49
809.766	11110.26
810.096	11032.75
810.426	11071.16
810.755	11120.2
811.085	11073.65
811.414	11060.54
811.744	10947.55
812.073	10898.74
812.403	10983.03
812.732	10854.67
813.061	10871.85
813.39	10797.5
813.719	10797.95
814.049	10890.83
814.378	10837.27
814.707	10771.51
815.036	10767.22
815.365	10764.51
815.693	10660.55
816.022	10675.47
816.351	10635.02
816.68	10647.45
817.008	10642.47
817.337	10538.75
817.665	10531.97
817.994	10516.38
818.322	10483.61
818.651	10557.73
818.979	10437.28
819.307	10508.24
819.636	10533.78
819.964	10430.73
820.292	10497.17
820.62	10474.57
820.948	10365.65
821.276	10478.86
821.604	10423.27
821.932	10445.19
822.259	10440.67
822.587	10418.3
822.915	10414.46
823.243	10392.09
823.57	10371.97
823.898	10426.89
824.225	10325.65
824.553	10369.94
824.88	10378.3
825.207	10410.62
825.535	10294.91
825.862	10456.72
826.189	10404.29
826.516	10404.06
826.843	10479.77
827.17	10392.76
827.497	10391.41
827.824	10368.13
828.151	10476.6
828.478	10395.02
828.805	10426.21
829.131	10417.85
829.458	10355.7
829.785	10368.58
830.111	10361.35
830.438	10429.37
830.764	10415.36
831.09	10327.68
831.417	10345.99
831.743	10402.25
832.069	10376.94
832.395	10338.75
832.722	10417.85
833.048	10299.21
833.374	10361.35
833.7	10225.54
834.026	10344.18
834.351	10330.84
834.677	10291.75
835.003	10355.48
835.329	10321.8
835.654	10351.86
835.98	10260.34
836.306	10287.68
836.631	10241.13
836.956	10252.65
837.282	10243.39
837.607	10200.45
837.932	10247.68
838.258	10228.25
838.583	10168.14
838.908	10134.47
839.233	10110.96
839.558	10082.04
839.883	10063.73
840.208	10050.4
840.533	10101.02
840.858	10060.57
841.182	10079.1
841.507	10030.29
841.832	10000.01
842.156	10019.67
842.481	9988.03
842.805	9948.26
843.13	9897.41
843.454	9833.23
843.778	9873.23
844.103	9814.47
844.427	9753.01
844.751	9823.06
845.075	9753.01
845.399	9766.34
845.723	9646.57
846.047	9775.38
846.371	9661.48
846.695	9649.28
847.019	9535.84
847.343	9549.62
847.666	9480.92
847.99	9467.82
848.313	9467.14
848.637	9382.62
848.96	9398.21
849.284	9364.54
849.607	9214.94
849.931	9244.77
850.254	9137.2
850.577	9155.28
850.9	9108.5
851.223	9083.42
851.546	9073.93
851.869	9005
852.192	9027.15
852.515	8908.51
852.838	8897.21
853.161	8925.23
853.483	8941.73
853.806	8810.21
854.129	8840.49
854.451	8767.04
854.774	8765.24
855.096	8776.99
855.419	8725.01
855.741	8681.62
856.063	8673.71
856.385	8611.34
856.708	8585.13
857.03	8566.82
857.352	8585.58
857.674	8524.56
857.996	8500.38
858.318	8472.59
858.64	8434.62
858.961	8469.42
859.283	8380.16
859.605	8351.91
859.926	8409.99
860.248	8329.54
860.57	8352.59
860.891	8359.82
861.212	8284.8
861.534	8261.75
861.855	8248.19
862.176	8299.71
862.498	8280.5
862.819	8304
863.14	8221.07
863.461	8142.43
863.782	8128.87
864.103	8171.35
864.424	8120.05
864.745	8171.58
865.065	8094.74
865.386	8107.85
865.707	8047.29
866.027	8080.96
866.348	8004.58
866.668	8079.83
866.989	8071.92
867.309	7994.41
867.63	8038.02
867.95	7988.08
868.27	7983.11
868.59	7993.5
868.91	7990.34
869.23	7992.6
869.55	7886.61
869.87	7932.26
870.19	7885.94
870.51	7911.47
870.83	7894.3
871.15	7871.47
871.469	7832.83
871.789	7845.94
872.109	7904.69
872.428	7777.01
872.748	7834.41
873.067	7803
873.386	7825.6
873.706	7778.37
874.025	7696.11
874.344	7733.85
874.663	7742.44
874.982	7683.68
875.301	7730.46
875.62	7691.37
875.939	7692.04
876.258	7697.02
876.577	7664.25
876.896	7609.11
877.214	7678.48
877.533	7626.51
877.852	7591.71
878.17	7632.38
878.489	7622.89
878.807	7587.19
879.125	7525.49
879.444	7600.07
879.762	7556.68
880.08	7495.89
880.398	7483.46
880.716	7506.29
881.034	7486.63
881.352	7457.02
881.67	7469.9
881.988	7478.94
882.306	7393.97
882.624	7359.4
882.941	7360.98
883.259	7284.37
883.577	7334.09
883.894	7371.37
884.212	7298.38
884.529	7304.48
884.846	7272.85
885.164	7244.15
885.481	7315.1
885.798	7265.39
886.115	7206.41
886.432	7224.03
886.75	7186.07
887.067	7165.73
887.383	7158.27
887.7	7121.89
888.017	7135.9
888.334	7079.86
888.651	7054.55
888.967	7085.96
889.284	7052.74
889.6	7016.58
889.917	6978.39
890.233	7024.26
890.55	6949.92
890.866	6916.92
891.182	6951.27
891.498	6939.75
891.815	6891.61
892.131	6846.87
892.447	6890.93
892.763	6853.42
893.079	6833.54
893.395	6779.75
893.71	6766.64
894.026	6783.59
894.342	6735.46
894.657	6690.49
894.973	6727.1
895.289	6683.93
895.604	6767.77
895.92	6634.67
896.235	6608.68
896.55	6594.22
896.865	6572.52
897.181	6531.85
897.496	6553.77
897.811	6451.85
898.126	6500.44
898.441	6481.91
898.756	6422.47
899.071	6348.8
899.386	6411.63
899.7	6301.12
900.015	6314.23
900.33	6268.35
900.644	6256.6
900.959	6263.15
901.273	6243.95
901.588	6223.38
901.902	6172.08
902.216	6187
902.531	6176.15
902.845	6156.04
903.159	6109.94
903.473	6088.47
903.787	6070.17
904.101	6040.56
904.415	6001.92
904.729	5986.33
905.042	5998.3
905.356	5960.11
905.67	5947.91
905.984	5962.15
906.297	5878.98
906.611	5875.37
906.924	5831.53
907.237	5857.52
907.551	5799.44
907.864	5767.57
908.177	5752.66
908.491	5753.34
908.804	5685.99
909.117	5740.91
909.43	5673.79
909.743	5659.78
910.056	5652.55
910.368	5568.26
910.681	5532.55
910.994	5513.34
911.307	5556.73
911.619	5526.9
911.932	5490.75
912.244	5450.97
912.557	5480.58
912.869	5464.31
913.181	5416.62
913.494	5350.18
913.806	5363.52
914.118	5323.52
914.43	5295.27
914.742	5305.89
915.054	5302.5
915.366	5255.05
915.678	5243.52
915.99	5269.06
916.302	5177.31
916.613	5170.08
916.925	5135.05
917.236	5158.1
917.548	5121.94
917.859	5125.33
918.171	5143.64
918.482	5023.87
918.794	5022.74
919.105	5041.72
919.416	4935.73
919.727	4997.65
920.038	4992.45
920.349	4924.43
920.66	4911.55
920.971	4930.99
921.282	4918.11
921.593	4888.73
921.903	4823.19
922.214	4795.4
922.525	4815.28
922.835	4753.82
923.146	4748.39
923.456	4771.67
923.767	4731.44
924.077	4740.03
924.387	4696.19
924.697	4681.28
925.008	4654.84
925.318	4706.81
925.628	4660.71
925.938	4589.07
926.248	4545.91
926.558	4571.9
926.867	4573.93
927.177	4536.87
927.487	4498.68
927.796	4478.12
928.106	4470.89
928.416	4438.57
928.725	4457.1
929.034	4354.05
929.344	4444.45
929.653	4383.43
929.962	4325.8
930.271	4335.97
930.581	4353.6
930.89	4293.49
931.199	4246.26
931.508	4284.68
931.817	4270.89
932.125	4262.3
932.434	4243.77
932.743	4224.34
933.051	4164.9
933.36	4152.48
933.669	4124
933.977	4104.34
934.286	4154.06
934.594	4123.32
934.902	4048.75
935.21	4074.51
935.519	4048.98
935.827	4047.17
936.135	4025.25
936.443	3980.95
936.751	3975.76
937.059	3985.02
937.367	3963.33
937.674	3967.62
937.982	3988.41
938.29	3943.67
938.597	3920.84
938.905	3857.34
939.213	3836.1
939.52	3848.98
939.827	3844.69
940.135	3855.76
940.442	3788.42
940.749	3781.64
941.056	3818.47
941.363	3756.1
941.67	3743.67
941.977	3732.37
942.284	3727.18
942.591	3733.05
942.898	3645.6
943.205	3683.79
943.511	3677.69
943.818	3670
944.125	3633.39
944.431	3655.99
944.738	3596.11
945.044	3567.63
945.35	3528.76
945.657	3555.66
945.963	3555.66
946.269	3526.28
946.575	3532.6
946.881	3477.69
947.187	3497.35
947.493	3470.46
947.799	3472.72
948.105	3456.45
948.41	3387.52
948.716	3402.21
949.022	3403.34
949.327	3412.61
949.633	3338.71
949.938	3298.49
950.244	3357.02
950.549	3312.5
950.854	3305.94
951.16	3316.57
951.465	3268.88
951.77	3250.8
952.075	3267.53
952.38	3265.27
952.685	3238.6
952.99	3218.26
953.294	3211.71
953.599	3194.31
953.904	3205.38
954.209	3192.05
954.513	3132.62
954.818	3103.01
955.122	3167.64
955.426	3106.85
955.731	3120.64
956.035	3107.53
956.339	3108.89
956.643	3027.76
956.948	3072.96
957.252	3011.94
957.556	3024.82
957.86	3005.39
958.163	2965.61
958.467	2961.32
958.771	2962.45
959.075	2987.99
959.378	2930.59
959.682	2970.81
959.985	2904.6
960.289	2922.9
960.592	2878.84
960.896	2867.54
961.199	2889.23
961.502	2860.31
961.805	2841.1
962.108	2815.79
962.411	2836.58
962.714	2789.12
963.017	2817.37
963.32	2757.71
963.623	2784.83
963.926	2768.11
964.228	2760.87
964.531	2710.25
964.833	2759.97
965.136	2710.25
965.438	2705.06
965.741	2675.9
966.043	2689.24
966.345	2700.31
966.648	2648.79
966.95	2655.79
967.252	2649.24
967.554	2630.93
967.856	2618.96
968.158	2614.66
968.46	2610.37
968.761	2576.02
969.063	2591.39
969.365	2570.37
969.666	2564.27
969.968	2541.22
970.269	2525.85
970.571	2529.24
970.872	2512.52
971.174	2470.03
971.475	2514.33
971.776	2480.88
972.077	2477.94
972.378	2464.16
972.679	2449.47
972.98	2441.33
973.281	2421.22
973.582	2437.49
973.883	2400.88
974.183	2414.22
974.484	2382.13
974.785	2355.46
975.085	2386.65
975.386	2357.95
975.686	2341
975.986	2358.17
976.287	2369.25
976.587	2304.61
976.887	2322.47
977.187	2303.94
977.487	2269.14
977.787	2270.94
978.087	2268.46
978.387	2248.57
978.687	2292.64
978.987	2242.24
979.286	2220.32
979.586	2248.57
979.885	2213.77
980.185	2232.53
980.484	2203.15
980.784	2209.93
981.083	2185.07
981.382	2144.39
981.682	2152.75
981.981	2114.56
982.28	2126.54
982.579	2163.15
982.878	2136.48
983.177	2140.33
983.475	2098.97
983.774	2141.68
984.073	2085.19
984.372	2062.81
984.67	2062.59
984.969	2059.88
985.267	2050.16
985.566	2034.34
985.864	2069.37
986.162	2009.26
986.461	2015.36
986.759	2028.01
987.057	2016.03
987.355	1960.44
987.653	1995.47
987.951	1966.54
988.249	1959.54
988.547	1994.11
988.844	1936.94
989.142	1952.99
989.44	1922.93
989.737	1945.08
990.035	1944.4
990.332	1878.64
990.63	1915.02
990.927	1870.28
991.224	1863.04
991.521	1876.15
991.819	1875.25
992.116	1869.15
992.413	1846.77
992.71	1847
993.006	1820.56
993.303	1843.84
993.6	1829.15
993.897	1807.23
994.193	1793.89
994.49	1797.74
994.787	1806.55
995.083	1765.87
995.379	1776.49
995.676	1782.82
995.972	1738.98
996.268	1749.6
996.565	1719.77
996.861	1727.45
997.157	1729.04
997.453	1694.91
997.749	1730.84
998.044	1698.08
998.34	1712.99
998.636	1675.7
998.932	1693.11
999.227	1668.02
999.523	1669.83
999.818	1682.94
1000.114	1671.18
1000.409	1648.13
1000.704	1618.76
1001	1629.15
1001.295	1625.99
1001.59	1609.49
1001.885	1598.19
1002.18	1579.89
1002.475	1585.31
1002.77	1555.93
1003.065	1530.17
1003.359	1517.06
1003.654	1549.15
1003.949	1519.55
1004.243	1528.82
1004.538	1531.98
1004.832	1523.62
1005.127	1529.49
1005.421	1501.02
1005.715	1504.86
1006.009	1466.67
1006.304	1475.48
1006.598	1460.34
1006.892	1456.73
1007.186	1459.89
1007.48	1451.76
1007.773	1424.64
1008.067	1397.75
1008.361	1454.24
1008.655	1418.76
1008.948	1423.51
1009.242	1419.44
1009.535	1411.08
1009.829	1377.63
1010.122	1352.32
1010.415	1374.24
1010.708	1377.18
1011.001	1388.03
1011.295	1376.28
1011.588	1325.43
1011.881	1318.2
1012.173	1334.47
1012.466	1326.11
1012.759	1334.47
1013.052	1313.68
1013.344	1294.47
1013.637	1329.05
1013.93	1298.09
1014.222	1291.76
1014.514	1273.91
1014.807	1275.26
1015.099	1247.92
1015.391	1228.03
1015.683	1236.62
1015.976	1221.25
1016.268	1244.98
1016.56	1234.59
1016.851	1211.08
1017.143	1198.2
1017.435	1200.46
1017.727	1211.08
1018.018	1207.92
1018.31	1178.99
1018.602	1168.15
1018.893	1157.75
1019.185	1171.09
1019.476	1127.7
1019.767	1155.27
1020.058	1136.74
1020.35	1130.18
1020.641	1135.38
1020.932	1120.92
1021.223	1130.63
1021.514	1089.28
1021.804	1126.11
1022.095	1088.15
1022.386	1084.76
1022.677	1090.86
1022.967	1081.82
1023.258	1065.55
1023.548	1044.31
1023.839	1065.1
1024.129	1044.53
1024.419	1045.21
1024.709	1044.76
1025	1056.29
1025.29	1033.69
1025.58	995.04
1025.87	1002.28
1026.16	1012.67
1026.449	989.39
1026.739	1000.02
1027.029	980.81
1027.319	974.03
1027.608	994.82
1027.898	960.02
1028.187	969.28
1028.477	975.84
1028.766	958.66
1029.055	943.75
1029.344	950.07
1029.634	949.4
1029.923	929.74
1030.212	935.16
1030.501	937.19
1030.79	922.5
1031.078	946.46
1031.367	882.73
1031.656	904.65
1031.945	915.72
1032.233	884.76
1032.522	867.59
1032.81	881.15
1033.099	874.6
1033.387	848.61
1033.675	870.53
1033.963	867.14
1034.251	859.23
1034.54	847.7
1034.828	847.03
1035.116	834.82
1035.403	834.14
1035.691	843.41
1035.979	824.2
1036.267	830.3
1036.554	804.99
1036.842	795.5
1037.129	783.75
1037.417	793.69
1037.704	809.29
1037.992	808.38
1038.279	772.9
1038.566	800.25
1038.853	800.25
1039.14	800.25
