Data from hue_100_FLMS001491_00058.txt Node
Date: Tue Feb 07 17:03:23 GMT 2017
User: dcchb
Spectrometer: FLMS00149
Trigger mode: 0
Integration Time (sec): 2.000000E-2
Scans to average: 10
Electric dark correction enabled: true
Nonlinearity correction enabled: false
Boxcar width: 0
XAxis mode: Wavelengths
Number of Pixels in Spectrum: 2048
>>>>>Begin Spectral Data<<<<<
341.393	-22.46
341.776	-22.46
342.16	-22.46
342.543	-74.43
342.927	-57.03
343.31	-70.59
343.693	-71.72
344.077	-73.08
344.46	-55.22
344.843	-47.32
345.226	-48.45
345.61	-17.49
345.993	-20.2
346.376	-0.08
346.759	8.73
347.142	12.12
347.525	43.3
347.908	55.73
348.291	88.5
348.674	95.05
349.057	100.7
349.44	127.37
349.823	135.28
350.206	148.84
350.588	193.36
350.971	195.62
351.354	209.18
351.737	222.73
352.119	247.14
352.502	267.25
352.884	258.44
353.267	258.89
353.65	271.32
354.032	302.96
354.414	309.96
354.797	328.95
355.179	313.58
355.562	329.17
355.944	329.85
356.326	321.71
356.709	335.73
357.091	335.95
357.473	340.92
357.855	326.69
358.238	335.27
358.62	343.64
359.002	308.61
359.384	346.35
359.766	326.01
360.148	338.89
360.53	322.17
360.912	323.75
361.294	337.99
361.676	346.57
362.057	327.59
362.439	339.12
362.821	346.57
363.203	310.19
363.584	318.78
363.966	331.43
364.348	314.03
364.729	321.26
365.111	315.16
365.493	320.13
365.874	330.53
366.256	309.06
366.637	310.19
367.019	295.05
367.4	324.88
367.781	329.62
368.163	297.76
368.544	292.79
368.925	325.1
369.306	319
369.688	316.74
370.069	304.99
370.45	297.99
370.831	317.87
371.212	313.58
371.593	293.47
371.974	320.81
372.355	302.51
372.736	321.49
373.117	315.61
373.498	321.71
373.879	335.05
374.26	311.09
374.641	336.86
375.021	312.68
375.402	323.3
375.783	310.42
376.163	335.73
376.544	322.62
376.925	323.52
377.305	319
377.686	325.78
378.066	326.69
378.447	341.83
378.827	325.1
379.208	340.02
379.588	333.92
379.968	336.18
380.349	322.39
380.729	339.12
381.109	364.65
381.489	345.44
381.87	318.78
382.25	337.99
382.63	339.34
383.01	376.63
383.39	332.79
383.77	347.48
384.15	343.18
384.53	334.82
384.91	338.66
385.29	358.32
385.67	344.31
386.049	362.39
386.429	357.42
386.809	349.06
387.189	340.47
387.568	365.78
387.948	356.29
388.328	363.07
388.707	355.61
389.087	375.27
389.466	370.08
389.846	369.62
390.225	373.69
390.605	374.59
390.984	377.08
391.363	366.01
391.743	383.86
392.122	366.91
392.501	369.17
392.881	382.5
393.26	380.24
393.639	383.41
394.018	399.45
394.397	383.41
394.776	380.47
395.155	374.37
395.534	401.49
395.913	370.3
396.292	389.51
396.671	378.66
397.05	378.89
397.429	389.06
397.808	397.87
398.186	395.84
398.565	382.5
398.944	399.9
399.323	386.12
399.701	399.9
400.08	415.05
400.458	425.44
400.837	417.98
401.215	410.3
401.594	416.85
401.972	415.05
402.351	403.75
402.729	411.66
403.107	426.8
403.486	436.29
403.864	423.86
404.242	424.54
404.62	411.43
404.999	429.96
405.377	438.77
405.755	429.73
406.133	448.49
406.511	457.98
406.889	460.69
407.267	454.82
407.645	442.16
408.023	464.76
408.401	471.54
408.779	436.97
409.156	467.7
409.534	465.67
409.912	444.65
410.29	457.53
410.667	448.49
411.045	462.95
411.422	457.3
411.8	480.35
412.178	495.27
412.555	505.21
412.933	484.42
413.31	482.39
413.687	523.52
414.065	500.47
414.442	481.26
414.819	513.57
415.197	504.53
415.574	499.34
415.951	516.06
416.328	511.99
416.705	525.1
417.082	517.19
417.46	531.65
417.837	537.3
418.214	516.06
418.591	539.34
418.967	506.12
419.344	518.09
419.721	544.76
420.098	568.71
420.475	557.41
420.852	541.82
421.228	545.44
421.605	561.03
421.982	571.88
422.358	573.23
422.735	581.37
423.111	548.15
423.488	578.43
423.864	573.91
424.241	568.71
424.617	611.2
424.994	582.5
425.37	584.08
425.746	604.87
426.123	608.71
426.499	624.76
426.875	610.52
427.251	604.19
427.627	629.73
428.003	611.88
428.379	640.12
428.756	620.01
429.132	646.9
429.507	638.32
429.883	628.15
430.259	669.95
430.635	657.75
431.011	670.18
431.387	678.09
431.763	691.2
432.138	691.2
432.514	691.65
432.89	705.21
433.265	706.79
433.641	695.94
434.016	703.17
434.392	717.64
434.767	736.62
435.143	720.57
435.518	752.89
435.894	728.48
436.269	737.07
436.644	730.52
437.02	769.39
437.395	754.02
437.77	760.57
438.145	777.75
438.52	799.44
438.895	784.98
439.271	795.37
439.646	823.85
440.021	818.88
440.395	804.19
440.77	826.11
441.145	796.28
441.52	829.5
441.895	843.06
442.27	853.9
442.645	844.19
443.019	876.28
443.394	864.75
443.769	877.18
444.143	839.67
444.518	854.81
444.892	864.75
445.267	891.42
445.641	883.73
446.016	901.36
446.39	908.14
446.764	900.46
447.139	899.78
447.513	909.27
447.887	905.2
448.262	928.7
448.636	948.82
449.01	948.14
449.384	940.46
449.758	954.01
450.132	992.66
450.506	951.08
450.88	979.1
451.254	990.85
451.628	993.34
452.002	995.14
452.376	1004.18
452.75	1009.15
453.123	1006.22
453.497	1031.53
453.871	1006.89
454.244	1067.46
454.618	1073.79
454.992	1064.29
455.365	1070.4
455.739	1100.23
456.112	1102.94
456.486	1134.35
456.859	1120.56
457.232	1135.25
457.606	1165.53
457.979	1164.4
458.352	1197.85
458.725	1201.01
459.099	1193.33
459.472	1191.75
459.845	1203.73
460.218	1252.99
460.591	1270.16
460.964	1270.39
461.337	1299.09
461.71	1316.72
462.083	1330.05
462.456	1323.04
462.829	1351.07
463.201	1381.12
463.574	1358.3
463.947	1427
464.32	1431.97
464.692	1457.28
465.065	1462.02
465.438	1496.15
465.81	1496.83
466.183	1497.28
466.555	1554.45
466.928	1568.01
467.3	1589.48
467.672	1586.54
468.045	1658.63
468.417	1655.46
468.789	1666.54
469.161	1725.75
469.534	1747.21
469.906	1771.17
470.278	1797.83
470.65	1837.16
471.022	1882.8
471.394	1916.7
471.766	1924.38
472.138	1938.4
472.51	2024.95
472.882	2044.16
473.253	2055.23
473.625	2122.8
473.997	2151.05
474.369	2196.47
474.74	2245.73
475.112	2315.56
475.484	2297.71
475.855	2382.23
476.227	2417.25
476.598	2518.27
476.97	2559.4
477.341	2613.41
477.713	2682.78
478.084	2720.52
478.455	2811.37
478.827	2887.52
479.198	2972.94
479.569	3014.53
479.94	3157.8
480.311	3187.63
480.682	3289.09
481.053	3403.67
481.424	3505.59
481.795	3534.06
482.166	3658.35
482.537	3706.26
482.908	3852.47
483.279	3913.94
483.65	4035.06
484.021	4143.99
484.391	4294.94
484.762	4334.72
485.133	4449.06
485.503	4533.58
485.874	4733.35
486.244	4819
486.615	4990.07
486.985	5082.72
487.356	5157.97
487.726	5224.86
488.097	5445.2
488.467	5494.91
488.837	5739.65
489.207	5799.08
489.578	6002.24
489.948	6099.64
490.318	6242.69
490.688	6356.81
491.058	6524.72
491.428	6697.37
491.798	6780.08
492.168	6943.46
492.538	7084.47
492.908	7178.48
493.278	7291.02
493.648	7448.31
494.017	7533.28
494.387	7750.45
494.757	7801.29
495.126	8025.92
495.496	8068.4
495.866	8227.72
496.235	8430.88
496.605	8576.64
496.974	8627.49
497.344	8744.54
497.713	8861.83
498.082	8981.15
498.452	9217.53
498.821	9187.7
499.19	9318.31
499.559	9449.16
499.928	9589.95
500.298	9654.12
500.667	9851.63
501.036	9809.15
501.405	10006.88
501.774	10056.6
502.143	10170.95
502.512	10242.58
502.88	10312.86
503.249	10428.57
503.618	10537.27
503.987	10648
504.356	10679.86
504.724	10818.84
505.093	10844.6
505.462	10960.53
505.83	11008.44
506.199	11143.35
506.567	11286.17
506.936	11224.93
507.304	11410.24
507.672	11518.93
508.041	11597.8
508.409	11645.71
508.777	11680.29
509.145	11833.28
509.514	11833.05
509.882	11952.82
510.25	11946.95
510.618	12074.85
510.986	12071.01
511.354	12206.6
511.722	12256.77
512.09	12438.23
512.458	12298.35
512.826	12546.03
513.193	12503.54
513.561	12544.67
513.929	12589.64
514.297	12758
514.664	12802.52
515.032	12836.64
515.4	12930.42
515.767	12928.39
516.135	13030.08
516.502	12807.26
516.869	13118.21
517.237	13101.04
517.604	13054.26
517.972	13187.82
518.339	13179
518.706	13145.33
519.073	13257.19
519.44	13273.01
519.808	13363.41
520.175	13356.17
520.542	13500.13
520.909	13535.83
521.276	13457.41
521.643	13599.56
522.009	13753
522.376	13663.28
522.743	13719.1
523.11	13872.32
523.477	13812.21
523.843	13892.66
524.21	14047.46
524.577	14059.88
524.943	14023.95
525.31	14164.51
525.676	14193.21
526.043	14140.56
526.409	14190.95
526.776	14289.48
527.142	14338.3
527.508	14318.63
527.874	14325.19
528.241	14253.55
528.607	14300.78
528.973	14438.63
529.339	14421.23
529.705	14442.02
530.071	14472.08
530.437	14479.76
530.803	14515.92
531.169	14589.36
531.535	14478.4
531.901	14451.51
532.267	14508.23
532.632	14547.78
532.998	14471.17
533.364	14517.05
533.73	14428.46
534.095	14474.56
534.461	14492.42
534.826	14512.08
535.192	14490.61
535.557	14558.4
535.923	14500.32
536.288	14497.84
536.653	14467.56
537.019	14360.67
537.384	14439.31
537.749	14385.3
538.114	14344.4
538.479	14331.06
538.845	14319.76
539.21	14205.42
539.575	14326.77
539.94	14218.98
540.305	14306.21
540.67	14298.52
541.034	14198.64
541.399	14193.67
541.764	14184.4
542.129	14165.19
542.494	14117.74
542.858	14121.58
543.223	14069.83
543.587	14077.74
543.952	13967.01
544.316	13993.22
544.681	14001.36
545.045	13990.51
545.41	13944.63
545.774	13874.35
546.138	13879.78
546.503	13912.09
546.867	13755.49
547.231	13879.1
547.595	13803.62
547.959	13749.61
548.324	13796.16
548.688	13716.84
549.052	13745.09
549.416	13658.77
549.779	13675.26
550.143	13707.58
550.507	13692.21
550.871	13634.81
551.235	13598.65
551.599	13618.31
551.962	13511.42
552.326	13537.41
552.689	13604.53
553.053	13382.61
553.417	13414.03
553.78	13619.9
554.143	13389.39
554.507	13456.28
554.87	13438.66
555.234	13448.83
555.597	13379.45
555.96	13442.27
556.323	13375.16
556.686	13355.04
557.05	13428.71
557.413	13328.83
557.776	13361.37
558.139	13436.4
558.502	13354.14
558.865	13283.86
559.228	13397.98
559.59	13353.91
559.953	13366.8
560.316	13477.75
560.679	13431.2
561.041	13492.44
561.404	13515.04
561.767	13487.47
562.129	13478.43
562.492	13476.85
562.854	13428.26
563.217	13394.59
563.579	13462.16
563.941	13501.03
564.304	13425.55
564.666	13540.8
565.028	13473.46
565.39	13499.45
565.753	13559.33
566.115	13635.71
566.477	13597.3
566.839	13637.3
567.201	13724.75
567.563	13645.43
567.925	13753
568.287	13733.11
568.648	13733.79
569.01	13774.47
569.372	13763.85
569.734	13687.01
570.095	13762.27
570.457	13842.49
570.819	13821.92
571.18	13783.73
571.542	13933.79
571.903	13904.63
572.265	13855.6
572.626	13876.61
572.987	13923.16
573.349	13968.14
573.71	13944.41
574.071	13897.4
574.432	13911.64
574.794	14044.07
575.155	13978.3
575.516	13898.08
575.877	13949.38
576.238	14016.5
576.599	14053.11
576.96	13969.49
577.32	14033.9
577.681	13970.4
578.042	14057.85
578.403	14035.25
578.763	14071.64
579.124	14036.38
579.485	14138.3
579.845	14153.67
580.206	14093.1
580.566	14088.36
580.927	14028.47
581.287	14023.05
581.648	13991.86
582.008	14055.14
582.368	14099.88
582.728	14067.57
583.089	14056.04
583.449	13994.58
583.809	14008.81
584.169	14034.57
584.529	13920.91
584.889	14086.1
585.249	14061.69
585.609	13948.02
585.969	14055.82
586.329	13922.26
586.688	13928.14
587.048	13931.07
587.408	13945.31
587.768	14009.26
588.127	13902.15
588.487	13919.78
588.846	13928.14
589.206	13905.09
589.565	13892.66
589.925	13993.67
590.284	13854.47
590.643	13843.39
591.003	13845.88
591.362	13977.85
591.721	13843.62
592.08	13912.54
592.44	13975.14
592.799	14018.08
593.158	13836.39
593.517	13821.02
593.876	13843.62
594.235	13845.65
594.593	13884.3
594.952	13908.7
595.311	13810.63
595.67	13836.16
596.029	13865.77
596.387	13886.78
596.746	13861.47
597.104	13696.96
597.463	13853.56
597.822	13797.07
598.18	13716.62
598.538	13766.33
598.897	13799.33
599.255	13645.21
599.613	13903.5
599.972	13794.58
600.33	13839.1
600.688	13733.79
601.046	13795.03
601.404	13830.96
601.762	13750.06
602.12	13908.93
602.478	13759.1
602.836	13757.29
603.194	13736.28
603.552	13848.36
603.91	13783.06
604.268	13782.38
604.625	13758.2
604.983	13792.77
605.341	13738.99
605.698	13785.09
606.056	13788.25
606.413	13731.53
606.771	13868.93
607.128	13865.31
607.485	13721.81
607.843	13786.9
608.2	13857.63
608.557	13890.4
608.914	13859.89
609.272	14010.85
609.629	13988.25
609.986	13974.69
610.343	13944.86
610.7	14077.29
611.057	14002.26
611.414	13874.58
611.771	14019.89
612.127	14050.17
612.484	14001.58
612.841	14062.6
613.198	13976.5
613.554	13942.83
613.911	14112.54
614.267	14105.53
614.624	14067.12
614.98	14046.78
615.337	14134.01
615.693	14183.72
616.05	14099.43
616.406	14204.74
616.762	14087
617.118	14093.1
617.475	14140.79
617.831	14184.85
618.187	14139.66
618.543	14181.24
618.899	14217.85
619.255	14233.44
619.611	14206.1
619.967	14309.6
620.323	14254.91
620.678	14301.23
621.034	14209.71
621.39	14198.86
621.746	14150.73
622.101	14315.25
622.457	14145.08
622.812	14296.71
623.168	14300.56
623.523	14238.64
623.879	14289.03
624.234	14224.85
624.589	14232.76
624.945	14326.32
625.3	14264.17
625.655	14249.26
626.01	14228.69
626.365	14253.33
626.72	14132.88
627.075	14281.8
627.43	14165.42
627.785	14193.89
628.14	14204.97
628.495	14266.88
628.85	14249.03
629.205	14125.19
629.559	14250.84
629.914	14103.73
630.269	14188.47
630.623	14140.11
630.978	14130.84
631.332	14161.8
631.687	14216.04
632.041	14132.2
632.396	14120.22
632.75	14061.69
633.104	14044.74
633.459	13961.81
633.813	13978.76
634.167	14078.19
634.521	13929.27
634.875	14070.28
635.229	14010.17
635.583	13846.33
635.937	13920.91
636.291	13885.88
636.645	13912.32
636.999	13895.37
637.352	13898.98
637.706	13802.26
638.06	13842.72
638.413	13830.06
638.767	13794.81
639.121	13774.47
639.474	13675.49
639.828	13697.63
640.181	13722.49
640.534	13726.79
640.888	13754.81
641.241	13664.41
641.594	13694.24
641.947	13753.68
642.301	13673.68
642.654	13667.58
643.007	13671.65
643.36	13662.15
643.713	13640.91
644.066	13621.7
644.419	13594.13
644.771	13465.1
645.124	13349.62
645.477	13399.11
645.83	13227.36
646.182	13141.94
646.535	13230.08
646.888	13201.83
647.24	13126.35
647.593	13169.74
647.945	13222.62
648.298	13189.85
648.65	13127.03
649.002	13094.49
649.355	13215.84
649.707	13179.91
650.059	13223.75
650.411	13426
650.763	13404.53
651.115	13560.91
651.467	13447.7
651.819	13537.86
652.171	13465.55
652.523	13456.74
652.875	13433.23
653.227	13343.52
653.578	13460.8
653.93	13377.87
654.282	13447.25
654.633	13451.99
654.985	13419.45
655.337	13413.12
655.688	13514.14
656.039	13506.68
656.391	13363.41
656.742	13398.21
657.094	13445.66
657.445	13508.71
657.796	13407.92
658.147	13424.65
658.498	13455.38
658.849	13391.65
659.2	13406.57
659.551	13355.04
659.902	13422.84
660.253	13456.74
660.604	13415.38
660.955	13401.6
661.306	13510.97
661.656	13424.42
662.007	13467.36
662.358	13417.19
662.708	13440.01
663.059	13460.13
663.409	13423.07
663.76	13514.59
664.11	13459
664.461	13483.18
664.811	13544.87
665.161	13522.05
665.511	13457.87
665.862	13469.17
666.212	13538.09
666.562	13485.66
666.912	13468.94
667.262	13416.51
667.612	13470.3
667.962	13468.04
668.312	13530.18
668.662	13542.61
669.011	13400.24
669.361	13487.47
669.711	13428.94
670.06	13404.53
670.41	13442.5
670.76	13440.47
671.109	13430.07
671.459	13355.95
671.808	13358.43
672.157	13413.35
672.507	13323.86
672.856	13321.82
673.205	13287.25
673.554	13376.51
673.904	13313.24
674.253	13357.08
674.602	13306.46
674.951	13134.49
675.3	13061.27
675.649	13331.54
675.998	13248.15
676.346	13355.5
676.695	13360.02
677.044	13254.03
677.393	13201.15
677.741	13318.66
678.09	13193.92
678.438	13171.32
678.787	13181.72
679.135	13221.49
679.484	13165.9
679.832	13125.9
680.181	13081.61
680.529	13168.83
680.877	13045
681.225	13006.8
681.573	13019.23
681.922	12990.53
682.27	12870.09
682.618	12923.19
682.966	12916.86
683.314	12924.1
683.661	12912.8
684.009	12798.67
684.357	12761.16
684.705	12782.86
685.053	12788.96
685.4	12793.93
685.748	12749.41
686.095	12681.16
686.443	12624.22
686.79	12511.68
687.138	12624.22
687.485	12592.35
687.832	12584.67
688.18	12600.94
688.527	12459.7
688.874	12466.25
689.221	12392.81
689.568	12373.15
689.915	12360.04
690.262	12357.78
690.609	12299.25
690.956	12240.72
691.303	12185.36
691.65	12234.4
691.997	12189.65
692.344	12053.16
692.69	12123.21
693.037	12070.78
693.383	11942.2
693.73	12039.6
694.077	11923.9
694.423	11938.58
694.769	11830.11
695.116	11756.67
695.462	11765.26
695.808	11702.88
696.155	11789.21
696.501	11702.66
696.847	11659.95
697.193	11593.06
697.539	11632.6
697.885	11561.42
698.231	11437.58
698.577	11477.58
698.923	11426.73
699.269	11344.02
699.614	11271.48
699.96	11263.12
700.306	11233.97
700.651	11173.41
700.997	11126.63
701.342	11069.91
701.688	11054.99
702.033	10988.1
702.379	10976.58
702.724	10960.98
703.069	11002.79
703.415	10908.78
703.76	10777.94
704.105	10836.47
704.45	10808.67
704.795	10752.17
705.14	10753.98
705.485	10683.02
705.83	10624.27
706.175	10615.23
706.52	10650.93
706.865	10567.32
707.209	10586.3
707.554	10499.98
707.899	10514.22
708.243	10469.24
708.588	10454.78
708.932	10372.52
709.277	10387.44
709.621	10337.95
709.966	10333.88
710.31	10400.55
710.654	10165.75
710.998	10292.53
711.342	10265.41
711.687	10168.69
712.031	10062.7
712.375	10108.58
712.719	10112.87
713.063	10204.39
713.407	10138.86
713.75	10058.41
714.094	10060.67
714.438	9964.4
714.782	9962.59
715.125	10010.05
715.469	9961.91
715.812	9949.48
716.156	9886.66
716.499	9844.85
716.843	9938.19
717.186	9834.01
717.53	9918.07
717.873	9884.85
718.216	9858.19
718.559	9797.85
718.902	9764.63
719.246	9744.07
719.589	9787.91
719.932	9699.1
720.275	9707.46
720.617	9671.75
720.96	9640.79
721.303	9650.96
721.646	9793.56
721.989	9624.52
722.331	9710.85
722.674	9646.67
723.016	9622.94
723.359	9607.35
723.701	9574.8
724.044	9538.65
724.386	9610.06
724.729	9566.9
725.071	9557.63
725.413	9614.58
725.755	9552.88
726.097	9489.84
726.439	9491.64
726.782	9512.21
727.124	9533.22
727.465	9458.65
727.807	9514.24
728.149	9453.23
728.491	9379.1
728.833	9354.7
729.175	9448.03
729.516	9458.65
729.858	9374.81
730.199	9413.91
730.541	9387.92
730.882	9345.66
731.224	9447.8
731.565	9372.55
731.906	9401.7
732.248	9377.97
732.589	9421.14
732.93	9382.27
733.271	9354.25
733.612	9395.37
733.953	9390.85
734.294	9395.83
734.635	9410.74
734.976	9437.41
735.317	9316.96
735.658	9345.66
735.999	9417.97
736.339	9356.96
736.68	9398.76
737.021	9370.97
737.361	9349.05
737.702	9400.12
738.042	9394.24
738.383	9426.33
738.723	9439.22
739.063	9394.47
739.404	9453.68
739.744	9408.71
740.084	9420.46
740.424	9435.15
740.764	9392.44
741.104	9422.49
741.444	9398.54
741.784	9432.89
742.124	9521.92
742.464	9544.52
742.804	9519.89
743.143	9520.57
743.483	9587.01
743.823	9553.34
744.162	9547.46
744.502	9704.97
744.841	9578.19
745.181	9711.75
745.52	9711.98
745.86	9774.57
746.199	9730.05
746.538	9838.53
746.877	9934.34
747.216	9921.69
747.556	9974.57
747.895	10009.6
748.234	10027.22
748.573	10041.01
748.911	10152.42
749.25	10205.52
749.589	10191.29
749.928	10355.8
750.267	10442.8
750.605	10424.5
750.944	10584.5
751.283	10551.95
751.621	10682.35
751.96	10736.81
752.298	10840.76
752.636	11017.7
752.975	10970.7
753.313	10981.1
753.651	11171.82
753.989	11227.64
754.327	11348.09
754.666	11449.56
755.004	11608.65
755.342	11823.56
755.679	11891.81
756.017	11901.98
756.355	12175.41
756.693	12277.33
757.031	12321.63
757.368	12424
757.706	12576.76
758.044	12792.8
758.381	12934.26
758.719	13028.5
759.056	13272.56
759.394	13365.44
759.731	13481.59
760.068	13618.99
760.405	13826.67
760.743	13896.72
761.08	14110.28
761.417	14229.37
761.754	14390.95
762.091	14580.1
762.428	14677.95
762.765	14781.9
763.102	14982.8
763.438	15086.07
763.775	15224.15
764.112	15467.53
764.449	15607.87
764.785	15746.39
765.122	15688.32
765.458	15946.39
765.795	16066.84
766.131	16195.42
766.467	16399.71
766.804	16555.86
767.14	16538.92
767.476	16794.73
767.812	16787.95
768.148	17027.94
768.485	17022.29
768.821	17224.32
769.157	17343.87
769.492	17387.25
769.828	17480.36
770.164	17568.27
770.5	17584.54
770.836	17694.82
771.171	17690.52
771.507	17884.87
771.842	17906.56
772.178	17971.19
772.513	18065.65
772.849	18185.2
773.184	18306.78
773.519	18397.17
773.855	18276.5
774.19	18415.25
774.525	18448.7
774.86	18592.87
775.195	18580.9
775.53	18628.58
775.865	18642.81
776.2	18584.96
776.535	18708.58
776.87	18643.72
777.205	18762.13
777.539	18705.64
777.874	18828.12
778.209	18746.77
778.543	18747.67
778.878	18746.31
779.212	18904.05
779.547	18756.03
779.881	18911.96
780.215	18933.43
780.55	18868.35
780.884	18850.72
781.218	18825.63
781.552	18845.07
781.886	18789.48
782.22	18902.47
782.554	18789.7
782.888	18726.65
783.222	18761.68
783.556	18734.34
783.889	18709.93
784.223	18612.31
784.557	18662.93
784.89	18586.77
785.224	18636.26
785.557	18531.41
785.891	18675.13
786.224	18652.08
786.558	18533.67
786.891	18509.94
787.224	18462.03
787.557	18480.33
787.891	18380.67
788.224	18399.21
788.557	18502.71
788.89	18397.4
789.223	18384.74
789.556	18257.06
789.888	18347.23
790.221	18182.04
790.554	18134.81
790.887	18205.31
791.219	18046.9
791.552	18119.89
791.884	18001.7
792.217	17954.02
792.549	18068.14
792.882	17824.53
793.214	17803.06
793.546	17937.07
793.879	17794.25
794.211	17740.69
794.543	17734.36
794.875	17743.63
795.207	17826.79
795.539	17772.56
795.871	17665.67
796.203	17570.07
796.535	17452.11
796.867	17422.06
797.198	17467.93
797.53	17526.91
797.862	17319.46
798.193	17391.55
798.525	17329.63
798.856	17208.05
799.188	17121.95
799.519	17036.08
799.85	17081.73
800.182	17075.62
800.513	17056.64
800.844	16888.06
801.175	17011.9
801.506	16922.41
801.837	16855.74
802.168	16874.05
802.499	16812.35
802.83	16712.92
803.161	16543.89
803.491	16676.99
803.822	16647.16
804.153	16553.15
804.483	16369.65
804.814	16401.07
805.145	16388.18
805.475	16381.86
805.805	16255.98
806.136	16308.86
806.466	16335.53
806.796	16351.8
807.126	16142.09
807.457	16133.5
807.787	16193.16
808.117	16116.33
808.447	15987.29
808.777	16082.2
809.107	15978.93
809.436	15875.2
809.766	15938.71
810.096	15874.75
810.426	15884.02
810.755	15853.28
811.085	15843.34
811.414	15790.01
811.744	15636.57
812.073	15583.46
812.403	15680.86
812.732	15603.12
813.061	15598.6
813.39	15505.27
813.719	15594.76
814.049	15508.66
814.378	15467.98
814.707	15400.64
815.036	15441.32
815.365	15318.83
815.693	15172.62
816.022	15231.83
816.351	15236.58
816.68	15118.61
817.008	15200.65
817.337	15042.46
817.665	15066.86
817.994	15011.05
818.322	15008.11
818.651	15005.62
818.979	14960.65
819.307	14965.4
819.636	14951.16
819.964	14819.41
820.292	14927.21
820.62	14949.35
820.948	14910.94
821.276	14910.71
821.604	14858.96
821.932	14865.29
822.259	14903.93
822.587	14856.02
822.915	14829.58
823.243	14908.68
823.57	14746.19
823.898	14748.68
824.225	14757.95
824.553	14797.94
824.88	14856.25
825.207	14842.24
825.535	14793.2
825.862	14878.39
826.189	14836.36
826.516	14858.06
826.843	14928.11
827.17	14836.36
827.497	14876.59
827.824	14835.68
828.151	14887.43
828.478	14888.34
828.805	14981.67
829.131	14801.79
829.458	14864.16
829.785	14746.42
830.111	14813.54
830.438	14892.86
830.764	14898.51
831.09	14915.23
831.417	14751.84
831.743	14795.68
832.069	14828
832.395	14736.93
832.722	14851.28
833.048	14731.28
833.374	14805.85
833.7	14704.84
834.026	14707.78
834.351	14693.31
834.677	14688.79
835.003	14642.47
835.329	14715.01
835.654	14737.61
835.98	14610.6
836.306	14559.31
836.631	14600.44
836.956	14624.84
837.282	14618.74
837.607	14520.89
837.932	14600.89
838.258	14466.88
838.583	14531.06
838.908	14449.93
839.233	14467.78
839.558	14449.7
839.883	14358.86
840.208	14291.06
840.533	14354.11
840.858	14343.49
841.182	14261.69
841.507	14317.73
841.832	14165.64
842.156	14170.16
842.481	14240.9
842.805	14157.74
843.13	14073.44
843.454	14134.46
843.778	14016.5
844.103	13997.97
844.427	14007.91
844.751	13907.8
845.075	13987.34
845.399	13945.76
845.723	13802.72
846.047	13791.64
846.371	13638.43
846.695	13742.38
847.019	13578.09
847.343	13521.37
847.666	13512.1
847.99	13442.27
848.313	13399.34
848.637	13353.46
848.96	13304.2
849.284	13334.48
849.607	13190.53
849.931	13177.65
850.254	13041.38
850.577	13023.08
850.9	12870.76
851.223	12931.1
851.546	12888.62
851.869	12760.94
852.192	12830.09
852.515	12769.97
852.838	12687.27
853.161	12706.02
853.483	12575.4
853.806	12589.64
854.129	12543.09
854.451	12561.39
854.774	12423.77
855.096	12438.68
855.419	12372.02
855.741	12317.78
856.063	12233.94
856.385	12287.28
856.708	12201.85
857.03	12124.34
857.352	12180.16
857.674	12065.36
857.996	12090.9
858.318	11976.55
858.64	11982.2
858.961	11918.25
859.283	11931.58
859.605	11853.84
859.926	11949.43
860.248	11854.74
860.57	11755.76
860.891	11798.93
861.212	11758.93
861.534	11754.18
861.855	11675.99
862.176	11693.62
862.498	11704.92
862.819	11607.52
863.14	11616.78
863.461	11533.4
863.782	11524.81
864.103	11517.13
864.424	11467.18
864.745	11534.08
865.065	11462.66
865.386	11426.28
865.707	11331.59
866.027	11438.26
866.348	11394.64
866.668	11400.29
866.989	11316.23
867.309	11269.68
867.63	11343.8
867.95	11277.81
868.27	11136.8
868.59	11254.53
868.91	11264.25
869.23	11164.59
869.55	11084.82
869.87	11189.45
870.19	11157.59
870.51	11176.34
870.83	11080.75
871.15	11066.52
871.469	11056.12
871.789	11120.75
872.109	11065.61
872.428	10986.07
872.748	11000.3
873.067	11012.96
873.386	11052.28
873.706	10989
874.025	10865.17
874.344	10852.29
874.663	10894.09
874.982	10823.13
875.301	10904.94
875.62	10887.99
875.939	10840.31
876.258	10835.56
876.577	10786.3
876.896	10740.65
877.214	10714.44
877.533	10726.19
877.852	10719.86
878.17	10663.36
878.489	10755.34
878.807	10728.9
879.125	10645.51
879.444	10640.09
879.762	10582.91
880.08	10605.96
880.398	10547.66
880.716	10594.44
881.034	10524.84
881.352	10516.47
881.67	10507.66
881.988	10513.09
882.306	10461.34
882.624	10399.42
882.941	10387.89
883.259	10339.76
883.577	10385.18
883.894	10346.99
884.212	10288.91
884.529	10321.9
884.846	10286.2
885.164	10161.46
885.481	10197.84
885.798	10201.68
886.115	10130.04
886.432	10125.75
886.75	10146.54
887.067	10109.25
887.383	10027.45
887.7	10049.14
888.017	9997.17
888.334	9972.08
888.651	9921.01
888.967	9968.92
889.284	9858.19
889.6	9886.43
889.917	9821.13
890.233	9795.36
890.55	9757.17
890.866	9782.48
891.182	9754.46
891.498	9690.51
891.815	9647.35
892.131	9621.81
892.447	9554.69
892.763	9581.58
893.079	9555.14
893.395	9531.19
893.71	9517.41
894.026	9460.46
894.342	9467.91
894.657	9403.74
894.973	9350.18
895.289	9335.49
895.604	9364.87
895.92	9266.79
896.235	9321.25
896.55	9198.09
896.865	9208.71
897.181	9204.64
897.496	9209.16
897.811	9160.58
898.126	9079.22
898.441	9058.43
898.756	8997.64
899.071	8963.97
899.386	8984.31
899.7	8894.82
900.015	8813.47
900.33	8840.81
900.644	8817.76
900.959	8808.5
901.273	8722.4
901.588	8731.21
901.902	8715.17
902.216	8575.96
902.531	8609.86
902.845	8619.12
903.159	8570.76
903.473	8534.38
903.787	8502.52
904.101	8450.77
904.415	8461.39
904.729	8471.78
905.042	8366.93
905.356	8375.06
905.67	8323.99
905.984	8315.63
906.297	8333.26
906.611	8227.27
906.924	8233.82
907.237	8130.55
907.551	8160.38
907.864	8088.29
908.177	8070.66
908.491	7997.67
908.804	7975.07
909.117	7949.54
909.43	7883.78
909.743	7896.88
910.056	7886.49
910.368	7841.07
910.681	7853.27
910.994	7791.12
911.307	7781.63
911.619	7704.12
911.932	7692.59
912.244	7585.7
912.557	7616.89
912.869	7611.69
913.181	7561.52
913.494	7494.86
913.806	7442.88
914.118	7472.49
914.43	7401.75
914.742	7406.73
915.054	7353.62
915.366	7300.97
915.678	7253.74
915.99	7229.1
916.302	7158.6
916.613	7198.37
916.925	7188.65
917.236	7150.69
917.548	7069.33
917.859	7117.92
918.171	7138.94
918.482	7053.29
918.794	6993.18
919.105	6965.38
919.416	6909.11
919.727	6906.4
920.038	6947.3
920.349	6847.19
920.66	6800.41
920.971	6806.52
921.282	6759.96
921.593	6731.94
921.903	6713.86
922.214	6660.53
922.525	6653.53
922.835	6620.53
923.146	6551.16
923.456	6580.31
923.767	6539.18
924.077	6539.18
924.387	6489.01
924.697	6442.91
925.008	6443.59
925.318	6387.32
925.628	6393.87
925.938	6367.66
926.248	6317.94
926.558	6322.46
926.867	6354.55
927.177	6255.57
927.487	6228.68
927.796	6144.61
928.106	6216.7
928.416	6181.67
928.725	6138.96
929.034	6129.47
929.344	6133.31
929.653	6041.11
929.962	6031.4
930.271	5933.77
930.581	5936.03
930.89	5990.94
931.199	5892.64
931.508	5937.84
931.817	5922.7
932.125	5832.53
932.434	5838.63
932.743	5818.52
933.051	5799.76
933.36	5767.9
933.669	5687.9
933.977	5745.3
934.286	5689.03
934.594	5687.68
934.902	5642.25
935.21	5576.72
935.519	5578.75
935.827	5602.48
936.135	5585.76
936.443	5512.76
936.751	5477.74
937.059	5519.54
937.367	5430.51
937.674	5454.01
937.982	5431.18
938.29	5395.48
938.597	5425.31
938.905	5311.41
939.213	5313.45
939.52	5310.74
939.827	5287.23
940.135	5259.21
940.442	5227.35
940.749	5227.12
941.056	5224.41
941.363	5168.82
941.67	5112.1
941.977	5133.11
942.284	5022.16
942.591	5066.9
942.898	5051.08
943.205	5006.79
943.511	5068.26
943.818	4948.71
944.125	4968.37
944.431	4951.88
944.738	4974.47
945.044	4905.77
945.35	4862.84
945.657	4899.67
945.963	4827.13
946.269	4809.51
946.575	4809.05
946.881	4828.71
947.187	4774.7
947.493	4746.46
947.799	4706.23
948.105	4682.5
948.41	4625.1
948.716	4686.35
949.022	4632.79
949.327	4652.9
949.633	4594.82
949.938	4596.86
950.244	4611.77
950.549	4540.59
950.854	4468.05
951.16	4468.72
951.465	4491.1
951.77	4463.75
952.075	4447.71
952.38	4401.38
952.685	4406.58
952.99	4401.61
953.294	4361.16
953.599	4334.04
953.904	4293.59
954.209	4278.9
954.513	4329.29
954.818	4247.94
955.122	4250.42
955.426	4224.89
955.731	4237.54
956.035	4194.83
956.339	4205.68
956.643	4198.9
956.948	4112.8
957.252	4119.13
957.556	4107.83
957.86	4090.43
958.163	4093.59
958.467	4094.04
958.771	4041.16
959.075	4040.71
959.378	3992.8
959.682	3958.23
959.985	3976.31
960.289	3961.62
960.592	3877.78
960.896	3927.5
961.199	3927.72
961.502	3927.04
961.805	3846.14
962.108	3882.3
962.411	3819.48
962.714	3814.5
963.017	3832.36
963.32	3788.06
963.623	3777.22
963.926	3773.15
964.228	3737.44
964.531	3763.66
964.833	3679.59
965.136	3690.44
965.438	3708.74
965.741	3668.97
966.043	3677.11
966.345	3598.24
966.648	3624.9
966.95	3584
967.252	3565.47
967.554	3580.39
967.856	3530.22
968.158	3508.07
968.46	3511.69
968.761	3515.98
969.063	3502.65
969.365	3494.06
969.666	3483.89
969.968	3456.77
970.269	3438.69
970.571	3415.42
970.872	3404.57
971.174	3386.04
971.475	3348.98
971.776	3368.41
972.077	3337.45
972.378	3308.08
972.679	3318.02
972.98	3320.28
973.281	3284.12
973.582	3294.74
973.883	3253.39
974.183	3247.06
974.484	3230.56
974.785	3222.43
975.085	3193.5
975.386	3227.18
975.686	3170
975.986	3203.9
976.287	3165.93
976.587	3120.06
976.887	3109.21
977.187	3095.2
977.487	3093.85
977.787	3072.6
978.087	3097.69
978.387	3061.08
978.687	2997.12
978.987	3027.41
979.286	2979.05
979.586	3040.29
979.885	2965.71
980.185	2961.42
980.484	2968.88
980.784	2923.23
981.083	2930.91
981.382	2953.74
981.682	2956
981.981	2874.19
982.28	2846.85
982.579	2864.47
982.878	2866.05
983.177	2840.74
983.475	2842.1
983.774	2786.06
984.073	2770.46
984.372	2756.45
984.67	2792.38
984.969	2738.6
985.267	2755.55
985.566	2754.42
985.864	2747.19
986.162	2708.32
986.461	2668.09
986.759	2691.37
987.057	2660.64
987.355	2662.9
987.653	2616.57
987.951	2620.64
988.249	2635.55
988.547	2627.87
988.844	2600.3
989.142	2574.99
989.44	2593.75
989.737	2541.54
990.035	2562.33
990.332	2564.82
990.63	2527.08
990.927	2522.11
991.224	2517.82
991.521	2501.77
991.819	2475.78
992.116	2494.76
992.413	2501.09
992.71	2447.08
993.006	2436.91
993.303	2432.62
993.6	2434.43
993.897	2386.52
994.193	2401.89
994.49	2400.08
994.787	2384.71
995.083	2362.79
995.379	2366.41
995.676	2347.88
995.972	2326.86
996.268	2290.93
996.565	2289.57
996.861	2270.14
997.157	2267.43
997.453	2261.55
997.749	2289.57
998.044	2278.27
998.34	2206.18
998.636	2239.86
998.932	2194.43
999.227	2189.46
999.523	2184.72
999.818	2168.22
1000.114	2162.57
1000.409	2168.22
1000.704	2135
1001	2130.03
1001.295	2103.81
1001.59	2126.64
1001.885	2130.25
1002.18	2104.49
1002.475	2042.57
1002.77	2078.05
1003.065	2026.98
1003.359	2038.96
1003.654	2025.62
1003.949	1993.99
1004.243	1993.99
1004.538	1967.32
1004.832	1997.83
1005.127	1921.22
1005.421	1954.44
1005.715	1937.49
1006.009	1936.14
1006.304	1923.48
1006.598	1939.53
1006.892	1911.96
1007.186	1907.44
1007.48	1865.63
1007.773	1882.58
1008.067	1857.72
1008.361	1854.56
1008.655	1838.74
1008.948	1840.32
1009.242	1831.96
1009.535	1842.8
1009.829	1795.12
1010.122	1816.82
1010.415	1779.3
1010.708	1784.5
1011.001	1753.99
1011.295	1763.26
1011.588	1749.47
1011.881	1730.27
1012.173	1714.45
1012.466	1735.01
1012.759	1696.37
1013.052	1689.59
1013.344	1707.21
1013.637	1660.66
1013.93	1690.94
1014.222	1657.72
1014.514	1648.23
1014.807	1668.8
1015.099	1611.17
1015.391	1594.22
1015.683	1611.17
1015.976	1594.45
1016.268	1591.29
1016.56	1577.95
1016.851	1574.79
1017.143	1565.75
1017.435	1552.87
1017.727	1556.71
1018.018	1536.37
1018.31	1539.08
1018.602	1553.32
1018.893	1501.34
1019.185	1487.33
1019.476	1450.72
1019.767	1484.85
1020.058	1452.98
1020.35	1447.56
1020.641	1453.66
1020.932	1438.75
1021.223	1396.04
1021.514	1417.28
1021.804	1428.8
1022.095	1402.14
1022.386	1379.77
1022.677	1390.84
1022.967	1342.03
1023.258	1353.78
1023.548	1348.35
1023.839	1342.03
1024.129	1330.95
1024.419	1311.07
1024.709	1300.9
1025	1328.92
1025.29	1317.62
1025.58	1284.63
1025.87	1278.07
1026.16	1262.93
1026.449	1278.98
1026.739	1259.54
1027.029	1269.03
1027.319	1265.19
1027.608	1253.67
1027.898	1217.28
1028.187	1203.95
1028.477	1196.04
1028.766	1229.26
1029.055	1189.04
1029.344	1194.91
1029.634	1186.1
1029.923	1167.79
1030.212	1187.68
1030.501	1182.48
1030.79	1164.4
1031.078	1112.65
1031.367	1114.24
1031.656	1121.47
1031.945	1132.09
1032.233	1134.57
1032.522	1094.58
1032.81	1110.62
1033.099	1106.33
1033.387	1093.45
1033.675	1070.4
1033.963	1075.59
1034.251	1071.75
1034.54	1063.62
1034.828	1081.69
1035.116	1034.69
1035.403	1047.12
1035.691	1010.28
1035.979	1006.67
1036.267	1033.56
1036.554	999.21
1036.842	994.69
1037.129	989.49
1037.417	970.29
1037.704	992.88
1037.992	985.2
1038.279	965.31
1038.566	966.22
1038.853	966.22
1039.14	966.22
