Data from hue_60_FLMS001491_53.txt Node
Date: Mon Feb 06 15:17:35 GMT 2017
User: dcchb
Spectrometer: FLMS00149
Trigger mode: 0
Integration Time (sec): 2.000000E-2
Scans to average: 10
Electric dark correction enabled: true
Nonlinearity correction enabled: false
Boxcar width: 0
XAxis mode: Wavelengths
Number of Pixels in Spectrum: 2048
>>>>>Begin Spectral Data<<<<<
341.393	-20.68
341.776	-20.68
342.16	-20.68
342.543	-72.88
342.927	-57.51
343.31	-58.42
343.693	-57.96
344.077	-49.38
344.46	-61.81
344.843	-65.42
345.226	-55.7
345.61	-8.02
345.993	-36.95
346.376	-22.03
346.759	-3.95
347.142	10.73
347.525	64.29
347.908	61.58
348.291	83.73
348.674	89.15
349.057	110.17
349.44	127.34
349.823	131.18
350.206	165.76
350.588	194.23
350.971	196.27
351.354	210.5
351.737	227.45
352.119	264.74
352.502	249.82
352.884	290.27
353.267	299.77
353.65	280.11
354.032	305.42
354.414	305.42
354.797	308.35
355.179	324.4
355.562	330.05
355.944	337.05
356.326	338.86
356.709	323.27
357.091	346.09
357.473	346.32
357.855	349.48
358.238	341.12
358.62	340.22
359.002	342.48
359.384	330.27
359.766	347.45
360.148	345.41
360.53	320.56
360.912	333.44
361.294	339.77
361.676	318.75
362.057	332.53
362.439	328.24
362.821	343.15
363.203	322.82
363.584	333.44
363.966	318.75
364.348	318.3
364.729	328.92
365.111	315.81
365.493	318.52
365.874	316.94
366.256	326.66
366.637	298.18
367.019	318.3
367.4	316.04
367.781	314.91
368.163	316.71
368.544	333.66
368.925	317.84
369.306	314.91
369.688	308.35
370.069	315.81
370.45	307.68
370.831	318.3
371.212	327.11
371.593	305.19
371.974	327.79
372.355	340.22
372.736	312.65
373.117	298.18
373.498	308.81
373.879	316.04
374.26	327.34
374.641	301.8
375.021	335.7
375.402	324.4
375.783	316.94
376.163	322.59
376.544	326.43
376.925	315.81
377.305	334.57
377.686	334.34
378.066	295.02
378.447	309.71
378.827	323.04
379.208	323.95
379.588	337.96
379.968	322.36
380.349	338.41
380.729	313.55
381.109	339.54
381.489	335.02
381.87	334.57
382.25	335.47
382.63	322.36
383.01	354.91
383.39	330.5
383.77	333.66
384.15	331.86
384.53	349.71
384.91	323.72
385.29	356.26
385.67	352.65
386.049	330.5
386.429	332.99
386.809	332.53
387.189	378.18
387.568	363.27
387.948	360.33
388.328	351.74
388.707	369.14
389.087	346.54
389.466	336.15
389.846	350.84
390.225	378.86
390.605	353.32
390.984	361.01
391.363	354.68
391.743	348.35
392.122	349.71
392.501	364.17
392.881	367.11
393.26	358.75
393.639	395.81
394.018	396.03
394.397	372.76
394.776	363.95
395.155	367.56
395.534	391.52
395.913	380.44
396.292	384.74
396.671	364.85
397.05	381.8
397.429	369.82
397.808	372.98
398.186	354.45
398.565	391.06
398.944	379.99
399.323	379.31
399.701	379.31
400.08	396.26
400.458	387.22
400.837	401.68
401.215	381.57
401.594	387.67
401.972	395.81
402.351	398.07
402.729	378.18
403.107	399.2
403.486	397.62
403.864	410.95
404.242	408.69
404.62	386.32
404.999	378.63
405.377	406.2
405.755	413.44
406.133	418.86
406.511	399.65
406.889	416.15
407.267	406.88
407.645	405.75
408.023	428.8
408.401	410.27
408.779	419.54
409.156	429.03
409.534	405.07
409.912	422.93
410.29	415.7
410.667	448.91
411.045	436.49
411.422	448.01
411.8	432.87
412.178	435.81
412.555	450.5
412.933	427.45
413.31	451.63
413.687	455.24
414.065	437.84
414.442	440.1
414.819	470.16
415.197	469.03
415.574	444.4
415.951	473.32
416.328	465.41
416.705	450.72
417.082	472.42
417.46	485.98
417.837	478.29
418.214	488.69
418.591	481.46
418.967	480.78
419.344	481.68
419.721	489.59
420.098	499.53
420.475	490.5
420.852	498.18
421.228	505.18
421.605	497.95
421.982	526.2
422.358	493.43
422.735	493.21
423.111	494.34
423.488	520.55
423.864	515.81
424.241	548.12
424.617	513.77
424.994	543.6
425.37	530.04
425.746	539.31
426.123	541.34
426.499	542.7
426.875	542.25
427.251	533.88
427.627	552.87
428.003	561.68
428.379	544.28
428.756	569.14
429.132	560.32
429.507	562.81
429.883	588.57
430.259	587.44
430.635	589.7
431.011	577.27
431.387	589.93
431.763	605.97
432.138	593.77
432.514	609.59
432.89	624.05
433.265	628.35
433.641	618.18
434.016	624.28
434.392	624.5
434.767	639.87
435.143	645.52
435.518	645.97
435.894	662.69
436.269	646.2
436.644	663.82
437.02	652.98
437.395	658.85
437.77	651.17
438.145	681
438.52	696.82
438.895	664.05
439.271	691.39
439.646	720.55
440.021	701.79
440.395	691.62
440.77	690.26
441.145	699.98
441.52	731.39
441.895	713.09
442.27	686.2
442.645	703.82
443.019	696.82
443.394	715.8
443.769	766.65
444.143	717.83
444.518	748.12
444.892	730.04
445.267	771.62
445.641	762.8
446.016	737.04
446.39	752.86
446.764	773.65
447.139	773.43
447.513	764.61
447.887	779.75
448.262	765.29
448.636	764.84
449.01	791.28
449.384	782.24
449.758	800.77
450.132	772.07
450.506	794.22
450.88	788.57
451.254	813.88
451.628	831.28
452.002	822.92
452.376	849.81
452.75	852.07
453.123	848.23
453.497	847.77
453.871	853.88
454.244	857.04
454.618	870.15
454.992	876.25
455.365	900.43
455.739	912.41
456.112	902.69
456.486	915.57
456.859	910.82
457.232	935.23
457.606	954.21
457.979	956.47
458.352	962.8
458.725	961.9
459.099	982.46
459.472	992.18
459.845	980.65
460.218	984.27
460.591	1038.28
460.964	1032.18
461.337	1009.58
461.71	1073.53
462.083	1071.95
462.456	1061.78
462.829	1069.01
463.201	1088.9
463.574	1105.85
463.947	1121.89
464.32	1136.35
464.692	1168.9
465.065	1152.63
465.438	1165.96
465.81	1189.69
466.183	1216.58
466.555	1240.98
466.928	1243.24
467.3	1238.95
467.672	1273.98
468.045	1264.26
468.417	1307.42
468.789	1323.24
469.161	1342.68
469.534	1385.16
469.906	1400.08
470.278	1403.24
470.65	1438.27
471.022	1451.6
471.394	1511.49
471.766	1541.77
472.138	1546.51
472.51	1600.75
472.882	1643.46
473.253	1653.18
473.625	1703.57
473.997	1694.76
474.369	1743.34
474.74	1763.46
475.112	1833.29
475.484	1836.45
475.855	1924.81
476.227	1951.25
476.598	2043.45
476.97	2051.81
477.341	2096.78
477.713	2177.91
478.084	2206.83
478.455	2296.78
478.827	2356.66
479.198	2415.19
479.569	2461.07
479.94	2578.35
480.311	2616.32
480.682	2683.88
481.053	2784.45
481.424	2858.12
481.795	2963.2
482.166	3029.19
482.537	3102.86
482.908	3202.29
483.279	3329.74
483.65	3423.07
484.021	3526.12
484.391	3574.03
484.762	3661.71
485.133	3774.7
485.503	3875.49
485.874	3995.94
486.244	4123.17
486.615	4247.68
486.985	4352.99
487.356	4553.44
487.726	4635.02
488.097	4778.74
488.467	4858.52
488.837	4999.53
489.207	5171.73
489.578	5296.47
489.948	5426.19
490.318	5521.32
490.688	5654.2
491.058	5878.6
491.428	5988.88
491.798	6098.94
492.168	6298.25
492.538	6432.03
492.908	6560.62
493.278	6749.09
493.648	6807.84
494.017	6965.35
494.387	7151.79
494.757	7289.41
495.126	7489.86
495.496	7621.83
495.866	7718.55
496.235	7853.69
496.605	8150.63
496.974	8162.16
497.344	8390.85
497.713	8406.9
498.082	8643.28
498.452	8773.22
498.821	8951.29
499.19	9030.16
499.559	9190.83
499.928	9344.73
500.298	9532.07
500.667	9679.41
501.036	9729.12
501.405	9948.78
501.774	10009.34
502.143	10157.13
502.512	10333.63
502.88	10470.8
503.249	10595.99
503.618	10765.71
503.987	10886.61
504.356	10962.31
504.724	11109.2
505.093	11329.53
505.462	11345.8
505.83	11467.16
506.199	11686.13
506.567	11836.41
506.936	11922.06
507.304	12103.98
507.672	12279.79
508.041	12380.8
508.409	12522.27
508.777	12720
509.145	12806.56
509.514	12844.75
509.882	12982.6
510.25	13154.34
510.618	13274.79
510.986	13389.37
511.354	13621.68
511.722	13753.65
512.09	13925.4
512.458	13908
512.826	14159.06
513.193	14236.8
513.561	14292.62
513.929	14493.52
514.297	14634.08
514.664	14770.8
515.032	14851.7
515.4	14887.41
515.767	15197.23
516.135	15219.83
516.502	15206.04
516.869	15599.93
517.237	15597.22
517.604	15643.54
517.972	15839.02
518.339	15975.29
518.706	16142.51
519.073	16147.71
519.44	16345.67
519.808	16518.1
520.175	16523.29
520.542	16766.23
520.909	16791.31
521.276	17005.54
521.643	17108.14
522.009	17255.48
522.376	17489.14
522.743	17464.29
523.11	17787.67
523.477	17948.12
523.843	18041.22
524.21	18264.49
524.577	18315.34
524.943	18500.19
525.31	18596.46
525.676	18865.38
526.043	18934.08
526.409	19068.54
526.776	19225.6
527.142	19333.16
527.508	19434.63
527.874	19603.89
528.241	19722.76
528.607	19814.28
528.973	20035.29
529.339	20068.06
529.705	20141.05
530.071	20457.65
530.437	20360.93
530.803	20619.91
531.169	20668.04
531.535	20766.57
531.901	20808.15
532.267	20903.74
532.632	21085.66
532.998	21218.54
533.364	21309.84
533.73	21252.66
534.095	21592.54
534.461	21608.13
534.826	21749.37
535.192	21826.66
535.557	21968.57
535.923	21979.42
536.288	22092.87
536.653	22230.26
537.019	22204.27
537.384	22401.56
537.749	22348.68
538.114	22515.23
538.479	22534.89
538.845	22691.95
539.21	22697.82
539.575	22874.09
539.94	22860.98
540.305	23005.16
540.67	22933.97
541.034	23070.92
541.399	23253.74
541.764	23265.49
542.129	23354.53
542.494	23455.99
542.858	23464.58
543.223	23463.68
543.587	23720.17
543.952	23595.2
544.316	23775.08
544.681	23805.36
545.045	23969.2
545.41	24034.96
545.774	24133.94
546.138	24137.11
546.503	24088.75
546.867	24267.95
547.231	24469.75
547.595	24504.33
547.959	24570.09
548.324	24559.69
548.688	24638.56
549.052	24834.26
549.416	24844.88
549.779	24848.73
550.143	24938.21
550.507	25096.85
550.871	25239.68
551.235	25216.63
551.599	25358.09
551.962	25431.99
552.326	25568.03
552.689	25715.6
553.053	25616.16
553.417	25738.42
553.78	26015.93
554.143	25861.13
554.507	26014.12
554.87	26116.04
555.234	26398.74
555.597	26218.18
555.96	26365.52
556.323	26570.04
556.686	26577.72
557.05	26750.6
557.413	26953.75
557.776	26911.27
558.139	27109.68
558.502	27084.6
558.865	27212.73
559.228	27508.77
559.59	27519.16
559.953	27648.65
560.316	27800.96
560.679	27813.39
561.041	28014.29
561.404	28235.08
561.767	28265.13
562.129	28170.9
562.492	28608.85
562.854	28518.69
563.217	28601.85
563.579	28817.43
563.941	28908.05
564.304	29079.8
564.666	29147.82
565.028	29233.02
565.39	29441.82
565.753	29512.78
566.115	29565.44
566.477	29763.4
566.839	29838.65
567.201	30036.16
567.563	30018.76
567.925	30340.56
568.287	30209.04
568.648	30420.78
569.01	30550.5
569.372	30780.77
569.734	30632.53
570.095	30817.38
570.457	31086.98
570.819	31096.47
571.18	31049.69
571.542	31328.1
571.903	31392.28
572.265	31457.82
572.626	31584.59
572.987	31625.72
573.349	31703.91
573.71	31858.71
574.071	31853.29
574.432	32018.25
574.794	32141.41
575.155	32191.81
575.516	32248.53
575.877	32297.12
576.238	32335.08
576.599	32529.88
576.96	32435.42
577.32	32597
577.681	32582.31
578.042	32862.53
578.403	32825.92
578.763	32836.76
579.124	32774.17
579.485	32966.48
579.845	33118.34
580.206	32913.82
580.566	32934.39
580.927	33051.45
581.287	33219.58
581.648	33145.46
582.008	33249.41
582.368	33292.8
582.728	33305
583.089	33275.85
583.449	33255.28
583.809	33334.83
584.169	33487.82
584.529	33308.62
584.889	33597.65
585.249	33329.86
585.609	33313.36
585.969	33627.48
586.329	33443.75
586.688	33627.93
587.048	33555.84
587.408	33545.22
587.768	33476.52
588.127	33537.99
588.487	33543.41
588.846	33754.03
589.206	33582.05
589.565	33425.45
589.925	33647.82
590.284	33617.99
590.643	33621.15
591.003	33748.83
591.362	33807.81
591.721	33796.06
592.08	33862.05
592.44	33869.28
592.799	33878.54
593.158	33940.01
593.517	33869.96
593.876	34014.81
594.235	33856.62
594.593	33956.96
594.952	33959.9
595.311	34042.16
595.67	33952.44
596.029	34234.24
596.387	34309.04
596.746	34313.11
597.104	34206.67
597.463	34194.69
597.822	34237.18
598.18	34128.48
598.538	34251.64
598.897	34441.24
599.255	34203.28
599.613	34647.56
599.972	34509.49
600.33	34391.3
600.688	34459.32
601.046	34504.97
601.404	34643.27
601.762	34618.86
602.12	34736.83
602.478	34730.5
602.836	34779.31
603.194	34595.81
603.552	34784.06
603.91	34715.81
604.268	34902.25
604.625	34824.28
604.983	35060.21
605.341	34850.95
605.698	35053.43
606.056	35207.1
606.413	34986.99
606.771	35295
607.128	35284.16
607.485	35080.55
607.843	35254.1
608.2	35373.42
608.557	35555.79
608.914	35364.83
609.272	35539.97
609.629	35652.73
609.986	35698.84
610.343	35642.34
610.7	35874.2
611.057	35934.76
611.414	35854.54
611.771	36000.07
612.127	36116.9
612.484	36148.09
612.841	36204.58
613.198	36145.15
613.554	36099.28
613.911	36403.45
614.267	36384.02
614.624	36287.52
614.98	36471.02
615.337	36558.47
615.693	36432.15
616.05	36397.35
616.406	36684.35
616.762	36534.07
617.118	36624.69
617.475	36776.55
617.831	36725.7
618.187	36818.58
618.543	36793.5
618.899	36986.03
619.255	37105.58
619.611	37023.77
619.967	37107.61
620.323	37241.17
620.678	37112.36
621.034	37048.63
621.39	37093.15
621.746	37058.35
622.101	37551.67
622.457	37201.39
622.812	37318.91
623.168	37441.61
623.523	37465.57
623.879	37453.37
624.234	37298.57
624.589	37536.3
624.945	37513.02
625.3	37551.44
625.655	37583.98
626.01	37546.02
626.365	37562.97
626.72	37474.61
627.075	37533.36
627.43	37604.1
627.785	37498.56
628.14	37590.31
628.495	37588.96
628.85	37691.78
629.205	37556.64
629.559	37688.16
629.914	37624.66
630.269	37664.66
630.623	37527.26
630.978	37496.08
631.332	37689.97
631.687	37660.14
632.041	37552.57
632.396	37563.87
632.75	37488.17
633.104	37578.33
633.459	37410.2
633.813	37404.55
634.167	37359.13
634.521	37357.55
634.875	37470.54
635.229	37306.02
635.583	37348.51
635.937	37241.39
636.291	37258.34
636.645	37323.43
636.999	37084.79
637.352	37228.96
637.706	37066.71
638.06	37191.23
638.413	37216.08
638.767	37011.12
639.121	37164.56
639.474	36905.58
639.828	36972.47
640.181	37099.48
640.534	37074.84
640.888	36933.15
641.241	36752.82
641.594	36734.74
641.947	36967.95
642.301	36902.65
642.654	36750.11
643.007	36907.17
643.36	36824.23
643.713	36908.3
644.066	36781.07
644.419	36626.49
644.771	36381.08
645.124	36064.48
645.477	36092.05
645.83	35815.67
646.182	35748.78
646.535	35659.51
646.888	35582.23
647.24	35414.55
647.593	35759.17
647.945	35656.8
648.298	35365.96
648.65	35438.05
649.002	35316.47
649.355	35600.53
649.707	35330.03
650.059	35563.02
650.411	35921.2
650.763	35855.89
651.115	36379.27
651.467	36150.35
651.819	36219.95
652.171	36192.16
652.523	36061.54
652.875	36105.38
653.227	35978.38
653.578	36041.88
653.93	35973.4
654.282	35846.63
654.633	35827.42
654.985	35902.45
655.337	35907.42
655.688	35852.5
656.039	36094.08
656.391	35664.26
656.742	35871.03
657.094	35846.18
657.445	35944.7
657.796	35768.66
658.147	35806.63
658.498	35720.76
658.849	35850.7
659.2	35781.55
659.551	35700.42
659.902	35825.39
660.253	35755.56
660.604	35751.49
660.955	35734.54
661.306	35722.11
661.656	35672.17
662.007	35777.25
662.358	35614.09
662.708	35614.77
663.059	35472.63
663.409	35372.29
663.76	35631.04
664.11	35540.65
664.461	35550.14
664.811	35593.3
665.161	35691.83
665.511	35554.88
665.862	35490.25
666.212	35743.35
666.562	35643.47
666.912	35659.74
667.262	35481.44
667.612	35653.64
667.962	35527.31
668.312	35492.29
668.662	35607.99
669.011	35503.13
669.361	35345.62
669.711	35359.64
670.06	35395.57
670.41	35406.41
670.76	35308.34
671.109	35462.46
671.459	35396.02
671.808	35318.51
672.157	35420.2
672.507	35151.28
672.856	35135.91
673.205	35277.38
673.554	35408.22
673.904	35204.84
674.253	35471.5
674.602	35259.52
674.951	34846.2
675.3	34681.69
675.649	35120.77
675.998	35248.23
676.346	35142.01
676.695	35139.98
677.044	34882.81
677.393	34982.7
677.741	35052.07
678.09	35005.29
678.438	35017.5
678.787	35081.9
679.135	34937.27
679.484	34759.88
679.832	34864.28
680.181	34716.04
680.529	34749.71
680.877	34648.02
681.225	34575.02
681.573	34876.48
681.922	34519.88
682.27	34505.19
682.618	34469.26
682.966	34466.1
683.314	34361.02
683.661	34342.71
684.009	34334.58
684.357	34282.6
684.705	34192.66
685.053	34188.14
685.4	34145.2
685.748	33924.42
686.095	34046.9
686.443	33829.96
686.79	33782.28
687.138	33960.58
687.485	33756.97
687.832	33679.68
688.18	33855.49
688.527	33499.35
688.874	33514.03
689.221	33531.89
689.568	33325.79
689.915	33210.09
690.262	33313.81
690.609	33142.52
690.956	33034.95
691.303	32962.64
691.65	32895.29
691.997	33018.45
692.344	32627.73
692.69	32681.06
693.037	32753.38
693.383	32340.51
693.73	32464.8
694.077	32410.11
694.423	32331.92
694.769	32218.7
695.116	32235.65
695.462	32220.51
695.808	31954.08
696.155	32139.15
696.501	31906.62
696.847	31816.9
697.193	31505.05
697.539	31676.57
697.885	31441.09
698.231	31440.19
698.577	31367.88
698.923	31453.52
699.269	31151.61
699.614	31027.55
699.96	31035
700.306	31028.68
700.651	30951.62
700.997	30866.65
701.342	30759.53
701.688	30741.45
702.033	30605.18
702.379	30664.62
702.724	30537.39
703.069	30601.34
703.415	30220.79
703.76	30254.68
704.105	30247.91
704.45	30182.37
704.795	29928.14
705.14	29878.42
705.485	29936.5
705.83	29782.38
706.175	29823.74
706.52	29761.59
706.865	29640.01
707.209	29529.05
707.554	29480.24
707.899	29509.17
708.243	29430.98
708.588	29329.06
708.932	29155.5
709.277	29122.74
709.621	29089.52
709.966	28902.63
710.31	29130.19
710.654	28840.94
710.998	28913.93
711.342	28841.84
711.687	28692.47
712.031	28601.17
712.375	28552.58
712.719	28638
713.063	28532.47
713.407	28629.42
713.75	28461.51
714.094	28399.59
714.438	28294.74
714.782	28395.07
715.125	28232.14
715.469	28103.33
715.812	28052.48
716.156	27928.87
716.499	27872.37
716.843	28080.5
717.186	27901.07
717.53	27968.19
717.873	27893.16
718.216	27730.23
718.559	27640.29
718.902	27514.64
719.246	27566.39
719.589	27492.05
719.932	27337.02
720.275	27413.18
720.617	27341.99
720.96	27376.34
721.303	27176.35
721.646	27290.92
721.989	27102.68
722.331	27115.11
722.674	26993.3
723.016	27031.27
723.359	26962.34
723.701	26895.45
724.044	26947.43
724.386	26767.54
724.729	26751.5
725.071	26761.67
725.413	26751.95
725.755	26807.32
726.097	26688.68
726.439	26571.17
726.782	26514.67
727.124	26615.68
727.465	26510.83
727.807	26466.99
728.149	26436.25
728.491	26290.72
728.833	26470.15
729.175	26262.25
729.516	26304.96
729.858	26218.18
730.199	26134.57
730.541	26097.73
730.882	26072.42
731.224	26248.01
731.565	25939.77
731.906	25987.9
732.248	25934.8
732.589	25881.24
732.93	25745.88
733.271	25716.95
733.612	25799.21
733.953	25968.02
734.294	25601.7
734.635	25680.79
734.976	25763.05
735.317	25445.77
735.658	25487.13
735.999	25622.72
736.339	25439.22
736.68	25504.75
737.021	25400.58
737.361	25268.15
737.702	25400.58
738.042	25359.9
738.383	25257.75
738.723	25349.28
739.063	25162.39
739.404	25167.13
739.744	25081.71
740.084	24944.99
740.424	24959.46
740.764	24999
741.104	25025.44
741.444	24863.19
741.784	24788.39
742.124	24888.27
742.464	24786.81
742.804	24831.32
743.143	24688.73
743.483	24739.35
743.823	24651.22
744.162	24535.29
744.502	24657.54
744.841	24490.77
745.181	24607.38
745.52	24504.55
745.86	24525.8
746.199	24386.36
746.538	24568.28
746.877	24412.58
747.216	24432.24
747.556	24403.77
747.895	24350.66
748.234	24232.47
748.573	24258.68
748.911	24161.51
749.25	24135.75
749.589	24109.76
749.928	24089.65
750.267	23989.76
750.605	24058.24
750.944	24009.65
751.283	23890.56
751.621	23938.92
751.96	23752.93
752.298	23746.16
752.636	23788.87
752.975	23626.16
753.313	23504.58
753.651	23663.9
753.989	23437.91
754.327	23389.33
754.666	23323.34
755.004	23376
755.342	23344.36
755.679	23314.53
756.017	23167.64
756.355	23236.56
756.693	23181.2
757.031	23157.02
757.368	22935.33
757.706	22968.77
758.044	22909.57
758.381	22904.6
758.719	22807.2
759.056	22821.43
759.394	22777.14
759.731	22572.63
760.068	22553.42
760.405	22398.17
760.743	22412.63
761.08	22414.89
761.417	22378.73
761.754	22290.83
762.091	22246.31
762.428	22190.49
762.765	22066.88
763.102	22106.2
763.438	21873.21
763.775	21909.14
764.112	21902.59
764.449	21857.17
764.785	21710.28
765.122	21631.41
765.458	21585.99
765.795	21455.59
766.131	21470.28
766.467	21422.15
766.804	21236.84
767.14	21176.73
767.476	21240.91
767.812	21035.49
768.148	21124.76
768.485	20921.14
768.821	20796.63
769.157	20833.92
769.492	20743.75
769.828	20656.29
770.164	20457.88
770.5	20636.18
770.836	20473.02
771.171	20375.4
771.507	20308.28
771.842	20057.89
772.178	20199.13
772.513	20115.06
772.849	20050.89
773.184	20027.16
773.519	19965.69
773.855	19846.37
774.19	19791.46
774.525	19705.81
774.86	19717.79
775.195	19670.56
775.53	19542.42
775.865	19352.37
776.2	19320.28
776.535	19235.77
776.87	19157.12
777.205	19170.23
777.539	19098.59
777.874	19080.06
778.209	18950.12
778.543	18931.59
778.878	18787.87
779.212	18891.82
779.547	18680.07
779.881	18658.15
780.215	18459.29
780.55	18478.72
780.884	18361.66
781.218	18434.88
781.552	18377.03
781.886	18231.72
782.22	18217.04
782.554	18141.1
782.888	17903.82
783.222	17911.96
783.556	17824.05
783.889	17797.61
784.223	17743.6
784.557	17659.08
784.89	17693.21
785.224	17603.27
785.557	17447.11
785.891	17435.59
786.224	17426.55
786.558	17388.36
786.891	17190.17
787.224	17158.76
787.557	17075.6
787.891	17033.79
788.224	17013.22
788.557	17033.11
788.89	17035.82
789.223	16923.51
789.556	16811.2
789.888	16685.1
790.221	16674.93
790.554	16520.13
790.887	16601.71
791.219	16481.71
791.552	16473.35
791.884	16370.98
792.217	16303.19
792.549	16319.23
792.882	16173.47
793.214	16151.33
793.546	16121.95
793.879	15999.47
794.211	15876.98
794.543	15877.21
794.875	15971.9
795.207	15891.9
795.539	15781.62
795.871	15775.29
796.203	15651.23
796.535	15563.55
796.867	15524.9
797.198	15478.8
797.53	15490.55
797.862	15489.2
798.193	15392.25
798.525	15320.39
798.856	15342.99
799.188	15187.06
799.519	15014.18
799.85	15097.8
800.182	15017.35
800.513	15044.92
800.844	14916.78
801.175	14976.22
801.506	14934.18
801.837	14809.67
802.168	14751.59
802.499	14762.89
802.83	14647.86
803.161	14637.24
803.491	14616.68
803.822	14587.75
804.153	14550.01
804.483	14457.13
804.814	14391.15
805.145	14388.66
805.475	14414.65
805.805	14296.69
806.136	14298.49
806.466	14276.12
806.796	14231.15
807.126	14073.42
807.457	14105.5
807.787	14018.05
808.117	14070.7
808.447	14032.06
808.777	13900.54
809.107	13897.83
809.436	13865.74
809.766	13817.83
810.096	13944.83
810.426	13724.27
810.755	13832.07
811.085	13742.8
811.414	13641.11
811.744	13541.23
812.073	13526.31
812.403	13519.53
812.732	13454.45
813.061	13472.53
813.39	13406.31
813.719	13369.7
814.049	13398.86
814.378	13350.5
814.707	13310.05
815.036	13352.08
815.365	13220.33
815.693	13125.64
816.022	13146.66
816.351	13164.96
816.68	13028.7
817.008	13074.35
817.337	12934.69
817.665	12889.94
817.994	12952.99
818.322	12908.02
818.651	12905.76
818.979	12850.4
819.307	12941.92
819.636	12744.86
819.964	12765.2
820.292	12682.04
820.62	12781.25
820.948	12770.4
821.276	12797.74
821.604	12632.55
821.932	12717.29
822.259	12731.08
822.587	12643.62
822.915	12558.2
823.243	12695.37
823.57	12704.41
823.898	12684.53
824.225	12635.49
824.553	12644.3
824.88	12673.9
825.207	12659.22
825.535	12650.4
825.862	12705.99
826.189	12623.74
826.516	12682.49
826.843	12671.64
827.17	12660.57
827.497	12717.74
827.824	12672.77
828.151	12610.4
828.478	12540.57
828.805	12633.68
829.131	12608.6
829.458	12602.72
829.785	12454.93
830.111	12568.14
830.438	12581.7
830.764	12564.3
831.09	12647.46
831.417	12601.36
831.743	12586.22
832.069	12574.7
832.395	12522.27
832.722	12528.15
833.048	12480.91
833.374	12564.3
833.7	12387.36
834.026	12466.45
834.351	12504.64
834.677	12426.23
835.003	12410.63
835.329	12385.55
835.654	12357.08
835.98	12391.65
836.306	12364.31
836.631	12355.49
836.956	12397.08
837.282	12408.83
837.607	12278.66
837.932	12348.94
838.258	12250.64
838.583	12272.33
838.908	12233.01
839.233	12254.93
839.558	12163.18
839.883	12129.51
840.208	12117.76
840.533	12064.2
840.858	12061.72
841.182	12099.46
841.507	12099.46
841.832	11948.05
842.156	12017.42
842.481	11983.07
842.805	11950.31
843.13	11796.64
843.454	11883.87
843.778	11801.84
844.103	11802.51
844.427	11835.28
844.751	11786.7
845.075	11770.65
845.399	11753.25
845.723	11587.38
846.047	11657.21
846.371	11615.17
846.695	11559.13
847.019	11561.62
847.343	11440.72
847.666	11336.99
847.99	11318.01
848.313	11381.51
848.637	11264.68
848.96	11206.15
849.284	11236.43
849.607	11106.71
849.931	11065.36
850.254	11052.93
850.577	10934.06
850.9	10941.75
851.223	10880.96
851.546	10841.41
851.869	10775.87
852.192	10819.72
852.515	10753.28
852.838	10652.26
853.161	10700.62
853.483	10626.73
853.806	10553.06
854.129	10548.99
854.451	10529.78
854.774	10437.8
855.096	10413.62
855.419	10415.88
855.741	10339.05
856.063	10313.97
856.385	10273.52
856.708	10271.48
857.03	10272.84
857.352	10260.86
857.674	10166.4
857.996	10149.45
858.318	10040.98
858.64	10081.88
858.961	10147.42
859.283	10053.18
859.605	10026.74
859.926	10059.06
860.248	10007.53
860.57	9885.73
860.891	9965.05
861.212	9931.15
861.534	9911.26
861.855	9917.82
862.176	9891.83
862.498	9806.63
862.819	9860.19
863.14	9794.21
863.461	9689.12
863.782	9716.47
864.103	9705.85
864.424	9682.8
864.745	9707.43
865.065	9635.34
865.386	9613.87
865.707	9595.57
866.027	9594.44
866.348	9573.87
866.668	9599.63
866.989	9555.12
867.309	9529.13
867.63	9539.52
867.95	9448.23
868.27	9441.9
868.59	9477.83
868.91	9420.88
869.23	9426.08
869.55	9330.49
869.87	9450.26
870.19	9455.91
870.51	9365.97
870.83	9371.84
871.15	9320.55
871.469	9326.2
871.789	9344.27
872.109	9290.04
872.428	9262.69
872.748	9297.04
873.067	9306.99
873.386	9275.8
873.706	9242.13
874.025	9168.01
874.344	9164.39
874.663	9183.83
874.982	9171.85
875.301	9202.81
875.62	9120.78
875.939	9192.19
876.258	9074.45
876.577	9124.62
876.896	9046.43
877.214	9053.21
877.533	9027.22
877.852	9026.77
878.17	9044.39
878.489	9034.68
878.807	8986.32
879.125	9000.55
879.444	8969.37
879.762	8872.65
880.08	8883.04
880.398	8934.34
880.716	8920.1
881.034	8859.54
881.352	8814.34
881.67	8813.21
881.988	8842.82
882.306	8826.77
882.624	8740.22
882.941	8706.1
883.259	8707.91
883.577	8681.92
883.894	8658.87
884.212	8724.18
884.529	8596.5
884.846	8649.83
885.164	8565.76
885.481	8555.82
885.798	8598.76
886.115	8520.79
886.432	8555.37
886.75	8536.39
887.067	8514.47
887.383	8473.56
887.7	8443.05
888.017	8409.61
888.334	8466.78
888.651	8441.02
888.967	8334.13
889.284	8386.33
889.6	8257.52
889.917	8195.6
890.233	8231.99
890.55	8227.02
890.866	8217.3
891.182	8256.39
891.498	8202.16
891.815	8116.28
892.131	8125.55
892.447	8043.97
892.763	8048.04
893.079	8017.98
893.395	8000.13
893.71	8053.46
894.026	7969.85
894.342	7980.24
894.657	7961.94
894.973	7909.74
895.289	7876.29
895.604	7865.22
895.92	7779.57
896.235	7801.26
896.55	7784.09
896.865	7709.29
897.181	7685.79
897.496	7726.46
897.811	7620.48
898.126	7658.89
898.441	7600.59
898.756	7614.83
899.071	7519.92
899.386	7571.67
899.7	7493.02
900.015	7459.13
900.33	7378.68
900.644	7397.21
900.959	7396.53
901.273	7410.77
901.588	7388.39
901.902	7305.46
902.216	7290.99
902.531	7265.23
902.845	7242.63
903.159	7198.79
903.473	7140.72
903.787	7152.47
904.101	7184.1
904.415	7135.29
904.729	7094.16
905.042	7050.78
905.356	7006.48
905.67	7006.03
905.984	7004.67
906.297	6970.55
906.611	6954.05
906.924	6912.93
907.237	6913.6
907.551	6825.92
907.864	6884
908.177	6825.92
908.491	6790.89
908.804	6797.67
909.117	6742.31
909.43	6629.09
909.743	6694.4
910.056	6622.99
910.368	6667.06
910.681	6546.83
910.994	6521.07
911.307	6492.82
911.619	6472.03
911.932	6482.43
912.244	6354.52
912.557	6447.63
912.869	6406.95
913.181	6389.55
913.494	6324.69
913.806	6344.58
914.118	6308.87
914.43	6245.82
914.742	6246.05
915.054	6239.72
915.366	6224.58
915.678	6168.31
915.99	6117.24
916.302	6051.25
916.613	6141.87
916.925	6109.56
917.236	6072.95
917.548	6022.1
917.859	6027.98
918.171	6008.99
918.482	5915.44
918.794	5886.96
919.105	5936.45
919.416	5853.29
919.727	5850.13
920.038	5782.11
920.349	5858.26
920.66	5802.22
920.971	5819.17
921.282	5705.27
921.593	5700.98
921.903	5617.82
922.214	5640.42
922.525	5595.22
922.835	5634.99
923.146	5615.33
923.456	5532.17
923.767	5566.29
924.077	5498.95
924.387	5516.58
924.697	5440.42
925.008	5474.32
925.318	5427.54
925.628	5438.39
925.938	5433.64
926.248	5345.06
926.558	5332.4
926.867	5309.8
927.177	5321.33
927.487	5259.86
927.796	5292.4
928.106	5203.59
928.416	5218.28
928.725	5203.14
929.034	5149.36
929.344	5167.21
929.653	5130.15
929.962	5086.08
930.271	5049.47
930.581	5076.36
930.89	5052.64
931.199	5029.13
931.508	4969.02
931.817	5007.89
932.125	4965.63
932.434	4905.75
932.743	4914.11
933.051	4867.78
933.36	4851.06
933.669	4839.08
933.977	4859.65
934.286	4851.06
934.594	4781.91
934.902	4752.98
935.21	4732.87
935.519	4760.21
935.827	4730.61
936.135	4662.36
936.443	4633.21
936.751	4631.18
937.059	4595.25
937.367	4627.56
937.674	4590.05
937.982	4555.7
938.29	4579.88
938.597	4558.86
938.905	4496.72
939.213	4499.66
939.52	4478.19
939.827	4496.72
940.135	4472.54
940.442	4435.93
940.749	4406.55
941.056	4399.32
941.363	4351.19
941.67	4324.29
941.977	4327.23
942.284	4298.08
942.591	4277.51
942.898	4320.68
943.205	4229.38
943.511	4217.63
943.818	4222.83
944.125	4176.73
944.431	4156.16
944.738	4160
945.044	4140.57
945.35	4090.63
945.657	4128.82
945.963	4123.39
946.269	4034.81
946.575	4035.49
946.881	3999.78
947.187	3999.1
947.493	3992.78
947.799	3959.56
948.105	3973.79
948.41	3954.59
948.716	3936.73
949.022	3936.73
949.327	3917.75
949.633	3874.81
949.938	3870.97
950.244	3841.37
950.549	3833.23
950.854	3847.7
951.16	3863.74
951.465	3808.15
951.77	3776.51
952.075	3748.94
952.38	3729.05
952.685	3719.56
952.99	3660.13
953.294	3686.34
953.599	3706.23
953.904	3613.35
954.209	3637.08
954.513	3663.07
954.818	3577.65
955.122	3594.59
955.426	3551.21
955.731	3568.15
956.035	3545.78
956.339	3530.19
956.643	3540.81
956.948	3482.73
957.252	3474.6
957.556	3488.38
957.86	3445.9
958.163	3461.72
958.467	3429.63
958.771	3407.71
959.075	3414.49
959.378	3407.71
959.682	3403.41
959.985	3324.32
960.289	3382.62
960.592	3285
960.896	3319.12
961.199	3302.63
961.502	3287.48
961.805	3268.05
962.108	3252.46
962.411	3242.29
962.714	3237.77
963.017	3227.15
963.32	3223.53
963.623	3203.64
963.926	3208.84
964.228	3169.52
964.531	3157.09
964.833	3160.26
965.136	3118.45
965.438	3145.34
965.741	3102.86
966.043	3073.48
966.345	3060.82
966.648	3047.72
966.95	3044.55
967.252	3037.55
967.554	2995.29
967.856	2995.51
968.158	2989.41
968.46	2979.7
968.761	2941.73
969.063	2954.84
969.365	2939.02
969.666	2935.4
969.968	2878.68
970.269	2902.18
970.571	2895.4
970.872	2895.4
971.174	2854.5
971.475	2846.14
971.776	2840.94
972.077	2835.07
972.378	2802.07
972.679	2818.57
972.98	2796.2
973.281	2791.23
973.582	2769.98
973.883	2742.64
974.183	2736.09
974.484	2715.52
974.785	2712.36
975.085	2722.3
975.386	2713.49
975.686	2687.95
975.986	2665.13
976.287	2666.03
976.587	2646.37
976.887	2633.72
977.187	2652.25
977.487	2610.89
977.787	2585.81
978.087	2590.1
978.387	2559.14
978.687	2552.14
978.987	2514.85
979.286	2546.94
979.586	2510.56
979.885	2519.59
980.185	2515.3
980.484	2491.8
980.784	2479.37
981.083	2456.09
981.382	2461.74
981.682	2494.06
981.981	2456.55
982.28	2426.49
982.579	2431.24
982.878	2409.77
983.177	2418.35
983.475	2408.64
983.774	2396.43
984.073	2361.63
984.372	2362.31
984.67	2331.8
984.969	2325.02
985.267	2348.53
985.566	2345.81
985.864	2300.84
986.162	2300.84
986.461	2280.28
986.759	2277.34
987.057	2248.64
987.355	2262.43
987.653	2248.87
987.951	2261.75
988.249	2245.03
988.547	2230.34
988.844	2186.5
989.142	2239.83
989.44	2206.16
989.737	2191.02
990.035	2149.89
990.332	2181.3
990.63	2155.54
990.927	2127.97
991.224	2145.37
991.521	2134.07
991.819	2112.15
992.116	2105.59
992.413	2098.59
992.71	2056.1
993.006	2099.27
993.303	2095.65
993.6	2063.34
993.897	2049.78
994.193	2054.52
994.49	2021.53
994.787	2010.91
995.083	2048.65
995.379	2020.85
995.676	2008.2
995.972	1987.86
996.268	1984.92
996.565	1922.55
996.861	1971.36
997.157	1965.26
997.453	1939.05
997.749	1919.61
998.044	1943.56
998.34	1937.46
998.636	1906.28
998.932	1906.96
999.227	1881.87
999.523	1879.61
999.818	1848.65
1000.114	1856.56
1000.409	1841.87
1000.704	1837.58
1001	1843.23
1001.295	1800.52
1001.59	1820.4
1001.885	1835.54
1002.18	1784.25
1002.475	1756.9
1002.77	1788.09
1003.065	1764.13
1003.359	1806.62
1003.654	1774.53
1003.949	1741.54
1004.243	1737.92
1004.538	1731.37
1004.832	1708.54
1005.127	1729.33
1005.421	1715.1
1005.715	1686.17
1006.009	1701.54
1006.304	1660.41
1006.598	1635.55
1006.892	1678.71
1007.186	1647.98
1007.48	1645.72
1007.773	1627.64
1008.067	1636.45
1008.361	1577.25
1008.655	1610.24
1008.948	1577.92
1009.242	1587.64
1009.535	1553.07
1009.829	1544.25
1010.122	1553.29
1010.415	1548.77
1010.708	1559.17
1011.001	1532.28
1011.295	1534.31
1011.588	1514.42
1011.881	1507.19
1012.173	1492.96
1012.466	1487.53
1012.759	1495.44
1013.052	1503.58
1013.344	1446.85
1013.637	1464.03
1013.93	1412.96
1014.222	1432.17
1014.514	1415.22
1014.807	1392.62
1015.099	1430.13
1015.391	1409.79
1015.683	1371.6
1015.976	1351.94
1016.268	1371.38
1016.56	1367.53
1016.851	1347.42
1017.143	1343.13
1017.435	1329.34
1017.727	1342.22
1018.018	1318.72
1018.31	1322.56
1018.602	1306.75
1018.893	1323.47
1019.185	1298.38
1019.476	1286.41
1019.767	1291.15
1020.058	1263.81
1020.35	1267.42
1020.641	1233.07
1020.932	1238.72
1021.223	1249.57
1021.514	1234.88
1021.804	1245.96
1022.095	1212.28
1022.386	1203.47
1022.677	1229.69
1022.967	1219.29
1023.258	1211.15
1023.548	1178.39
1023.839	1197.82
1024.129	1176.58
1024.419	1161.44
1024.709	1169.57
1025	1129.12
1025.29	1130.93
1025.58	1143.59
1025.87	1109.91
1026.16	1108.78
1026.449	1128.22
1026.739	1107.65
1027.029	1091.61
1027.319	1095.23
1027.608	1097.94
1027.898	1080.08
1028.187	1089.58
1028.477	1073.98
1028.766	1077.15
1029.055	1036.24
1029.344	1023.36
1029.634	1015.45
1029.923	1020.2
1030.212	1012.97
1030.501	1022.91
1030.79	999.86
1031.078	1020.2
1031.367	989.24
1031.656	986.3
1031.945	1004.38
1032.233	1006.64
1032.522	987.43
1032.81	980.2
1033.099	974.78
1033.387	967.55
1033.675	968.9
1033.963	959.18
1034.251	933.42
1034.54	944.72
1034.828	950.82
1035.116	916.25
1035.403	915.12
1035.691	897.49
1035.979	900.88
1036.267	919.41
1036.554	914.21
1036.842	912.63
1037.129	899.3
1037.417	886.64
1037.704	908.11
1037.992	873.99
1038.279	845.06
1038.566	839.86
1038.853	839.86
1039.14	839.86
