Data from hue_340_FLMS001491_68.txt Node
Date: Mon Feb 06 15:43:27 GMT 2017
User: dcchb
Spectrometer: FLMS00149
Trigger mode: 0
Integration Time (sec): 2.000000E-2
Scans to average: 10
Electric dark correction enabled: true
Nonlinearity correction enabled: false
Boxcar width: 0
XAxis mode: Wavelengths
Number of Pixels in Spectrum: 2048
>>>>>Begin Spectral Data<<<<<
341.393	-5.17
341.776	-5.17
342.16	-5.17
342.543	-65.73
342.927	-66.18
343.31	-61.44
343.693	-63.7
344.077	-93.98
344.46	-56.47
344.843	-49.24
345.226	-54.43
345.61	-32.74
345.993	-20.08
346.376	7.94
346.759	17.2
347.142	21.95
347.525	47.94
347.908	61.27
348.291	68.73
348.674	87.71
349.057	119.35
349.44	132.45
349.823	132
350.206	143.75
350.588	184.88
350.971	197.99
351.354	205.67
351.737	263.75
352.119	252
352.502	251.55
352.884	277.08
353.267	269.4
353.65	270.53
354.032	290.87
354.414	299.46
354.797	295.61
355.179	311.66
355.562	312.79
355.944	324.31
356.326	337.42
356.709	338.78
357.091	318.21
357.473	335.16
357.855	330.87
358.238	336.29
358.62	329.96
359.002	329.51
359.384	329.06
359.766	317.31
360.148	333.35
360.53	322.51
360.912	318.89
361.294	337.42
361.676	326.12
362.057	320.47
362.439	332.45
362.821	322.51
363.203	311.66
363.584	313.24
363.966	302.17
364.348	307.59
364.729	307.36
365.111	296.29
365.493	304.43
365.874	304.65
366.256	324.31
366.637	330.42
367.019	303.52
367.4	295.61
367.781	311.43
368.163	316.4
368.544	296.74
368.925	281.38
369.306	301.72
369.688	306.46
370.069	315.5
370.45	293.13
370.831	297.87
371.212	303.75
371.593	291.32
371.974	318.44
372.355	312.34
372.736	289.74
373.117	321.38
373.498	299.23
373.879	310.98
374.26	306.46
374.641	315.95
375.021	310.3
375.402	297.65
375.783	319.79
376.163	322.28
376.544	333.35
376.925	328.38
377.305	312.11
377.686	321.6
378.066	310.3
378.447	338.32
378.827	310.98
379.208	317.31
379.588	300.13
379.968	346.23
380.349	326.57
380.729	322.28
381.109	330.64
381.489	318.89
381.87	311.88
382.25	324.09
382.63	317.31
383.01	328.16
383.39	327.48
383.77	339.68
384.15	322.05
384.53	329.29
384.91	328.16
385.29	333.13
385.67	333.35
386.049	322.28
386.429	352.11
386.809	347.59
387.189	338.78
387.568	346.46
387.948	335.16
388.328	330.87
388.707	338.78
389.087	353.01
389.466	351.43
389.846	324.54
390.225	348.04
390.605	347.36
390.984	351.88
391.363	355.27
391.743	358.21
392.122	360.92
392.501	341.94
392.881	346.69
393.26	363.63
393.639	365.44
394.018	367.93
394.397	357.98
394.776	372.45
395.155	360.47
395.534	381.71
395.913	359.57
396.292	368.15
396.671	355.95
397.05	381.94
397.429	370.41
397.808	357.76
398.186	355.5
398.565	357.53
398.944	352.56
399.323	393.46
399.701	369.28
400.08	371.54
400.458	352.56
400.837	374.48
401.215	394.82
401.594	386.91
401.972	396.85
402.351	379.68
402.729	387.14
403.107	383.97
403.486	399.34
403.864	385.33
404.242	394.82
404.62	392.79
404.999	404.54
405.377	411.54
405.755	391.88
406.133	407.7
406.511	409.28
406.889	420.58
407.267	415.61
407.645	411.32
408.023	439.79
408.401	419.45
408.779	426.46
409.156	403.86
409.534	458.1
409.912	437.98
410.29	472.56
410.667	460.36
411.045	450.86
411.422	442.28
411.8	447.7
412.178	465.55
412.555	465.1
412.933	466.68
413.31	460.36
413.687	458.77
414.065	482.28
414.442	484.08
414.819	462.84
415.197	496.51
415.574	494.25
415.951	490.18
416.328	518.21
416.705	494.25
417.082	497.87
417.46	522.27
417.837	522.73
418.214	524.53
418.591	515.27
418.967	538.77
419.344	532.22
419.721	517.53
420.098	517.53
420.475	528.15
420.852	547.58
421.228	532.44
421.605	549.39
421.982	563.63
422.358	549.84
422.735	570.63
423.111	564.53
423.488	570.18
423.864	562.95
424.241	568.83
424.617	593.01
424.994	587.13
425.37	588.94
425.746	593.91
426.123	583.97
426.499	597.53
426.875	609.05
427.251	637.07
427.627	623.29
428.003	636.85
428.379	649.05
428.756	630.97
429.132	647.02
429.507	654.47
429.883	625.55
430.259	680.01
430.635	677.75
431.011	652.67
431.387	673
431.763	699.67
432.138	659.45
432.514	668.71
432.89	708.03
433.265	713.91
433.641	709.39
434.016	729.5
434.392	721.37
434.767	741.25
435.143	735.6
435.518	731.53
435.894	755.26
436.269	786.67
436.644	745.09
437.02	747.58
437.395	777.63
437.77	779.67
438.145	785.54
438.52	797.75
438.895	805.66
439.271	787.35
439.646	804.3
440.021	818.31
440.395	809.95
440.77	814.24
441.145	818.76
441.52	834.13
441.895	816.28
442.27	836.84
442.645	834.13
443.019	841.36
443.394	856.73
443.769	847.69
444.143	826.22
444.518	842.94
444.892	854.7
445.267	857.86
445.641	872.32
446.016	880.23
446.39	876.39
446.764	880.23
447.139	870.74
447.513	871.42
447.887	929.5
448.262	877.29
448.636	912.09
449.01	899.89
449.384	871.87
449.758	900.12
450.132	934.92
450.506	927.01
450.88	942.38
451.254	919.55
451.628	945.09
452.002	905.77
452.376	947.57
452.75	944.86
453.123	962.49
453.497	961.36
453.871	942.83
454.244	975.6
454.618	978.99
454.992	1006.33
455.365	1009.27
455.739	1026.89
456.112	996.61
456.486	1015.37
456.859	1017.85
457.232	1018.53
457.606	1044.97
457.979	1060.57
458.352	1061.47
458.725	1074.8
459.099	1060.57
459.472	1098.76
459.845	1116.84
460.218	1117.74
460.591	1128.13
460.964	1112.54
461.337	1152.77
461.71	1153.22
462.083	1164.52
462.456	1180.11
462.829	1164.74
463.201	1179.43
463.574	1174.01
463.947	1181.47
464.32	1221.92
464.692	1219.66
465.065	1211.3
465.438	1248.13
465.81	1279.32
466.183	1287.9
466.555	1261.92
466.928	1282.25
467.3	1284.51
467.672	1285.19
468.045	1337.39
468.417	1335.81
468.789	1345.08
469.161	1324.51
469.534	1364.29
469.906	1394.12
470.278	1411.97
470.65	1409.03
471.022	1434.79
471.394	1448.13
471.766	1460.55
472.138	1481.57
472.51	1499.2
472.882	1526.32
473.253	1551.63
473.625	1553.43
473.997	1552.08
474.369	1597.5
474.74	1583.94
475.112	1635.01
475.484	1636.37
475.855	1682.02
476.227	1694.45
476.598	1725.41
476.97	1712.3
477.341	1762.92
477.713	1780.77
478.084	1790.04
478.455	1820.32
478.827	1851.73
479.198	1892.86
479.569	1901.9
479.94	1945.29
480.311	1979.41
480.682	1989.13
481.053	2039.97
481.424	2089.46
481.795	2097.6
482.166	2112.06
482.537	2139.86
482.908	2163.81
483.279	2158.84
483.65	2238.61
484.021	2275.67
484.391	2321.55
484.762	2305.96
485.133	2283.81
485.503	2333.3
485.874	2375.33
486.244	2419.4
486.615	2451.94
486.985	2488.1
487.356	2507.76
487.726	2532.17
488.097	2589.34
488.467	2618.49
488.837	2615.1
489.207	2650.13
489.578	2703.91
489.948	2734.42
490.318	2807.41
490.688	2726.51
491.058	2825.04
491.428	2847.19
491.798	2854.42
492.168	2902.32
492.538	2912.49
492.908	2946.39
493.278	2974.41
493.648	2991.59
494.017	3023.9
494.387	3088.31
494.757	3087.63
495.126	3139.61
495.496	3084.01
495.866	3163.56
496.235	3191.36
496.605	3191.36
496.974	3191.13
497.344	3215.99
497.713	3245.14
498.082	3270
498.452	3284.46
498.821	3268.64
499.19	3307.29
499.559	3400.16
499.928	3364.91
500.298	3373.5
500.667	3401.75
501.036	3428.41
501.405	3448.3
501.774	3433.16
502.143	3464.12
502.512	3478.81
502.88	3513.38
503.249	3536.66
503.618	3583.44
503.987	3527.17
504.356	3554.06
504.724	3610.55
505.093	3579.14
505.462	3616.88
505.83	3601.29
506.199	3655.75
506.567	3687.84
506.936	3668.63
507.304	3733.04
507.672	3698.01
508.041	3707.5
508.409	3750.66
508.777	3737.56
509.145	3784.56
509.514	3797.67
509.882	3811.68
510.25	3831.34
510.618	3787.73
510.986	3816.2
511.354	3840.15
511.722	3866.37
512.09	3941.85
512.458	3893.03
512.826	3896.87
513.193	3903.2
513.561	3964.67
513.929	3946.37
514.297	3991.56
514.664	4018
515.032	3988.62
515.4	4033.82
515.767	3984.33
516.135	4037.89
516.502	4032.01
516.869	4095.51
517.237	4102.75
517.604	4074.05
517.972	4122.41
518.339	4146.13
518.706	4117.89
519.073	4086.25
519.44	4122.18
519.808	4159.01
520.175	4130.54
520.542	4218.67
520.909	4232.01
521.276	4214.83
521.643	4274.04
522.009	4267.71
522.376	4250.54
522.743	4314.49
523.11	4307.94
523.477	4346.35
523.843	4361.27
524.21	4350.2
524.577	4420.25
524.943	4440.59
525.31	4447.14
525.676	4504.77
526.043	4508.16
526.409	4521.04
526.776	4555.84
527.142	4563.98
527.508	4602.85
527.874	4629.06
528.241	4593.81
528.607	4656.85
528.973	4696.63
529.339	4660.47
529.705	4699.79
530.071	4772.33
530.437	4720.36
530.803	4781.6
531.169	4861.82
531.535	4799.9
531.901	4838.09
532.267	4829.96
532.632	4945.66
532.998	4876.96
533.364	4900.46
533.73	4919.67
534.095	5005.32
534.461	4946.56
534.826	4976.62
535.192	5019.78
535.557	5077.41
535.923	5045.77
536.288	5085.54
536.653	5076.28
537.019	5119.67
537.384	5151.31
537.749	5183.17
538.114	5131.42
538.479	5200.12
538.845	5210.74
539.21	5205.77
539.575	5246.9
539.94	5268.14
540.305	5293.22
540.67	5296.39
541.034	5366.67
541.399	5376.61
541.764	5365.54
542.129	5396.04
542.494	5379.77
542.858	5428.59
543.223	5381.13
543.587	5495.7
543.952	5471.97
544.316	5525.98
544.681	5525.53
545.045	5593.33
545.41	5593.33
545.774	5615.93
546.138	5608.92
546.503	5663.61
546.867	5677.62
547.231	5706.77
547.595	5753.32
547.959	5728.69
548.324	5724.85
548.688	5827.45
549.052	5788.8
549.416	5821.57
549.779	5810.5
550.143	5789.25
550.507	5891.85
550.871	5861.8
551.235	5897.27
551.599	5923.26
551.962	5910.38
552.326	5965.75
552.689	5996.25
553.053	5967.55
553.417	5976.37
553.78	6055.46
554.143	6046.2
554.507	6046.2
554.87	6083.71
555.234	6148.79
555.597	6096.37
555.96	6113.77
556.323	6148.57
556.686	6130.04
557.05	6163.48
557.413	6224.95
557.776	6223.37
558.139	6241.67
558.502	6338.17
558.865	6284.38
559.228	6302.24
559.59	6313.31
559.953	6365.28
560.316	6396.02
560.679	6380.65
561.041	6450.25
561.404	6465.62
561.767	6499.29
562.129	6483.02
562.492	6555.11
562.854	6582.23
563.217	6485.28
563.579	6606.86
563.941	6622.45
564.304	6608.44
564.666	6681.66
565.028	6620.42
565.39	6703.58
565.753	6702.9
566.115	6699.06
566.477	6742.22
566.839	6780.41
567.201	6834.2
567.563	6804.37
567.925	6888.89
568.287	6904.48
568.648	6860.41
569.01	6960.3
569.372	6910.13
569.734	6966.4
570.095	7010.69
570.457	7020.86
570.819	7135.89
571.18	7105.38
571.542	7122.33
571.903	7141.54
572.265	7226.73
572.626	7268.76
572.987	7312.15
573.349	7372.72
573.71	7389.21
574.071	7366.61
574.432	7423.34
574.794	7600.96
575.155	7566.83
575.516	7592.37
575.877	7653.61
576.238	7730.22
576.599	7766.6
576.96	7861.97
577.32	7896.09
577.681	7970.21
578.042	7977.45
578.403	8127.27
578.763	8129.08
579.124	8186.71
579.485	8359.81
579.845	8431.22
580.206	8513.02
580.566	8588.28
580.927	8725.45
581.287	8848.16
581.648	8888.61
582.008	9021.49
582.368	9159.56
582.728	9328.37
583.089	9451.08
583.449	9538.31
583.809	9669.15
584.169	9850.39
584.529	10005.41
584.889	10217.61
585.249	10284.5
585.609	10469.13
585.969	10716.81
586.329	10884.94
586.688	11115.44
587.048	11205.16
587.408	11464.81
587.768	11627.07
588.127	11833.84
588.487	12064.12
588.846	12335.98
589.206	12474.95
589.565	12726.7
589.925	13004.43
590.284	13133.69
590.643	13415.72
591.003	13806.44
591.362	14010.51
591.721	14243.27
592.08	14531.4
592.44	14797.61
592.799	15038.05
593.158	15238.72
593.517	15533.18
593.876	15770.24
594.235	16081.64
594.593	16321.86
594.952	16693.6
595.311	16813.15
595.67	17230.31
596.029	17528.61
596.387	17800.69
596.746	18072.55
597.104	18312.54
597.463	18603.83
597.822	18942.81
598.18	19045.18
598.538	19414.43
598.897	19886.29
599.255	19867.08
599.613	20513.39
599.972	20629.09
600.33	20933.94
600.688	21139.13
601.046	21509.97
601.404	21846.91
601.762	21999
602.12	22436.05
602.478	22644.86
602.836	22952.65
603.194	23043.72
603.552	23280.32
603.91	23463.14
604.268	23843.02
604.625	24056.57
604.983	24374.75
605.341	24551.25
605.698	24847.06
606.056	25120.27
606.413	25261.51
606.771	25716.64
607.128	25937.2
607.485	25934.94
607.843	26195.72
608.2	26531.53
608.557	26916.61
608.914	26941.24
609.272	27243.61
609.629	27567.89
609.986	27790.03
610.343	27944.83
610.7	28298.95
611.057	28451.94
611.414	28543.46
611.771	28827.52
612.127	29042.65
612.484	29214.4
612.841	29454.17
613.198	29479.48
613.554	29717.21
613.911	29999.47
614.267	30076.3
614.624	30415.05
614.98	30442.39
615.337	30808.26
615.693	30849.39
616.05	30948.82
616.406	31320.33
616.762	31239.21
617.118	31381.12
617.475	31515.13
617.831	31644.85
618.187	31812.75
618.543	32153.08
618.899	32386.75
619.255	32462.23
619.611	32465.39
619.967	32702.9
620.323	32918.26
620.678	32746.51
621.034	32770.92
621.39	33032.15
621.746	33080.06
622.101	33484.57
622.457	33288.19
622.812	33445.48
623.168	33724.57
623.523	33759.14
623.879	33791
624.234	33824.22
624.589	34073.03
624.945	34006.14
625.3	34281.61
625.655	34293.14
626.01	34279.8
626.365	34440.93
626.72	34363.64
627.075	34410.87
627.43	34509.86
627.785	34506.92
628.14	34646.8
628.495	34825.78
628.85	34585.11
629.205	34661.26
629.559	34851.09
629.914	34914.36
630.269	35022.61
630.623	34884.31
630.978	35014.25
631.332	35094.25
631.687	35197.97
632.041	35038.88
632.396	35155.04
632.75	35040.46
633.104	35296.73
633.459	35083.4
633.813	35127.01
634.167	35117.52
634.521	35221.7
634.875	35184.19
635.229	35210.18
635.583	35141.7
635.937	35141.7
636.291	35101.03
636.645	35272.32
636.999	35124.08
637.352	35320.68
637.706	35020.35
638.06	35265.77
638.413	35220.57
638.767	35206.33
639.121	35279.78
639.474	35044.98
639.828	35087.24
640.181	35161.82
640.534	35183.06
640.888	35066.45
641.241	35075.94
641.594	35155.04
641.947	35231.87
642.301	35248.37
642.654	35223.28
643.007	35223.96
643.36	35135.83
643.713	35078.88
644.066	35249.04
644.419	35181.48
644.771	34872.33
645.124	34535.17
645.477	34383.08
645.83	34397.54
646.182	34172.01
646.535	34081.62
646.888	34218.34
647.24	34082.52
647.593	34163.88
647.945	34118
648.298	34050.43
648.65	34047.49
649.002	33912.36
649.355	34054.27
649.707	34068.29
650.059	34078
650.411	34532
650.763	34645.22
651.115	34900.35
651.467	34930.41
651.819	34799.79
652.171	34781.49
652.523	34676.63
652.875	34715.73
653.227	34569.74
653.578	34711.66
653.93	34690.87
654.282	34614.71
654.633	34569.29
654.985	34544.2
655.337	34476.41
655.688	34458.78
656.039	34718.66
656.391	34361.38
656.742	34435.28
657.094	34650.19
657.445	34607.93
657.796	34537.65
658.147	34405
658.498	34266.92
658.849	34506.92
659.2	34402.97
659.551	34442.06
659.902	34557.76
660.253	34419.24
660.604	34536.07
660.955	34401.16
661.306	34471.21
661.656	34338.56
662.007	34539.46
662.358	34286.58
662.708	34416.07
663.059	34396.41
663.409	34157.55
663.76	34499.46
664.11	34492.45
664.461	34406.36
664.811	34412.46
665.161	34345.57
665.511	34294.95
665.862	34293.59
666.212	34419.69
666.562	34471.44
666.912	34317.54
667.262	34411.1
667.612	34264.66
667.962	34419.46
668.312	34279.35
668.662	34457.65
669.011	34423.08
669.361	34284.32
669.711	34256.3
670.06	34131.33
670.41	34144.44
670.76	34231.22
671.109	34333.81
671.459	34241.16
671.808	34186.93
672.157	34252.46
672.507	34059.47
672.856	34061.96
673.205	34140.83
673.554	34212.91
673.904	33950.77
674.253	34197.32
674.602	33984.22
674.951	33595.98
675.3	33506.27
675.649	34035.52
675.998	33925.24
676.346	33879.36
676.695	34084.56
677.044	33827.84
677.393	33977.67
677.741	33908.97
678.09	33854.28
678.438	33787.39
678.787	33767.73
679.135	33802.98
679.484	33636.21
679.832	33791.68
680.181	33611.35
680.529	33732.25
680.877	33652.02
681.225	33476.44
681.573	33743.32
681.922	33595.08
682.27	33395.31
682.618	33546.72
682.966	33397.12
683.314	33432.6
683.661	33349.89
684.009	33170
684.357	33187.63
684.705	33062.89
685.053	33234.63
685.4	33106.73
685.748	32782.22
686.095	32892.27
686.443	32812.05
686.79	32817.92
687.138	32884.81
687.485	32813.63
687.832	32660.86
688.18	32776.34
688.527	32563.69
688.874	32573.41
689.221	32522.34
689.568	32362.57
689.915	32308.11
690.262	32262.68
690.609	32197.15
690.956	32132.29
691.303	32085.29
691.65	32011.16
691.997	31966.19
692.344	31732.08
692.69	31699.08
693.037	31704.51
693.383	31492.53
693.73	31749.48
694.077	31528.69
694.423	31387.68
694.769	31374.34
695.116	31279.88
695.462	31252.31
695.808	31196.5
696.155	31280.11
696.501	31010.96
696.847	30994.47
697.193	30662.72
697.539	30918.99
697.885	30745.21
698.231	30576.85
698.577	30611.65
698.923	30537.76
699.269	30364.65
699.614	30149.97
699.96	30174.83
700.306	30193.36
700.651	30036.75
700.997	29925.12
701.342	29885.12
701.688	29761.05
702.033	29770.54
702.379	29745.69
702.724	29665.46
703.069	29672.24
703.415	29448.07
703.76	29354.96
704.105	29444.23
704.45	29306.83
704.795	29140.96
705.14	29145.25
705.485	29094.18
705.83	28984.12
706.175	29033.84
706.52	28923.11
706.865	28766.5
707.209	28745.26
707.554	28678.6
707.899	28634.76
708.243	28539.62
708.588	28469.56
708.932	28372.62
709.277	28411.94
709.621	28459.84
709.966	28284.71
710.31	28204.26
710.654	28096.69
710.998	28083.58
711.342	27997.48
711.687	27932.18
712.031	27853.53
712.375	27681.79
712.719	27771.28
713.063	27819.18
713.407	27830.71
713.75	27665.06
714.094	27570.15
714.438	27617.16
714.782	27599.98
715.125	27367.9
715.469	27487.89
715.812	27267.11
716.156	27216.26
716.499	27270.27
716.843	27182.36
717.186	27046.32
717.53	27295.36
717.873	27036.38
718.216	27091.97
718.559	26912.77
718.902	26698.31
719.246	26824.18
719.589	26726.11
719.932	26571.31
720.275	26685.43
720.617	26597.3
720.96	26599.33
721.303	26535.38
721.646	26581.93
721.989	26386.45
722.331	26510.52
722.674	26306.46
723.016	26354.59
723.359	26285.21
723.701	26300.13
724.044	26144.65
724.386	25987.37
724.729	26134.93
725.071	26043.41
725.413	25980.36
725.755	25896.75
726.097	25832.8
726.439	25752.57
726.782	25875.28
727.124	25903.53
727.465	25735.4
727.807	25654.95
728.149	25682.97
728.491	25578.11
728.833	25661.73
729.175	25647.72
729.516	25503.54
729.858	25471.9
730.199	25578.79
730.541	25462.18
730.882	25395.29
731.224	25568.17
731.565	25344.22
731.906	25297.44
732.248	25325.69
732.589	25204.79
732.93	25068.52
733.271	25159.14
733.612	25095.87
733.953	25207.95
734.294	24973.16
734.635	24938.81
734.976	24981.97
735.317	24905.36
735.658	24993.27
735.999	24803.9
736.339	24773.61
736.68	24755.99
737.021	24727.51
737.361	24670.11
737.702	24825.36
738.042	24723.22
738.383	24680.28
738.723	24688.42
739.063	24473.51
739.404	24554.64
739.744	24575.88
740.084	24458.37
740.424	24496.79
740.764	24291.59
741.104	24425.15
741.444	24258.6
741.784	24229.22
742.124	24306.96
742.464	24244.36
742.804	24120.52
743.143	24157.36
743.483	24177.02
743.823	23986.52
744.162	24020.19
744.502	24131.82
744.841	23971.38
745.181	24013.18
745.52	23820.19
745.86	23929.57
746.199	23914.88
746.538	23867.2
746.877	23929.79
747.216	23774.32
747.556	23804.83
747.895	23898.16
748.234	23659.97
748.573	23586.98
748.911	23480.54
749.25	23722.79
749.589	23396.25
749.928	23398.51
750.267	23504.72
750.605	23325.52
750.944	23342.69
751.283	23272.41
751.621	23292.75
751.96	23282.58
752.298	23201.45
752.636	23203.26
752.975	23005.3
753.313	22860.22
753.651	22954.23
753.989	22903.83
754.327	22948.35
754.666	22784.06
755.004	22834.68
755.342	22881.69
755.679	22710.84
756.017	22644.4
756.355	22690.96
756.693	22572.54
757.031	22626.78
757.368	22403.28
757.706	22449.38
758.044	22356.73
758.381	22326.45
758.719	22165.77
759.056	22329.16
759.394	22150.86
759.731	22043.74
760.068	22006.23
760.405	21865.44
760.743	21831.32
761.08	21933.91
761.417	21808.95
761.754	21767.59
762.091	21805.33
762.428	21736.86
762.765	21481.27
763.102	21464.32
763.438	21506.81
763.775	21312.01
764.112	21329.64
764.449	21280.37
764.785	21166.7
765.122	21052.81
765.458	20922.64
765.795	20981.17
766.131	20924
766.467	20874.51
766.804	20771.69
767.14	20788.18
767.476	20695.76
767.812	20551.13
768.148	20575.31
768.485	20455.99
768.821	20357.46
769.157	20348.87
769.492	20345.48
769.828	20305.26
770.164	20054.42
770.5	20165.6
770.836	20035.21
771.171	19925.61
771.507	19865.27
771.842	19681.77
772.178	19681.54
772.513	19764.25
772.849	19531.49
773.184	19505.73
773.519	19489.23
773.855	19521.55
774.19	19406.75
774.525	19296.92
774.86	19262.12
775.195	19166.53
775.53	19156.13
775.865	19084.95
776.2	18854
776.535	18884.5
776.87	18826.43
777.205	18677.28
777.539	18585.98
777.874	18683.38
778.209	18565.64
778.543	18437.51
778.878	18447.23
779.212	18393.67
779.547	18238.64
779.881	18352.77
780.215	18070.29
780.55	18167.23
780.884	17968.6
781.218	18022.15
781.552	17951.19
781.886	17758.88
782.22	17710.3
782.554	17764.76
782.888	17564.09
783.222	17525.44
783.556	17455.61
783.889	17369.97
784.223	17312.12
784.557	17272.34
784.89	17263.53
785.224	17069.18
785.557	17228.5
785.891	17084.55
786.224	16976.98
786.558	16846.36
786.891	16824.44
787.224	16695.18
787.557	16744.67
787.891	16713.71
788.224	16700.61
788.557	16635.75
788.89	16564.11
789.223	16618.35
789.556	16383.33
789.888	16380.39
790.221	16294.74
790.554	16166.38
790.887	16224.23
791.219	16108.31
791.552	16143.78
791.884	16000.74
792.217	15975.88
792.549	15902.66
792.882	15784.47
793.214	15698.6
793.546	15784.02
793.879	15615.66
794.211	15590.35
794.543	15618.83
794.875	15475.78
795.207	15475.33
795.539	15466.74
795.871	15444.59
796.203	15332.96
796.535	15323.92
796.867	15220.19
797.198	15184.49
797.53	15140.87
797.862	14993.08
798.193	15076.47
798.525	14924.16
798.856	14981.78
799.188	14788.11
799.519	14782.46
799.85	14737.95
800.182	14660.21
800.513	14663.82
800.844	14571.17
801.175	14615.92
801.506	14601
801.837	14499.76
802.168	14457.73
802.499	14416.6
802.83	14350.61
803.161	14315.13
803.491	14347.67
803.822	14325.98
804.153	14238.52
804.483	14123.27
804.814	14128.47
805.145	14088.47
805.475	14075.59
805.805	13973.22
806.136	13951.75
806.466	13952.66
806.796	13947.91
807.126	13842.15
807.457	13827.91
807.787	13778.87
808.117	13721.7
808.447	13678.76
808.777	13677.86
809.107	13637.64
809.436	13622.72
809.766	13528.26
810.096	13515.15
810.426	13531.65
810.755	13543.4
811.085	13448.49
811.414	13434.03
811.744	13283.97
812.073	13356.97
812.403	13335.27
812.732	13190.87
813.061	13126.24
813.39	13143.86
813.719	13112
814.049	13190.64
814.378	13029.52
814.707	13047.37
815.036	12960.59
815.365	12958.11
815.693	12858.45
816.022	12874.94
816.351	12857.54
816.68	12760.37
817.008	12724.67
817.337	12612.58
817.665	12654.84
817.994	12700.49
818.322	12652.12
818.651	12537.1
818.979	12530.32
819.307	12590.66
819.636	12557.66
819.964	12425.46
820.292	12451.9
820.62	12462.75
820.948	12477.67
821.276	12510.21
821.604	12388.86
821.932	12479.7
822.259	12458.91
822.587	12389.31
822.915	12361.29
823.243	12450.55
823.57	12374.62
823.898	12447.61
824.225	12366.48
824.553	12328.29
824.88	12343.43
825.207	12426.14
825.535	12357.9
825.862	12377.33
826.189	12272.93
826.516	12445.8
826.843	12440.15
827.17	12354.51
827.497	12398.8
827.824	12370.78
828.151	12434.28
828.478	12368.97
828.805	12461.4
829.131	12271.57
829.458	12353.38
829.785	12284.9
830.111	12294.39
830.438	12409.42
830.764	12336.65
831.09	12359.03
831.417	12245.13
831.743	12311.79
832.069	12401.28
832.395	12233.83
832.722	12338.01
833.048	12318.35
833.374	12289.87
833.7	12229.09
834.026	12266.37
834.351	12257.56
834.677	12154.74
835.003	12233.6
835.329	12171.23
835.654	12258.69
835.98	12148.64
836.306	12107.73
836.631	12084.46
836.956	12209.65
837.282	12148.64
837.607	12072.03
837.932	11977.34
838.258	12089.65
838.583	12046.49
838.908	11910.68
839.233	11888.76
839.558	11964.91
839.883	11884.46
840.208	11832.26
840.533	11811.24
840.858	11813.05
841.182	11849.21
841.507	11748.19
841.832	11798.36
842.156	11714.3
842.481	11683.34
842.805	11670.68
843.13	11630.91
843.454	11592.27
843.778	11570.12
844.103	11615.09
844.427	11544.36
844.751	11478.37
845.075	11476.34
845.399	11482.44
845.723	11397.47
846.047	11382.1
846.371	11269.11
846.695	11326.51
847.019	11235.44
847.343	11180.75
847.666	11082.67
847.99	11118.38
848.313	11033.18
848.637	11003.35
848.96	11012.39
849.284	10931.94
849.607	10943.24
849.931	10850.59
850.254	10804.49
850.577	10746.19
850.9	10594.33
851.223	10646.53
851.546	10602.24
851.869	10547.1
852.192	10647.88
852.515	10525.85
852.838	10446.76
853.161	10554.1
853.483	10457.15
853.806	10371.73
854.129	10306.88
854.451	10269.81
854.774	10247.22
855.096	10167.44
855.419	10210.61
855.741	10179.42
856.063	10119.76
856.385	10125.41
856.708	10081.12
857.03	9993.44
857.352	10075.7
857.674	9982.59
857.996	9978.07
858.318	9895.14
858.64	9923.16
858.961	9915.47
859.283	9899.43
859.605	9774.69
859.926	9822.14
860.248	9750.05
860.57	9701.47
860.891	9724.97
861.212	9653.11
861.534	9647.01
861.855	9628.48
862.176	9631.19
862.498	9532.43
862.819	9593
863.14	9578.76
863.461	9615.37
863.782	9501.93
864.103	9505.54
864.424	9504.86
864.745	9501.25
865.065	9466.9
865.386	9373.12
865.707	9400.23
866.027	9383.51
866.348	9331.08
866.668	9365.88
866.989	9326.56
867.309	9318.88
867.63	9284.76
867.95	9260.8
868.27	9236.62
868.59	9233.46
868.91	9229.84
869.23	9259.67
869.55	9189.62
869.87	9243.85
870.19	9216.96
870.51	9199.56
870.83	9195.49
871.15	9125.21
871.469	9099.22
871.789	9142.16
872.109	9142.16
872.428	9064.42
872.748	9099.22
873.067	9034.59
873.386	9075.5
873.706	9063.74
874.025	9001.83
874.344	8987.81
874.663	9013.35
874.982	8899.91
875.301	8941.26
875.62	8924.31
875.939	8908.95
876.258	8929.06
876.577	8892
876.896	8896.07
877.214	8812.23
877.533	8829.17
877.852	8772.23
878.17	8800.7
878.489	8750.98
878.807	8803.86
879.125	8752.57
879.444	8736.52
879.762	8692.23
880.08	8686.35
880.398	8645.45
880.716	8706.92
881.034	8689.74
881.352	8710.31
881.67	8659.91
881.988	8612.01
882.306	8634.83
882.624	8615.39
882.941	8587.83
883.259	8528.17
883.577	8540.59
883.894	8499.01
884.212	8514.38
884.529	8443.65
884.846	8478
885.164	8392.8
885.481	8401.16
885.798	8388.06
886.115	8404.55
886.432	8391.67
886.75	8271.9
887.067	8291.56
887.383	8298.34
887.7	8281.62
888.017	8240.94
888.334	8260.38
888.651	8221.28
888.967	8176.08
889.284	8125.01
889.6	8213.82
889.917	8041.17
890.233	8148.06
890.55	8059.25
890.866	8054.28
891.182	8052.02
891.498	7968.41
891.815	7976.99
892.131	7921.63
892.447	8000.27
892.763	7833.95
893.079	7843.44
893.395	7908.52
893.71	7814.96
894.026	7829.43
894.342	7840.05
894.657	7766.83
894.973	7741.29
895.289	7788.75
895.604	7710.79
895.92	7706.27
896.235	7581.98
896.55	7615.42
896.865	7577.46
897.181	7556.89
897.496	7525.71
897.811	7503.11
898.126	7466.72
898.441	7381.98
898.756	7514.41
899.071	7467.63
899.386	7403
899.7	7371.81
900.015	7300.18
900.33	7292.04
900.644	7231.02
900.959	7276.22
901.273	7243.91
901.588	7237.13
901.902	7178.14
902.216	7124.59
902.531	7129.78
902.845	7129.11
903.159	7096.11
903.473	7015.89
903.787	7025.38
904.101	6970.01
904.415	6960.07
904.729	6970.92
905.042	6872.39
905.356	6897.47
905.67	6867.64
905.984	6853.63
906.297	6837.14
906.611	6795.56
906.924	6752.17
907.237	6751.72
907.551	6707.42
907.864	6661.1
908.177	6671.27
908.491	6672.62
908.804	6625.84
909.117	6630.36
909.43	6583.58
909.743	6535.22
910.056	6501.55
910.368	6468.56
910.681	6473.76
910.994	6430.59
911.307	6407.32
911.619	6342.23
911.932	6356.02
912.244	6338.62
912.557	6300.65
912.869	6271.28
913.181	6287.55
913.494	6184.05
913.806	6219.3
914.118	6151.73
914.43	6158.51
914.742	6185.4
915.054	6139.08
915.366	6093.43
915.678	6062.24
915.99	6011.4
916.302	6004.84
916.613	5978.4
916.925	5983.6
917.236	5951.74
917.548	5943.83
917.859	5857.95
918.171	5848.69
918.482	5852.53
918.794	5843.94
919.105	5801.91
919.416	5748.13
919.727	5737.96
920.038	5725.53
920.349	5735.92
920.66	5664.51
920.971	5709.93
921.282	5633.1
921.593	5582.71
921.903	5572.76
922.214	5589.03
922.525	5567.11
922.835	5512.43
923.146	5468.81
923.456	5439.66
923.767	5449.6
924.077	5419.77
924.387	5408.93
924.697	5366.21
925.008	5383.39
925.318	5373.45
925.628	5316.95
925.938	5284.64
926.248	5274.92
926.558	5248.48
926.867	5205.77
927.177	5147.46
927.487	5168.48
927.796	5112.44
928.106	5091.65
928.416	5057.07
928.725	5079.89
929.034	5085.32
929.344	5060.46
929.653	5045.09
929.962	4998.77
930.271	5031.76
930.581	4995.6
930.89	4928.94
931.199	4910.18
931.508	4912.22
931.817	4871.09
932.125	4887.81
932.434	4883.52
932.743	4762.61
933.051	4764.2
933.36	4759.45
933.669	4757.19
933.977	4710.86
934.286	4708.15
934.594	4679.45
934.902	4653.69
935.21	4632.9
935.519	4644.43
935.827	4602.85
936.135	4582.28
936.443	4522.4
936.751	4530.3
937.059	4580.92
937.367	4496.41
937.674	4456.18
937.982	4505.22
938.29	4506.8
938.597	4451.44
938.905	4411.44
939.213	4377.54
939.52	4425.67
939.827	4409.18
940.135	4328.73
940.442	4342.06
940.749	4326.69
941.056	4294.83
941.363	4279.69
941.67	4241.05
941.977	4227.94
942.284	4212.57
942.591	4216.64
942.898	4210.09
943.205	4179.81
943.511	4173.7
943.818	4161.73
944.125	4102.29
944.431	4120.15
944.738	4108.17
945.044	4045.57
945.35	4020.04
945.657	4071.56
945.963	4019.36
946.269	3995.86
946.575	3998.12
946.881	3936.2
947.187	3969.19
947.493	3907.5
947.799	3929.87
948.105	3886.48
948.41	3902.98
948.716	3882.86
949.022	3867.27
949.327	3819.14
949.633	3818.91
949.938	3750.66
950.244	3813.71
950.549	3796.54
950.854	3789.99
951.16	3718.12
951.465	3707.28
951.77	3712.7
952.075	3687.84
952.38	3693.49
952.685	3651.91
952.99	3625.92
953.294	3636.77
953.599	3614.4
953.904	3596.77
954.209	3586.6
954.513	3570.56
954.818	3528.07
955.122	3566.49
955.426	3522.2
955.731	3512.48
956.035	3484.46
956.339	3475.87
956.643	3458.92
956.948	3433.61
957.252	3449.2
957.556	3401.07
957.86	3412.14
958.163	3363.78
958.467	3363.1
958.771	3380.73
959.075	3372.82
959.378	3361.97
959.682	3299.38
959.985	3308.64
960.289	3294.86
960.592	3279.26
960.896	3221.64
961.199	3213.5
961.502	3235.65
961.805	3236.78
962.108	3179.61
962.411	3201.98
962.714	3165.82
963.017	3162.66
963.32	3144.58
963.623	3146.39
963.926	3124.92
964.228	3110.45
964.531	3120.62
964.833	3116.78
965.136	3082.43
965.438	3043.79
965.741	3016.9
966.043	3030.23
966.345	3057.57
966.648	3020.51
966.95	3009.89
967.252	2990.91
967.554	2957.92
967.856	2936.9
968.158	2929.44
968.46	2949.33
968.761	2888.09
969.063	2922.21
969.365	2872.72
969.666	2882.44
969.968	2870.91
970.269	2852.38
970.571	2821.42
970.872	2853.51
971.174	2826.17
971.475	2780.07
971.776	2792.27
972.077	2757.02
972.378	2796.79
972.679	2732.39
972.98	2751.82
973.281	2730.8
973.582	2730.35
973.883	2727.41
974.183	2711.6
974.484	2743.68
974.785	2671.6
975.085	2675.66
975.386	2686.51
975.686	2640.86
975.986	2643.35
976.287	2633.86
976.587	2592.73
976.887	2615.55
977.187	2621.43
977.487	2598.6
977.787	2551.83
978.087	2519.06
978.387	2520.87
978.687	2510.7
978.987	2517.48
979.286	2476.12
979.586	2477.03
979.885	2484.03
980.185	2490.13
980.484	2471.38
980.784	2479.29
981.083	2427.76
981.382	2424.6
981.682	2422.34
981.981	2417.82
982.28	2396.35
982.579	2387.08
982.878	2345.05
983.177	2360.87
983.475	2378.95
983.774	2362.23
984.073	2329.01
984.372	2311.38
984.67	2318.84
984.969	2294.21
985.267	2288.78
985.566	2325.62
985.864	2313.64
986.162	2291.27
986.461	2235
986.759	2241.78
987.057	2242.46
987.355	2195.9
987.653	2213.3
987.951	2232.96
988.249	2214.66
988.547	2188.45
988.844	2168.33
989.142	2163.14
989.44	2171.72
989.737	2135.34
990.035	2141.44
990.332	2145.96
990.63	2120.88
990.927	2110.03
991.224	2089.01
991.521	2084.04
991.819	2129.24
992.116	2074.1
992.413	2071.84
992.71	2052.63
993.006	2061.67
993.303	2039.75
993.6	2052.4
993.897	2039.52
994.193	1994.55
994.49	2000.43
994.787	1987.09
995.083	2002.69
995.379	1990.94
995.676	1966.98
995.972	1985.96
996.268	1961.56
996.565	1943.03
996.861	1960.2
997.157	1912.75
997.453	1920.2
997.749	1925.85
998.044	1873.65
998.34	1908
998.636	1882.46
998.932	1894.22
999.227	1846.99
999.523	1818.96
999.818	1821.9
1000.114	1804.5
1000.409	1792.07
1000.704	1796.14
1001	1827.32
1001.295	1821
1001.59	1779.42
1001.885	1778.06
1002.18	1735.8
1002.475	1738.29
1002.77	1753.2
1003.065	1731.96
1003.359	1721.11
1003.654	1710.72
1003.949	1706.42
1004.243	1687.67
1004.538	1691.96
1004.832	1665.07
1005.127	1679.98
1005.421	1656.26
1005.715	1643.37
1006.009	1650.83
1006.304	1612.64
1006.598	1610.38
1006.892	1630.04
1007.186	1618.06
1007.48	1605.64
1007.773	1616.71
1008.067	1583.26
1008.361	1566.99
1008.655	1557.73
1008.948	1543.94
1009.242	1588.69
1009.535	1530.16
1009.829	1538.97
1010.122	1530.84
1010.415	1533.32
1010.708	1521.34
1011.001	1494.9
1011.295	1524.73
1011.588	1493.77
1011.881	1479.76
1012.173	1477.05
1012.466	1462.81
1012.759	1437.05
1013.052	1460.33
1013.344	1432.76
1013.637	1409.71
1013.93	1421.69
1014.222	1422.59
1014.514	1426.43
1014.807	1403.16
1015.099	1374.23
1015.391	1399.77
1015.683	1392.08
1015.976	1333.33
1016.268	1331.52
1016.56	1351.86
1016.851	1343.27
1017.143	1331.52
1017.435	1302.37
1017.727	1317.51
1018.018	1298.53
1018.31	1300.56
1018.602	1310.05
1018.893	1295.59
1019.185	1272.09
1019.476	1294.46
1019.767	1286.55
1020.058	1248.13
1020.35	1266.66
1020.641	1226.44
1020.932	1256.49
1021.223	1211.3
1021.514	1198.19
1021.804	1197.28
1022.095	1199.32
1022.386	1203.84
1022.677	1167
1022.967	1192.77
1023.258	1180.56
1023.548	1169.26
1023.839	1181.69
1024.129	1174.23
1024.419	1154.35
1024.709	1155.25
1025	1105.31
1025.29	1119.77
1025.58	1101.47
1025.87	1099.89
1026.16	1122.26
1026.449	1101.02
1026.739	1110.28
1027.029	1085.2
1027.319	1090.85
1027.608	1067.8
1027.898	1099.43
1028.187	1033.67
1028.477	1051.07
1028.766	1052.88
1029.055	1008.82
1029.344	1035.71
1029.634	1061.02
1029.923	1010.62
1030.212	1005.88
1030.501	1007.91
1030.79	990.28
1031.078	1009.04
1031.367	991.87
1031.656	962.94
1031.945	996.61
1032.233	955.48
1032.522	952.09
1032.81	947.35
1033.099	948.25
1033.387	949.16
1033.675	924.07
1033.963	935.6
1034.251	935.37
1034.54	900.57
1034.828	888.59
1035.116	886.78
1035.403	911.64
1035.691	894.02
1035.979	894.92
1036.267	877.75
1036.554	898.08
1036.842	870.74
1037.129	868.25
1037.417	872.32
1037.704	863.51
1037.992	852.66
1038.279	839.55
1038.566	850.4
1038.853	850.4
1039.14	850.4
