Data from hue_40_FLMS001491_36.txt Node
Date: Mon Feb 06 15:07:49 GMT 2017
User: dcchb
Spectrometer: FLMS00149
Trigger mode: 0
Integration Time (sec): 2.000000E-2
Scans to average: 10
Electric dark correction enabled: true
Nonlinearity correction enabled: false
Boxcar width: 0
XAxis mode: Wavelengths
Number of Pixels in Spectrum: 2048
>>>>>Begin Spectral Data<<<<<
341.393	-17.85
341.776	-17.85
342.16	-17.85
342.543	-60.79
342.927	-62.15
343.31	-58.53
343.693	-66.44
344.077	-86.55
344.46	-60.56
344.843	-45.42
345.226	-66.44
345.61	-26.44
345.993	-17.63
346.376	-3.39
346.759	12.66
347.142	26.89
347.525	49.72
347.908	68.47
348.291	74.35
348.674	93.1
349.057	106.21
349.44	126.1
349.823	132.43
350.206	156.83
350.588	198.86
350.971	207.68
351.354	242.25
351.737	239.09
352.119	255.36
352.502	263.27
352.884	283.38
353.267	265.76
353.65	279.31
354.032	299.2
354.414	307.34
354.797	314.57
355.179	316.83
355.562	309.6
355.944	347.11
356.326	350.73
356.709	361.35
357.091	350.05
357.473	348.01
357.855	324.06
358.238	334.23
358.62	326.55
359.002	341.01
359.384	362.93
359.766	341.01
360.148	333.32
360.53	327.67
360.912	322.25
361.294	316.15
361.676	341.91
362.057	342.59
362.439	331.06
362.821	322.03
363.203	328.8
363.584	328.35
363.966	311.18
364.348	312.99
364.729	330.61
365.111	322.7
365.493	315.92
365.874	310.27
366.256	310.5
366.637	309.82
367.019	307.34
367.4	329.48
367.781	326.32
368.163	322.48
368.544	325.64
368.925	306.66
369.306	333.55
369.688	315.25
370.069	325.42
370.45	324.29
370.831	331.97
371.212	334.68
371.593	310.05
371.974	331.06
372.355	306.66
372.736	308.01
373.117	293.1
373.498	310.95
373.879	318.64
374.26	307.56
374.641	285.42
375.021	290.61
375.402	308.69
375.783	314.79
376.163	344.85
376.544	315.02
376.925	322.7
377.305	330.39
377.686	316.38
378.066	310.27
378.447	334
378.827	322.25
379.208	324.74
379.588	341.23
379.968	312.31
380.349	338.75
380.729	334.23
381.109	334.45
381.489	353.66
381.87	339.88
382.25	315.47
382.63	326.55
383.01	323.61
383.39	325.19
383.77	359.76
384.15	346.43
384.53	338.3
384.91	350.5
385.29	366.54
385.67	358.18
386.049	334.23
386.429	326.77
386.809	349.14
387.189	338.75
387.568	346.88
387.948	349.6
388.328	344.17
388.707	362.25
389.087	336.26
389.466	350.5
389.846	340.56
390.225	358.41
390.605	349.6
390.984	367.67
391.363	352.76
391.743	354.34
392.122	362.93
392.501	344.85
392.881	346.43
393.26	366.54
393.639	369.26
394.018	366.32
394.397	364.96
394.776	374.91
395.155	383.94
395.534	366.32
395.913	366.54
396.292	373.55
396.671	362.25
397.05	367.22
397.429	372.87
397.808	356.37
398.186	364.96
398.565	380.33
398.944	367.22
399.323	352.31
399.701	358.86
400.08	388.69
400.458	400.89
400.837	397.28
401.215	390.05
401.594	355.92
401.972	390.27
402.351	383.49
402.729	380.1
403.107	395.47
403.486	388.92
403.864	390.27
404.242	397.28
404.62	418.29
404.999	381.23
405.377	381.46
405.755	397.73
406.133	406.99
406.511	418.29
406.889	415.81
407.267	421.91
407.645	403.38
408.023	417.62
408.401	413.55
408.779	425.75
409.156	417.39
409.534	417.84
409.912	419.42
410.29	415.81
410.667	418.52
411.045	433.89
411.422	437.05
411.8	416.49
412.178	449.25
412.555	418.29
412.933	425.07
413.31	446.77
413.687	454
414.065	441.57
414.442	457.62
414.819	452.87
415.197	458.97
415.574	464.39
415.951	454.45
416.328	457.62
416.705	451.97
417.082	475.92
417.46	472.76
417.837	461.46
418.214	474.34
418.591	481.34
418.967	460.1
419.344	495.58
419.721	505.52
420.098	504.39
420.475	501.46
420.852	516.14
421.228	508.69
421.605	500.33
421.982	489.25
422.358	517.5
422.735	538.06
423.111	506.2
423.488	526.54
423.864	502.81
424.241	527.9
424.617	510.04
424.994	510.72
425.37	543.71
425.746	505.75
426.123	519.08
426.499	518.86
426.875	518.63
427.251	543.94
427.627	534
428.003	565.41
428.379	554.79
428.756	558.4
429.132	554.11
429.507	568.12
429.883	564.5
430.259	581.68
430.635	584.84
431.011	578.97
431.387	598.4
431.763	580.1
432.138	586.43
432.514	586.43
432.89	582.13
433.265	604.73
433.641	602.24
434.016	609.7
434.392	616.93
434.767	627.55
435.143	606.99
435.518	613.09
435.894	630.04
436.269	626.88
436.644	647.44
437.02	655.58
437.395	661
437.77	651.28
438.145	647.67
438.52	654.22
438.895	658.29
439.271	665.97
439.646	658.74
440.021	681.11
440.395	663.49
440.77	695.57
441.145	669.36
441.52	719.53
441.895	688.12
442.27	672.75
442.645	684.5
443.019	714.78
443.394	727.44
443.769	701.9
444.143	682.92
444.518	718.4
444.892	712.52
445.267	742.13
445.641	713.2
446.016	724.05
446.39	737.16
446.764	740.09
447.139	723.14
447.513	743.94
447.887	740.09
448.262	747.55
448.636	770.15
449.01	757.95
449.384	761.79
449.758	768.57
450.132	768.79
450.506	776.48
450.88	792.3
451.254	790.26
451.628	770.83
452.002	784.61
452.376	815.8
452.75	803.37
453.123	807.66
453.497	808.34
453.871	816.7
454.244	841.56
454.618	849.47
454.992	851.05
455.365	845.4
455.739	880.2
456.112	876.59
456.486	888.79
456.859	898.73
457.232	888.11
457.606	898.06
457.979	927.43
458.352	879.75
458.725	923.37
459.099	936.92
459.472	960.88
459.845	934.66
460.218	952.97
460.591	948.22
460.964	972.86
461.337	998.17
461.71	1005.62
462.083	1029.58
462.456	1035.68
462.829	1038.84
463.201	1018.5
463.574	1066.19
463.947	1062.34
464.32	1077.49
464.692	1113.87
465.065	1113.87
465.438	1124.04
465.81	1119.97
466.183	1138.05
466.555	1155.68
466.928	1166.75
467.3	1159.52
467.672	1178.73
468.045	1221.89
468.417	1243.81
468.789	1257.59
469.161	1273.19
469.534	1277.48
469.906	1301.43
470.278	1320.19
470.65	1291.94
471.022	1350.92
471.394	1396.12
471.766	1415.56
472.138	1429.34
472.51	1454.43
472.882	1482.45
473.253	1496.68
473.625	1526.51
473.997	1568.32
474.369	1591.82
474.74	1624.14
475.112	1681.76
475.484	1709.79
475.855	1737.13
476.227	1737.13
476.598	1788.88
476.97	1840.4
477.341	1903.68
477.713	1931.25
478.084	1962.21
478.455	2045.82
478.827	2025.94
479.198	2124.69
479.569	2153.39
479.94	2211.92
480.311	2296.44
480.682	2360.39
481.053	2401.97
481.424	2478.8
481.795	2510.67
482.166	2563.77
482.537	2642.64
482.908	2715.63
483.279	2769.87
483.65	2864.33
484.021	2979.13
484.391	2999.24
484.762	3063.2
485.133	3154.27
485.503	3227.49
485.874	3328.5
486.244	3373.02
486.615	3452.56
486.985	3520.36
487.356	3648.72
487.726	3717.19
488.097	3834.02
488.467	3884.42
488.837	4038.09
489.207	4102.49
489.578	4187.91
489.948	4272.43
490.318	4389.72
490.688	4425.19
491.058	4563.04
491.428	4698.41
491.798	4778.63
492.168	4825.86
492.538	4958.06
492.908	5065.86
493.278	5164.61
493.648	5185.63
494.017	5324.38
494.387	5418.39
494.757	5553.53
495.126	5637.37
495.496	5673.75
495.866	5743.58
496.235	5886.62
496.605	6000.29
496.974	6104.47
497.344	6155.54
497.713	6232.6
498.082	6315.77
498.452	6404.8
498.821	6474.63
499.19	6569.09
499.559	6641.41
499.928	6759.37
500.298	6822.87
500.667	6915.52
501.036	6963.88
501.405	7045.24
501.774	7072.36
502.143	7176.08
502.512	7254.5
502.88	7325.23
503.249	7400.48
503.618	7515.96
503.987	7505.34
504.356	7631.89
504.724	7665.79
505.093	7747.14
505.462	7785.78
505.83	7932.22
506.199	7979.45
506.567	8124.08
506.936	8143.97
507.304	8323.4
507.672	8373.57
508.041	8409.04
508.409	8437.29
508.777	8489.27
509.145	8611.3
509.514	8663.05
509.882	8747.57
510.25	8734.23
510.618	8828.02
510.986	8937.62
511.354	9035.69
511.722	9081.8
512.09	9133.77
512.458	9171.96
512.826	9226.42
513.193	9315.24
513.561	9365.18
513.929	9489.92
514.297	9524.95
514.664	9655.79
515.032	9599.75
515.4	9702.57
515.767	9704.38
516.135	9846.97
516.502	9779.86
516.869	9943.02
517.237	9958.16
517.604	9970.81
517.972	10106.4
518.339	10275.21
518.706	10206.96
519.073	10249.22
519.44	10287.87
519.808	10442.21
520.175	10454.19
520.542	10649.66
520.909	10629.1
521.276	10665.93
521.643	10759.94
522.009	10774.18
522.376	10851.92
522.743	10958.13
523.11	10972.59
523.477	11091.91
523.843	11136.43
524.21	11288.52
524.577	11335.97
524.943	11423.2
525.31	11520.38
525.676	11575.74
526.043	11682.86
526.409	11679.24
526.776	11861.83
527.142	11839.01
527.508	11930.76
527.874	12071.1
528.241	12059.34
528.607	12145.22
528.973	12174.6
529.339	12252.79
529.705	12366.91
530.071	12469.05
530.437	12524.42
530.803	12613
531.169	12656.62
531.535	12678.31
531.901	12733.22
532.267	12830.17
532.632	12882.15
532.998	12930.73
533.364	13052.54
533.73	13097.51
534.095	13159.88
534.461	13163.5
534.826	13278.07
535.192	13334.79
535.557	13382.7
535.923	13349.48
536.288	13506.99
536.653	13460.44
537.019	13527.55
537.384	13577.72
537.749	13610.94
538.114	13807.09
538.479	13679.41
538.845	13822.01
539.21	13843.48
539.575	13895.23
539.94	13893.19
540.305	13991.27
540.67	14007.09
541.034	14135.9
541.399	14224.94
541.764	14220.19
542.129	14266.52
542.494	14258.61
542.858	14325.5
543.223	14431.48
543.587	14449.56
543.952	14462.22
544.316	14488.88
544.681	14563.91
545.045	14658.82
545.41	14746.28
545.774	14827.86
546.138	14811.36
546.503	14810.68
546.867	14881.64
547.231	15026.5
547.595	15004.8
547.959	15070.79
548.324	15099.49
548.688	15108.76
549.052	15212.48
549.416	15179.04
549.779	15286.83
550.143	15354.85
550.507	15572.02
550.871	15475.53
551.235	15475.98
551.599	15688.18
551.962	15642.53
552.326	15704.67
552.689	15786.03
553.053	15654.96
553.417	15797.1
553.78	16040.48
554.143	15993.25
554.507	15990.54
554.87	16034.15
555.234	16329.74
555.597	16177.2
555.96	16230.08
556.323	16359.34
556.686	16337.42
557.05	16492.67
557.413	16401.6
557.776	16560.69
558.139	16551.2
558.502	16679.34
558.865	16613.8
559.228	16837.3
559.59	16794.81
559.953	16813.12
560.316	17030.74
560.679	17058.53
561.041	17184.63
561.404	17239.32
561.767	17336.72
562.129	17287.23
562.492	17414.91
562.854	17394.12
563.217	17496.94
563.579	17547.79
563.941	17586.43
564.304	17635.69
564.666	17845.86
565.028	17855.12
565.39	17911.39
565.753	17972.63
566.115	18014.89
566.477	18076.81
566.839	18225.96
567.201	18201.78
567.563	18325.39
567.925	18412.85
568.287	18410.59
568.648	18493.98
569.01	18610.81
569.372	18742.11
569.734	18641.32
570.095	18806.51
570.457	18824.36
570.819	18871.14
571.18	18957.47
571.542	19051.48
571.903	19239.72
572.265	19133.28
572.626	19294.41
572.987	19324.69
573.349	19456.44
573.71	19442.2
574.071	19669.54
574.432	19619.6
574.794	19907.27
575.155	19868.4
575.516	19914.28
575.877	20079.47
576.238	20125.35
576.599	20310.65
576.96	20313.36
577.32	20405.34
577.681	20493.25
578.042	20641.04
578.403	20688.5
578.763	20775.05
579.124	20960.13
579.485	21091.42
579.845	21326.44
580.206	21240.35
580.566	21399.21
580.927	21484.86
581.287	21680.56
581.648	21744.29
582.008	22021.34
582.368	22035.8
582.728	22226.99
583.089	22330.94
583.449	22528
583.809	22570.48
584.169	22832.85
584.529	22907.65
584.889	23192.61
585.249	23210.69
585.609	23332.04
585.969	23691.35
586.329	23693.39
586.688	23904
587.048	24049.76
587.408	24298.12
587.768	24388.29
588.127	24531.56
588.487	24594.83
588.846	25025.33
589.206	24974.03
589.565	25247.25
589.925	25483.4
590.284	25439.56
590.643	25729.72
591.003	25963.84
591.362	26213.77
591.721	26380.1
592.08	26589.13
592.44	26667.55
592.799	26895.56
593.158	27075.67
593.517	27209
593.876	27434.76
594.235	27566.51
594.593	27743.45
594.952	27966.95
595.311	28084.91
595.67	28251.91
596.029	28609.19
596.387	28801.5
596.746	29085.34
597.104	28985.68
597.463	29126.47
597.822	29444.2
598.18	29462.05
598.538	29585.21
598.897	29871.98
599.255	29854.81
599.613	30362.82
599.972	30289.37
600.33	30579.31
600.688	30395.58
601.046	30692.07
601.404	31046.19
601.762	31148.79
602.12	31367.08
602.478	31500.64
602.836	31536.35
603.194	31532.05
603.552	31738.15
603.91	31700.64
604.268	32097.69
604.625	32068.99
604.983	32404.35
605.341	32357.34
605.698	32602.31
606.056	32790.32
606.413	32954.84
606.771	33038.23
607.128	33075.06
607.485	33111.45
607.843	33233.48
608.2	33449.74
608.557	33744.2
608.914	33667.14
609.272	34010.18
609.629	34047.92
609.986	34144.19
610.343	34067.35
610.7	34476.83
611.057	34482.94
611.414	34535.59
611.771	34558.19
612.127	34885.41
612.484	34764.96
612.841	35106.2
613.198	35066.65
613.554	34991.4
613.911	35422.12
614.267	35343.48
614.624	35358.62
614.98	35541.89
615.337	35661.89
615.693	35757.93
616.05	35646.75
616.406	36077.92
616.762	35972.39
617.118	35944.14
617.475	36279.05
617.831	36166.73
618.187	36305.49
618.543	36409.21
618.899	36569.89
619.255	36571.02
619.611	36757.68
619.967	36764.23
620.323	36813.04
620.678	36816.66
621.034	36684.91
621.39	36723.78
621.746	36780.28
622.101	37268.17
622.457	37028.63
622.812	37125.58
623.168	37252.35
623.523	37360.83
623.879	37375.51
624.234	37256.42
624.589	37265.01
624.945	37483.99
625.3	37524.21
625.655	37554.04
626.01	37627.49
626.365	37642.17
626.72	37769.63
627.075	37723.3
627.43	37658.44
627.785	37622.74
628.14	37724.66
628.495	37680.82
628.85	37691.21
629.205	37620.25
629.559	37936.63
629.914	37680.82
630.269	37853.92
630.623	37814.82
630.978	37785
631.332	37905.67
631.687	37937.76
632.041	37801.72
632.396	37947.7
632.75	37714.04
633.104	37856.18
633.459	37765.33
633.813	37707.94
634.167	37789.97
634.521	37723.98
634.875	37809.85
635.229	37632.23
635.583	37616.41
635.937	37692.34
636.291	37535.74
636.645	37667.26
636.999	37651.67
637.352	37706.81
637.706	37476.3
638.06	37698.22
638.413	37466.13
638.767	37496.42
639.121	37521.73
639.474	37300.94
639.828	37501.16
640.181	37426.13
640.534	37400.82
640.888	37266.36
641.241	37128.06
641.594	37203.54
641.947	37442.63
642.301	37302.52
642.654	37327.38
643.007	37202.86
643.36	37388.17
643.713	37211
644.066	37219.81
644.419	37124
644.771	36939.82
645.124	36541.41
645.477	36426.61
645.83	36262.32
646.182	36148.2
646.535	36051.48
646.888	36119.28
647.24	35932.16
647.593	36116.56
647.945	36052.84
648.298	35902.11
648.65	35979.62
649.002	35717.03
649.355	35933.97
649.707	35949.11
650.059	36085.6
650.411	36468.42
650.763	36498.48
651.115	36804
651.467	36756.1
651.819	36804.91
652.171	36711.35
652.523	36519.94
652.875	36585.48
653.227	36430
653.578	36684.91
653.93	36627.96
654.282	36393.39
654.633	36290.57
654.985	36502.77
655.337	36380.74
655.688	36522.66
656.039	36529.21
656.391	36314.75
656.742	36332.38
657.094	36248.99
657.445	36460.96
657.796	36414.86
658.147	36316.33
658.498	36406.27
658.849	36314.07
659.2	36331.25
659.551	36297.58
659.902	36407.86
660.253	36300.06
660.604	36359.27
660.955	36140.97
661.306	36379.38
661.656	36213.06
662.007	36121.76
662.358	36224.58
662.708	36181.42
663.059	36172.38
663.409	35883.8
663.76	36332.15
664.11	36118.15
664.461	36099.16
664.811	36180.07
665.161	36070.92
665.511	36092.16
665.862	36253.28
666.212	36191.36
666.562	36239.73
666.912	36079.73
667.262	36056
667.612	36030.69
667.962	36165.6
668.312	36037.92
668.662	36267.07
669.011	36181.2
669.361	36059.62
669.711	36070.92
670.06	36027.08
670.41	35976.68
670.76	35938.72
671.109	36036.79
671.459	36026.62
671.808	36019.62
672.157	35940.3
672.507	35800.64
672.856	35806.52
673.205	35886.51
673.554	35960.41
673.904	35769
674.253	36032.5
674.602	35887.19
674.951	35434.55
675.3	35133.09
675.649	35865.5
675.998	35580.76
676.346	35820.3
676.695	35864.82
677.044	35551.38
677.393	35795.89
677.741	35769.68
678.09	35578.27
678.438	35526.3
678.787	35660.98
679.135	35552.06
679.484	35328.56
679.832	35395.68
680.181	35351.16
680.529	35425.96
680.877	35343.48
681.225	35191.39
681.573	35507.54
681.922	35189.81
682.27	35311.84
682.618	35273.87
682.966	35136.03
683.314	35105.29
683.661	34928.35
684.009	34804.51
684.357	34920.21
684.705	34664.63
685.053	34757.28
685.4	34738.07
685.748	34578.07
686.095	34738.07
686.443	34350.74
686.79	34314.8
687.138	34499.88
687.485	34503.73
687.832	34406.78
688.18	34306.44
688.527	34136.5
688.874	34205.65
689.221	33993.68
689.568	33953.23
689.915	33871.65
690.262	33874.14
690.609	33740.81
690.956	33776.96
691.303	33649.28
691.65	33440.48
691.997	33567.03
692.344	33293.14
692.69	33307.15
693.037	33109.41
693.383	33069.86
693.73	33311.21
694.077	33068.28
694.423	32996.19
694.769	32824.22
695.116	32789.19
695.462	32812.24
695.808	32612.7
696.155	32731.34
696.501	32469.88
696.847	32481.18
697.193	32123.9
697.539	32381.75
697.885	31960.29
698.231	32108.76
698.577	32040.74
698.923	31931.36
699.269	31879.84
699.614	31657.47
699.96	31725.49
700.306	31670.81
700.651	31472.62
700.997	31439.85
701.342	31355.79
701.688	31186.75
702.033	31165.51
702.379	31215.45
702.724	31089.8
703.069	31119.41
703.415	30752.86
703.76	30761.45
704.105	30930.71
704.45	30666.09
704.795	30574.34
705.14	30534.56
705.485	30380.22
705.83	30365.3
706.175	30217.51
706.52	30288.7
706.865	30166.89
707.209	30105.65
707.554	29961.7
707.899	30146.1
708.243	29902.72
708.588	29870.63
708.932	29657.75
709.277	29672.44
709.621	29763.96
709.966	29413.01
710.31	29596.96
710.654	29320.13
710.998	29392.67
711.342	29354.71
711.687	29347.93
712.031	29258.21
712.375	29168.72
712.719	29083.98
713.063	29022.06
713.407	29178.89
713.75	29012.12
714.094	28894.16
714.438	28934.61
714.782	28886.92
715.125	28712.01
715.469	28763.76
715.812	28661.17
716.156	28486.03
716.499	28515.41
716.843	28533.94
717.186	28176.66
717.53	28512.24
717.873	28421.63
718.216	28249.43
718.559	28165.81
718.902	27954.29
719.246	28110
719.589	28047.62
719.932	28008.3
720.275	27904.13
720.617	27955.42
720.96	27820.29
721.303	27843.56
721.646	27743.23
721.989	27576.22
722.331	27724.24
722.674	27615.32
723.016	27689.44
723.359	27587.07
723.701	27660.52
724.044	27441.99
724.386	27427.53
724.729	27412.61
725.071	27296.23
725.413	27353.86
725.755	27372.61
726.097	27139.17
726.439	27091.49
726.782	27062.34
727.124	27105.73
727.465	26949.35
727.807	26885.17
728.149	26931.95
728.491	26960.87
728.833	26870.03
729.175	26755
729.516	26687.89
729.858	26768.34
730.199	26666.64
730.541	26606.31
730.882	26631.62
731.224	26602.92
731.565	26572.86
731.906	26451.51
732.248	26538.51
732.589	26224.4
732.93	26343.94
733.271	26217.62
733.612	26267.78
733.953	26328.35
734.294	26167.9
734.635	26171.74
734.976	26241.57
735.317	25950.73
735.658	26149.82
735.999	26016.04
736.339	25875.03
736.68	25950.5
737.021	25980.11
737.361	25790.73
737.702	25844.29
738.042	25756.16
738.383	25710.51
738.723	25807.91
739.063	25633.45
739.404	25713.22
739.744	25616.05
740.084	25417.41
740.424	25556.16
740.764	25429.16
741.104	25515.04
741.444	25491.76
741.784	25398.43
742.124	25385.1
742.464	25310.75
742.804	25216.96
743.143	25226.91
743.483	25196.4
743.823	24972.9
744.162	25038.21
744.502	25122.96
744.841	25023.97
745.181	25065.78
745.52	24952.11
745.86	25029.85
746.199	25025.78
746.538	24905.11
746.877	24865.11
747.216	24868.95
747.556	24756.19
747.895	24854.04
748.234	24752.8
748.573	24683.87
748.911	24583.31
749.25	24682.51
749.589	24368.62
749.928	24622.63
750.267	24592.8
750.605	24508.96
750.944	24423.99
751.283	24450.2
751.621	24416.99
751.96	24199.59
752.298	24257.67
752.636	24229.19
752.975	24100.84
753.313	24016.77
753.651	24177.9
753.989	24035.3
754.327	23916.66
754.666	23782.2
755.004	23933.38
755.342	23918.92
755.679	23771.8
756.017	23638.02
756.355	23633.95
756.693	23546.5
757.031	23708.3
757.368	23469.44
757.706	23464.69
758.044	23375.2
758.381	23518.93
758.719	23337.24
759.056	23279.39
759.394	23315.55
759.731	23064.93
760.068	23011.37
760.405	22883.92
760.743	22862
761.08	22919.62
761.417	22789.68
761.754	22797.14
762.091	22659.74
762.428	22621.33
762.765	22452.52
763.102	22530.71
763.438	22449.58
763.775	22253.43
764.112	22420.65
764.449	22356.47
764.785	22288.91
765.122	22095.92
765.458	21963.49
765.795	21916.71
766.131	21884.85
766.467	21881.23
766.804	21787.68
767.14	21758.98
767.476	21680.56
767.812	21504.75
768.148	21551.3
768.485	21420.23
768.821	21265.43
769.157	21346.78
769.492	21284.64
769.828	21202.61
770.164	20960.8
770.5	21012.78
770.836	20920.35
771.171	20800.81
771.507	20724.88
771.842	20736.86
772.178	20692.79
772.513	20633.13
772.849	20498.9
773.184	20502.51
773.519	20396.07
773.855	20434.49
774.19	20242.63
774.525	20183.88
774.86	20200.37
775.195	20113.14
775.53	20083.99
775.865	19911.11
776.2	19867.5
776.535	19685.81
776.87	19705.02
777.205	19651.23
777.539	19472.71
777.874	19551.58
778.209	19392.48
778.543	19355.2
778.878	19155.88
779.212	19268.87
779.547	19095.32
779.881	19082.21
780.215	18954.98
780.55	19043.79
780.884	18777.36
781.218	18779.17
781.552	18740.98
781.886	18776.91
782.22	18559.29
782.554	18635.89
782.888	18322
783.222	18335.11
783.556	18307.77
783.889	18204.49
784.223	18063.48
784.557	18095.34
784.89	18020.32
785.224	17939.42
785.557	17863.49
785.891	17828.91
786.224	17811.96
786.558	17684.05
786.891	17619.2
787.224	17509.37
787.557	17505.53
787.891	17437.96
788.224	17412.88
788.557	17360.22
788.89	17341.24
789.223	17336.27
789.556	17075.26
789.888	17123.17
790.221	17034.58
790.554	16983.73
790.887	16906.9
791.219	16847.69
791.552	16873
791.884	16743.29
792.217	16673.46
792.549	16573.12
792.882	16640.24
793.214	16504.42
793.546	16482.05
793.879	16342.4
794.211	16315.28
794.543	16355.73
794.875	16317.99
795.207	16268.27
795.539	16147.37
795.871	16303.75
796.203	15988.51
796.535	15908.28
796.867	15889.3
797.198	15862.63
797.53	15847.72
797.862	15663.32
798.193	15845.46
798.525	15681.85
798.856	15676.65
799.188	15461.06
799.519	15483.89
799.85	15332.93
800.182	15499.93
800.513	15336.77
800.844	15279.6
801.175	15385.58
801.506	15257
801.837	15147.17
802.168	15114.86
802.499	15192.14
802.83	15034.41
803.161	15017.46
803.491	14975.65
803.822	14928.2
804.153	14904.24
804.483	14789.22
804.814	14779.95
805.145	14779.95
805.475	14679.16
805.805	14618.15
806.136	14575.44
806.466	14607.98
806.796	14592.38
807.126	14447.53
807.457	14417.02
807.787	14433.52
808.117	14411.6
808.447	14344.26
808.777	14360.75
809.107	14262
809.436	14286.86
809.766	14192.17
810.096	14165.96
810.426	14159.18
810.755	14061.33
811.085	14072.17
811.414	14012.29
811.744	13979.75
812.073	13871.95
812.403	13875.12
812.732	13813.87
813.061	13772.07
813.39	13700.88
813.719	13666.99
814.049	13704.27
814.378	13622.01
814.707	13578.85
815.036	13636.7
815.365	13495.24
815.693	13484.17
816.022	13422.25
816.351	13384.28
816.68	13283.94
817.008	13309.25
817.337	13248.47
817.665	13248.47
817.994	13209.14
818.322	13187.9
818.651	13153.78
818.979	13116.94
819.307	13222.03
819.636	13111.97
819.964	13046.21
820.292	13129.82
820.62	13024.74
820.948	12955.82
821.276	13065.19
821.604	12977.29
821.932	12975.25
822.259	13016.15
822.587	12949.26
822.915	12932.09
823.243	13032.43
823.57	12897.74
823.898	12969.38
824.225	12870.85
824.553	12923.05
824.88	12971.41
825.207	12886.89
825.535	12886.21
825.862	12922.15
826.189	12897.97
826.516	12969.15
826.843	12988.13
827.17	12947.91
827.497	12995.59
827.824	13024.06
828.151	12953.11
828.478	12976.16
828.805	12996.95
829.131	12864.52
829.458	12858.42
829.785	12818.42
830.111	12880.11
830.438	12942.26
830.764	12845.09
831.09	12868.36
831.417	12820.91
831.743	12898.42
832.069	12871.07
832.395	12822.26
832.722	12837.18
833.048	12824.75
833.374	12813.22
833.7	12756.27
834.026	12771.87
834.351	12785.2
834.677	12750.85
835.003	12755.82
835.329	12749.04
835.654	12743.39
835.98	12646.22
836.306	12679.67
836.631	12608.03
836.956	12604.64
837.282	12649.61
837.607	12593.12
837.932	12526.9
838.258	12517.41
838.583	12546.11
838.908	12482.16
839.233	12538.2
839.558	12453.23
839.883	12422.72
840.208	12436.28
840.533	12371.88
840.858	12392.22
841.182	12381.37
841.507	12393.57
841.832	12327.59
842.156	12368.49
842.481	12270.19
842.805	12225.22
843.13	12162.84
843.454	12181.37
843.778	12099.12
844.103	12147.25
844.427	12065.67
844.751	12115.16
845.075	12031.55
845.399	11995.62
845.723	11924.88
846.047	11918.1
846.371	11821.84
846.695	11832.01
847.019	11761.5
847.343	11659.35
847.666	11628.39
847.99	11625.91
848.313	11623.65
848.637	11596.31
848.96	11530.32
849.284	11445.57
849.607	11416.42
849.931	11313.15
850.254	11180.05
850.577	11231.34
850.9	11145.24
851.223	11126.49
851.546	11091.01
851.869	11074.96
852.192	11120.39
852.515	10939.6
852.838	10926.94
853.161	10932.82
853.483	10854.86
853.806	10828.19
854.129	10946.6
854.451	10715.2
854.774	10732.83
855.096	10640.85
855.419	10682.43
855.741	10628.2
856.063	10612.15
856.385	10519.72
856.708	10503
857.03	10453.51
857.352	10517.69
857.674	10422.78
857.996	10360.86
858.318	10378.48
858.64	10371.7
858.961	10345.04
859.283	10335.55
859.605	10226.85
859.926	10245.61
860.248	10199.73
860.57	10195.89
860.891	10167.42
861.212	10151.6
861.534	10063.69
861.855	10067.76
862.176	10074.76
862.498	10060.3
862.819	10071.15
863.14	10010.58
863.461	9950.7
863.782	10025.73
864.103	9980.98
864.424	9943.69
864.745	9956.8
865.065	9869.8
865.386	9822.79
865.707	9810.59
866.027	9872.96
866.348	9820.53
866.668	9790.93
866.989	9764.94
867.309	9676.58
867.63	9701.44
867.95	9707.09
868.27	9569.01
868.59	9706.86
868.91	9659.41
869.23	9679.07
869.55	9620.99
869.87	9647.66
870.19	9557.04
870.51	9611.95
870.83	9613.31
871.15	9501.22
871.469	9512.07
871.789	9508.45
872.109	9501.45
872.428	9482.24
872.748	9411.73
873.067	9433.2
873.386	9510.94
873.706	9471.84
874.025	9406.08
874.344	9359.3
874.663	9448.57
874.982	9368.57
875.301	9369.47
875.62	9365.86
875.939	9235.46
876.258	9297.38
876.577	9251.06
876.896	9258.74
877.214	9248.34
877.533	9247.89
877.852	9241.11
878.17	9315.01
878.489	9219.42
878.807	9203.15
879.125	9164.96
879.444	9186.88
879.762	9051.29
880.08	9160.66
880.398	9114.34
880.716	9054.9
881.034	9110.49
881.352	9036.15
881.67	9046.54
881.988	9055.81
882.306	8990.05
882.624	9008.35
882.941	8952.08
883.259	8955.24
883.577	8945.98
883.894	8877.51
884.212	8878.41
884.529	8916.6
884.846	8813.1
885.164	8800.22
885.481	8667.12
885.798	8843.38
886.115	8727.23
886.432	8744.4
886.75	8699.66
887.067	8743.72
887.383	8634.35
887.7	8646.78
888.017	8581.7
888.334	8610.62
888.651	8574.24
888.967	8575.37
889.284	8514.8
889.6	8497.4
889.917	8381.7
890.233	8479.55
890.55	8401.36
890.866	8353.45
891.182	8383.28
891.498	8371.98
891.815	8339.22
892.131	8327.69
892.447	8264.87
892.763	8267.13
893.079	8256.51
893.395	8244.08
893.71	8205.21
894.026	8205.89
894.342	8169.28
894.657	8113.46
894.973	8068.94
895.289	8071.65
895.604	8068.94
895.92	7994.14
896.235	7942.16
896.55	8052.44
896.865	7931.54
897.181	7847.25
897.496	7870.98
897.811	7893.13
898.126	7843.18
898.441	7826.46
898.756	7805.44
899.071	7758.21
899.386	7711.21
899.7	7675.73
900.015	7632.79
900.33	7639.8
900.644	7637.54
900.959	7602.74
901.273	7535.17
901.588	7476.19
901.902	7453.59
902.216	7468.5
902.531	7441.61
902.845	7381.5
903.159	7336.3
903.473	7343.08
903.787	7325.91
904.101	7310.77
904.415	7345.34
904.729	7271.9
905.042	7192.81
905.356	7201.62
905.67	7169.3
905.984	7154.39
906.297	7204.56
906.611	7064
906.924	7098.57
907.237	7074.84
907.551	7081.4
907.864	6963.43
908.177	6956.2
908.491	6977.67
908.804	6979.03
909.117	6918.69
909.43	6818.35
909.743	6835.53
910.056	6835.98
910.368	6782.42
910.681	6756.21
910.994	6707.62
911.307	6736.77
911.619	6622.2
911.932	6673.5
912.244	6622.42
912.557	6628.3
912.869	6539.26
913.181	6538.59
913.494	6541.07
913.806	6510.56
914.118	6472.82
914.43	6425.59
914.742	6359.83
915.054	6374.97
915.366	6320.29
915.678	6337.01
915.99	6340.85
916.302	6275.99
916.613	6238.48
916.925	6175.43
917.236	6178.37
917.548	6171.14
917.859	6169.1
918.171	6061.99
918.482	6127.75
918.794	6084.36
919.105	6038.49
919.416	6012.5
919.727	5949.9
920.038	6032.84
920.349	5934.08
920.66	5943.35
920.971	5904.93
921.282	5881.43
921.593	5775.22
921.903	5800.53
922.214	5776.8
922.525	5806.85
922.835	5763.01
923.146	5682.79
923.456	5676.91
923.767	5626.29
924.077	5637.14
924.387	5644.82
924.697	5582
925.008	5598.5
925.318	5542.23
925.628	5562.79
925.938	5472.17
926.248	5509.69
926.558	5461.55
926.867	5429.46
927.177	5442.57
927.487	5426.3
927.796	5389.91
928.106	5329.13
928.416	5322.57
928.725	5322.12
929.034	5292.97
929.344	5288.67
929.653	5272.4
929.962	5250.71
930.271	5199.86
930.581	5171.84
930.89	5221.33
931.199	5126.42
931.508	5131.39
931.817	5121.22
932.125	5085.29
932.434	5040.32
932.743	5026.76
933.051	4990.38
933.36	4971.39
933.669	4937.27
933.977	4942.69
934.286	4926.2
934.594	4943.6
934.902	4855.24
935.21	4842.36
935.519	4828.57
935.827	4850.27
936.135	4803.72
936.443	4768.91
936.751	4775.47
937.059	4733.43
937.367	4695.02
937.674	4705.19
937.982	4677.84
938.29	4653.44
938.597	4644.85
938.905	4600.78
939.213	4590.16
939.52	4595.36
939.827	4575.47
940.135	4532.31
940.442	4557.85
940.749	4540.9
941.056	4462.48
941.363	4493.22
941.67	4479.43
941.977	4385.87
942.284	4377.29
942.591	4375.7
942.898	4351.07
943.205	4372.99
943.511	4339.32
943.818	4322.6
944.125	4260.68
944.431	4256.61
944.738	4254.58
945.044	4243.28
945.35	4222.71
945.657	4184.3
945.963	4215.26
946.269	4170.74
946.575	4152.43
946.881	4121.7
947.187	4139.78
947.493	4089.38
947.799	4092.1
948.105	4078.31
948.41	4045.77
948.716	4058.2
949.022	3987.69
949.327	3959.67
949.633	3947.24
949.938	3973.68
950.244	3938.88
950.549	3918.32
950.854	3922.61
951.16	3921.48
951.465	3860.69
951.77	3824.53
952.075	3829.28
952.38	3833.57
952.685	3830.63
952.99	3791.76
953.294	3731.88
953.599	3769.62
953.904	3750.86
954.209	3737.3
954.513	3674.93
954.818	3667.47
955.122	3704.31
955.426	3704.08
955.731	3613.92
956.035	3624.76
956.339	3599.45
956.643	3630.86
956.948	3612.33
957.252	3572.56
957.556	3540.92
957.86	3552.9
958.163	3535.27
958.467	3494.37
958.771	3538.21
959.075	3515.16
959.378	3481.94
959.682	3454.15
959.985	3420.25
960.289	3428.84
960.592	3387.48
960.896	3407.59
961.199	3374.37
961.502	3317.88
961.805	3361.49
962.108	3333.25
962.411	3307.94
962.714	3249.86
963.017	3262.29
963.32	3309.29
963.623	3261.84
963.926	3238.33
964.228	3220.03
964.531	3217.09
964.833	3175.06
965.136	3201.5
965.438	3150.2
965.741	3166.92
966.043	3153.82
966.345	3157.66
966.648	3109.75
966.95	3114.95
967.252	3072.46
967.554	3097.55
967.856	3073.82
968.158	3083.53
968.46	3073.14
968.761	3070.43
969.063	3005.34
969.365	2938
969.666	3007.6
969.968	2991.79
970.269	2931
970.571	2947.49
970.872	2960.83
971.174	2926.7
971.475	2900.04
971.776	2891.45
972.077	2892.35
972.378	2910.88
972.679	2881.73
972.98	2884.44
973.281	2792.69
973.582	2891.9
973.883	2809.42
974.183	2806.03
974.484	2779.36
974.785	2769.19
975.085	2794.28
975.386	2772.81
975.686	2785.69
975.986	2741.4
976.287	2740.04
976.587	2678.12
976.887	2722.19
977.187	2712.47
977.487	2707.27
977.787	2658.46
978.087	2666.37
978.387	2653.94
978.687	2637.44
978.987	2594.06
979.286	2589.76
979.586	2597.9
979.885	2596.09
980.185	2573.04
980.484	2573.27
980.784	2534.17
981.083	2537.56
981.382	2506.37
981.682	2532.14
981.981	2535.53
982.28	2494.85
982.579	2510.44
982.878	2474.51
983.177	2466.6
983.475	2462.76
983.774	2443.55
984.073	2434.29
984.372	2458.01
984.67	2406.94
984.969	2411.91
985.267	2378.24
985.566	2366.72
985.864	2412.82
986.162	2390.45
986.461	2349.77
986.759	2314.29
987.057	2342.54
987.355	2311.58
987.653	2311.35
987.951	2293.5
988.249	2270.22
988.547	2270.22
988.844	2280.17
989.142	2292.14
989.44	2239.72
989.737	2248.08
990.035	2242.2
990.332	2198.81
990.63	2211.02
990.927	2197.46
991.224	2208.08
991.521	2179.38
991.819	2199.26
992.116	2147.97
992.413	2115.88
992.71	2139.38
993.006	2108.42
993.303	2138.02
993.6	2099.61
993.897	2107.06
994.193	2098.48
994.49	2098.02
994.787	2090.34
995.083	2041.75
995.379	2030.23
995.676	2026.16
995.972	2032.49
996.268	2024.58
996.565	2010.79
996.861	2004.02
997.157	2016.44
997.453	1963.56
997.749	1986.84
998.044	1959.5
998.34	1929.67
998.636	1952.72
998.932	1917.24
999.227	1945.71
999.523	1911.81
999.818	1914.75
1000.114	1908.42
1000.409	1879.5
1000.704	1884.7
1001	1862.55
1001.295	1865.04
1001.59	1831.82
1001.885	1826.62
1002.18	1806.28
1002.475	1810.57
1002.77	1782.1
1003.065	1772.38
1003.359	1780.97
1003.654	1782.78
1003.949	1780.74
1004.243	1747.07
1004.538	1772.38
1004.832	1763.8
1005.127	1762.21
1005.421	1704.81
1005.715	1726.51
1006.009	1726.96
1006.304	1700.29
1006.598	1685.83
1006.892	1674.08
1007.186	1668.66
1007.48	1651.48
1007.773	1642.67
1008.067	1664.81
1008.361	1641.09
1008.655	1640.41
1008.948	1603.8
1009.242	1611.26
1009.535	1595.21
1009.829	1615.78
1010.122	1586.85
1010.415	1561.09
1010.708	1569.45
1011.001	1546.85
1011.295	1533.07
1011.588	1529.9
1011.881	1538.49
1012.173	1527.19
1012.466	1535.1
1012.759	1489
1013.052	1521.09
1013.344	1517.47
1013.637	1503.46
1013.93	1468.21
1014.222	1470.7
1014.514	1447.19
1014.807	1467.76
1015.099	1439.28
1015.391	1414.88
1015.683	1419.85
1015.976	1408.55
1016.268	1391.6
1016.56	1415.33
1016.851	1398.83
1017.143	1383.92
1017.435	1358.16
1017.727	1359.29
1018.018	1371.26
1018.31	1317.48
1018.602	1342.56
1018.893	1338.27
1019.185	1350.02
1019.476	1327.87
1019.767	1300.08
1020.058	1317.71
1020.35	1301.89
1020.641	1283.58
1020.932	1281.77
1021.223	1274.32
1021.514	1250.59
1021.804	1251.94
1022.095	1244.94
1022.386	1245.39
1022.677	1213.08
1022.967	1197.48
1023.258	1238.39
1023.548	1198.84
1023.839	1208.56
1024.129	1199.52
1024.419	1174.88
1024.709	1161.33
1025	1169.46
1025.29	1178.05
1025.58	1155
1025.87	1145.28
1026.16	1147.54
1026.449	1151.61
1026.739	1133.08
1027.029	1127.65
1027.319	1112.74
1027.608	1117.94
1027.898	1083.59
1028.187	1105.28
1028.477	1078.62
1028.766	1092.85
1029.055	1086.3
1029.344	1064.15
1029.634	1044.49
1029.923	1030.93
1030.212	1046.75
1030.501	1070.48
1030.79	1034.32
1031.078	1006.53
1031.367	1017.83
1031.656	1006.3
1031.945	1009.01
1032.233	1006.53
1032.522	998.39
1032.81	996.13
1033.099	996.36
1033.387	972.86
1033.675	959.3
1033.963	978.05
1034.251	952.74
1034.54	938.28
1034.828	961.56
1035.116	933.31
1035.403	945.29
1035.691	941.22
1035.979	929.02
1036.267	921.56
1036.554	933.31
1036.842	875.46
1037.129	896.25
1037.417	899.19
1037.704	894.44
1037.992	874.78
1038.279	879.98
1038.566	873.42
1038.853	873.42
1039.14	873.42
