Data from hue_50_FLMS001491_10.txt Node
Date: Mon Feb 06 15:09:31 GMT 2017
User: dcchb
Spectrometer: FLMS00149
Trigger mode: 0
Integration Time (sec): 2.000000E-2
Scans to average: 10
Electric dark correction enabled: true
Nonlinearity correction enabled: false
Boxcar width: 0
XAxis mode: Wavelengths
Number of Pixels in Spectrum: 2048
>>>>>Begin Spectral Data<<<<<
341.393	-26.36
341.776	-26.36
342.16	-26.36
342.543	-48.73
342.927	-53.7
343.31	-69.97
343.693	-70.2
344.077	-73.81
344.46	-67.71
344.843	-55.73
345.226	-27.94
345.61	-34.49
345.993	-13.47
346.376	4.15
346.759	19.97
347.142	32.63
347.525	49.57
347.908	47.99
348.291	70.82
348.674	89.8
349.057	98.39
349.44	123.02
349.823	155.11
350.206	169.35
350.588	176.35
350.971	202.11
351.354	202.57
351.737	226.97
352.119	245.95
352.502	262.22
352.884	271.94
353.267	283.69
353.65	277.59
354.032	278.04
354.414	288.44
354.797	322.56
355.179	309.23
355.562	316.23
355.944	309.68
356.326	338.38
356.709	342.22
357.091	322.56
357.473	325.95
357.855	355.33
358.238	325.05
358.62	356.91
359.002	351.04
359.384	345.16
359.766	362.11
360.148	342
360.53	342.9
360.912	339.28
361.294	332.28
361.676	324.6
362.057	341.54
362.439	334.09
362.821	343.13
363.203	318.27
363.584	308.55
363.966	339.06
364.348	325.05
364.729	317.82
365.111	309.23
365.493	335.9
365.874	342.22
366.256	310.81
366.637	311.94
367.019	323.69
367.4	323.69
367.781	310.13
368.163	311.94
368.544	331.6
368.925	323.47
369.306	333.64
369.688	303.35
370.069	317.36
370.45	294.54
370.831	336.12
371.212	302.22
371.593	310.59
371.974	293.86
372.355	310.36
372.736	291.38
373.117	320.08
373.498	317.59
373.879	308.55
374.26	304.48
374.641	306.97
375.021	318.04
375.402	316.69
375.783	318.27
376.163	346.97
376.544	331.6
376.925	336.35
377.305	317.82
377.686	330.25
378.066	325.95
378.447	333.64
378.827	338.61
379.208	327.76
379.588	322.79
379.968	330.02
380.349	326.86
380.729	323.92
381.109	311.94
381.489	319.85
381.87	316.23
382.25	339.28
382.63	348.55
383.01	344.48
383.39	322.56
383.77	348.32
384.15	333.41
384.53	335.67
384.91	353.3
385.29	346.06
385.67	325.95
386.049	342
386.429	340.19
386.809	355.1
387.189	346.74
387.568	361.43
387.948	342.45
388.328	349.68
388.707	358.72
389.087	358.04
389.466	357.82
389.846	343.58
390.225	350.58
390.605	335.9
390.984	344.03
391.363	357.59
391.743	363.24
392.122	325.05
392.501	352.17
392.881	369.11
393.26	352.39
393.639	374.99
394.018	363.47
394.397	384.48
394.776	376.35
395.155	369.79
395.534	373.41
395.913	358.27
396.292	342.45
396.671	364.37
397.05	367.31
397.429	380.19
397.808	380.87
398.186	386.97
398.565	376.12
398.944	372.96
399.323	368.66
399.701	377.48
400.08	388.32
400.458	389
400.837	369.57
401.215	377.25
401.594	382
401.972	399.17
402.351	382.45
402.729	377.25
403.107	396.68
403.486	392.62
403.864	405.95
404.242	392.62
404.62	388.32
404.999	407.98
405.377	366.85
405.755	401.88
406.133	383.35
406.511	412.28
406.889	407.08
407.267	393.75
407.645	391.03
408.023	399.4
408.401	432.39
408.779	401.66
409.156	404.59
409.534	412.73
409.912	422.67
410.29	432.16
410.667	433.07
411.045	417.25
411.422	452.05
411.8	416.8
412.178	438.04
412.555	443.24
412.933	449.79
413.31	437.59
413.687	441.88
414.065	460.86
414.442	444.82
414.819	441.2
415.197	455.21
415.574	462.22
415.951	448.21
416.328	451.37
416.705	469.22
417.082	467.87
417.46	468.77
417.837	485.04
418.214	476.46
418.591	459.51
418.967	478.49
419.344	483.46
419.721	483.01
420.098	481.2
420.475	484.82
420.852	487.3
421.228	510.13
421.605	497.47
421.982	487.53
422.358	492.73
422.735	487.53
423.111	485.95
423.488	511.26
423.864	518.04
424.241	524.82
424.617	535.66
424.994	519.39
425.37	513.97
425.746	520.3
426.123	531.37
426.499	520.52
426.875	519.39
427.251	530.24
427.627	540.64
428.003	549.9
428.379	545.83
428.756	549.45
429.132	544.7
429.507	543.57
429.883	558.49
430.259	557.81
430.635	560.07
431.011	576.57
431.387	567.75
431.763	563.91
432.138	592.61
432.514	569.79
432.89	562.56
433.265	574.76
433.641	599.17
434.016	605.94
434.392	604.81
434.767	600.29
435.143	602.78
435.518	597.13
435.894	632.38
436.269	617.47
436.644	638.71
437.02	629.67
437.395	617.92
437.77	634.42
438.145	654.76
438.52	657.47
438.895	662.67
439.271	665.15
439.646	669.67
440.021	661.76
440.395	668.09
440.77	675.32
441.145	676.45
441.52	684.36
441.895	699.95
442.27	692.27
442.645	684.36
443.019	706.96
443.394	693.17
443.769	717.13
444.143	717.13
444.518	706.05
444.892	700.41
445.267	688.65
445.641	699.05
446.016	729.56
446.39	730.46
446.764	726.85
447.139	726.39
447.513	725.26
447.887	751.93
448.262	739.27
448.636	737.69
449.01	736.79
449.384	744.47
449.758	762.78
450.132	771.59
450.506	771.36
450.88	793.06
451.254	781.99
451.628	757.35
452.002	785.15
452.376	803.23
452.75	789.22
453.123	821.53
453.497	794.41
453.871	813.17
454.244	810.46
454.618	822.66
454.992	844.81
455.365	854.53
455.739	876.45
456.112	890
456.486	863.79
456.859	882.77
457.232	894.98
457.606	919.38
457.979	906.28
458.352	904.69
458.725	947.86
459.099	925.48
459.472	952.15
459.845	955.31
460.218	966.84
460.591	956.67
460.964	982.21
461.337	1008.87
461.71	1026.05
462.083	1042.54
462.456	1023.33
462.829	1022.88
463.201	1050.23
463.574	1066.72
463.947	1052.94
464.32	1068.31
464.692	1085.71
465.065	1085.93
465.438	1118.93
465.81	1130.68
466.183	1134.29
466.555	1193.27
466.928	1203.44
467.3	1200.96
467.672	1202.54
468.045	1252.03
468.417	1264.23
468.789	1259.03
469.161	1310.78
469.534	1303.78
469.906	1334.29
470.278	1347.85
470.65	1380.16
471.022	1402.31
471.394	1408.18
471.766	1456.54
472.138	1464
472.51	1475.98
472.882	1546.48
473.253	1571.79
473.625	1568.18
473.997	1638.46
474.369	1630.55
474.74	1693.6
475.112	1692.92
475.484	1758.68
475.855	1793.94
476.227	1842.75
476.598	1890.43
476.97	1952.35
477.341	2002.52
477.713	2003.2
478.084	2063.76
478.455	2152.12
478.827	2170.2
479.198	2293.81
479.569	2307.37
479.94	2364.99
480.311	2452.45
480.682	2496.06
481.053	2568.83
481.424	2674.82
481.795	2725.66
482.166	2800.01
482.537	2893.34
482.908	2969.95
483.279	3057.18
483.65	3149.83
484.021	3236.38
484.391	3285.42
484.762	3344.18
485.133	3464.85
485.503	3519.99
485.874	3665.98
486.244	3731.96
486.615	3893.09
486.985	3980.55
487.356	4074.78
487.726	4160.43
488.097	4317.03
488.467	4351.38
488.837	4481.32
489.207	4655.1
489.578	4729.23
489.948	4847.19
490.318	5026.39
490.688	5068.43
491.058	5178.25
491.428	5316.78
491.798	5471.58
492.168	5628.41
492.538	5713.61
492.908	5800.84
493.278	5983.66
493.648	6069.3
494.017	6188.17
494.387	6328.28
494.757	6436.07
495.126	6623.41
495.496	6673.36
495.866	6786.35
496.235	6981.14
496.605	7073.12
496.974	7167.58
497.344	7304.07
497.713	7411.19
498.082	7580
498.452	7686.21
498.821	7804.17
499.19	7890.95
499.559	8059.08
499.928	8165.52
500.298	8232.86
500.667	8457.04
501.036	8438.28
501.405	8696.13
501.774	8645.96
502.143	8845.28
502.512	8878.95
502.88	9037.14
503.249	9122.33
503.618	9250.46
503.987	9290.01
504.356	9476.9
504.724	9579.04
505.093	9615.65
505.462	9768.87
505.83	9847.28
506.199	10062.65
506.567	10139.48
506.936	10200.49
507.304	10316.42
507.672	10411.34
508.041	10549.86
508.409	10633.48
508.777	10775.85
509.145	10877.09
509.514	10906.69
509.882	11019.23
510.25	11148.27
510.618	11291.54
510.986	11320.47
511.354	11458.09
511.722	11645.2
512.09	11721.81
512.458	11776.05
512.826	11905.53
513.193	11923.84
513.561	12037.51
513.929	12144.4
514.297	12359.31
514.664	12400.89
515.032	12463.94
515.4	12578.29
515.767	12636.59
516.135	12750.71
516.502	12801.56
516.869	12994.09
517.237	13033.19
517.604	13122.45
517.972	13294.65
518.339	13400.18
518.706	13374.2
519.073	13466.85
519.44	13563.57
519.808	13819.83
520.175	13782.55
520.542	13959.49
520.909	14121.07
521.276	14126.94
521.643	14239.26
522.009	14372.14
522.376	14464.34
522.743	14598.34
523.11	14680.6
523.477	14870.65
523.843	14956.98
524.21	15027.94
524.577	15208.05
524.943	15222.06
525.31	15309.29
525.676	15523.97
526.043	15620.69
526.409	15704.3
526.776	15748.15
527.142	15819.56
527.508	15997.4
527.874	16115.14
528.241	16222.94
528.607	16314.01
528.973	16488.69
529.339	16426.55
529.705	16624.51
530.071	16741.34
530.437	16895.46
530.803	16931.16
531.169	17046.87
531.535	16991.95
531.901	17009.36
532.267	17262.46
532.632	17346.07
532.998	17492.05
533.364	17532.73
533.73	17453.41
534.095	17667.64
534.461	17741.77
534.826	17986.28
535.192	17984.02
535.557	18102.66
535.923	18128.65
536.288	18119.38
536.653	18210.23
537.019	18167.74
537.384	18360.28
537.749	18401.63
538.114	18500.16
538.479	18484.12
538.845	18618.35
539.21	18642.53
539.575	18673.94
539.94	18760.95
540.305	18948.97
540.67	18832.58
541.034	18988.29
541.399	19063.31
541.764	19104.67
542.129	19156.64
542.494	19245.68
542.858	19390.54
543.223	19485.9
543.587	19482.51
543.952	19531.1
544.316	19604.54
544.681	19548.72
545.045	19679.57
545.41	19837.08
545.774	19872.1
546.138	19837.3
546.503	19950.52
546.867	20085.43
547.231	20162.04
547.595	20205.43
547.959	20249.95
548.324	20350.06
548.688	20303.96
549.052	20518.19
549.416	20521.81
549.779	20495.59
550.143	20620.56
550.507	20685.19
550.871	20837.05
551.235	20777.39
551.599	20899.65
551.962	21006.31
552.326	21028.23
552.689	21125.86
553.053	21179.19
553.417	21130.38
553.78	21433.65
554.143	21342.57
554.507	21456.47
554.87	21473.19
555.234	21695.79
555.597	21618.73
555.96	21734.43
556.323	21843.35
556.686	21898.94
557.05	22023.91
557.413	22172.38
557.776	22200.86
558.139	22248.99
558.502	22329.89
558.865	22399.5
559.228	22656.89
559.59	22645.82
559.953	22709.09
560.316	22862.99
560.679	22891.69
561.041	22994.28
561.404	23178.91
561.767	23273.82
562.129	23298.91
562.492	23436.3
562.854	23428.17
563.217	23439.47
563.579	23594.72
563.941	23759.69
564.304	23823.64
564.666	24016.85
565.028	23984.99
565.39	24147.47
565.753	24198.09
566.115	24242.84
566.477	24403.51
566.839	24510.63
567.201	24547.24
567.563	24669.49
567.925	24727.8
568.287	24805.08
568.648	24915.81
569.01	25024.74
569.372	25247.56
569.734	25203.94
570.095	25394.9
570.457	25466.08
570.819	25428.12
571.18	25620.43
571.542	25709.24
571.903	25675.34
572.265	25796.24
572.626	25844.6
572.987	25952.4
573.349	26058.16
573.71	26207.53
574.071	26305.83
574.432	26403.01
574.794	26560.74
575.155	26567.97
575.516	26462.21
575.877	26829.21
576.238	26711.25
576.599	26885.03
576.96	26933.84
577.32	27102.42
577.681	27151.46
578.042	27346.03
578.403	27281.18
578.763	27327.5
579.124	27430.1
579.485	27714.84
579.845	27696.31
580.206	27681.84
580.566	27846.58
580.927	27842.74
581.287	28134.94
581.648	28084.54
582.008	28384.65
582.368	28332.22
582.728	28325.22
583.089	28348.04
583.449	28575.83
583.809	28639.11
584.169	28898.08
584.529	28757.29
584.889	29153.67
585.249	28975.14
585.609	29036.61
585.969	29295.81
586.329	29252.65
586.688	29437.05
587.048	29452.19
587.408	29551.4
587.768	29539.87
588.127	29769.47
588.487	29808.57
588.846	30032.06
589.206	30074.32
589.565	30177.82
589.925	30355.22
590.284	30297.14
590.643	30406.06
591.003	30536.01
591.362	30718.6
591.721	30729.22
592.08	30851.48
592.44	31066.39
592.799	31150.9
593.158	31177.57
593.517	31245.14
593.876	31512.02
594.235	31413.27
594.593	31567.84
594.952	31697.56
595.311	31660.5
595.67	31763.32
596.029	32051.9
596.387	32055.51
596.746	32158.11
597.104	32158.34
597.463	32210.09
597.822	32423.41
598.18	32331.66
598.538	32478.55
598.897	32714.48
599.255	32343.64
599.613	33038.54
599.972	32812.56
600.33	32891.88
600.688	32878.99
601.046	33290.96
601.404	33306.78
601.762	33289.83
602.12	33429.71
602.478	33533.89
602.836	33631.74
603.194	33463.84
603.552	33655.7
603.91	33651.4
604.268	33884.17
604.625	33797.61
604.983	34049.36
605.341	33894.56
605.698	34148.11
606.056	34273.08
606.413	34290.93
606.771	34423.36
607.128	34462
607.485	34416.13
607.843	34504.26
608.2	34647.54
608.557	34789.45
608.914	34780.19
609.272	34981.09
609.629	35019.95
609.986	35159.16
610.343	35158.48
610.7	35377.23
611.057	35359.16
611.414	35357.35
611.771	35472.6
612.127	35642.31
612.484	35566.83
612.841	35871.23
613.198	35673.95
613.554	35790.33
613.911	36088.85
614.267	35922.98
614.624	36023.77
614.98	36244.33
615.337	36336.08
615.693	36122.75
616.05	36259.92
616.406	36424.66
616.762	36391.9
617.118	36454.04
617.475	36495.17
617.831	36577.2
618.187	36573.59
618.543	36684.77
618.899	37040.01
619.255	36988.26
619.611	36893.35
619.967	37083.4
620.323	37156.17
620.678	36968.38
621.034	37010.86
621.39	37139.9
621.746	37121.82
622.101	37427.58
622.457	37149.39
622.812	37270.29
623.168	37392.32
623.523	37517.06
623.879	37483.39
624.234	37218.32
624.589	37465.31
624.945	37432.32
625.3	37668.02
625.655	37432.09
626.01	37645.65
626.365	37627.57
626.72	37578.08
627.075	37563.84
627.43	37606.78
627.785	37503.96
628.14	37607.68
628.495	37650.39
628.85	37702.6
629.205	37544.18
629.559	37905.08
629.914	37691.07
630.269	37622.37
630.623	37618.53
630.978	37497.18
631.332	37769.49
631.687	37730.62
632.041	37642.71
632.396	37775.36
632.75	37573.11
633.104	37628.7
633.459	37608.14
633.813	37490.85
634.167	37582.83
634.521	37598.87
634.875	37715.03
635.229	37529.27
635.583	37356.16
635.937	37399.1
636.291	37340.12
636.645	37365.88
636.999	37398.88
637.352	37496.05
637.706	37275.49
638.06	37489.95
638.413	37438.42
638.767	37194.81
639.121	37425.54
639.474	37209.28
639.828	37217.41
640.181	37323.17
640.534	37200.91
640.888	37155.49
641.241	37078.66
641.594	37068.26
641.947	37239.33
642.301	37122.27
642.654	37070.52
643.007	37171.54
643.36	37058.77
643.713	37036.17
644.066	37082.95
644.419	36853.8
644.771	36721.38
645.124	36388.51
645.477	36274.16
645.83	36222.86
646.182	35957.11
646.535	35938.12
646.888	35769.99
647.24	35696.1
647.593	35858.8
647.945	35766.83
648.298	35582.88
648.65	35490
649.002	35582.2
649.355	35752.82
649.707	35638.02
650.059	35769.09
650.411	36174.73
650.763	36257.44
651.115	36587.15
651.467	36514.6
651.819	36389.86
652.171	36319.13
652.523	36454.72
652.875	36200.71
653.227	36192.13
653.578	36460.82
653.93	36315.97
654.282	36268.06
654.633	36103.32
654.985	36213.82
655.337	36252.69
655.688	36201.39
656.039	36277.55
656.391	35947.84
656.742	36131.11
657.094	36004.34
657.445	36309.19
657.796	36193.94
658.147	35836.43
658.498	36119.81
658.849	36113.71
659.2	36030.55
659.551	35914.85
659.902	36209.53
660.253	36105.8
660.604	36054.28
660.955	35852.02
661.306	36072.36
661.656	36062.64
662.007	36093.37
662.358	35904
662.708	35949.65
663.059	35805.92
663.409	35796.88
663.76	36026.93
664.11	36074.16
664.461	36031.23
664.811	35993.26
665.161	36032.58
665.511	35889.54
665.862	35914.17
666.212	36058.57
666.562	35955.3
666.912	35790.78
667.262	35922.3
667.612	35841.18
667.962	35928.18
668.312	35793.49
668.662	35846.15
669.011	35802.31
669.361	35695.42
669.711	35852.02
670.06	35647.51
670.41	35718.69
670.76	35564.12
671.109	35826.71
671.459	35567.29
671.808	35609.54
672.157	35647.51
672.507	35459.94
672.856	35476.89
673.205	35584.69
673.554	35653.16
673.904	35539.94
674.253	35672.82
674.602	35596.66
674.951	35044.59
675.3	35004.36
675.649	35507.17
675.998	35372.49
676.346	35332.26
676.695	35550.79
677.044	35207.07
677.393	35291.59
677.741	35381.3
678.09	35270.57
678.438	35175.43
678.787	35258.37
679.135	35206.16
679.484	34939.28
679.832	35171.14
680.181	34920.75
680.529	35228.54
680.877	34978.37
681.225	34988.54
681.573	35150.35
681.922	34901.09
682.27	34820.64
682.618	34900.18
682.966	34789
683.314	34744.71
683.661	34732.73
684.009	34561.44
684.357	34591.27
684.705	34592.4
685.053	34483.02
685.4	34446.41
685.748	34339.52
686.095	34269.69
686.443	34232.63
686.79	34106.76
687.138	34126.19
687.485	34135.91
687.832	33979.76
688.18	34091.62
688.527	33807.11
688.874	33886.88
689.221	33722.81
689.568	33811.85
689.915	33700.89
690.262	33608.69
690.609	33479.66
690.956	33273.11
691.303	33365.99
691.65	33236.72
691.997	33194.24
692.344	33101.14
692.69	33016.62
693.037	33016.17
693.383	32754.48
693.73	33046.67
694.077	32634.48
694.423	32741.14
694.769	32566.91
695.116	32493.92
695.462	32302.29
695.808	32396.52
696.155	32461.6
696.501	32153.82
696.847	32201.05
697.193	31896.2
697.539	32109.97
697.885	31923.77
698.231	31741.85
698.577	31761.96
698.923	31684
699.269	31451.46
699.614	31485.81
699.96	31382.08
700.306	31346.38
700.651	31259.6
700.997	31158.81
701.342	31154.97
701.688	31074.07
702.033	30975.09
702.379	31013.05
702.724	30895.77
703.069	30858.71
703.415	30665.72
703.76	30618.94
704.105	30590.92
704.45	30486.51
704.795	30438.83
705.14	30343.92
705.485	30142.12
705.83	30223.47
706.175	30220.99
706.52	29964.95
706.865	29903.93
707.209	29979.64
707.554	29750.04
707.899	29972.18
708.243	29659.87
708.588	29722.47
708.932	29391.4
709.277	29377.39
709.621	29511.17
709.966	29336.04
710.31	29319.54
710.654	29126.1
710.998	29235.47
711.342	29161.8
711.687	29068.7
712.031	28861.7
712.375	28867.12
712.719	28920
713.063	28858.76
713.407	28844.07
713.75	28690.63
714.094	28671.65
714.438	28508.04
714.782	28610.18
715.125	28467.13
715.469	28473.23
715.812	28341.94
716.156	28154.6
716.499	28221.94
716.843	28288.83
717.186	28066.69
717.53	28125.45
717.873	28089.52
718.216	28069.63
718.559	27983.08
718.902	27753.71
719.246	27886.58
719.589	27853.59
719.932	27661.5
720.275	27625.8
720.617	27663.54
720.96	27651.56
721.303	27519.81
721.646	27527.72
721.989	27390.55
722.331	27517.78
722.674	27404.11
723.016	27384.45
723.359	27326.37
723.701	27341.74
724.044	27257
724.386	27011.35
724.729	27226.49
725.071	27125.25
725.413	27051.35
725.755	27118.92
726.097	26840.73
726.439	26803.67
726.782	26819.94
727.124	26986.04
727.465	26728.2
727.807	26766.16
728.149	26782.21
728.491	26632.83
728.833	26696.78
729.175	26601.42
729.516	26493.85
729.858	26489.33
730.199	26446.85
730.541	26450.01
730.882	26327.53
731.224	26405.49
731.565	26360.3
731.906	26226.51
732.248	26328.21
732.589	26142.67
732.93	26082.56
733.271	26058.38
733.612	26225.38
733.953	26136.57
734.294	25956.92
734.635	25868.33
734.976	25904.71
735.317	25877.6
735.658	25778.16
735.999	25929.57
736.339	25735.45
736.68	25754.66
737.021	25835.34
737.361	25658.85
737.702	25774.1
738.042	25641.22
738.383	25605.51
738.723	25592.63
739.063	25462.47
739.404	25501.79
739.744	25431.51
740.084	25341.34
740.424	25285.75
740.764	25295.46
741.104	25381.79
741.444	25067.9
741.784	25130.72
742.124	25199.2
742.464	25108.8
742.804	25127.56
743.143	24982.93
743.483	25082.59
743.823	24933.21
744.162	24926.66
744.502	24949.03
744.841	24800.79
745.181	24919.43
745.52	24734.35
745.86	24744.52
746.199	24841.47
746.538	24762.82
746.877	24775.48
747.216	24658.42
747.556	24594.01
747.895	24645.09
748.234	24555.15
748.573	24476.73
748.911	24451.65
749.25	24515.6
749.589	24349.05
749.928	24356.05
750.267	24296.17
750.605	24297.75
750.944	24164.65
751.283	24083.29
751.621	24173.46
751.96	24076.29
752.298	23959.91
752.636	24035.84
752.975	23823.41
753.313	23793.36
753.651	23929.4
753.989	23882.17
754.327	23772.12
754.666	23582.06
755.004	23651.44
755.342	23687.6
755.679	23630.2
756.017	23656.41
756.355	23555.85
756.693	23523.53
757.031	23480.15
757.368	23298
757.706	23203.54
758.044	23262.75
758.381	23286.7
758.719	23068.63
759.056	23157.67
759.394	23038.12
759.731	22904.57
760.068	22871.35
760.405	22761.07
760.743	22626.38
761.08	22743.44
761.417	22523.11
761.754	22586.84
762.091	22585.25
762.428	22433.39
762.765	22245.6
763.102	22355.66
763.438	22218.48
763.775	22212.83
764.112	22073.4
764.449	22081.99
764.785	22005.38
765.122	21846.52
765.458	21752.96
765.795	21762.9
766.131	21803.81
766.467	21691.27
766.804	21563.59
767.14	21558.61
767.476	21442.68
767.812	21239.07
768.148	21447.2
768.485	21257.15
768.821	21093.32
769.157	21171.96
769.492	21090.38
769.828	21110.49
770.164	20784.85
770.5	20792.98
770.836	20874.11
771.171	20636.83
771.507	20597.96
771.842	20479.77
772.178	20579.2
772.513	20417.85
772.849	20407.46
773.184	20363.39
773.519	20273
773.855	20116.17
774.19	20069.84
774.525	20012.21
774.86	19986.23
775.195	19916.62
775.53	19844.08
775.865	19714.82
776.2	19569.74
776.535	19468.27
776.87	19514.83
777.205	19415.85
777.539	19332.91
777.874	19331.33
778.209	19179.47
778.543	19200.03
778.878	19026.48
779.212	19002.07
779.547	18901.73
779.881	19039.58
780.215	18820.15
780.55	18918.46
780.884	18703.77
781.218	18710.55
781.552	18715.98
781.886	18562.08
782.22	18467.85
782.554	18437.79
782.888	18190.11
783.222	18132.49
783.556	18065.6
783.889	18052.49
784.223	17984.24
784.557	17874.87
784.89	17976.11
785.224	17830.35
785.557	17729.56
785.891	17661.77
786.224	17587.87
786.558	17677.81
786.891	17412.28
787.224	17344.94
787.557	17364.15
787.891	17357.59
788.224	17302.91
788.557	17284.15
788.89	17192.63
789.223	17127.32
789.556	17107.21
789.888	16965.51
790.221	16871.28
790.554	16796.25
790.887	16766.2
791.219	16657.27
791.552	16717.16
791.884	16539.99
792.217	16557.62
792.549	16507.67
792.882	16351.29
793.214	16301.58
793.546	16291.63
793.879	16160.11
794.211	16141.81
794.543	16266.78
794.875	16116.05
795.207	16108.81
795.539	15993.11
795.871	15929.84
796.203	15923.06
796.535	15790.86
796.867	15789.5
797.198	15665.66
797.53	15743.4
797.862	15611.65
798.193	15646
798.525	15503.41
798.856	15529.39
799.188	15342.51
799.519	15315.39
799.85	15198.78
800.182	15331.21
800.513	15289.17
800.844	15028.16
801.175	15163.3
801.506	15045.56
801.837	15015.96
802.168	15018.45
802.499	14969.41
802.83	14863.42
803.161	14814.38
803.491	14852.8
803.822	14860.71
804.153	14801.5
804.483	14619.36
804.814	14555.41
805.145	14563.77
805.475	14629.3
805.805	14532.81
806.136	14534.17
806.466	14470.66
806.796	14371.91
807.126	14343.21
807.457	14273.83
807.787	14318.13
808.117	14258.24
808.447	14178.69
808.777	14160.84
809.107	14149.54
809.436	14013.28
809.766	14034.97
810.096	14058.92
810.426	13850.12
810.755	13898.25
811.085	13949.32
811.414	13907.06
811.744	13759.72
812.073	13754.75
812.403	13769.89
812.732	13678.6
813.061	13702.55
813.39	13568.54
813.719	13580.52
814.049	13580.52
814.378	13432.95
814.707	13474.53
815.036	13448.09
815.365	13366.74
815.693	13319.06
816.022	13337.36
816.351	13296.91
816.68	13164.26
817.008	13307.76
817.337	13095.33
817.665	13069.8
817.994	13171.72
818.322	13077.71
818.651	13079.29
818.979	12980.53
819.307	13070.02
819.636	12955.68
819.964	12891.5
820.292	12967.88
820.62	12929.91
820.948	12897.6
821.276	12899.86
821.604	12953.19
821.932	12861.67
822.259	12889.92
822.587	12845.4
822.915	12803.14
823.243	12892.63
823.57	12743.7
823.898	12829.58
824.225	12784.38
824.553	12776.92
824.88	12786.42
825.207	12882.68
825.535	12775.12
825.862	12848.79
826.189	12691.95
826.516	12781.9
826.843	12771.27
827.17	12832.06
827.497	12872.29
827.824	12788.22
828.151	12851.72
828.478	12811.05
828.805	12850.82
829.131	12820.99
829.458	12781.9
829.785	12709.81
830.111	12803.36
830.438	12773.31
830.764	12785.06
831.09	12814.66
831.417	12778.51
831.743	12848.11
832.069	12697.6
832.395	12618.96
832.722	12743.03
833.048	12663.48
833.374	12688.79
833.7	12518.4
834.026	12577.83
834.351	12626.42
834.677	12660.32
835.003	12649.24
835.329	12598.62
835.654	12590.49
835.98	12566.08
836.306	12630.94
836.631	12545.74
836.956	12520.66
837.282	12491.28
837.607	12446.54
837.932	12438.18
838.258	12490.38
838.583	12443.15
838.908	12334.22
839.233	12399.53
839.558	12343.04
839.883	12280.44
840.208	12283.6
840.533	12283.6
840.858	12211.97
841.182	12240.21
841.507	12212.87
841.832	12118.86
842.156	12094.46
842.481	12123.61
842.805	12116.38
843.13	12059.65
843.454	12038.19
843.778	11910.51
844.103	11929.26
844.427	11881.58
844.751	11950.05
845.075	11928.81
845.399	11861.69
845.723	11799.55
846.047	11814.69
846.371	11727.46
846.695	11682.94
847.019	11638.42
847.343	11570.85
847.666	11606.11
847.99	11458.31
848.313	11488.82
848.637	11413.57
848.96	11339.22
849.284	11381.93
849.607	11276.62
849.931	11201.6
850.254	11119.57
850.577	11073.92
850.9	11016.74
851.223	10997.31
851.546	10965.67
851.869	10875.73
852.192	10919.35
852.515	10880.48
852.838	10821.27
853.161	10779.46
853.483	10874.6
853.806	10720.48
854.129	10692.91
854.451	10675.51
854.774	10605.68
855.096	10574.27
855.419	10517.32
855.741	10527.49
856.063	10398.46
856.385	10385.8
856.708	10311
857.03	10428.29
857.352	10360.94
857.674	10320.27
857.996	10301.06
858.318	10241.62
858.64	10198.69
858.961	10126.6
859.283	10101.51
859.605	10105.58
859.926	10176.99
860.248	10062.19
860.57	10044.34
860.891	10082.76
861.212	9993.95
861.534	10005.7
861.855	9930.45
862.176	9946.94
862.498	9933.61
862.819	9960.73
863.14	9882.08
863.461	9837.79
863.782	9839.15
864.103	9818.81
864.424	9771.35
864.745	9859.26
865.065	9752.6
865.386	9769.55
865.707	9742.43
866.027	9730.68
866.348	9670.11
866.668	9690.9
866.989	9635.09
867.309	9560.74
867.63	9625.59
867.95	9645.48
868.27	9611.36
868.59	9659.49
868.91	9594.18
869.23	9516.44
869.55	9512.15
869.87	9569.78
870.19	9540.17
870.51	9490.68
870.83	9534.98
871.15	9383.11
871.469	9412.04
871.789	9456.11
872.109	9370.23
872.428	9359.16
872.748	9420.85
873.067	9416.33
873.386	9384.02
873.706	9338.82
874.025	9330.46
874.344	9224.47
874.663	9358.03
874.982	9345.6
875.301	9214.08
875.62	9248.43
875.939	9139.28
876.258	9195.55
876.577	9139.05
876.896	9149.45
877.214	9147.41
877.533	9153.74
877.852	9118.26
878.17	9120.75
878.489	9053.63
878.807	9118.94
879.125	9033.97
879.444	9092.05
879.762	9050.02
880.08	9011.6
880.398	8917.14
880.716	9027.19
881.034	8951.94
881.352	8903.58
881.67	8907.42
881.988	8965.27
882.306	8876.91
882.624	8914.2
882.941	8799.4
883.259	8790.59
883.577	8819.06
883.894	8770.02
884.212	8770.48
884.529	8725.73
884.846	8730.02
885.164	8702.45
885.481	8661.1
885.798	8691.83
886.115	8675.34
886.432	8636.47
886.75	8581.1
887.067	8597.37
887.383	8529.8
887.7	8564.83
888.017	8508.11
888.334	8499.52
888.651	8528.45
888.967	8457.26
889.284	8428.56
889.6	8389.24
889.917	8376.59
890.233	8391.95
890.55	8351.5
890.866	8447.55
891.182	8276.03
891.498	8335.68
891.815	8254.78
892.131	8154.9
892.447	8214.33
892.763	8171.17
893.079	8162.81
893.395	8060.89
893.71	8092.75
894.026	8116.03
894.342	8063.83
894.657	7997.84
894.973	7989.93
895.289	7996.03
895.604	8008.46
895.92	7898.18
896.235	7915.58
896.55	7919.65
896.865	7882.36
897.181	7900.67
897.496	7853.89
897.811	7742.93
898.126	7757.62
898.441	7737.06
898.756	7706.1
899.071	7662.03
899.386	7659.54
899.7	7596.95
900.015	7555.14
900.33	7459.32
900.644	7506.33
900.959	7528.47
901.273	7503.16
901.588	7492.54
901.902	7359.67
902.216	7394.47
902.531	7381.59
902.845	7346.11
903.159	7300.91
903.473	7241.48
903.787	7238.54
904.101	7163.96
904.415	7206.67
904.729	7186.79
905.042	7132.1
905.356	7120.35
905.67	7124.42
905.984	7085.55
906.297	7096.4
906.611	6991.09
906.924	6966.23
907.237	6936.63
907.551	6931.43
907.864	6891.88
908.177	6892.33
908.491	6883.07
908.804	6833.35
909.117	6816.63
909.43	6790.87
909.743	6726.91
910.056	6732.34
910.368	6702.96
910.681	6606.69
910.994	6626.58
911.307	6601.72
911.619	6511.55
911.932	6573.92
912.244	6525.79
912.557	6518.56
912.869	6457.99
913.181	6469.29
913.494	6383.42
913.806	6405.11
914.118	6379.13
914.43	6380.71
914.742	6327.6
915.054	6276.3
915.366	6260.49
915.678	6229.07
915.99	6186.14
916.302	6189.98
916.613	6162.63
916.925	6147.27
917.236	6154.95
917.548	6119.92
917.859	6070.21
918.171	6024.56
918.482	6003.09
918.794	5980.04
919.105	5955.86
919.416	5948.85
919.727	5909.99
920.038	5919.25
920.349	5854.62
920.66	5882.64
920.971	5803.32
921.282	5818.91
921.593	5774.85
921.903	5726.49
922.214	5691.91
922.525	5673.38
922.835	5676.32
923.146	5645.81
923.456	5652.59
923.767	5602.42
924.077	5561.07
924.387	5554.74
924.697	5560.16
925.008	5578.7
925.318	5504.12
925.628	5515.42
925.938	5490.34
926.248	5412.15
926.558	5408.98
926.867	5319.04
927.177	5341.41
927.487	5370.34
927.796	5283.11
928.106	5292.83
928.416	5250.57
928.725	5266.16
929.034	5232.26
929.344	5264.58
929.653	5199.27
929.962	5175.77
930.271	5125.15
930.581	5155.2
930.89	5071.14
931.199	5066.62
931.508	5066.17
931.817	5028.88
932.125	4973.74
932.434	4981.42
932.743	4986.62
933.051	4937.36
933.36	4965.83
933.669	4859.39
933.977	4889.45
934.286	4862.33
934.594	4861.88
934.902	4829.34
935.21	4805.16
935.519	4805.38
935.827	4827.3
936.135	4777.59
936.443	4699.85
936.751	4685.39
937.059	4656.69
937.367	4645.84
937.674	4661.21
937.982	4634.09
938.29	4588.66
938.597	4630.47
938.905	4568.55
939.213	4525.62
939.52	4519.74
939.827	4522.9
940.135	4478.61
940.442	4454.66
940.749	4514.99
941.056	4433.64
941.363	4377.82
941.67	4394.32
941.977	4395.45
942.284	4377.14
942.591	4361.1
942.898	4342.34
943.205	4285.17
943.511	4283.14
943.818	4279.75
944.125	4268.9
944.431	4216.02
944.738	4216.25
945.044	4203.36
945.35	4183.7
945.657	4169.24
945.963	4113.87
946.269	4102.35
946.575	4132.18
946.881	4090.6
947.187	4042.69
947.493	4036.59
947.799	4041.56
948.105	4001.11
948.41	3982.13
948.716	3985.97
949.022	3943.94
949.327	3936.25
949.633	3903.26
949.938	3919.08
950.244	3908.68
950.549	3882.47
950.854	3874.56
951.16	3862.58
951.465	3839.98
951.77	3805.86
952.075	3755.47
952.38	3784.17
952.685	3754.79
952.99	3773.77
953.294	3744.85
953.599	3710.72
953.904	3691.97
954.209	3678.63
954.513	3703.94
954.818	3640.89
955.122	3622.59
955.426	3597.5
955.731	3567.9
956.035	3606.77
956.339	3577.62
956.643	3581.23
956.948	3535.59
957.252	3547.34
957.556	3532.65
957.86	3486.77
958.163	3493.55
958.467	3456.49
958.771	3462.82
959.075	3470.28
959.378	3433.89
959.682	3451.29
959.985	3432.54
960.289	3383.05
960.592	3365.65
960.896	3378.53
961.199	3356.61
961.502	3358.41
961.805	3344.4
962.108	3275.93
962.411	3293.56
962.714	3298.3
963.017	3268.47
963.32	3248.36
963.623	3265.08
963.926	3222.37
964.228	3170.17
964.531	3205.2
964.833	3202.03
965.136	3157.06
965.438	3145.54
965.741	3084.3
966.043	3100.34
966.345	3127.23
966.648	3101.02
966.95	3105.09
967.252	3079.33
967.554	3043.17
967.856	3019.21
968.158	3033
968.46	3002.49
968.761	2976.73
969.063	2974.92
969.365	2966.11
969.666	2984.87
969.968	2914.13
970.269	2881.36
970.571	2925.88
970.872	2912.32
971.174	2887.69
971.475	2847.69
971.776	2882.49
972.077	2847.24
972.378	2861.03
972.679	2820.35
972.98	2830.29
973.281	2804.3
973.582	2800.01
973.883	2802.5
974.183	2773.57
974.484	2790.75
974.785	2730.41
975.085	2753.23
975.386	2757.75
975.686	2707.36
975.986	2713.23
976.287	2725.21
976.587	2655.38
976.887	2696.96
977.187	2673.46
977.487	2609.51
977.787	2623.97
978.087	2618.1
978.387	2594.14
978.687	2581.71
978.987	2590.3
979.286	2576.74
979.586	2592.56
979.885	2512.56
980.185	2523.18
980.484	2526.12
980.784	2528.61
981.083	2521.6
981.382	2514.82
981.682	2455.84
981.981	2510.98
982.28	2470.3
982.579	2451.55
982.878	2431.43
983.177	2441.83
983.475	2409.74
983.774	2365.67
984.073	2396.86
984.372	2378.78
984.67	2350.76
984.969	2410.64
985.267	2354.37
985.566	2364.77
985.864	2367.03
986.162	2328.39
986.461	2344.66
986.759	2317.76
987.057	2302.62
987.355	2303.3
987.653	2307.37
987.951	2281.38
988.249	2284.54
988.547	2271.21
988.844	2238.67
989.142	2216.98
989.44	2196.41
989.737	2192.8
990.035	2197.99
990.332	2198.45
990.63	2184.43
990.927	2160.93
991.224	2167.94
991.521	2164.1
991.819	2136.3
992.116	2135.4
992.413	2111.22
992.71	2114.83
993.006	2091.78
993.303	2084.78
993.6	2080.71
993.897	2062.86
994.193	2068.05
994.49	2071.67
994.787	2028.05
995.083	2014.72
995.379	2030.31
995.676	2008.17
995.972	2033.03
996.268	2019.47
996.565	1978.11
996.861	1978.79
997.157	1983.31
997.453	1952.35
997.749	1959.81
998.044	1951.9
998.34	1939.02
998.636	1944.67
998.932	1939.69
999.227	1892.46
999.523	1905.57
999.818	1863.54
1000.114	1898.34
1000.409	1856.99
1000.704	1863.31
1001	1819.92
1001.295	1838.45
1001.59	1842.97
1001.885	1829.19
1002.18	1813.14
1002.475	1820.15
1002.77	1800.04
1003.065	1753.71
1003.359	1759.81
1003.654	1771.56
1003.949	1730.43
1004.243	1745.8
1004.538	1725.69
1004.832	1702.64
1005.127	1703.54
1005.421	1713.71
1005.715	1711.9
1006.009	1678.23
1006.304	1684.11
1006.598	1644.11
1006.892	1632.58
1007.186	1647.5
1007.48	1652.02
1007.773	1632.81
1008.067	1645.92
1008.361	1639.82
1008.655	1584.9
1008.948	1594.62
1009.242	1604.11
1009.535	1586.94
1009.829	1567.95
1010.122	1574.05
1010.415	1560.72
1010.708	1552.81
1011.001	1538.58
1011.295	1541.29
1011.588	1519.59
1011.881	1521.85
1012.173	1489.76
1012.466	1481.4
1012.759	1480.27
1013.052	1479.14
1013.344	1480.05
1013.637	1470.1
1013.93	1456.32
1014.222	1460.39
1014.514	1431.46
1014.807	1429.43
1015.099	1404.57
1015.391	1421.97
1015.683	1411.35
1015.976	1389.88
1016.268	1434.85
1016.56	1380.84
1016.851	1368.41
1017.143	1360.5
1017.435	1363.21
1017.727	1368.41
1018.018	1350.11
1018.31	1322.76
1018.602	1330.9
1018.893	1333.38
1019.185	1317.34
1019.476	1290.9
1019.767	1295.19
1020.058	1273.27
1020.35	1274.63
1020.641	1289.54
1020.932	1277.34
1021.223	1234.4
1021.514	1251.58
1021.804	1250
1022.095	1233.27
1022.386	1204.57
1022.677	1226.72
1022.967	1213.16
1023.258	1210.9
1023.548	1206.83
1023.839	1183.1
1024.129	1181.3
1024.419	1172.71
1024.709	1169.77
1025	1157.34
1025.29	1145.14
1025.58	1170.9
1025.87	1097.91
1026.16	1126.83
1026.449	1124.57
1026.739	1082.32
1027.029	1101.98
1027.319	1104.91
1027.608	1106.72
1027.898	1096.78
1028.187	1090.68
1028.477	1076.21
1028.766	1058.81
1029.055	1064.01
1029.344	1072.6
1029.634	1052.49
1029.923	1039.83
1030.212	1050
1030.501	1007.97
1030.79	1034.18
1031.078	991.25
1031.367	1010.45
1031.656	996.44
1031.945	1003.45
1032.233	988.08
1032.522	985.37
1032.81	974.52
1033.099	971.81
1033.387	974.3
1033.675	945.14
1033.963	938.14
1034.251	956.9
1034.54	934.3
1034.828	957.35
1035.116	922.77
1035.403	914.19
1035.691	921.87
1035.979	931.81
1036.267	921.19
1036.554	906.95
1036.842	885.03
1037.129	895.43
1037.417	905.6
1037.704	887.29
1037.992	871.02
1038.279	879.84
1038.566	885.49
1038.853	885.49
1039.14	885.49
