Data from hue_330_FLMS001491_22.txt Node
Date: Mon Feb 06 15:45:09 GMT 2017
User: dcchb
Spectrometer: FLMS00149
Trigger mode: 0
Integration Time (sec): 2.000000E-2
Scans to average: 10
Electric dark correction enabled: true
Nonlinearity correction enabled: false
Boxcar width: 0
XAxis mode: Wavelengths
Number of Pixels in Spectrum: 2048
>>>>>Begin Spectral Data<<<<<
341.393	-14.34
341.776	-14.34
342.16	-14.34
342.543	-41
342.927	-63.83
343.31	-59.31
343.693	-66.31
344.077	-69.7
344.46	-42.58
344.843	-59.08
345.226	-48.91
345.61	-29.48
345.993	-37.39
346.376	1.71
346.759	10.07
347.142	17.75
347.525	30.63
347.908	60.01
348.291	74.02
348.674	106.79
349.057	111.76
349.44	144.08
349.823	151.99
350.206	166.9
350.588	193.57
350.971	206.68
351.354	219.78
351.737	246.67
352.119	266.33
352.502	251.42
352.884	279.44
353.267	274.47
353.65	292.55
354.032	299.33
354.414	308.82
354.797	293.9
355.179	288.71
355.562	334.58
355.944	329.16
356.326	350.17
356.709	318.54
357.091	351.98
357.473	331.64
357.855	344.98
358.238	346.33
358.62	355.82
359.002	331.64
359.384	337.75
359.766	345.88
360.148	345.2
360.53	333.23
360.912	336.39
361.294	352.89
361.676	329.61
362.057	334.13
362.439	341.81
362.821	322.83
363.203	325.09
363.584	316.28
363.966	344.98
364.348	324.64
364.729	313.79
365.111	310.85
365.493	328.48
365.874	316.05
366.256	330.29
366.637	310.85
367.019	311.31
367.4	302.72
367.781	305.66
368.163	310.18
368.544	288.93
368.925	310.63
369.306	322.38
369.688	295.26
370.069	291.64
370.45	299.33
370.831	311.31
371.212	306.11
371.593	308.82
371.974	331.64
372.355	314.7
372.736	304.3
373.117	321.7
373.498	312.21
373.879	326.22
374.26	333.68
374.641	307.92
375.021	312.44
375.402	339.78
375.783	332.32
376.163	315.83
376.544	331.64
376.925	325.32
377.305	309.72
377.686	329.61
378.066	324.64
378.447	314.7
378.827	332.32
379.208	326.22
379.588	340.91
379.968	316.5
380.349	324.19
380.729	326.45
381.109	337.29
381.489	322.83
381.87	336.16
382.25	318.54
382.63	337.07
383.01	335.71
383.39	340.23
383.77	343.85
384.15	327.35
384.53	327.12
384.91	340.46
385.29	339.78
385.67	331.64
386.049	361.93
386.429	342.49
386.809	322.83
387.189	352.66
387.568	344.75
387.948	325.09
388.328	326.45
388.707	347.46
389.087	353.11
389.466	356.73
389.846	370.74
390.225	349.72
390.605	353.34
390.984	343.39
391.363	373.9
391.743	378.42
392.122	354.02
392.501	370.06
392.881	358.54
393.26	361.93
393.639	338.42
394.018	363.06
394.397	377.74
394.776	380.68
395.155	380
395.534	369.16
395.913	367.12
396.292	383.39
396.671	375.26
397.05	366.22
397.429	381.59
397.808	373.9
398.186	384.07
398.565	400.34
398.944	379.1
399.323	394.47
399.701	383.62
400.08	387.24
400.458	385.88
400.837	373.22
401.215	393.79
401.594	403.05
401.972	405.54
402.351	398.31
402.729	394.24
403.107	398.99
403.486	418.87
403.864	422.26
404.242	417.74
404.62	425.2
404.999	406.67
405.377	406.44
405.755	424.07
406.133	416.39
406.511	436.95
406.889	437.4
407.267	432.43
407.645	440.79
408.023	451.19
408.401	467.01
408.779	462.04
409.156	460.23
409.534	450.06
409.912	465.65
410.29	470.4
410.667	507.23
411.045	455.48
411.422	488.48
411.8	476.27
412.178	500.45
412.555	508.36
412.933	500
413.31	477.18
413.687	495.03
414.065	495.71
414.442	514.24
414.819	527.8
415.197	554.91
415.574	550.4
415.951	522.83
416.328	548.14
416.705	537.74
417.082	552.88
417.46	566.89
417.837	583.39
418.214	582.71
418.591	564.41
418.967	576.16
419.344	568.02
419.721	589.49
420.098	601.02
420.475	618.64
420.852	624.29
421.228	608.7
421.605	645.31
421.982	640.79
422.358	650.73
422.735	627
423.111	660.67
423.488	664.52
423.864	648.7
424.241	658.19
424.617	678.98
424.994	674.91
425.37	696.38
425.746	662.48
426.123	710.16
426.499	683.95
426.875	705.87
427.251	709.26
427.627	739.77
428.003	722.59
428.379	733.22
428.756	711.52
429.132	764.4
429.507	738.19
429.883	777.06
430.259	784.51
430.635	777.51
431.011	772.31
431.387	785.19
431.763	816.15
432.138	799.65
432.514	825.19
432.89	815.02
433.265	859.31
433.641	840.11
434.016	864.51
434.392	864.74
434.767	881.69
435.143	866.55
435.518	912.19
435.894	892.98
436.269	895.02
436.644	914.45
437.02	898.86
437.395	907.9
437.77	917.17
438.145	927.56
438.52	908.35
438.895	970.95
439.271	964.85
439.646	990.16
440.021	1005.52
440.395	973.43
440.77	974.34
441.145	993.32
441.52	1018.86
441.895	1008.46
442.27	999.65
442.645	1035.13
443.019	1010.72
443.394	1038.07
443.769	1039.65
444.143	1035.13
444.518	1035.58
444.892	1035.13
445.267	1055.47
445.641	1056.14
446.016	1083.49
446.39	1084.62
446.764	1084.84
447.139	1085.3
447.513	1077.84
447.887	1049.59
448.262	1066.09
448.636	1086.65
449.01	1074.9
449.384	1092.53
449.758	1110.83
450.132	1104.05
450.506	1101.57
450.88	1116.93
451.254	1116.48
451.628	1140.89
452.002	1130.49
452.376	1140.89
452.75	1126.65
453.123	1155.35
453.497	1200.1
453.871	1185.41
454.244	1187.44
454.618	1182.24
454.992	1201.68
455.365	1191.06
455.739	1255.69
456.112	1237.61
456.486	1244.61
456.859	1235.57
457.232	1260.66
457.606	1253.65
457.979	1283.48
458.352	1290.71
458.725	1296.36
459.099	1323.26
459.472	1308.34
459.845	1318.06
460.218	1307.21
460.591	1342.46
460.964	1361.22
461.337	1379.53
461.71	1414.33
462.083	1393.54
462.456	1393.08
462.829	1448.45
463.201	1430.6
463.574	1413.42
463.947	1428.56
464.32	1463.82
464.692	1469.24
465.065	1467.43
465.438	1492.97
465.81	1501.1
466.183	1534.55
466.555	1563.25
466.928	1581.33
467.3	1544.95
467.672	1568
468.045	1596.47
468.417	1607.99
468.789	1607.09
469.161	1656.35
469.534	1641.67
469.906	1672.4
470.278	1705.17
470.65	1706.75
471.022	1720.99
471.394	1750.59
471.766	1774.09
472.138	1776.35
472.51	1807.76
472.882	1825.39
473.253	1850.47
473.625	1880.98
473.997	1873.3
474.369	1866.07
474.74	1870.13
475.112	1930.7
475.484	1941.32
475.855	1988.1
476.227	1976.8
476.598	2027.87
476.97	2060.41
477.341	2077.59
477.713	2130.01
478.084	2122.78
478.455	2168.21
478.827	2186.74
479.198	2262.89
479.569	2235.77
479.94	2330.91
480.311	2318.94
480.682	2353.29
481.053	2340.18
481.424	2431.25
481.795	2441.19
482.166	2453.4
482.537	2508.31
482.908	2524.81
483.279	2591.25
483.65	2595.54
484.021	2621.98
484.391	2667.18
484.762	2669.66
485.133	2708.3
485.503	2730
485.874	2791.92
486.244	2802.77
486.615	2829.66
486.985	2823.33
487.356	2906.27
487.726	2905.14
488.097	2964.57
488.467	2974.96
488.837	3015.19
489.207	3063.32
489.578	3121.63
489.948	3092.25
490.318	3156.43
490.688	3110.33
491.058	3187.84
491.428	3223.55
491.798	3297.22
492.168	3339.25
492.538	3353.71
492.908	3356.42
493.278	3374.05
493.648	3396.65
494.017	3426.25
494.387	3454.05
494.757	3495.85
495.126	3492.24
495.496	3529.07
495.866	3590.99
496.235	3564.55
496.605	3553.48
496.974	3598.45
497.344	3618.79
497.713	3644.55
498.082	3684.32
498.452	3722.97
498.821	3717.09
499.19	3690.65
499.559	3761.16
499.928	3816.3
500.298	3779.46
500.667	3801.61
501.036	3865.79
501.405	3814.26
501.774	3868.95
502.143	3880.93
502.512	3888.84
502.88	3923.87
503.249	3943.07
503.618	3929.06
503.987	3930.19
504.356	3980.59
504.724	3971.1
505.093	4016.52
505.462	4049.29
505.83	4020.59
506.199	4077.76
506.567	4082.51
506.936	4074.82
507.304	4123.86
507.672	4095.61
508.041	4135.84
508.409	4196.4
508.777	4189.17
509.145	4231.65
509.514	4183.07
509.882	4202.05
510.25	4233.01
510.618	4281.14
510.986	4229.85
511.354	4279.11
511.722	4318.66
512.09	4362.05
512.458	4342.16
512.826	4370.18
513.193	4333.57
513.561	4362.95
513.929	4405.66
514.297	4443.63
514.664	4425.55
515.032	4442.5
515.4	4487.69
515.767	4516.17
516.135	4481.37
516.502	4471.2
516.869	4533.34
517.237	4548.26
517.604	4479.78
517.972	4571.53
518.339	4530.63
518.706	4571.76
519.073	4585.09
519.44	4594.36
519.808	4640.46
520.175	4619.44
520.542	4684.07
520.909	4695.6
521.276	4698.76
521.643	4771.53
522.009	4717.52
522.376	4764.07
522.743	4817.4
523.11	4747.8
523.477	4835.03
523.843	4829.6
524.21	4883.61
524.577	4882.48
524.943	4903.5
525.31	4960.45
525.676	4988.92
526.043	4960.22
526.409	4991.18
526.776	5028.92
527.142	5052.65
527.508	5068.47
527.874	5083.84
528.241	5148.01
528.607	5155.92
528.973	5162.03
529.339	5161.8
529.705	5190.27
530.071	5222.81
530.437	5258.97
530.803	5278.86
531.169	5305.3
531.535	5296.26
531.901	5336.48
532.267	5346.65
532.632	5418.29
532.998	5397.73
533.364	5445.86
533.73	5462.81
534.095	5525.63
534.461	5530.38
534.826	5546.87
535.192	5520.66
535.557	5552.52
535.923	5601.56
536.288	5591.84
536.653	5714.1
537.019	5616.25
537.384	5653.54
537.749	5673.2
538.114	5675.23
538.479	5678.17
538.845	5748.22
539.21	5720.43
539.575	5779.64
539.94	5766.98
540.305	5859.18
540.67	5820.54
541.034	5851.05
541.399	5861.44
541.764	5895.34
542.129	5924.04
542.494	5951.16
542.858	6003.59
543.223	5998.61
543.587	6098.5
543.952	6059.18
544.316	6056.24
544.681	6052.17
545.045	6165.16
545.41	6201.77
545.774	6157.48
546.138	6145.28
546.503	6240.64
546.867	6220.53
547.231	6283.8
547.595	6279.51
547.959	6272.28
548.324	6362.45
548.688	6321.54
549.052	6387.76
549.416	6428.43
549.779	6372.61
550.143	6386.17
550.507	6453.97
550.871	6509.11
551.235	6491.71
551.599	6570.8
551.962	6521.54
552.326	6560.63
552.689	6595.89
553.053	6589.56
553.417	6605.6
553.78	6657.13
554.143	6663
554.507	6683.79
554.87	6659.16
555.234	6759.05
555.597	6776.9
555.96	6764.47
556.323	6774.64
556.686	6804.92
557.05	6883.79
557.413	6870.91
557.776	6871.81
558.139	6901.41
558.502	6941.19
558.865	6886.27
559.228	6960.17
559.59	6966.95
559.953	6993.16
560.316	7031.58
560.679	7008.08
561.041	7079.49
561.404	7061.86
561.767	7102.09
562.129	7100.73
562.492	7223.44
562.854	7177.11
563.217	7185.25
563.579	7227.06
563.941	7239.26
564.304	7286.04
564.666	7364.45
565.028	7367.62
565.39	7332.36
565.753	7397.45
566.115	7385.7
566.477	7408.07
566.839	7420.5
567.201	7442.64
567.563	7429.08
567.925	7546.37
568.287	7541.17
568.648	7596.31
569.01	7595.41
569.372	7623.43
569.734	7670.43
570.095	7645.58
570.457	7733.94
570.819	7752.69
571.18	7766.7
571.542	7805.57
571.903	7900.26
572.265	7981.39
572.626	7951.1
572.987	7991.78
573.349	8070.65
573.71	8101.61
574.071	8134.6
574.432	8147.03
574.794	8264.77
575.155	8281.49
575.516	8288.5
575.877	8339.12
576.238	8473.12
576.599	8515.61
576.96	8566.46
577.32	8625.44
577.681	8741.59
578.042	8765.55
578.403	8889.16
578.763	8994.24
579.124	9060.68
579.485	9156.72
579.845	9246.21
580.206	9336.38
580.566	9485.98
580.927	9539.09
581.287	9781.34
581.648	9805.52
582.008	10068.56
582.368	10127.32
582.728	10298.61
583.089	10439.63
583.449	10550.81
583.809	10739.51
584.169	10892.5
584.529	11026.05
584.889	11271.24
585.249	11355.31
585.609	11524.34
585.969	11890.66
586.329	12008.62
586.688	12217.66
587.048	12373.59
587.408	12617.65
587.768	12851.09
588.127	13082.27
588.487	13263.28
588.846	13608.81
589.206	13726.55
589.565	13990.72
589.925	14263.48
590.284	14552.74
590.643	14798.38
591.003	15032.05
591.362	15406.28
591.721	15591.81
592.08	15828.41
592.44	16098.91
592.799	16395.85
593.158	16667.26
593.517	16851.89
593.876	17298.43
594.235	17507.24
594.593	17840.11
594.952	18076.26
595.311	18277.84
595.67	18634.89
596.029	18998.05
596.387	19351.71
596.746	19618.82
597.104	19862.43
597.463	20162.08
597.822	20520.04
598.18	20668.51
598.538	20828.51
598.897	21297.42
599.255	21449.28
599.613	22084.74
599.972	22103.5
600.33	22377.62
600.688	22695.58
601.046	23040.43
601.404	23351.38
601.762	23674.53
602.12	23945.49
602.478	24200.39
602.836	24447.85
603.194	24504.34
603.552	24944.78
603.91	25044.67
604.268	25406.01
604.625	25593.13
604.983	25941.37
605.341	26082.15
605.698	26332.99
606.056	26733.21
606.413	26855.24
606.771	27177.72
607.128	27381.78
607.485	27482.57
607.843	27729.34
608.2	28098.37
608.557	28568.19
608.914	28436.89
609.272	28816.32
609.629	29100.83
609.986	29260.15
610.343	29368.62
610.7	29801.38
611.057	29899.23
611.414	30028.72
611.771	30190.75
612.127	30490.17
612.484	30623.73
612.841	30945.75
613.198	30985.98
613.554	31131.06
613.911	31438.4
614.267	31618.96
614.624	31649.01
614.98	31935.56
615.337	32105.05
615.693	32217.81
616.05	32343.01
616.406	32561.98
616.762	32679.27
617.118	32814.41
617.475	33028.64
617.831	33170.55
618.187	33342.53
618.543	33313.6
618.899	33865.45
619.255	33798.33
619.611	33809.63
619.967	34089.4
620.323	34203.3
620.678	34193.8
621.034	34265.89
621.39	34272.9
621.746	34375.72
622.101	34860.91
622.457	34725.54
622.812	34888.7
623.168	35093.22
623.523	34986.1
623.879	35234.68
624.234	35144.97
624.589	35320.78
624.945	35433.32
625.3	35559.64
625.655	35537.72
626.01	35809.13
626.365	35865.17
626.72	35876.92
627.075	35862.91
627.43	35927.54
627.785	35979.97
628.14	36021.33
628.495	36137.48
628.85	36181.55
629.205	36043.47
629.559	36413.86
629.914	36219.51
630.269	36266.97
630.623	36276.69
630.978	36251.38
631.332	36417.47
631.687	36600.07
632.041	36542.22
632.396	36579.28
632.75	36462.22
633.104	36626.73
633.459	36435.33
633.813	36665.15
634.167	36555.55
634.521	36736.11
634.875	36734.53
635.229	36607.53
635.583	36549.67
635.937	36529.56
636.291	36629.9
636.645	36642.78
636.999	36546.06
637.352	36740.18
637.706	36614.76
638.06	36653.85
638.413	36697.24
638.767	36462.22
639.121	36539.28
639.474	36539.96
639.828	36562.1
640.181	36593.97
640.534	36516.68
640.888	36534.31
641.241	36419.28
641.594	36465.61
641.947	36562.56
642.301	36488.43
642.654	36566.62
643.007	36420.86
643.36	36487.08
643.713	36333.86
644.066	36653.4
644.419	36362.56
644.771	36245.28
645.124	35913.76
645.477	35857.26
645.83	35519.42
646.182	35503.83
646.535	35321.46
646.888	35392.87
647.24	35269.71
647.593	35439.65
647.945	35398.07
648.298	35291.18
648.65	35314.23
649.002	35190.39
649.355	35404.39
649.707	35287.11
650.059	35376.37
650.411	35754.89
650.763	35828.11
651.115	36377.02
651.467	36158.72
651.819	36211.38
652.171	36089.35
652.523	36038.95
652.875	36096.58
653.227	35983.81
653.578	36189.91
653.93	35967.99
654.282	35957.83
654.633	35815.68
654.985	36007.32
655.337	35998.95
655.688	35964.61
656.039	36153.07
656.391	35812.29
656.742	35782.01
657.094	35867.88
657.445	36024.04
657.796	35792.86
658.147	35824.04
658.498	35703.6
658.849	35815.23
659.2	35814.55
659.551	35796.7
659.902	35840.77
660.253	35695.91
660.604	35828.79
660.955	35724.61
661.306	35854.55
661.656	35709.24
662.007	35803.25
662.358	35685.06
662.708	35699.53
663.059	35720.77
663.409	35473.77
663.76	35835.8
664.11	35755.57
664.461	35684.61
664.811	35789.02
665.161	35650.94
665.511	35543.6
665.862	35670.15
666.212	35848.22
666.562	35814.1
666.912	35705.4
667.262	35737.94
667.612	35519.87
667.962	35534.79
668.312	35652.97
668.662	35761.9
669.011	35696.82
669.361	35607.1
669.711	35568.91
670.06	35569.81
670.41	35451.17
670.76	35478.29
671.109	35649.13
671.459	35612.98
671.808	35562.13
672.157	35583.15
672.507	35311.97
672.856	35216.6
673.205	35418.4
673.554	35499.76
673.904	35460.66
674.253	35513.09
674.602	35410.72
674.951	34994.01
675.3	34845.31
675.649	35380.21
675.998	35248.92
676.346	35368.91
676.695	35407.33
677.044	35222.48
677.393	35274.68
677.741	35297.28
678.09	35104.29
678.438	35171.86
678.787	35221.57
679.135	35172.08
679.484	34985.65
679.832	35235.81
680.181	34898.64
680.529	34965.76
680.877	34979.77
681.225	34950.85
681.573	35144.97
681.922	34764.18
682.27	34710.17
682.618	34693.68
682.966	34699.55
683.314	34750.63
683.661	34553.34
684.009	34429.73
684.357	34430.41
684.705	34295.04
685.053	34347.92
685.4	34389.96
685.748	34187.48
686.095	34211.43
686.443	34127.82
686.79	34011.89
687.138	34169.17
687.485	34045.56
687.832	33935.51
688.18	33951.32
688.527	33709.75
688.874	33800.14
689.221	33763.99
689.568	33560.83
689.915	33467.04
690.262	33576.42
690.609	33425.24
690.956	33332.81
691.303	33292.59
691.65	33249.87
691.997	33231.12
692.344	32975.31
692.69	33027.96
693.037	33106.83
693.383	32721.07
693.73	32870.68
694.077	32667.29
694.423	32653.51
694.769	32557.69
695.116	32584.58
695.462	32412.38
695.808	32344.59
696.155	32436.79
696.501	32239.05
696.847	32148.66
697.193	31937.14
697.539	32083.8
697.885	31906.18
698.231	31680.65
698.577	31885.84
698.923	31705.51
699.269	31621.89
699.614	31406.76
699.96	31487.66
700.306	31487.21
700.651	31234.56
700.997	31091.51
701.342	31056.03
701.688	30992.08
702.033	31068.46
702.379	30987.11
702.724	30847.23
703.069	30810.39
703.415	30545.99
703.76	30706.21
704.105	30630.51
704.45	30538.31
704.795	30313.68
705.14	30252.66
705.485	30189.84
705.83	30256.28
706.175	30202.72
706.52	30063.97
706.865	29933.35
707.209	29809.51
707.554	29839.34
707.899	29809.51
708.243	29754.37
708.588	29583.3
708.932	29485
709.277	29473.02
709.621	29550.08
709.966	29326.14
710.31	29393.48
710.654	29077.33
710.998	29192.13
711.342	29187.16
711.687	29079.59
712.031	28938.12
712.375	28829.88
712.719	28942.64
713.063	28854.96
713.407	28957.11
713.75	28805.47
714.094	28660.39
714.438	28645.48
714.782	28632.14
715.125	28403.9
715.469	28545.82
715.812	28276.45
716.156	28174.53
716.499	28338.37
716.843	28345.37
717.186	28083.68
717.53	28260.4
717.873	28243.9
718.216	28142.66
718.559	28057.47
718.902	27901.09
719.246	27833.97
719.589	27777.93
719.932	27722.11
720.275	27661.77
720.617	27680.76
720.96	27708.55
721.303	27619.51
721.646	27614.99
721.989	27478.5
722.331	27505.17
722.674	27498.84
723.016	27471.27
723.359	27468.33
723.701	27535.45
724.044	27299.75
724.386	27119.64
724.729	27227.89
725.071	27252.97
725.413	27159.86
725.755	27156.25
726.097	26970.72
726.439	26943.83
726.782	26866.77
727.124	26944.28
727.465	26851.85
727.807	26869.48
728.149	26794
728.491	26753.77
728.833	26829.48
729.175	26652.31
729.516	26634
729.858	26563.95
730.199	26495.7
730.541	26502.48
730.882	26420.9
731.224	26408.47
731.565	26347.68
731.906	26336.38
732.248	26328.25
732.589	26210.74
732.93	26149.04
733.271	26145.65
733.612	26044.87
733.953	26118.31
734.294	25927.35
734.635	26038.99
734.976	26048.03
735.317	25845.78
735.658	25978.43
735.999	25943.4
736.339	25657.98
736.68	25821.6
737.021	25804.19
737.361	25663.86
737.702	25838.32
738.042	25713.8
738.383	25607.82
738.723	25735.5
739.063	25507.48
739.404	25580.47
739.744	25592
740.084	25437.2
740.424	25473.13
740.764	25449.85
741.104	25493.24
741.444	25211.22
741.784	25279.91
742.124	25250.08
742.464	25254.38
742.804	25102.97
743.143	25090.99
743.483	25246.24
743.823	25098
744.162	25010.09
744.502	25090.99
744.841	24817.55
745.181	24870.43
745.52	24947.72
745.86	24865.46
746.199	24883.77
746.538	24728.74
746.877	24763.09
747.216	24819.59
747.556	24710.21
747.895	24702.08
748.234	24536.21
748.573	24446.49
748.911	24465.7
749.25	24491.23
749.589	24398.13
749.928	24388.41
750.267	24423.21
750.605	24294.18
750.944	24380.05
751.283	24218.7
751.621	24254.86
751.96	24142.54
752.298	24039.5
752.636	24159.49
752.975	23913.17
753.313	23860.74
753.651	23898.48
753.989	23824.36
754.327	23849.67
754.666	23753.17
755.004	23746.4
755.342	23657.36
755.679	23661.43
756.017	23587.98
756.355	23599.96
756.693	23496.23
757.031	23497.81
757.368	23255.56
757.706	23332.17
758.044	23286.75
758.381	23259.4
758.719	23118.39
759.056	23174.21
759.394	23116.13
759.731	22868.9
760.068	22895.8
760.405	22815.57
760.743	22722.47
761.08	22809.24
761.417	22765.4
761.754	22560.66
762.091	22545.3
762.428	22456.71
762.765	22330.16
763.102	22452.87
763.438	22305.3
763.775	22258.98
764.112	22131.3
764.449	22166.55
764.785	22102.14
765.122	21975.59
765.458	21912.32
765.795	21797.75
766.131	21689.05
766.467	21619.9
766.804	21578.32
767.14	21518.21
767.476	21533.12
767.812	21371.32
768.148	21320.7
768.485	21187.14
768.821	21103.3
769.157	21125.45
769.492	21099.23
769.828	21120.02
770.164	20801.84
770.5	20756.42
770.836	20866.02
771.171	20666.93
771.507	20592.35
771.842	20470.55
772.178	20544.67
772.513	20458.12
772.849	20453.15
773.184	20260.16
773.519	20165.47
773.855	20180.84
774.19	20165.7
774.525	19971.13
774.86	19951.69
775.195	19988.75
775.53	19880.73
775.865	19808.19
776.2	19623.57
776.535	19499.73
776.87	19608.43
777.205	19437.36
777.539	19372.73
777.874	19420.41
778.209	19188.78
778.543	19208.89
778.878	19044.6
779.212	19043.24
779.547	18892.51
779.881	19102.9
780.215	18819.29
780.55	18832.4
780.884	18589.24
781.218	18652.52
781.552	18601.67
781.886	18511.28
782.22	18464.27
782.554	18400.32
782.888	18179.54
783.222	18158.07
783.556	18055.7
783.889	18027.68
784.223	17902.93
784.557	17964.4
784.89	18010.5
785.224	17826.55
785.557	17711.3
785.891	17718.76
786.224	17617.07
786.558	17633.11
786.891	17448.71
787.224	17326.23
787.557	17373.46
787.891	17336.17
788.224	17361.7
788.557	17300.92
788.89	17178.21
789.223	17151.09
789.556	16948.16
789.888	17020.47
790.221	16873.81
790.554	16794.04
790.887	16871.77
791.219	16745.45
791.552	16712.23
791.884	16618.9
792.217	16553.36
792.549	16497.77
792.882	16477.43
793.214	16422.97
793.546	16461.84
793.879	16206.71
794.211	16242.64
794.543	16211.45
794.875	16164.9
795.207	16095.98
795.539	16058.69
795.871	16037.45
796.203	15926.71
796.535	15865.47
796.867	15781.18
797.198	15781.41
797.53	15597.23
797.862	15512.04
798.193	15659.83
798.525	15498.02
798.856	15629.09
799.188	15410.12
799.519	15294.64
799.85	15277.69
800.182	15278.37
800.513	15216.68
800.844	15104.59
801.175	15216.45
801.506	15133.29
801.837	15079.5
802.168	15034.99
802.499	14977.13
802.83	14931.71
803.161	14874.31
803.491	14823.47
803.822	14840.64
804.153	14742.79
804.483	14727.2
804.814	14600.65
805.145	14650.82
805.475	14636.58
805.805	14517.49
806.136	14497.37
806.466	14515.23
806.796	14519.07
807.126	14364.72
807.457	14258.06
807.787	14242.24
808.117	14237.49
808.447	14210.37
808.777	14218.28
809.107	14186.19
809.436	14173.99
809.766	14043.83
810.096	14076.14
810.426	13988.69
810.755	14044.5
811.085	13938.97
811.414	13924.73
811.744	13822.59
812.073	13779.2
812.403	13816.04
812.732	13717.05
813.061	13720.44
813.39	13711.63
813.719	13658.75
814.049	13625.31
814.378	13639.77
814.707	13494.91
815.036	13472.54
815.365	13420.57
815.693	13230.74
816.022	13327.69
816.351	13256.05
816.68	13262.83
817.008	13315.48
817.337	13143.96
817.665	13138.76
817.994	13090.63
818.322	13087.01
818.651	13080.69
818.979	12975.15
819.307	12987.13
819.636	12924.31
819.964	12848.38
820.292	12962.95
820.62	12942.16
820.948	12903.74
821.276	12962.72
821.604	12859.45
821.932	12923.4
822.259	12883.86
822.587	12921.82
822.915	12865.1
823.243	12896.29
823.57	12825.1
823.898	12833.69
824.225	12835.5
824.553	12863.07
824.88	12851.09
825.207	12840.24
825.535	12823.74
825.862	12823.07
826.189	12809.96
826.516	12807.02
826.843	12882.95
827.17	12861.48
827.497	12798.21
827.824	12891.77
828.151	12825.78
828.478	12831.65
828.805	12873.91
829.131	12726.8
829.458	12771.09
829.785	12740.58
830.111	12766.35
830.438	12794.14
830.764	12769.96
831.09	12858.32
831.417	12685.22
831.743	12835.95
832.069	12755.72
832.395	12689.74
832.722	12805.21
833.048	12731.54
833.374	12746.46
833.7	12668.27
834.026	12703.3
834.351	12746.91
834.677	12626.91
835.003	12715.95
835.329	12657.87
835.654	12604.09
835.98	12607.93
836.306	12668.72
836.631	12557.09
836.956	12558.89
837.282	12542.4
837.607	12550.31
837.932	12539.46
838.258	12468.27
838.583	12546.24
838.908	12406.58
839.233	12482.96
839.558	12429.63
839.883	12292.69
840.208	12363.42
840.533	12344.89
840.858	12382.63
841.182	12278.9
841.507	12264.66
841.832	12205.68
842.156	12163.88
842.481	12174.27
842.805	12123.88
843.13	12137.66
843.454	12048.62
843.778	12036.87
844.103	11963.88
844.427	11979.25
844.751	11951.45
845.075	11898.12
845.399	11909.87
845.723	11829.42
846.047	11776.99
846.371	11729.31
846.695	11687.5
847.019	11654.06
847.343	11614.06
847.666	11532.25
847.99	11516.21
848.313	11459.26
848.637	11387.17
848.96	11421.07
849.284	11368.19
849.607	11333.61
849.931	11221.08
850.254	11218.36
850.577	11145.14
850.9	11015.66
851.223	11062.66
851.546	10946.05
851.869	10943.57
852.192	11007.52
852.515	10885.94
852.838	10811.14
853.161	10904.7
853.483	10768.88
853.806	10811.59
854.129	10741.99
854.451	10686.4
854.774	10604.37
855.096	10590.58
855.419	10561.88
855.741	10598.27
856.063	10537.48
856.385	10479.17
856.708	10437.14
857.03	10429.91
857.352	10394.2
857.674	10379.97
857.996	10346.75
858.318	10269.46
858.64	10236.47
858.961	10193.98
859.283	10180.65
859.605	10130.93
859.926	10155.34
860.248	10120.31
860.57	10055.91
860.891	10038.73
861.212	10060.43
861.534	10042.57
861.855	9977.94
862.176	10088
862.498	10029.02
862.819	9921
863.14	9945.85
863.461	9897.72
863.782	9901.56
864.103	9851.17
864.424	9796.48
864.745	9838.29
865.065	9758.97
865.386	9808.68
865.707	9768.68
866.027	9781.56
866.348	9721.68
866.668	9699.99
866.989	9636.26
867.309	9591.97
867.63	9627.9
867.95	9673.09
868.27	9573.89
868.59	9582.93
868.91	9613.21
869.23	9565.07
869.55	9522.14
869.87	9557.84
870.19	9507
870.51	9572.08
870.83	9527.11
871.15	9411.18
871.469	9452.08
871.789	9524.85
872.109	9423.61
872.428	9399.2
872.748	9430.39
873.067	9343.16
873.386	9416.15
873.706	9345.42
874.025	9332.09
874.344	9281.24
874.663	9363.72
874.982	9248.47
875.301	9320.56
875.62	9258.87
875.939	9224.07
876.258	9219.09
876.577	9185.2
876.896	9205.08
877.214	9131.86
877.533	9176.61
877.852	9195.37
878.17	9175.48
878.489	9127.34
878.807	9132.99
879.125	9138.19
879.444	9093.67
879.762	9113.56
880.08	9062.04
880.398	8961.93
880.716	9048.48
881.034	9017.07
881.352	8941.13
881.67	8920.34
881.988	8934.58
882.306	8950.85
882.624	8930.97
882.941	8865.43
883.259	8824.53
883.577	8835.6
883.894	8762.38
884.212	8764.64
884.529	8760.57
884.846	8746.79
885.164	8710.63
885.481	8706.79
885.798	8707.69
886.115	8604.87
886.432	8643.74
886.75	8630.41
887.067	8648.26
887.383	8649.17
887.7	8605.55
888.017	8542.05
888.334	8526.91
888.651	8486.46
888.967	8561.94
889.284	8498.66
889.6	8445.33
889.917	8354.71
890.233	8431.77
890.55	8446.01
890.866	8412.11
891.182	8395.16
891.498	8347.48
891.815	8294.37
892.131	8344.99
892.447	8232.23
892.763	8213.47
893.079	8128.27
893.395	8175.96
893.71	8152.23
894.026	8095.73
894.342	8119.69
894.657	8035.62
894.973	8037.88
895.289	8034.94
895.604	7992.91
895.92	7963.76
896.235	7949.52
896.55	7843.08
896.865	7869.07
897.181	7822.75
897.496	7820.26
897.811	7799.7
898.126	7791.56
898.441	7742.75
898.756	7719.02
899.071	7667.27
899.386	7644.22
899.7	7646.03
900.015	7601.96
900.33	7549.08
900.644	7537.33
900.959	7533.04
901.273	7517.44
901.588	7491.91
901.902	7423.66
902.216	7406.26
902.531	7390.89
902.845	7329.65
903.159	7307.05
903.473	7325.36
903.787	7255.3
904.101	7196.55
904.415	7299.14
904.729	7191.58
905.042	7085.59
905.356	7149.54
905.67	7139.6
905.984	7088.3
906.297	7098.7
906.611	7053.73
906.924	7006.72
907.237	7008.98
907.551	6922.66
907.864	6945.71
908.177	6868.2
908.491	6869.33
908.804	6880.85
909.117	6839.72
909.43	6760.85
909.743	6776.45
910.056	6750.01
910.368	6778.71
910.681	6642.89
910.994	6693.96
911.307	6639.5
911.619	6605.6
911.932	6650.57
912.244	6558.15
912.557	6564.93
912.869	6518.83
913.181	6472.05
913.494	6453.74
913.806	6439.51
914.118	6399.28
914.43	6385.5
914.742	6354.31
915.054	6310.24
915.366	6304.14
915.678	6231.6
915.99	6230.02
916.302	6177.59
916.613	6211.94
916.925	6152.51
917.236	6196.8
917.548	6118.61
917.859	6138.72
918.171	6058.72
918.482	6044.94
918.794	6009.01
919.105	6040.65
919.416	5942.57
919.727	5925.62
920.038	5939.63
920.349	5877.03
920.66	5898.05
920.971	5842.23
921.282	5781.67
921.593	5832.06
921.903	5796.58
922.214	5778.05
922.525	5738.51
922.835	5704.61
923.146	5647.44
923.456	5656.25
923.767	5647.66
924.077	5564.95
924.387	5564.95
924.697	5574.44
925.008	5592.97
925.318	5496.03
925.628	5483.82
925.938	5494.67
926.248	5477.27
926.558	5448.35
926.867	5362.02
927.177	5450.83
927.487	5358.63
927.796	5340.33
928.106	5328.35
928.416	5265.53
928.725	5274.11
929.034	5255.13
929.344	5236.15
929.653	5262.59
929.962	5177.84
930.271	5147.56
930.581	5075.25
930.89	5130.61
931.199	5073.89
931.508	5062.59
931.817	5012.42
932.125	5038.86
932.434	5018.98
932.743	4967.91
933.051	4934.91
933.36	4974.69
933.669	4891.07
933.977	4889.72
934.286	4863.95
934.594	4881.35
934.902	4831.19
935.21	4797.29
935.519	4821.02
935.827	4757.97
936.135	4736.27
936.443	4717.07
936.751	4681.13
937.059	4729.04
937.367	4658.76
937.674	4665.54
937.982	4659.89
938.29	4627.8
938.597	4628.03
938.905	4571.53
939.213	4558.43
939.52	4501.48
939.827	4504.42
940.135	4522.49
940.442	4475.04
940.749	4465.09
941.056	4467.81
941.363	4409.73
941.67	4438.65
941.977	4414.25
942.284	4354.14
942.591	4371.99
942.898	4340.8
943.205	4314.59
943.511	4287.92
943.818	4338.09
944.125	4227.81
944.431	4284.53
944.738	4225.55
945.044	4237.98
945.35	4151.88
945.657	4135.84
945.963	4135.39
946.269	4152.33
946.575	4171.99
946.881	4081.6
947.187	4115.05
947.493	4082.73
947.799	4041.15
948.105	4059.91
948.41	4011.55
948.716	4052.22
949.022	4024.43
949.327	3982.62
949.633	3887.26
949.938	3929.74
950.244	3925.9
950.549	3897.43
950.854	3847.71
951.16	3892.68
951.465	3859.91
951.77	3820.82
952.075	3797.32
952.38	3787.82
952.685	3821.5
952.99	3736.07
953.294	3775.4
953.599	3709.41
953.904	3692.46
954.209	3685.23
954.513	3681.61
954.818	3682.74
955.122	3632.8
955.426	3671.22
955.731	3666.7
956.035	3597.77
956.339	3601.84
956.643	3593.48
956.948	3565.01
957.252	3554.61
957.556	3546.47
957.86	3555.97
958.163	3517.77
958.467	3495.4
958.771	3481.62
959.075	3478.23
959.378	3419.02
959.682	3437.1
959.985	3386.03
960.289	3382.64
960.592	3412.69
960.896	3382.86
961.199	3373.82
961.502	3281.17
961.805	3309.87
962.108	3282.75
962.411	3313.71
962.714	3294.28
963.017	3296.99
963.32	3260.61
963.623	3254.05
963.926	3259.93
964.228	3250.21
964.531	3218.12
964.833	3185.81
965.136	3186.03
965.438	3133.38
965.741	3156.43
966.043	3135.86
966.345	3131.57
966.648	3078.92
966.95	3112.59
967.252	3078.46
967.554	3094.74
967.856	3029.88
968.158	3016.09
968.46	3043.89
968.761	2979.71
969.063	3018.8
969.365	2969.77
969.666	2991.01
969.968	3003.21
970.269	2932.93
970.571	2943.33
970.872	2912.14
971.174	2932.25
971.475	2915.3
971.776	2907.17
972.077	2857.23
972.378	2871.01
972.679	2860.62
972.98	2819.49
973.281	2837.34
973.582	2823.33
973.883	2826.49
974.183	2778.36
974.484	2768.42
974.785	2781.07
975.085	2740.17
975.386	2760.28
975.686	2738.59
975.986	2693.84
976.287	2719.15
976.587	2691.36
976.887	2691.81
977.187	2675.99
977.487	2691.81
977.787	2666.5
978.087	2630.11
978.387	2634.18
978.687	2636.89
978.987	2600.28
979.286	2576.78
979.586	2588.76
979.885	2557.12
980.185	2542.21
980.484	2537.69
980.784	2524.58
981.083	2542.21
981.382	2490.68
981.682	2485.71
981.981	2488.65
982.28	2500.4
982.579	2451.81
982.878	2452.49
983.177	2458.59
983.475	2473.96
983.774	2420.63
984.073	2438.03
984.372	2439.39
984.67	2374.53
984.969	2378.6
985.267	2368.65
985.566	2371.14
985.864	2362.1
986.162	2306.73
986.461	2354.19
986.759	2325.72
987.057	2308.77
987.355	2294.3
987.653	2264.47
987.951	2268.54
988.249	2286.62
988.547	2246.62
988.844	2225.38
989.142	2250.01
989.44	2263.12
989.737	2225.83
990.035	2193.52
990.332	2185.61
990.63	2180.63
990.927	2173.86
991.224	2165.04
991.521	2161.65
991.819	2172.95
992.116	2149.9
992.413	2134.99
992.71	2095.89
993.006	2095.21
993.303	2090.24
993.6	2115.55
993.897	2097.93
994.193	2092.5
994.49	2053.41
994.787	2045.72
995.083	2057.25
995.379	2012.05
995.676	2029.45
995.972	2035.55
996.268	2037.59
996.565	1990.13
996.861	1986.74
997.157	1950.36
997.453	1972.73
997.749	1935.22
998.044	1970.7
998.34	1946.29
998.636	1927.53
998.932	1927.76
999.227	1918.49
999.523	1925.95
999.818	1906.52
1000.114	1858.38
1000.409	1892.05
1000.704	1848.67
1001	1840.3
1001.295	1836.24
1001.59	1837.82
1001.885	1870.13
1002.18	1822
1002.475	1798.05
1002.77	1817.25
1003.065	1793.07
1003.359	1792.62
1003.654	1779.52
1003.949	1754.43
1004.243	1746.97
1004.538	1764.6
1004.832	1745.84
1005.127	1763.7
1005.421	1718.95
1005.715	1744.49
1006.009	1705.62
1006.304	1681.89
1006.598	1710.36
1006.892	1657.03
1007.186	1664.72
1007.48	1654.32
1007.773	1641.44
1008.067	1641.21
1008.361	1628.56
1008.655	1623.36
1008.948	1585.17
1009.242	1611.84
1009.535	1576.13
1009.829	1578.84
1010.122	1585.85
1010.415	1583.14
1010.708	1560.31
1011.001	1572.52
1011.295	1556.24
1011.588	1566.19
1011.881	1513.31
1012.173	1486.19
1012.466	1511.27
1012.759	1519.64
1013.052	1503.14
1013.344	1497.71
1013.637	1477.6
1013.93	1451.39
1014.222	1449.81
1014.514	1450.48
1014.807	1442.35
1015.099	1431.05
1015.391	1401.22
1015.683	1423.82
1015.976	1421.33
1016.268	1380.88
1016.56	1377.49
1016.851	1361.67
1017.143	1384.05
1017.435	1373.42
1017.727	1337.27
1018.018	1350.6
1018.31	1327.1
1018.602	1312.63
1018.893	1308.34
1019.185	1299.53
1019.476	1313.76
1019.767	1302.24
1020.058	1294.56
1020.35	1295.69
1020.641	1268.34
1020.932	1276.93
1021.223	1261.56
1021.514	1255.01
1021.804	1253.43
1022.095	1254.33
1022.386	1243.26
1022.677	1221.34
1022.967	1220.66
1023.258	1198.74
1023.548	1186.99
1023.839	1200.55
1024.129	1198.29
1024.419	1172.98
1024.709	1172.75
1025	1140.21
1025.29	1151.51
1025.58	1149.48
1025.87	1139.31
1026.16	1129.81
1026.449	1127.78
1026.739	1142.7
1027.029	1105.63
1027.319	1132.75
1027.608	1107.22
1027.898	1123.94
1028.187	1085.75
1028.477	1066.77
1028.766	1043.26
1029.055	1054.11
1029.344	1056.6
1029.634	1067.44
1029.923	1045.52
1030.212	1054.34
1030.501	1046.43
1030.79	1025.64
1031.078	1024.96
1031.367	1008.24
1031.656	994.23
1031.945	998.74
1032.233	1005.3
1032.522	996.71
1032.81	984.51
1033.099	952.64
1033.387	964.85
1033.675	977.28
1033.963	974.79
1034.251	922.36
1034.54	931.18
1034.828	926.88
1035.116	921.46
1035.403	938.86
1035.691	931.4
1035.979	922.81
1036.267	926.66
1036.554	886.43
1036.842	900.67
1037.129	882.36
1037.417	870.16
1037.704	886.66
1037.992	879.43
1038.279	874.23
1038.566	881.69
1038.853	881.69
1039.14	881.69
