Data from hue_22_FLMS001491_00064.txt Node
Date: Tue Feb 07 17:10:29 GMT 2017
User: dcchb
Spectrometer: FLMS00149
Trigger mode: 0
Integration Time (sec): 2.000000E-2
Scans to average: 10
Electric dark correction enabled: true
Nonlinearity correction enabled: false
Boxcar width: 0
XAxis mode: Wavelengths
Number of Pixels in Spectrum: 2048
>>>>>Begin Spectral Data<<<<<
341.393	0.4
341.776	0.4
342.16	0.4
342.543	-49.55
342.927	-52.48
343.31	-76.21
343.693	-65.59
344.077	-69.66
344.46	-55.42
344.843	-61.52
345.226	-24.24
345.61	-18.36
345.993	-16.78
346.376	-10
346.759	1.75
347.142	26.38
347.525	32.94
347.908	38.13
348.291	97.34
348.674	90.79
349.057	110.45
349.44	126.27
349.823	147.06
350.206	166.94
350.588	203.33
350.971	222.31
351.354	227.06
351.737	244
352.119	256.21
352.502	252.37
352.884	271.35
353.267	280.84
353.65	312.7
354.032	284
354.414	315.64
354.797	323.1
355.179	332.14
355.562	308.64
355.944	318.81
356.326	322.19
356.709	343.66
357.091	322.42
357.473	340.5
357.855	344.12
358.238	356.09
358.62	323.32
359.002	337.56
359.384	361.06
359.766	350.44
360.148	356.32
360.53	348.63
360.912	340.5
361.294	330.33
361.676	336.21
362.057	332.14
362.439	338.69
362.821	328.3
363.203	339.6
363.584	328.52
363.966	323.1
364.348	333.95
364.729	321.52
365.111	343.89
365.493	311.12
365.874	318.58
366.256	331.01
366.637	326.26
367.019	325.13
367.4	318.13
367.781	322.87
368.163	313.83
368.544	311.35
368.925	329.43
369.306	315.64
369.688	327.62
370.069	321.74
370.45	327.17
370.831	322.65
371.212	297.34
371.593	341.63
371.974	315.87
372.355	333.49
372.736	314.51
373.117	322.19
373.498	321.07
373.879	305.92
374.26	322.65
374.641	313.16
375.021	325.36
375.402	335.3
375.783	340.27
376.163	329.43
376.544	345.02
376.925	345.92
377.305	342.53
377.686	324.68
378.066	334.17
378.447	337.79
378.827	351.57
379.208	329.65
379.588	320.16
379.968	353.61
380.349	330.56
380.729	332.82
381.109	351.8
381.489	345.92
381.87	355.64
382.25	334.62
382.63	343.21
383.01	362.87
383.39	356.32
383.77	342.31
384.15	365.81
384.53	363.55
384.91	365.13
385.29	357
385.67	365.36
386.049	371.69
386.429	345.47
386.809	361.52
387.189	337.56
387.568	343.66
387.948	359.48
388.328	364.68
388.707	362.19
389.087	370.78
389.466	397.9
389.846	362.65
390.225	377.33
390.605	376.2
390.984	382.08
391.363	385.24
391.743	385.24
392.122	376.66
392.501	377.79
392.881	384.79
393.26	400.38
393.639	388.18
394.018	403.77
394.397	393.61
394.776	397.22
395.155	385.02
395.534	393.61
395.913	398.35
396.292	380.95
396.671	405.58
397.05	414.17
397.429	426.82
397.808	385.02
398.186	389.76
398.565	412.59
398.944	415.07
399.323	422.31
399.701	399.48
400.08	401.51
400.458	416.88
400.837	435.64
401.215	434.06
401.594	430.67
401.972	442.64
402.351	426.82
402.729	422.31
403.107	429.54
403.486	444.23
403.864	441.29
404.242	443.32
404.62	444.45
404.999	456.43
405.377	453.04
405.755	452.81
406.133	446.49
406.511	448.97
406.889	465.02
407.267	440.61
407.645	462.53
408.023	450.78
408.401	464.79
408.779	469.76
409.156	477.9
409.534	465.24
409.912	449.65
410.29	478.12
410.667	488.29
411.045	463.66
411.422	483.77
411.8	490.33
412.178	478.35
412.555	521.06
412.933	492.13
413.31	496.2
413.687	512.47
414.065	537.78
414.442	501.4
414.819	517.67
415.197	506.82
415.574	506.37
415.951	517.22
416.328	528.29
416.705	522.87
417.082	526.26
417.46	545.69
417.837	531.68
418.214	539.59
418.591	514.73
418.967	561.06
419.344	537.56
419.721	548.63
420.098	561.74
420.475	559.48
420.852	560.38
421.228	574.17
421.605	562.19
421.982	566.93
422.358	579.59
422.735	571.23
423.111	574.39
423.488	578.91
423.864	606.71
424.241	616.65
424.617	604.67
424.994	587.05
425.37	598.57
425.746	611.9
426.123	607.84
426.499	643.09
426.875	640.38
427.251	625.24
427.627	656.2
428.003	667.72
428.379	638.57
428.756	645.35
429.132	662.3
429.507	656.2
429.883	660.04
430.259	681.06
430.635	673.15
431.011	682.64
431.387	691.45
431.763	700.04
432.138	691.9
432.514	683.77
432.89	707.95
433.265	704.11
433.641	739.13
434.016	735.97
434.392	747.27
434.767	741.62
435.143	766.7
435.518	756.99
435.894	773.48
436.269	772.8
436.644	773.26
437.02	777.55
437.395	781.17
437.77	806.02
438.145	817.55
438.52	794.95
438.895	826.59
439.271	828.62
439.646	820.03
440.021	846.02
440.395	844.67
440.77	842.63
441.145	852.35
441.52	865.68
441.895	840.6
442.27	868.85
442.645	866.36
443.019	869.53
443.394	859.36
443.769	866.81
444.143	883.99
444.518	877.21
444.892	898.22
445.267	900.94
445.641	894.38
446.016	888.96
446.39	908.39
446.764	951.33
447.139	921.05
447.513	944.55
447.887	900.26
448.262	935.29
448.636	945.46
449.01	932.12
449.384	954.72
449.758	955.85
450.132	961.27
450.506	972.57
450.88	978
451.254	978.67
451.628	982.29
452.002	1008.5
452.376	1004.44
452.75	1016.87
453.123	1021.39
453.497	1078.79
453.871	1049.18
454.244	1057.99
454.618	1072.01
454.992	1077.66
455.365	1084.43
455.739	1083.53
456.112	1108.84
456.486	1159.69
456.859	1107.49
457.232	1149.29
457.606	1160.36
457.979	1150.87
458.352	1176.41
458.725	1185.9
459.099	1179.8
459.472	1166.47
459.845	1211.66
460.218	1220.7
460.591	1218.67
460.964	1234.26
461.337	1283.98
461.71	1293.02
462.083	1321.49
462.456	1325.33
462.829	1295.95
463.201	1342.96
463.574	1337.76
463.947	1370.75
464.32	1380.92
464.692	1382.51
465.065	1433.35
465.438	1458.44
465.81	1435.84
466.183	1489.85
466.555	1476.74
466.928	1487.36
467.3	1524.2
467.672	1551.32
468.045	1559
468.417	1591.31
468.789	1581.82
469.161	1589.73
469.534	1645.32
469.906	1674.48
470.278	1655.27
470.65	1708.37
471.022	1726.9
471.394	1743.17
471.766	1797.86
472.138	1815.94
472.51	1828.37
472.882	1847.8
473.253	1869.72
473.625	1921.7
473.997	1951.3
474.369	1967.58
474.74	1998.99
475.112	2018.2
475.484	2068.82
475.855	2078.31
476.227	2101.13
476.598	2168.93
476.97	2196.95
477.341	2228.81
477.713	2284.63
478.084	2319.2
478.455	2396.94
478.827	2372.31
479.198	2494.57
479.569	2494.79
479.94	2530.72
480.311	2578.63
480.682	2606.43
481.053	2680.1
481.424	2731.85
481.795	2766.88
482.166	2849.81
482.537	2881.68
482.908	2926.19
483.279	2984.95
483.65	3016.59
484.021	3102.23
484.391	3127.54
484.762	3187.2
485.133	3178.62
485.503	3277.6
485.874	3313.98
486.244	3376.58
486.615	3465.84
486.985	3480.76
487.356	3591.04
487.726	3633.75
488.097	3679.39
488.467	3652.5
488.837	3811.59
489.207	3862.44
489.578	3908.32
489.948	3913.29
490.318	3978.14
490.688	4067.63
491.058	4094.3
491.428	4142.43
491.798	4231.24
492.168	4299.49
492.538	4336.1
492.908	4373.16
493.278	4422.65
493.648	4433.5
494.017	4565.25
494.387	4563.21
494.757	4657.45
495.126	4645.02
495.496	4707.16
495.866	4749.2
496.235	4847.27
496.605	4856.54
496.974	4827.84
497.344	4906.71
497.713	4962.75
498.082	4955.97
498.452	5032.35
498.821	5070.54
499.19	5086.82
499.559	5141.5
499.928	5153.48
500.298	5154.38
500.667	5299.69
501.036	5259.69
501.405	5323.65
501.774	5286.13
502.143	5384.89
502.512	5418.78
502.88	5418.11
503.249	5450.2
503.618	5489.52
503.987	5507.37
504.356	5536.52
504.724	5609.29
505.093	5604.54
505.462	5637.76
505.83	5644.77
506.199	5689.74
506.567	5783.97
506.936	5736.74
507.304	5763.41
507.672	5820.81
508.041	5919.79
508.409	5935.61
508.777	5982.39
509.145	6000.01
509.514	6041.82
509.882	6032.55
510.25	6029.39
510.618	6048.6
510.986	6126.11
511.354	6160.69
511.722	6190.97
512.09	6215.83
512.458	6212.44
512.826	6296.05
513.193	6312.77
513.561	6373.34
513.929	6365.43
514.297	6395.26
514.664	6408.36
515.032	6444.97
515.4	6503.5
515.767	6500.11
516.135	6542.82
516.502	6509.83
516.869	6600.9
517.237	6631.63
517.604	6630.5
517.972	6704.63
518.339	6723.16
518.706	6704.17
519.073	6732.2
519.44	6791.18
519.808	6835.7
520.175	6808.35
520.542	6928.12
520.909	6982.36
521.276	6928.57
521.643	6972.19
522.009	7009.48
522.376	7080.44
522.743	7133.32
523.11	7170.6
523.477	7169.92
523.843	7270.94
524.21	7355.68
524.577	7334.21
524.943	7404.72
525.31	7444.27
525.676	7516.36
526.043	7525.17
526.409	7586.64
526.776	7541.67
527.142	7628.44
527.508	7636.8
527.874	7767.65
528.241	7803.13
528.607	7825.5
528.973	7910.24
529.339	7820.08
529.705	7948.66
530.071	8028.88
530.437	7990.02
530.803	8075.66
531.169	8064.36
531.535	8126.96
531.901	8117.7
532.267	8242.89
532.632	8201.76
532.998	8248.99
533.364	8323.11
533.73	8372.38
534.095	8451.7
534.461	8423.45
534.826	8428.87
535.192	8505.03
535.557	8476.78
535.923	8585.71
536.288	8590.9
536.653	8647.85
537.019	8600.85
537.384	8697.57
537.749	8747.28
538.114	8759.04
538.479	8771.92
538.845	8758.81
539.21	8811.46
539.575	8877.68
539.94	8864.12
540.305	8966.26
540.67	8975.53
541.034	9054.17
541.399	9060.04
541.764	8995.87
542.129	9190.21
542.494	9199.02
542.858	9219.36
543.223	9238.8
543.587	9230.66
543.952	9255.07
544.316	9272.24
544.681	9339.81
545.045	9437.44
545.41	9364.9
545.774	9454.84
546.138	9518.56
546.503	9544.55
546.867	9475.4
547.231	9561.05
547.595	9589.97
547.959	9630.65
548.324	9714.04
548.688	9731.21
549.052	9700.93
549.416	9755.17
549.779	9823.19
550.143	9786.13
550.507	9850.53
550.871	9892.11
551.235	9910.64
551.599	9989.96
551.962	9959.68
552.326	10092.56
552.689	10091.43
553.053	10084.2
553.417	10098.44
553.78	10212.1
554.143	10219.34
554.507	10246.91
554.87	10313.34
555.234	10378.2
555.597	10325.55
555.96	10416.84
556.323	10353.12
556.686	10409.16
557.05	10495.49
557.413	10498.88
557.776	10559.67
558.139	10619.33
558.502	10657.06
558.865	10606.67
559.228	10692.09
559.59	10791.07
559.953	10801.02
560.316	10843.05
560.679	10818.19
561.041	10876.95
561.404	10939.54
561.767	11001.46
562.129	10992.42
562.492	11095.24
562.854	11090.05
563.217	11088.01
563.579	11132.08
563.941	11255.92
564.304	11210.04
564.666	11293.43
565.028	11305.18
565.39	11354.67
565.753	11384.73
566.115	11473.77
566.477	11563.71
566.839	11469.25
567.201	11490.49
567.563	11548.57
567.925	11646.42
568.287	11735.91
568.648	11595.34
569.01	11753.53
569.372	11924.15
569.734	11840.08
570.095	11909.23
570.457	12017.25
570.819	12012.96
571.18	12110.81
571.542	12208.89
571.903	12160.75
572.265	12218.61
572.626	12316.68
572.987	12431.03
573.349	12360.97
573.71	12477.13
574.071	12480.75
574.432	12537.01
574.794	12661.08
575.155	12639.39
575.516	12659.95
575.877	12853.62
576.238	12895.65
576.599	13016.55
576.96	13046.15
577.32	13102.88
577.681	13258.8
578.042	13323.43
578.403	13334.96
578.763	13432.81
579.124	13565.01
579.485	13753.03
579.845	13775.17
580.206	13895.17
580.566	14057.88
580.927	14143.53
581.287	14296.29
581.648	14416.51
582.008	14526.79
582.368	14774.24
582.728	14887.01
583.089	15000.45
583.449	15260.79
583.809	15381.91
584.169	15673.43
584.529	15689.25
584.889	16010.14
585.249	16213.3
585.609	16315.22
585.969	16542.79
586.329	16750.69
586.688	16990.01
587.048	17194.52
587.408	17427.06
587.768	17702.53
588.127	17852.13
588.487	18112.91
588.846	18503.64
589.206	18631.77
589.565	18915.15
589.925	19264.3
590.284	19551.52
590.643	19765.53
591.003	20037.61
591.362	20366.41
591.721	20596.69
592.08	20918.04
592.44	21370
592.799	21533.16
593.158	21863.78
593.517	22188.06
593.876	22584.66
594.235	22824.43
594.593	23156.62
594.952	23457.63
595.311	23793.67
595.67	24146.65
596.029	24526.53
596.387	24854.88
596.746	25299.62
597.104	25502.78
597.463	25779.38
597.822	26282.87
598.18	26440.6
598.538	26743.65
598.897	27200.81
599.255	27396.06
599.613	27895.03
599.972	27996.27
600.33	28494.56
600.688	28769.58
601.046	29110.59
601.404	29612.5
601.762	29779.05
602.12	30219.71
602.478	30427.84
602.836	30881.39
603.194	30875.52
603.552	31302.17
603.91	31519.34
604.268	31927.92
604.625	32095.6
604.983	32503.72
605.341	32674.34
605.698	33022.8
606.056	33463.7
606.413	33613.97
606.771	34096.9
607.128	34345.93
607.485	34384.58
607.843	34625.7
608.2	35153.82
608.557	35505.68
608.914	35531.21
609.272	35958.77
609.629	36186.56
609.986	36554.24
610.343	36575.93
610.7	37008.91
611.057	37262.01
611.414	37382.92
611.771	37462.46
612.127	37946.52
612.484	38169.34
612.841	38516.67
613.198	38431.48
613.554	38696.78
613.911	38940.16
614.267	39125.47
614.624	39425.35
614.98	39540.37
615.337	40014.48
615.693	40040.25
616.05	40010.64
616.406	40542.15
616.762	40507.8
617.118	40645.88
617.475	40868.02
617.831	41120.67
618.187	41317.28
618.543	41347.1
618.899	41815.57
619.255	41870.48
619.611	41903.93
619.967	42286.74
620.323	42393.18
620.678	42400.18
621.034	42432.95
621.39	42532.38
621.746	42678.82
622.101	43180.28
622.457	42955.42
622.812	43186.38
623.168	43348.18
623.523	43277.9
623.879	43643.54
624.234	43322.19
624.589	43600.15
624.945	43776.42
625.3	44008.96
625.655	43863.42
626.01	44005.57
626.365	44062.29
626.72	44031.78
627.075	44127.82
627.43	44164.43
627.785	44297.08
628.14	44475.16
628.495	44562.16
628.85	44439.9
629.205	44375.95
629.559	44680.8
629.914	44611.2
630.269	44637.64
630.623	44715.83
630.978	44734.59
631.332	44978.2
631.687	45146.33
632.041	44825.43
632.396	45043.5
632.75	44833.34
633.104	44981.36
633.459	44837.18
633.813	44923.28
634.167	44883.06
634.521	45189.26
634.875	45130.96
635.229	45070.62
635.583	44864.53
635.937	45000.79
636.291	44953.11
636.645	45071.53
636.999	45008.93
637.352	45120.11
637.706	44831.53
638.06	45082.83
638.413	45087.12
638.767	44866.33
639.121	45066.33
639.474	44723.74
639.828	44960.8
640.181	44847.58
640.534	44945.2
640.888	44927.8
641.241	44663.63
641.594	44763.29
641.947	45001.25
642.301	44791.31
642.654	44877.41
643.007	44962.6
643.36	44860.68
643.713	44899.33
644.066	45060.68
644.419	44793.12
644.771	44510.19
645.124	44194.49
645.477	44203.3
645.83	43823.88
646.182	43713.37
646.535	43635.18
646.888	43742.97
647.24	43633.37
647.593	43778
647.945	43646.03
648.298	43561.96
648.65	43484.22
649.002	43457.11
649.355	43699.13
649.707	43603.77
650.059	43785.91
650.411	44284.88
650.763	44274.03
651.115	44753.12
651.467	44510.86
651.819	44458.66
652.171	44376.18
652.523	44416.18
652.875	44499.11
653.227	44170.31
653.578	44514.03
653.93	44476.51
654.282	44293.69
654.633	44272.9
654.985	44229.52
655.337	44202.85
655.688	44268.61
656.039	44594.25
656.391	44190.65
656.742	44207.82
657.094	44336.86
657.445	44323.75
657.796	44197.65
658.147	44291.89
658.498	44149.07
658.849	44263.86
659.2	44201.95
659.551	44075.62
659.902	44241.27
660.253	44231.1
660.604	44274.03
660.955	44022.29
661.306	44117.2
661.656	44097.09
662.007	44182.06
662.358	44115.39
662.708	44038.11
663.059	44086.69
663.409	43955.85
663.76	44222.28
664.11	44163.98
664.461	44280.36
664.811	44095.51
665.161	44186.35
665.511	43991.1
665.862	43963.53
666.212	44119.01
666.562	43984.32
666.912	44119.24
667.262	43995.62
667.612	44057.77
667.962	44081.95
668.312	44086.24
668.662	44105.45
669.011	44084.43
669.361	44053.47
669.711	43893.93
670.06	43929.86
670.41	43791.79
670.76	43876.98
671.109	43960.14
671.459	43913.37
671.808	43990.88
672.157	43903.65
672.507	43797.66
672.856	43784.55
673.205	43716.99
673.554	43956.08
673.904	43683.99
674.253	43987.71
674.602	43765.57
674.951	43232.93
675.3	42968.31
675.649	43702.75
675.998	43547.73
676.346	43666.59
676.695	43601.51
677.044	43499.82
677.393	43490.1
677.741	43602.64
678.09	43523.09
678.438	43561.28
678.787	43409.2
679.135	43507.27
679.484	43330.56
679.832	43367.62
680.181	43264.57
680.529	43252.59
680.877	43200.84
681.225	43160.84
681.573	43394.51
681.922	43158.36
682.27	42867.06
682.618	42932.83
682.966	42888.76
683.314	42975.31
683.661	42796.56
684.009	42666.17
684.357	42485.83
684.705	42614.64
685.053	42626.17
685.4	42653.29
685.748	42329.68
686.095	42410.13
686.443	42081.32
686.79	42067.76
687.138	42309.79
687.485	42333.97
687.832	42109.34
688.18	42245.16
688.527	41977.37
688.874	41895.79
689.221	41829.58
689.568	41670.49
689.915	41783.03
690.262	41824.38
690.609	41508
690.956	41445.18
691.303	41392.75
691.65	41144.17
691.997	41266.88
692.344	40933.1
692.69	40850.85
693.037	40934.46
693.383	40411.08
693.73	40686.56
694.077	40510.06
694.423	40544.41
694.769	40370.63
695.116	40329.5
695.462	40315.95
695.808	40160.02
696.155	40204.76
696.501	39937.42
696.847	39863.3
697.193	39697.66
697.539	39840.7
697.885	39592.12
698.231	39523.42
698.577	39509.41
698.923	39460.37
699.269	39212.25
699.614	38977.9
699.96	39016.09
700.306	38956.43
700.651	38786.27
700.997	38681.64
701.342	38671.02
701.688	38623.79
702.033	38343.12
702.379	38333.62
702.724	38223.12
703.069	38377.69
703.415	37982.9
703.76	37989.23
704.105	38012.5
704.45	37846.18
704.795	37726.18
705.14	37589.69
705.485	37565.28
705.83	37512.18
706.175	37637.15
706.52	37431.73
706.865	37326.87
707.209	37263.82
707.554	37161.23
707.899	37111.51
708.243	36961.91
708.588	36906.32
708.932	36743.84
709.277	36667
709.621	36690.28
709.966	36488.48
710.31	36538.64
710.654	36301.36
710.998	36321.93
711.342	36230.4
711.687	36232.89
712.031	35909.06
712.375	35778.66
712.719	35860.24
713.063	35837.65
713.407	35955.16
713.75	35837.87
714.094	35734.6
714.438	35538.22
714.782	35638.1
715.125	35523.98
715.469	35363.08
715.812	35360.14
716.156	35115.18
716.499	35263.2
716.843	35218.9
717.186	34858.01
717.53	35102.98
717.873	35080.83
718.216	35061.17
718.559	34953.15
718.902	34759.48
719.246	34875.86
719.589	34580.73
719.932	34530.11
720.275	34543.67
720.617	34595.42
720.96	34373.73
721.303	34382.32
721.646	34436.33
721.989	34204.24
722.331	34241.08
722.674	34201.3
723.016	34054.19
723.359	34119.05
723.701	34248.99
724.044	33834.76
724.386	33778.94
724.729	33869.56
725.071	33847.19
725.413	33828.66
725.755	33716.57
726.097	33548.44
726.439	33363.36
726.782	33513.86
727.124	33616.01
727.465	33418.27
727.807	33427.54
728.149	33362.68
728.491	33200.65
728.833	33226.87
729.175	33154.55
729.516	33087.66
729.858	33031.84
730.199	33168.56
730.541	33060.54
730.882	32895.12
731.224	32950.49
731.565	32728.57
731.906	32815.8
732.248	32855.58
732.589	32598.86
732.93	32540.78
733.271	32616.49
733.612	32543.95
733.953	32553.21
734.294	32421.24
734.635	32344.86
734.976	32434.8
735.317	32298.53
735.658	32442.93
735.999	32135.14
736.339	32147.12
736.68	32238.64
737.021	32100.57
737.361	32033
737.702	32135.37
738.042	32091.98
738.383	31951.65
738.723	32052.43
739.063	31964.75
739.404	31991.42
739.744	31839.78
740.084	31809.05
740.424	31778.54
740.764	31658.09
741.104	31863.51
741.444	31590.98
741.784	31574.93
742.124	31562.05
742.464	31506.23
742.804	31393.92
743.143	31436.63
743.483	31330.42
743.823	31219.24
744.162	31183.98
744.502	31292.68
744.841	31123.19
745.181	31151.67
745.52	30986.02
745.86	31107.15
746.199	31110.99
746.538	30959.58
746.877	31040.26
747.216	31139.46
747.556	30826.7
747.895	30867.61
748.234	30892.92
748.573	30676.2
748.911	30719.36
749.25	30686.82
749.589	30557.56
749.928	30666.26
750.267	30707.84
750.605	30550.55
750.944	30447.28
751.283	30412.7
751.621	30482.98
751.96	30242.31
752.298	30311.91
752.636	30218.36
752.975	30084.12
753.313	30073.73
753.651	30138.59
753.989	29939.95
754.327	29829.89
754.666	29786.96
755.004	29817.24
755.342	29732.27
755.679	29624.48
756.017	29485.04
756.355	29616.57
756.693	29486.4
757.031	29581.54
757.368	29356.46
757.706	29272.85
758.044	29135
758.381	29286.86
758.719	29062
759.056	29212.73
759.394	29064.04
759.731	28941.33
760.068	28865.17
760.405	28874.89
760.743	28645.29
761.08	28815.01
761.417	28604.16
761.754	28516.26
762.091	28459.08
762.428	28385.19
762.765	28185.64
763.102	28349.48
763.438	27993.56
763.775	27991.3
764.112	27998.76
764.449	28063.84
764.785	27910.62
765.122	27717.63
765.458	27541.59
765.795	27677.63
766.131	27474.02
766.467	27463.85
766.804	27309.73
767.14	27293.01
767.476	27234.26
767.812	27189.74
768.148	27065.67
768.485	26907.03
768.821	26848.28
769.157	26720.6
769.492	26712.46
769.828	26568.28
770.164	26430.89
770.5	26390.21
770.836	26381.62
771.171	26131.46
771.507	26168.07
771.842	25918.81
772.178	25955.42
772.513	25961.07
772.849	25842.43
773.184	25695.99
773.519	25604.02
773.855	25513.17
774.19	25452.16
774.525	25303.68
774.86	25400.18
775.195	25268.43
775.53	25051.26
775.865	24954.99
776.2	24841.78
776.535	24608.11
776.87	24698.96
777.205	24597.71
777.539	24463.71
777.874	24637.71
778.209	24381
778.543	24225.75
778.878	24140.33
779.212	24099.42
779.547	23973.1
779.881	23999.54
780.215	23730.17
780.55	23866.21
780.884	23732.88
781.218	23589.38
781.552	23448.82
781.886	23534.69
782.22	23429.61
782.554	23400.46
782.888	23172.67
783.222	23134.48
783.556	22908.49
783.889	22958.44
784.223	22717.54
784.557	22713.24
784.89	22652.91
785.224	22535.85
785.557	22481.16
785.891	22585.11
786.224	22348.73
786.558	22402.29
786.891	22155.07
787.224	22040.49
787.557	22054.73
787.891	21962.76
788.224	21876.2
788.557	21913.94
788.89	21857.45
789.223	21850.67
789.556	21673.95
789.888	21585.59
790.221	21507.85
790.554	21295.88
790.887	21307.41
791.219	21240.29
791.552	21149.22
791.884	21099.28
792.217	21009.79
792.549	20955.1
792.882	20946.29
793.214	20756.23
793.546	20745.39
793.879	20654.32
794.211	20450.03
794.543	20568.22
794.875	20473.3
795.207	20575.67
795.539	20340.2
795.871	20363.7
796.203	20175.91
796.535	20097.04
796.867	20083.71
797.198	19972.3
797.53	19934.33
797.862	19830.38
798.193	19896.82
798.525	19696.83
798.856	19750.84
799.188	19513.55
799.519	19559.88
799.85	19392.88
800.182	19415.48
800.513	19474.46
800.844	19203.28
801.175	19320.34
801.506	19208.93
801.837	19083.06
802.168	19023.17
802.499	19022.95
802.83	18887.58
803.161	18897.53
803.491	18880.8
803.822	18919.45
804.153	18719
804.483	18626.35
804.814	18525.33
805.145	18522.39
805.475	18603.97
805.805	18458.67
806.136	18468.38
806.466	18436.29
806.796	18267.26
807.126	18193.59
807.457	18187.26
807.787	18185
808.117	18073.14
808.447	18056.87
808.777	18060.49
809.107	17911.56
809.436	17882.41
809.766	17869.3
810.096	17844.45
810.426	17705.92
810.755	17779.36
811.085	17711.57
811.414	17676.54
811.744	17454.63
812.073	17489.88
812.403	17467.28
812.732	17481.97
813.061	17362.65
813.39	17268.19
813.719	17245.82
814.049	17345.02
814.378	17167.63
814.707	17161.3
815.036	17156.78
815.365	17032.26
815.693	16857.81
816.022	16863.23
816.351	16896.67
816.68	16818.26
817.008	16756.34
817.337	16656.23
817.665	16661.2
817.994	16711.14
818.322	16609.9
818.651	16521.32
818.979	16499.4
819.307	16573.52
819.636	16552.95
819.964	16503.92
820.292	16475.44
820.62	16492.17
820.948	16417.14
821.276	16456.69
821.604	16370.59
821.932	16430.02
822.259	16339.85
822.587	16333.98
822.915	16359.29
823.243	16388.21
823.57	16303.92
823.898	16393.18
824.225	16272.96
824.553	16232.96
824.88	16253.98
825.207	16213.53
825.535	16247.2
825.862	16359.74
826.189	16211.95
826.516	16343.02
826.843	16292.17
827.17	16359.06
827.497	16307.09
827.824	16299.63
828.151	16295.33
828.478	16258.05
828.805	16320.64
829.131	16212.4
829.458	16277.93
829.785	16216.24
830.111	16220.53
830.438	16300.31
830.764	16283.81
831.09	16271.83
831.417	16180.08
831.743	16293.53
832.069	16238.39
832.395	16123.36
832.722	16222.79
833.048	16166.98
833.374	16162.23
833.7	16044.04
834.026	16131.04
834.351	16148.67
834.677	16104.83
835.003	16006.75
835.329	16010.6
835.654	15992.29
835.98	15899.19
836.306	15985.51
836.631	15944.16
836.956	16002.91
837.282	15973.53
837.607	15823.26
837.932	15830.04
838.258	15784.84
838.583	15873.2
838.908	15813.31
839.233	15801.34
839.558	15732.86
839.883	15617.16
840.208	15613.77
840.533	15689.7
840.858	15693.54
841.182	15564.28
841.507	15622.81
841.832	15515.47
842.156	15470.05
842.481	15451.74
842.805	15503.49
843.13	15345.75
843.454	15418.3
843.778	15152.99
844.103	15325.64
844.427	15284.51
844.751	15226.21
845.075	15171.97
845.399	15218.53
845.723	15000.23
846.047	15107.12
846.371	15024.63
846.695	14953.67
847.019	14778.99
847.343	14767.69
847.666	14717.75
847.99	14648.37
848.313	14640.91
848.637	14551.2
848.96	14450.86
849.284	14472.78
849.607	14371.54
849.931	14358.89
850.254	14212.68
850.577	14196.86
850.9	14086.8
851.223	14068.27
851.546	14035.05
851.869	13986.24
852.192	13922.52
852.515	13838.9
852.838	13726.36
853.161	13779.92
853.483	13695.63
853.806	13606.59
854.129	13583.99
854.451	13586.48
854.774	13516.2
855.096	13538.34
855.419	13438.23
855.741	13390.78
856.063	13319.14
856.385	13251.35
856.708	13250.22
857.03	13235.3
857.352	13207.73
857.674	13200.5
857.996	13049.77
858.318	12953.73
858.64	13033.5
858.961	13052.26
859.283	12879.15
859.605	12845.48
859.926	12890.23
860.248	12782.43
860.57	12820.62
860.891	12854.52
861.212	12676.67
861.534	12634.19
861.855	12644.36
862.176	12696.78
862.498	12675.99
862.819	12666.28
863.14	12546.28
863.461	12471.48
863.782	12529.11
864.103	12507.19
864.424	12521.2
864.745	12487.98
865.065	12408.2
865.386	12352.84
865.707	12366.62
866.027	12322.78
866.348	12264.25
866.668	12319.39
866.989	12212.5
867.309	12224.93
867.63	12248.89
867.95	12216.35
868.27	12196.91
868.59	12150.13
868.91	12161.66
869.23	12091.38
869.55	12065.16
869.87	12111.26
870.19	12096.57
870.51	12048.89
870.83	12075.56
871.15	12048.89
871.469	11956.01
871.789	12107.87
872.109	11946.52
872.428	11862.68
872.748	11944.49
873.067	11923.02
873.386	11879.18
873.706	11862.23
874.025	11771.61
874.344	11712.4
874.663	11758.05
874.982	11709.47
875.301	11820.42
875.62	11723.93
875.939	11698.84
876.258	11711.73
876.577	11660.88
876.896	11689.58
877.214	11679.64
877.533	11688.9
877.852	11611.62
878.17	11563.48
878.489	11633.99
878.807	11539.53
879.125	11543.59
879.444	11557.61
879.762	11488
880.08	11458.85
880.398	11469.02
880.716	11426.31
881.034	11409.14
881.352	11415.46
881.67	11357.84
881.988	11457.27
882.306	11283.04
882.624	11279.19
882.941	11234
883.259	11163.94
883.577	11185.64
883.894	11202.81
884.212	11151.51
884.529	11217.05
884.846	11101.12
885.164	11077.39
885.481	11068.13
885.798	11031.97
886.115	11034.91
886.432	10934.12
886.75	10893.89
887.067	10926.21
887.383	10944.51
887.7	10937.96
888.017	10837.85
888.334	10824.07
888.651	10769.83
888.967	10820.45
889.284	10715.37
889.6	10688.7
889.917	10630.85
890.233	10645.54
890.55	10564.86
890.866	10644.86
891.182	10594.47
891.498	10491.42
891.815	10488.03
892.131	10453.23
892.447	10433.57
892.763	10450.06
893.079	10361.03
893.395	10279.45
893.71	10343.63
894.026	10252.33
894.342	10207.36
894.657	10238.32
894.973	10172.33
895.289	10112.67
895.604	10147.7
895.92	10030.87
896.235	10025.44
896.55	10022.28
896.865	10005.56
897.181	9941.38
897.496	9900.93
897.811	9919.91
898.126	9905.45
898.441	9779.12
898.756	9771.21
899.071	9711.78
899.386	9761.72
899.7	9636.07
900.015	9598.56
900.33	9555.62
900.644	9546.81
900.959	9567.15
901.273	9534.61
901.588	9420.49
901.902	9415.52
902.216	9415.29
902.531	9349.75
902.845	9359.02
903.159	9344.1
903.473	9268.4
903.787	9209.87
904.101	9147.95
904.415	9164
904.729	9136.88
905.042	9050.1
905.356	9071.8
905.67	9015.07
905.984	9051.91
906.297	8994.96
906.611	8959.03
906.924	8915.42
907.237	8853.27
907.551	8869.77
907.864	8799.26
908.177	8785.7
908.491	8787.96
908.804	8686.27
909.117	8639.04
909.43	8575.54
909.743	8595.65
910.056	8514.07
910.368	8559.49
910.681	8516.56
910.994	8477.23
911.307	8464.58
911.619	8345.03
911.932	8378.48
912.244	8267.52
912.557	8234.76
912.869	8164.93
913.181	8233.17
913.494	8137.36
913.806	8093.97
914.118	8101.88
914.43	8093.74
914.742	8063.69
915.054	8022.33
915.366	7954.31
915.678	7944.37
915.99	7931.49
916.302	7839.96
916.613	7812.62
916.925	7800.87
917.236	7809.91
917.548	7820.53
917.859	7737.14
918.171	7606.75
918.482	7649.46
918.794	7618.27
919.105	7632.06
919.416	7543.47
919.727	7519.29
920.038	7474.32
920.349	7446.53
920.66	7475.68
920.971	7416.25
921.282	7387.32
921.593	7247.89
921.903	7229.36
922.214	7252.63
922.525	7199.08
922.835	7204.05
923.146	7162.47
923.456	7178.51
923.767	7143.94
924.077	7075.46
924.387	7047.89
924.697	7025.97
925.008	6922.7
925.318	6938.97
925.628	6927.9
925.938	6890.84
926.248	6786.66
926.558	6823.94
926.867	6780.1
927.177	6790.73
927.487	6721.12
927.796	6657.85
928.106	6706.89
928.416	6680.67
928.725	6626.21
929.034	6571.75
929.344	6635.93
929.653	6591.63
929.962	6503.28
930.271	6478.42
930.581	6506.21
930.89	6372.21
931.199	6437.51
931.508	6375.14
931.817	6330.4
932.125	6359.78
932.434	6356.16
932.743	6276.39
933.051	6225.99
933.36	6192.55
933.669	6182.15
933.977	6155.49
934.286	6174.24
934.594	6148.48
934.902	6044.08
935.21	6086.11
935.519	6014.02
935.827	6023.06
936.135	5946.23
936.443	5896.74
936.751	5953.69
937.059	5918.88
937.367	5892.9
937.674	5960.24
937.982	5834.82
938.29	5854.48
938.597	5837.98
938.905	5692.68
939.213	5723.41
939.52	5710.08
939.827	5708.95
940.135	5704.88
940.442	5587.59
940.749	5592.34
941.056	5592.56
941.363	5554.6
941.67	5557.76
941.977	5549.4
942.284	5470.99
942.591	5445.22
942.898	5463.75
943.205	5485
943.511	5384.66
943.818	5388.73
944.125	5328.16
944.431	5333.59
944.738	5299.47
945.044	5299.01
945.35	5251.33
945.657	5245.91
945.963	5215.85
946.269	5162.97
946.575	5177.43
946.881	5141.73
947.187	5120.94
947.493	5168.4
947.799	5137.44
948.105	5067.61
948.41	5044.78
948.716	5010.89
949.022	4991.68
949.327	4950.55
949.633	4944.9
949.938	4927.5
950.244	4940.15
950.549	4873.26
950.854	4814.96
951.16	4827.61
951.465	4786.71
951.77	4806.14
952.075	4780.61
952.38	4746.03
952.685	4730.89
952.99	4669.2
953.294	4642.08
953.599	4684.34
953.904	4606.15
954.209	4626.94
954.513	4637.11
954.818	4573.16
955.122	4555.3
955.426	4537.9
955.731	4520.28
956.035	4538.58
956.339	4498.13
956.643	4473.27
956.948	4453.84
957.252	4417.45
957.556	4409.55
957.86	4333.61
958.163	4358.25
958.467	4324.35
958.771	4334.52
959.075	4272.6
959.378	4300.4
959.682	4247.97
959.985	4255.42
960.289	4234.18
960.592	4232.6
960.896	4187.86
961.199	4202.32
961.502	4165.03
961.805	4156.67
962.108	4115.09
962.411	4091.81
962.714	4094.53
963.017	4094.53
963.32	4094.53
963.623	4014.3
963.926	4029.22
964.228	4035.32
964.531	3978.37
964.833	3987.86
965.136	3969.1
965.438	3925.94
965.741	3934.3
966.043	3920.52
966.345	3847.98
966.648	3854.98
966.95	3874.19
967.252	3796.68
967.554	3793.29
967.856	3773.4
968.158	3760.75
968.46	3792.61
968.761	3735.21
969.063	3782.22
969.365	3724.14
969.666	3716.46
969.968	3675.55
970.269	3647.76
970.571	3663.12
970.872	3667.42
971.174	3626.51
971.475	3639.17
971.776	3588.55
972.077	3580.64
972.378	3548.78
972.679	3556.46
972.98	3520.3
973.281	3535.22
973.582	3513.98
973.883	3469.68
974.183	3494.09
974.484	3454.99
974.785	3424.03
975.085	3440.76
975.386	3394.66
975.686	3397.82
975.986	3382
976.287	3374.32
976.587	3309.01
976.887	3314.88
977.187	3264.26
977.487	3292.74
977.787	3288.22
978.087	3261.55
978.387	3268.56
978.687	3229.69
978.987	3243.47
979.286	3217.71
979.586	3236.47
979.885	3183.81
980.185	3186.53
980.484	3129.58
980.784	3124.61
981.083	3117.6
981.382	3122.35
981.682	3073.08
981.981	3094.55
982.28	3093.42
982.579	3022.46
982.878	3066.3
983.177	3012.29
983.475	2997.83
983.774	3018.17
984.073	2995.34
984.372	2967.32
984.67	2930.71
984.969	2955.35
985.267	2961.67
985.566	2885.97
985.864	2930.04
986.162	2912.64
986.461	2889.13
986.759	2877.83
987.057	2837.38
987.355	2852.52
987.653	2866.31
987.951	2830.83
988.249	2809.14
988.547	2784.28
988.844	2797.84
989.142	2749.93
989.44	2737.5
989.737	2754.67
990.035	2724.84
990.332	2730.72
990.63	2691.85
990.927	2705.41
991.224	2693.21
991.521	2670.61
991.819	2684.17
992.116	2647.33
992.413	2623.38
992.71	2629.48
993.006	2610.27
993.303	2587.9
993.6	2610.95
993.897	2559.65
994.193	2570.27
994.49	2566.66
994.787	2545.64
995.083	2508.8
995.379	2489.14
995.676	2490.05
995.972	2492.08
996.268	2486.21
996.565	2440.56
996.861	2451.18
997.157	2424.51
997.453	2426.32
997.749	2430.39
998.044	2393.78
998.34	2410.5
998.636	2388.58
998.932	2343.84
999.227	2377.06
999.523	2378.41
999.818	2356.04
1000.114	2295.25
1000.409	2334.12
1000.704	2264.52
1001	2284.86
1001.295	2255.93
1001.59	2270.84
1001.885	2268.81
1002.18	2231.07
1002.475	2199.89
1002.77	2215.03
1003.065	2199.21
1003.359	2197.4
1003.654	2154.46
1003.949	2154.46
1004.243	2151.53
1004.538	2126.67
1004.832	2139.32
1005.127	2106.55
1005.421	2108.81
1005.715	2092.32
1006.009	2077.18
1006.304	2057.52
1006.598	2019.55
1006.892	2057.52
1007.186	2027.01
1007.48	2021.81
1007.773	2016.84
1008.067	1984.75
1008.361	1979.1
1008.655	1956.73
1008.948	1968.93
1009.242	1935.49
1009.535	1928.03
1009.829	1947.46
1010.122	1905.66
1010.415	1922.38
1010.708	1897.75
1011.001	1870.18
1011.295	1882.83
1011.588	1868.37
1011.881	1843.96
1012.173	1825.21
1012.466	1831.53
1012.759	1812.33
1013.052	1790.86
1013.344	1798.77
1013.637	1801.03
1013.93	1762.38
1014.222	1765.55
1014.514	1735.49
1014.807	1747.69
1015.099	1736.17
1015.391	1711.31
1015.683	1737.3
1015.976	1727.36
1016.268	1704.76
1016.56	1679.22
1016.851	1666.34
1017.143	1669.28
1017.435	1644.65
1017.727	1650.52
1018.018	1628.6
1018.31	1615.95
1018.602	1611.2
1018.893	1603.52
1019.185	1601.94
1019.476	1574.82
1019.767	1573.69
1020.058	1556.29
1020.35	1553.57
1020.641	1507.25
1020.932	1520.58
1021.223	1547.47
1021.514	1498.44
1021.804	1488.72
1022.095	1460.47
1022.386	1480.13
1022.677	1488.27
1022.967	1458.44
1023.258	1455.95
1023.548	1433.13
1023.839	1455.72
1024.129	1411.66
1024.419	1414.82
1024.709	1419.12
1025	1416.63
1025.29	1404.65
1025.58	1386.8
1025.87	1366.69
1026.16	1357.42
1026.449	1366.46
1026.739	1342.51
1027.029	1327.14
1027.319	1330.76
1027.608	1318.33
1027.898	1284.43
1028.187	1298.89
1028.477	1288.5
1028.766	1288.5
1029.055	1249.4
1029.344	1271.77
1029.634	1256.86
1029.923	1238.1
1030.212	1262.51
1030.501	1221.83
1030.79	1212.57
1031.078	1194.71
1031.367	1221.83
1031.656	1189.97
1031.945	1183.64
1032.233	1176.41
1032.522	1196.75
1032.81	1165.79
1033.099	1162.85
1033.387	1172.57
1033.675	1089.41
1033.963	1130.31
1034.251	1150.65
1034.54	1120.37
1034.828	1118.78
1035.116	1134.15
1035.403	1093.25
1035.691	1103.42
1035.979	1103.42
1036.267	1060.03
1036.554	1081.05
1036.842	1047.6
1037.129	1041.72
1037.417	1036.53
1037.704	1049.18
1037.992	1049.18
1038.279	1028.62
1038.566	1027.71
1038.853	1027.71
1039.14	1027.71
