Data from hue_230_FLMS001491_00068.txt Node
Date: Tue Feb 07 16:37:35 GMT 2017
User: dcchb
Spectrometer: FLMS00149
Trigger mode: 0
Integration Time (sec): 2.000000E-2
Scans to average: 10
Electric dark correction enabled: true
Nonlinearity correction enabled: false
Boxcar width: 0
XAxis mode: Wavelengths
Number of Pixels in Spectrum: 2048
>>>>>Begin Spectral Data<<<<<
341.393	-14.01
341.776	-14.01
342.16	-14.01
342.543	-45.65
342.927	-57.63
343.31	-54.24
343.693	-97.62
344.077	-47.23
344.46	-51.52
344.843	-68.7
345.226	-21.24
345.61	-48.59
345.993	-34.35
346.376	13.56
346.759	19.43
347.142	6.55
347.525	44.74
347.908	58.53
348.291	89.49
348.674	78.87
349.057	112.31
349.44	104.86
349.823	139.66
350.206	177.17
350.588	165.87
350.971	198.19
351.354	213.55
351.737	225.3
352.119	246.1
352.502	247.45
352.884	256.49
353.267	260.11
353.65	294.68
354.032	293.33
354.414	293.55
354.797	280.9
355.179	313.21
355.562	314.57
355.944	320.22
356.326	334.45
356.709	328.13
357.091	314.57
357.473	332.87
357.855	339.65
358.238	330.84
358.62	319.99
359.002	319.77
359.384	320.9
359.766	344.85
360.148	315.02
360.53	350.05
360.912	325.64
361.294	351.4
361.676	315.25
362.057	310.5
362.439	330.84
362.821	321.12
363.203	332.19
363.584	315.7
363.966	298.75
364.348	320.67
364.729	298.98
365.111	309.37
365.493	284.74
365.874	292.42
366.256	301.46
366.637	296.72
367.019	311.4
367.4	301.69
367.781	293.1
368.163	317.51
368.544	299.2
368.925	298.3
369.306	312.76
369.688	307.34
370.069	308.92
370.45	322.25
370.831	316.38
371.212	289.03
371.593	309.82
371.974	305.98
372.355	300.56
372.736	315.92
373.117	290.39
373.498	320.9
373.879	317.28
374.26	295.13
374.641	317.28
375.021	290.61
375.402	323.83
375.783	301.46
376.163	303.49
376.544	320.9
376.925	314.12
377.305	314.57
377.686	326.77
378.066	326.55
378.447	312.31
378.827	317.51
379.208	303.04
379.588	325.19
379.968	328.13
380.349	328.8
380.729	341.23
381.109	314.57
381.489	335.36
381.87	313.89
382.25	331.52
382.63	335.36
383.01	335.58
383.39	332.42
383.77	327.67
384.15	334.68
384.53	329.93
384.91	338.52
385.29	341.91
385.67	335.36
386.049	328.8
386.429	334.45
386.809	345.08
387.189	339.43
387.568	342.82
387.948	344.85
388.328	352.08
388.707	350.95
389.087	366.54
389.466	338.75
389.846	333.1
390.225	342.59
390.605	358.86
390.984	377.17
391.363	370.84
391.743	357.73
392.122	350.5
392.501	349.6
392.881	367.45
393.26	335.13
393.639	360.89
394.018	339.65
394.397	367
394.776	362.93
395.155	379.65
395.534	361.12
395.913	354.79
396.292	361.12
396.671	364.06
397.05	390.72
397.429	369.48
397.808	386.88
398.186	375.13
398.565	374
398.944	373.78
399.323	383.27
399.701	381.91
400.08	389.59
400.458	405.19
400.837	391.18
401.215	380.1
401.594	402.93
401.972	387.11
402.351	395.47
402.729	417.16
403.107	413.1
403.486	442.93
403.864	417.84
404.242	401.12
404.62	402.02
404.999	422.59
405.377	436.15
405.755	442.93
406.133	430.72
406.511	441.12
406.889	435.47
407.267	435.47
407.645	449.03
408.023	448.8
408.401	492.42
408.779	447.9
409.156	477.73
409.534	444.96
409.912	474.79
410.29	505.98
410.667	483.83
411.045	500.33
411.422	503.49
411.8	505.07
412.178	505.75
412.555	503.94
412.933	522.92
413.31	530.16
413.687	549.59
414.065	563.6
414.442	546.2
414.819	529.93
415.197	549.14
415.574	570.83
415.951	578.97
416.328	602.02
416.705	576.48
417.082	573.54
417.46	597.27
417.837	609.93
418.214	602.92
418.591	625.52
418.967	627.1
419.344	657.16
419.721	616.93
420.098	613.09
420.475	649.7
420.852	649.7
421.228	661.23
421.605	680.43
421.982	675.91
422.358	679.53
422.735	672.98
423.111	708.68
423.488	703.48
423.864	732.64
424.241	732.18
424.617	752.3
424.994	741.68
425.37	769.47
425.746	758.4
426.123	764.95
426.499	794.33
426.875	788.68
427.251	793.43
427.627	824.61
428.003	817.38
428.379	851.28
428.756	844.72
429.132	855.57
429.507	888.56
429.883	870.71
430.259	886.98
430.635	893.54
431.011	899.86
431.387	905.74
431.763	931.73
432.138	974.21
432.514	983.25
432.89	963.36
433.265	984.15
433.641	1004.27
434.016	1020.99
434.392	1034.1
434.767	1042.46
435.143	1033.87
435.518	1074.55
435.894	1083.14
436.269	1090.14
436.644	1145.96
437.02	1133.98
437.395	1143.92
437.77	1174.21
438.145	1195
438.52	1174.66
438.895	1198.39
439.271	1221.21
439.646	1252.85
440.021	1259.63
440.395	1284.03
440.77	1265.05
441.145	1290.59
441.52	1328.1
441.895	1317.93
442.27	1328.78
442.645	1345.95
443.019	1370.36
443.394	1364.48
443.769	1392.96
444.143	1391.83
444.518	1424.6
444.892	1404.48
445.267	1435.89
445.641	1411.26
446.016	1432.73
446.39	1464.59
446.764	1482.22
447.139	1477.93
447.513	1488.55
447.887	1513.86
448.262	1497.36
448.636	1538.72
449.01	1542.78
449.384	1537.59
449.758	1555.67
450.132	1592.95
450.506	1584.59
450.88	1584.14
451.254	1634.08
451.628	1630.47
452.002	1636.79
452.376	1644.25
452.75	1653.97
453.123	1650.13
453.497	1679.96
453.871	1695.32
454.244	1727.86
454.618	1750.01
454.992	1747.98
455.365	1761.54
455.739	1830.23
456.112	1826.17
456.486	1852.38
456.859	1867.75
457.232	1898.03
457.606	1894.87
457.979	1914.07
458.352	1937.35
458.725	1937.8
459.099	1984.81
459.472	1992.94
459.845	2011.7
460.218	2027.97
460.591	2042.43
460.964	2054.86
461.337	2087.18
461.71	2138.47
462.083	2162.2
462.456	2152.49
462.829	2149.77
463.201	2165.82
463.574	2219.15
463.947	2245.82
464.32	2300.28
464.692	2299.37
465.065	2301.18
465.438	2307.51
465.81	2364.01
466.183	2390.9
466.555	2427.73
466.928	2478.8
467.3	2434.74
467.672	2472.03
468.045	2528.3
468.417	2570.33
468.789	2532.81
469.161	2568.07
469.534	2635.18
469.906	2663.88
470.278	2669.31
470.65	2722.19
471.022	2758.12
471.394	2805.58
471.766	2825.24
472.138	2841.06
472.51	2940.94
472.882	2912.01
473.253	2982.52
473.625	3004.44
473.997	3079.92
474.369	3096.42
474.74	3093.48
475.112	3165.79
475.484	3202.4
475.855	3238.11
476.227	3258.67
476.598	3377.31
476.97	3368.5
477.341	3437.88
477.713	3501.83
478.084	3510.64
478.455	3557.65
478.827	3596.74
479.198	3688.04
479.569	3709.73
479.94	3798.54
480.311	3778.43
480.682	3900.46
481.053	3970.74
481.424	4010.52
481.795	4022.04
482.166	4049.61
482.537	4134.35
482.908	4147.46
483.279	4221.13
483.65	4248.93
484.021	4343.16
484.391	4422.93
484.762	4412.77
485.133	4439.66
485.503	4515.59
485.874	4587
486.244	4642.59
486.615	4721.46
486.985	4783.38
487.356	4841.91
487.726	4850.04
488.097	4927.33
488.467	4967.33
488.837	5056.36
489.207	5131.84
489.578	5161.45
489.948	5196.02
490.318	5251.39
490.688	5320.31
491.058	5369.35
491.428	5414.09
491.798	5423.13
492.168	5497.03
492.538	5518.05
492.908	5556.01
493.278	5685.27
493.648	5652.05
494.017	5720.98
494.387	5756.91
494.757	5799.62
495.126	5875.1
495.496	5895.21
495.866	5877.36
496.235	5954.19
496.605	5937.47
496.974	6029.67
497.344	6032.38
497.713	6045.04
498.082	6082.33
498.452	6148.99
498.821	6204.13
499.19	6196.9
499.559	6217.92
499.928	6231.7
500.298	6252.04
500.667	6339.49
501.036	6304.24
501.405	6397.57
501.774	6385.37
502.143	6405.03
502.512	6450
502.88	6532.71
503.249	6485.93
503.618	6513.05
503.987	6466.04
504.356	6496.33
504.724	6580.62
505.093	6570.9
505.462	6603.89
505.83	6620.62
506.199	6624.46
506.567	6698.35
506.936	6668.98
507.304	6780.39
507.672	6756.43
508.041	6809.09
508.409	6797.79
508.777	6800.05
509.145	6808.41
509.514	6879.59
509.882	6878.92
510.25	6908.07
510.618	6951
510.986	6910.33
511.354	7024.22
511.722	6920.5
512.09	7043.43
512.458	7010.21
512.826	7005.92
513.193	7030.55
513.561	7031.91
513.929	7061.06
514.297	7139.25
514.664	7154.84
515.032	7162.07
515.4	7169.3
515.767	7201.62
516.135	7177.44
516.502	7139.25
516.869	7224.67
517.237	7226.93
517.604	7165.24
517.972	7211.56
518.339	7200.71
518.706	7244.78
519.073	7261.28
519.44	7256.08
519.808	7280.71
520.175	7231
520.542	7386.25
520.909	7393.48
521.276	7323.65
521.643	7374.95
522.009	7381.27
522.376	7375.63
522.743	7373.59
523.11	7436.19
523.477	7518.45
523.843	7453.82
524.21	7549.86
524.577	7544.66
524.943	7533.59
525.31	7544.21
525.676	7589.4
526.043	7575.17
526.409	7559.35
526.776	7636.18
527.142	7624.88
527.508	7660.82
527.874	7665.79
528.241	7688.16
528.607	7661.49
528.973	7660.82
529.339	7654.26
529.705	7691.32
530.071	7745.56
530.437	7722.96
530.803	7765.45
531.169	7763.86
531.535	7668.27
531.901	7617.88
532.267	7678.89
532.632	7628.05
532.998	7702.4
533.364	7723.19
533.73	7672.79
534.095	7713.02
534.461	7658.1
534.826	7661.27
535.192	7676.86
535.557	7721.38
535.923	7701.49
536.288	7637.54
536.653	7727.25
537.019	7608.61
537.384	7676.41
537.749	7643.41
538.114	7680.25
538.479	7600.03
538.845	7581.95
539.21	7595.28
539.575	7494.27
539.94	7586.24
540.305	7598.67
540.67	7539.46
541.034	7571.55
541.399	7551.21
541.764	7610.42
542.129	7538.33
542.494	7509.63
542.858	7504.44
543.223	7533.59
543.587	7587.37
543.952	7491.1
544.316	7490.65
544.681	7453.14
545.045	7490.88
545.41	7517.77
545.774	7434.83
546.138	7393.25
546.503	7460.82
546.867	7369.07
547.231	7413.36
547.595	7414.72
547.959	7343.08
548.324	7322.29
548.688	7309.41
549.052	7307.83
549.416	7371.78
549.779	7299.02
550.143	7283.42
550.507	7274.16
550.871	7343.08
551.235	7287.49
551.599	7308.96
551.962	7253.14
552.326	7325.68
552.689	7301.28
553.053	7272.58
553.417	7242.97
553.78	7310.09
554.143	7235.29
554.507	7290.43
554.87	7247.72
555.234	7271.22
555.597	7218.12
555.96	7196.65
556.323	7295.18
556.686	7270.09
557.05	7264.67
557.413	7171.34
557.776	7213.6
558.139	7267.38
558.502	7255.63
558.865	7215.63
559.228	7286.36
559.59	7214.95
559.953	7262.86
560.316	7347.6
560.679	7318
561.041	7348.28
561.404	7368.62
561.767	7340.82
562.129	7371.11
562.492	7369.52
562.854	7337.43
563.217	7315.51
563.579	7295.85
563.941	7428.28
564.304	7430.54
564.666	7402.97
565.028	7312.8
565.39	7440.93
565.753	7412.91
566.115	7463.08
566.477	7513.93
566.839	7464.21
567.201	7507.37
567.563	7514.15
567.925	7546.02
568.287	7569.52
568.648	7533.14
569.01	7564.77
569.372	7609.29
569.734	7616.97
570.095	7686.58
570.457	7633.92
570.819	7599.8
571.18	7661.95
571.542	7685.45
571.903	7717.09
572.265	7697.88
572.626	7654.26
572.987	7702.85
573.349	7814.71
573.71	7788.04
574.071	7834.37
574.432	7770.19
574.794	7863.75
575.155	7836.86
575.516	7785.11
575.877	7812.9
576.238	7843.41
576.599	7917.76
576.96	7860.13
577.32	7866.69
577.681	7978.1
578.042	7950.07
578.403	7968.15
578.763	7959.79
579.124	8039.56
579.485	8001.37
579.845	8056.29
580.206	7962.73
580.566	8052.44
580.927	8073.46
581.287	8067.13
581.648	8030.75
582.008	8109.39
582.368	8098.32
582.728	8174.25
583.089	8096.06
583.449	8088.6
583.809	8144.87
584.169	8186.45
584.529	8200.46
584.889	8278.2
585.249	8181.03
585.609	8174.7
585.969	8241.37
586.329	8249.73
586.688	8229.39
587.048	8202.04
587.408	8210.41
587.768	8243.4
588.127	8217.86
588.487	8188.03
588.846	8340.35
589.206	8246.79
589.565	8261.25
589.925	8317.07
590.284	8264.42
590.643	8335.6
591.003	8384.86
591.362	8339.67
591.721	8343.06
592.08	8338.99
592.44	8420.57
592.799	8421.7
593.158	8422.6
593.517	8453.79
593.876	8461.7
594.235	8414.47
594.593	8454.24
594.952	8429.38
595.311	8361.14
595.67	8408.14
596.029	8478.2
596.387	8551.64
596.746	8523.17
597.104	8493.56
597.463	8492.66
597.822	8499.66
598.18	8527.46
598.538	8472.09
598.897	8513.45
599.255	8498.31
599.613	8570.17
599.972	8522.26
600.33	8595.71
600.688	8475.48
601.046	8569.49
601.404	8646.55
601.762	8499.21
602.12	8620.11
602.478	8627.34
602.836	8625.76
603.194	8575.37
603.552	8571.3
603.91	8551.41
604.268	8654.24
604.625	8596.38
604.983	8613.33
605.341	8552.54
605.698	8667.57
606.056	8694.23
606.413	8664.63
606.771	8618.98
607.128	8660.56
607.485	8682.48
607.843	8652.88
608.2	8685.42
608.557	8739.21
608.914	8666.89
609.272	8683.16
609.629	8724.74
609.986	8698.3
610.343	8730.17
610.7	8733.1
611.057	8766.1
611.414	8735.82
611.771	8753.22
612.127	8798.86
612.484	8730.17
612.841	8767.91
613.198	8761.58
613.554	8733.78
613.911	8813.55
614.267	8805.42
614.624	8789.37
614.98	8819.2
615.337	8804.74
615.693	8818.07
616.05	8771.52
616.406	8881.57
616.762	8829.82
617.118	8819.88
617.475	8870.95
617.831	8830.95
618.187	8920.22
618.543	8884.29
618.899	8922.93
619.255	8916.83
619.611	8868.47
619.967	8914.12
620.323	8932.65
620.678	8910.95
621.034	8865.3
621.39	8972.65
621.746	8893.1
622.101	8986.66
622.457	8921.57
622.812	8922.7
623.168	8948.01
623.523	8983.72
623.879	8939.88
624.234	8873.21
624.589	8964.06
624.945	8954.11
625.3	8937.17
625.655	8967.9
626.01	8977.17
626.365	8929.48
626.72	8921.8
627.075	8911.4
627.43	8979.42
627.785	8928.13
628.14	8920.67
628.495	8980.33
628.85	8880.9
629.205	8871.63
629.559	8919.99
629.914	8903.27
630.269	8918.41
630.623	8892.87
630.978	8802.48
631.332	8910.95
631.687	8829.82
632.041	8846.32
632.396	8838.19
632.75	8830.5
633.104	8807
633.459	8711.18
633.813	8775.59
634.167	8782.82
634.521	8691.52
634.875	8691.3
635.229	8723.84
635.583	8778.3
635.937	8640.22
636.291	8717.28
636.645	8726.1
636.999	8707.57
637.352	8704.4
637.706	8651.98
638.06	8695.36
638.413	8658.98
638.767	8677.06
639.121	8645.2
639.474	8572.88
639.828	8574.01
640.181	8650.85
640.534	8591.86
640.888	8635.03
641.241	8584.41
641.594	8553
641.947	8556.61
642.301	8542.15
642.654	8573.33
643.007	8569.72
643.36	8586.67
643.713	8578.53
644.066	8605.42
644.419	8430.96
644.771	8420.34
645.124	8397.07
645.477	8415.37
645.83	8332.66
646.182	8327.46
646.535	8301.25
646.888	8291.53
647.24	8236.17
647.593	8267.13
647.945	8281.36
648.298	8242.27
648.65	8159.11
649.002	8139.22
649.355	8226.9
649.707	8223.96
650.059	8288.6
650.411	8344.87
650.763	8337.63
651.115	8435.94
651.467	8396.62
651.819	8415.82
652.171	8371.31
652.523	8404.98
652.875	8418.99
653.227	8371.76
653.578	8423.96
653.93	8414.47
654.282	8378.08
654.633	8336.28
654.985	8384.19
655.337	8406.56
655.688	8426.45
656.039	8402.94
656.391	8360.23
656.742	8317.07
657.094	8377.86
657.445	8427.35
657.796	8338.76
658.147	8378.31
658.498	8411.98
658.849	8388.25
659.2	8357.75
659.551	8352.55
659.902	8353.45
660.253	8360.01
660.604	8428.48
660.955	8327.69
661.306	8370.18
661.656	8315.49
662.007	8377.41
662.358	8400.91
662.708	8372.89
663.059	8426.22
663.409	8360.46
663.76	8430.51
664.11	8376.73
664.461	8410.4
664.811	8388.93
665.161	8404.75
665.511	8402.26
665.862	8388.25
666.212	8427.12
666.562	8427.8
666.912	8394.36
667.262	8432.77
667.612	8393.23
667.962	8432.09
668.312	8338.99
668.662	8381.93
669.011	8340.57
669.361	8387.35
669.711	8363.85
670.06	8377.41
670.41	8368.82
670.76	8315.94
671.109	8340.12
671.459	8381.7
671.808	8318.43
672.157	8383.06
672.507	8308.26
672.856	8326.33
673.205	8315.04
673.554	8317.52
673.904	8258.31
674.253	8334.24
674.602	8307.13
674.951	8188.71
675.3	8147.13
675.649	8286.79
675.998	8303.96
676.346	8200.69
676.695	8319.33
677.044	8170.86
677.393	8248.14
677.741	8270.52
678.09	8223.74
678.438	8227.35
678.787	8204.08
679.135	8229.84
679.484	8135.38
679.832	8150.52
680.181	8070.75
680.529	8110.52
680.877	8071.2
681.225	8077.98
681.573	8144.87
681.922	8060.35
682.27	8029.39
682.618	8076.85
682.966	8085.44
683.314	8057.87
683.661	8007.7
684.009	7899.45
684.357	7879.34
684.705	7962.73
685.053	7962.5
685.4	7914.14
685.748	7857.19
686.095	7824.65
686.443	7845.9
686.79	7816.29
687.138	7844.77
687.485	7820.36
687.832	7831.88
688.18	7813.81
688.527	7756.18
688.874	7702.17
689.221	7738.33
689.568	7658.78
689.915	7605.22
690.262	7686.58
690.609	7696.07
690.956	7603.64
691.303	7611.33
691.65	7526.13
691.997	7579.24
692.344	7493.14
692.69	7544.21
693.037	7478
693.383	7469.18
693.73	7433.7
694.077	7406.58
694.423	7402.29
694.769	7380.6
695.116	7407.26
695.462	7292.92
695.808	7290.2
696.155	7350.99
696.501	7308.51
696.847	7311.67
697.193	7225.12
697.539	7247.27
697.885	7156.87
698.231	7089.53
698.577	7142.41
698.923	7064.67
699.269	7043.2
699.614	7041.4
699.96	6969.31
700.306	7010.21
700.651	7005.24
700.997	6974.05
701.342	6953.94
701.688	6881.85
702.033	6835.3
702.379	6864.9
702.724	6836.43
703.069	6861.51
703.415	6698.35
703.76	6716.66
704.105	6777.22
704.45	6731.12
704.795	6708.98
705.14	6670.11
705.485	6665.14
705.83	6613.39
706.175	6651.8
706.52	6627.85
706.865	6657
707.209	6592.82
707.554	6571.8
707.899	6583.1
708.243	6561.41
708.588	6533.16
708.932	6475.76
709.277	6465.14
709.621	6513.05
709.966	6428.98
710.31	6457.68
710.654	6406.84
710.998	6372.71
711.342	6402.77
711.687	6385.37
712.031	6364.13
712.375	6348.08
712.719	6304.69
713.063	6334.07
713.407	6288.65
713.75	6283.22
714.094	6266.05
714.438	6320.74
714.782	6275.54
715.125	6297.91
715.469	6263.34
715.812	6224.92
716.156	6178.37
716.499	6211.36
716.843	6206.16
717.186	6191.02
717.53	6241.64
717.873	6212.72
718.216	6123.91
718.559	6149.44
718.902	6136.34
719.246	6166.17
719.589	6063.8
719.932	6085.04
720.275	6131.36
720.617	6095.21
720.96	6098.82
721.303	6090.24
721.646	6047.75
721.989	6030.8
722.331	6052.04
722.674	6069.9
723.016	6100.86
723.359	6066.96
723.701	6051.82
724.044	5949.9
724.386	6018.37
724.729	6004.59
725.071	6041.65
725.413	5988.54
725.755	5967.75
726.097	5936.79
726.439	5972.95
726.782	5908.09
727.124	6004.81
727.465	5928.88
727.807	5939.5
728.149	5928.88
728.491	5899.51
728.833	5909.68
729.175	5963.01
729.516	5907.19
729.858	5941.09
730.199	5906.51
730.541	5931.37
730.882	5923.69
731.224	5916
731.565	5909.68
731.906	5880.98
732.248	5934.31
732.589	5925.04
732.93	5914.19
733.271	5887.75
733.612	5857.7
733.953	5873.29
734.294	5887.53
734.635	5904.93
734.976	5906.29
735.317	5903.12
735.658	5873.97
735.999	5817.47
736.339	5876.23
736.68	5914.42
737.021	5865.83
737.361	5885.49
737.702	5889.79
738.042	5894.53
738.383	5884.14
738.723	5925.95
739.063	5883.46
739.404	5935.21
739.744	5935.66
740.084	5970.24
740.424	5941.99
740.764	5955.78
741.104	6005.94
741.444	5950.13
741.784	5964.14
742.124	5962.33
742.464	5932.27
742.804	6013.85
743.143	5954.19
743.483	5949.67
743.823	6041.42
744.162	6023.34
744.502	6115.32
744.841	6067.19
745.181	6106.96
745.52	6104.7
745.86	6182.66
746.199	6132.04
746.538	6154.41
746.877	6213.4
747.216	6250.68
747.556	6257.24
747.895	6222.89
748.234	6249.78
748.573	6396.44
748.911	6386.05
749.25	6406.61
749.589	6518.7
749.928	6518.25
750.267	6578.58
750.605	6572.26
750.944	6696.32
751.283	6739.94
751.621	6771.12
751.96	6814.28
752.298	6862.42
752.636	6934.73
752.975	6932.7
753.313	7011.34
753.651	7134.73
753.989	7203.2
754.327	7275.06
754.666	7297.44
755.004	7427.15
755.342	7568.84
755.679	7605.9
756.017	7643.41
756.355	7848.16
756.693	7892.9
757.031	8016.96
757.368	8070.3
757.706	8128.6
758.044	8266.45
758.381	8343.06
758.719	8521.13
759.056	8565.42
759.394	8699.21
759.731	8738.98
760.068	8869.6
760.405	8969.03
760.743	9094.9
761.08	9235.46
761.417	9340.32
761.754	9521.11
762.091	9590.03
762.428	9667.09
762.765	9792.96
763.102	9978.95
763.438	10042.67
763.775	10103.01
764.112	10298.26
764.449	10351.82
764.785	10519.95
765.122	10580.06
765.458	10614.18
765.795	10753.62
766.131	10941.63
766.467	11002.2
766.804	11106.37
767.14	11142.98
767.476	11210.33
767.812	11304.34
768.148	11478.12
768.485	11497.1
768.821	11597.44
769.157	11679.47
769.492	11788.16
769.828	11933.92
770.164	11907.94
770.5	11978.44
770.836	12052.79
771.171	12163.52
771.507	12166.01
771.842	12212.79
772.178	12321.03
772.513	12396.51
772.849	12428.15
773.184	12449.62
773.519	12552.66
773.855	12545.66
774.19	12577.3
774.525	12622.04
774.86	12713.79
775.195	12717.63
775.53	12770.74
775.865	12817.29
776.2	12777.97
776.535	12808.25
776.87	12867.23
777.205	12845.31
777.539	12905.42
777.874	13005.08
778.209	12879.44
778.543	12933.45
778.878	12866.33
779.212	12925.99
779.547	12959.21
779.881	13052.09
780.215	13018.87
780.55	12998.53
780.884	12923.05
781.218	12996.49
781.552	13105.64
781.886	12950.17
782.22	13043.95
782.554	13000.79
782.888	12869.49
783.222	12940.45
783.556	12991.3
783.889	12925.54
784.223	12864.75
784.557	12885.76
784.89	12987.46
785.224	12884.86
785.557	12799.21
785.891	12770.06
786.224	12876.72
786.558	12866.33
786.891	12745.65
787.224	12799.44
787.557	12836.27
787.891	12762.83
788.224	12808.7
788.557	12758.99
788.89	12799.44
789.223	12733.9
789.556	12672.44
789.888	12692.77
790.221	12667.24
790.554	12542.27
790.887	12581.59
791.219	12563.96
791.552	12530.29
791.884	12487.81
792.217	12536.39
792.549	12484.64
792.882	12375.27
793.214	12481.25
793.546	12399.9
793.879	12369.84
794.211	12338.43
794.543	12309.05
794.875	12283.07
795.207	12359.22
795.539	12255.95
795.871	12305.89
796.203	12241.71
796.535	12205.33
796.867	12108.61
797.198	12147.7
797.53	12086.91
797.862	12048.27
798.193	12062.28
798.525	11978.89
798.856	11986.58
799.188	11943.19
799.519	11872.91
799.85	11866.58
800.182	11817.77
800.513	11900.48
800.844	11783.19
801.175	11806.92
801.506	11846.24
801.837	11727.83
802.168	11682.63
802.499	11715.62
802.83	11607.38
803.161	11554.5
803.491	11604.44
803.822	11674.95
804.153	11532.8
804.483	11439.93
804.814	11464.78
805.145	11422.52
805.475	11450.77
805.805	11378.91
806.136	11341.62
806.466	11406.25
806.796	11417.1
807.126	11273.83
807.457	11313.6
807.787	11230.67
808.117	11315.41
808.447	11188.18
808.777	11196.77
809.107	11238.12
809.436	11154.28
809.766	11153.83
810.096	11109.31
810.426	11054.62
810.755	11053.04
811.085	10984.12
811.414	11030.44
811.744	10971.24
812.073	10912.48
812.403	10927.4
812.732	10881.3
813.061	10888.53
813.39	10828.87
813.719	10815.53
814.049	10865.25
814.378	10891.24
814.707	10782.77
815.036	10829.55
815.365	10696.89
815.693	10627.97
816.022	10672.04
816.351	10655.77
816.68	10584.81
817.008	10635.88
817.337	10528.76
817.665	10524.47
817.994	10544.58
818.322	10528.76
818.651	10520.85
818.979	10482.66
819.307	10574.64
819.636	10455.09
819.964	10483.11
820.292	10439.27
820.62	10446.5
820.948	10432.72
821.276	10478.82
821.604	10398.6
821.932	10385.72
822.259	10418.94
822.587	10400.4
822.915	10366.28
823.243	10391.14
823.57	10339.84
823.898	10392.04
824.225	10364.25
824.553	10417.58
824.88	10314.31
825.207	10410.35
825.535	10370.57
825.862	10396.79
826.189	10318.6
826.516	10461.19
826.843	10451.25
827.17	10350.69
827.497	10448.09
827.824	10444.7
828.151	10423.23
828.478	10390.69
828.805	10423.91
829.131	10394.08
829.458	10386.17
829.785	10337.13
830.111	10342.55
830.438	10428.2
830.764	10462.32
831.09	10432.04
831.417	10372.16
831.743	10365.6
832.069	10383.68
832.395	10239.96
832.722	10349.78
833.048	10275.44
833.374	10400.86
833.7	10358.6
834.026	10339.16
834.351	10379.61
834.677	10354.76
835.003	10372.16
835.329	10304.81
835.654	10244.48
835.98	10285.15
836.306	10315.66
836.631	10236.79
836.956	10254.42
837.282	10235.44
837.607	10248.54
837.932	10167.64
838.258	10204.25
838.583	10155.89
838.908	10123.35
839.233	10138.72
839.558	10147.08
839.883	10119.73
840.208	10151.15
840.533	10081.77
840.858	10046.29
841.182	10022.56
841.507	10059.17
841.832	10009.23
842.156	9952.51
842.481	9973.07
842.805	9939.4
843.13	9942.34
843.454	9904.15
843.778	9817.37
844.103	9854.88
844.427	9848.33
844.751	9863.92
845.075	9805.62
845.399	9723.36
845.723	9644.27
846.047	9787.99
846.371	9666.41
846.695	9651.27
847.019	9650.59
847.343	9537.38
847.666	9489.02
847.99	9443.37
848.313	9427.55
848.637	9358.62
848.96	9422.35
849.284	9326.53
849.607	9226.42
849.931	9221.9
850.254	9184.39
850.577	9201.57
850.9	9066.65
851.223	9117.95
851.546	9103.04
851.869	8956.37
852.192	9054.45
852.515	8930.84
852.838	8958.63
853.161	8980.33
853.483	8916.15
853.806	8890.61
854.129	8850.61
854.451	8848.13
854.774	8739.43
855.096	8776.27
855.419	8701.92
855.741	8699.43
856.063	8632.09
856.385	8629.83
856.708	8540.34
857.03	8552.54
857.352	8590.96
857.674	8599.77
857.996	8529.49
858.318	8448.37
858.64	8528.36
858.961	8443.39
859.283	8362.27
859.605	8349.84
859.926	8405.88
860.248	8352.1
860.57	8330.18
860.891	8317.07
861.212	8320.01
861.534	8203.17
861.855	8246.11
862.176	8275.94
862.498	8257.41
862.819	8215.83
863.14	8206.56
863.461	8198.65
863.782	8160.01
864.103	8149.16
864.424	8125.21
864.745	8099.67
865.065	8112.1
865.386	8105.55
865.707	8043.86
866.027	8069.39
866.348	8047.25
866.668	8030.75
866.989	8033.91
867.309	7910.75
867.63	8056.74
867.95	8010.18
868.27	7972.9
868.59	7939
868.91	7948.94
869.23	7941.94
869.55	7893.35
869.87	7881.15
870.19	7902.17
870.51	7914.59
870.83	7902.17
871.15	7840.02
871.469	7923.41
871.789	7854.26
872.109	7873.92
872.428	7819.91
872.748	7773.81
873.067	7773.81
873.386	7837.31
873.706	7785.78
874.025	7739.46
874.344	7764.54
874.663	7729.97
874.982	7743.53
875.301	7706.46
875.62	7749.85
875.939	7674.83
876.258	7683.41
876.577	7644.77
876.896	7699.91
877.214	7574.26
877.533	7664.21
877.852	7618.33
878.17	7608.84
878.489	7564.09
878.807	7650.65
879.125	7581.5
879.444	7571.1
879.762	7520.03
880.08	7514.38
880.398	7537.88
880.716	7541.04
881.034	7438.22
881.352	7519.12
881.67	7452.91
881.988	7449.52
882.306	7439.8
882.624	7446.36
882.941	7438.22
883.259	7333.82
883.577	7295.18
883.894	7325.91
884.212	7348.51
884.529	7294.05
884.846	7302.41
885.164	7310.54
885.481	7264.44
885.798	7239.58
886.115	7200.26
886.432	7168.63
886.75	7212.24
887.067	7174.95
887.383	7106.71
887.7	7204.78
888.017	7086.37
888.334	7155.97
888.651	7091.11
888.967	7093.37
889.284	7039.36
889.6	7024.9
889.917	7024.67
890.233	6981.06
890.55	6941.29
890.866	6976.09
891.182	6892.47
891.498	6882.08
891.815	6846.15
892.131	6860.16
892.447	6844.11
892.763	6818.13
893.079	6856.54
893.395	6806.83
893.71	6763.66
894.026	6733.61
894.342	6724.57
894.657	6709.43
894.973	6659.94
895.289	6700.61
895.604	6652.93
895.92	6626.27
896.235	6599.37
896.55	6595.53
896.865	6562.31
897.181	6511.24
897.496	6491.35
897.811	6432.37
898.126	6445.25
898.441	6476.89
898.756	6425.14
899.071	6364.13
899.386	6354.41
899.7	6320.06
900.015	6316.9
900.33	6272.38
900.644	6286.39
900.959	6300.17
901.273	6268.99
901.588	6254.98
901.902	6206.62
902.216	6191.7
902.531	6120.74
902.845	6186.05
903.159	6080.07
903.473	6123
903.787	6052.72
904.101	6030.35
904.415	6019.73
904.729	6011.59
905.042	5965.27
905.356	5917.36
905.67	5960.75
905.984	5940.63
906.297	5920.07
906.611	5871.48
906.924	5914.87
907.237	5824.48
907.551	5833.97
907.864	5784.48
908.177	5793.29
908.491	5754.42
908.804	5719.85
909.117	5725.27
909.43	5629
909.743	5670.36
910.056	5635.33
910.368	5621.77
910.681	5599.63
910.994	5577.48
911.307	5549.68
911.619	5506.97
911.932	5473.08
912.244	5432.63
912.557	5430.82
912.869	5433.98
913.181	5382.23
913.494	5402.34
913.806	5405.28
914.118	5331.39
914.43	5296.36
914.742	5320.09
915.054	5277.83
915.366	5252.52
915.678	5274.21
915.99	5236.47
916.302	5206.64
916.613	5148.79
916.925	5178.85
917.236	5171.16
917.548	5159.64
917.859	5107.44
918.171	5044.84
918.482	5054.1
918.794	5031.05
919.105	5036.03
919.416	4970.72
919.727	5001.9
920.038	4974.33
920.349	4952.86
920.66	4919.64
920.971	4900.21
921.282	4908.35
921.593	4890.27
921.903	4805.3
922.214	4810.49
922.525	4795.81
922.835	4809.37
923.146	4729.37
923.456	4761.46
923.767	4770.04
924.077	4721.68
924.387	4723.27
924.697	4659.99
925.008	4645.3
925.318	4643.49
925.628	4596.26
925.938	4577.96
926.248	4522.82
926.558	4572.99
926.867	4554.46
927.177	4506.55
927.487	4533.89
927.796	4455.7
928.106	4455.02
928.416	4432.65
928.725	4446.66
929.034	4395.36
929.344	4411.86
929.653	4374.35
929.962	4387.23
930.271	4343.61
930.581	4352.2
930.89	4274.01
931.199	4285.54
931.508	4262.03
931.817	4268.59
932.125	4251.19
932.434	4237.4
932.743	4226.1
933.051	4154.69
933.36	4229.49
933.669	4127.12
933.977	4146.56
934.286	4079.89
934.594	4098.88
934.902	4111.3
935.21	4073.34
935.519	4074.7
935.827	4071.08
936.135	4022.72
936.443	4038.99
936.751	4022.72
937.059	3994.7
937.367	3989.73
937.674	3935.72
937.982	3928.03
938.29	3912.21
938.597	3905.21
938.905	3840.58
939.213	3863.85
939.52	3863.18
939.827	3846.23
940.135	3847.58
940.442	3775.49
940.749	3803.52
941.056	3832.89
941.363	3733.24
941.67	3766.45
941.977	3708.38
942.284	3735.95
942.591	3736.17
942.898	3687.81
943.205	3681.49
943.511	3705.89
943.818	3657.08
944.125	3629.96
944.431	3587.7
944.738	3628.38
945.044	3576.4
945.35	3553.8
945.657	3542.51
945.963	3527.36
946.269	3505.67
946.575	3515.39
946.881	3472.68
947.187	3478.55
947.493	3448.04
947.799	3435.39
948.105	3436.75
948.41	3382.28
948.716	3384.77
949.022	3400.36
949.327	3356.52
949.633	3368.5
949.938	3332.34
950.244	3312.68
950.549	3352.45
950.854	3315.39
951.16	3326.01
951.465	3290.76
951.77	3287.6
952.075	3271.1
952.38	3261.61
952.685	3273.13
952.99	3189.07
953.294	3132.8
953.599	3159.46
953.904	3178
954.209	3133.25
954.513	3161.95
954.818	3167.37
955.122	3132.57
955.426	3114.27
955.731	3083.76
956.035	3098.9
956.339	3077.66
956.643	3104.55
956.948	3061.84
957.252	3037.66
957.556	2990.2
957.86	3014.61
958.163	2997.44
958.467	2958.57
958.771	2965.35
959.075	2982.07
959.378	2961.5
959.682	2938.23
959.985	2912.69
960.289	2915.63
960.592	2906.59
960.896	2878.79
961.199	2906.14
961.502	2874.95
961.805	2844.67
962.108	2844.67
962.411	2799.7
962.714	2814.84
963.017	2813.71
963.32	2800.6
963.623	2784.33
963.926	2764.22
964.228	2749.98
964.531	2741.17
964.833	2735.52
965.136	2721.06
965.438	2719.7
965.741	2697.1
966.043	2679.25
966.345	2623.43
966.648	2656.65
966.95	2677.44
967.252	2634.73
967.554	2668.63
967.856	2616.65
968.158	2602.64
968.46	2604.68
968.761	2586.82
969.063	2594.28
969.365	2574.62
969.666	2566.26
969.968	2543.44
970.269	2545.92
970.571	2490.78
970.872	2532.14
971.174	2520.16
971.475	2485.36
971.776	2508.18
972.077	2462.31
972.378	2499.14
972.679	2452.36
972.98	2439.94
973.281	2402.2
973.582	2406.04
973.883	2402.87
974.183	2419.37
974.484	2400.84
974.785	2358.58
975.085	2377.34
975.386	2374.4
975.686	2377.79
975.986	2341.63
976.287	2375.98
976.587	2329.43
976.887	2325.36
977.187	2294.85
977.487	2285.36
977.787	2305.7
978.087	2288.08
978.387	2237
978.687	2247.85
978.987	2245.36
979.286	2228.19
979.586	2186.61
979.885	2225.03
980.185	2190.22
980.484	2194.07
980.784	2182.77
981.083	2196.1
981.382	2165.14
981.682	2172.82
981.981	2140.96
982.28	2130.57
982.579	2144.35
982.878	2149.1
983.177	2116.33
983.475	2128.08
983.774	2089.44
984.073	2094.41
984.372	2113.39
984.67	2061.64
984.969	2077.91
985.267	2047.63
985.566	2057.35
985.864	2050.12
986.162	2051.47
986.461	2015.54
986.759	2011.92
987.057	1996.78
987.355	1991.81
987.653	1956.33
987.951	2006.5
988.249	1974.41
988.547	1968.99
988.844	1933.51
989.142	1955.43
989.44	1939.61
989.737	1936.22
990.035	1888.99
990.332	1900.29
990.63	1903.23
990.927	1909.1
991.224	1909.55
991.521	1862.1
991.819	1858.03
992.116	1872.49
992.413	1867.07
992.71	1856.67
993.006	1829.56
993.303	1831.82
993.6	1827.97
993.897	1839.95
994.193	1834.75
994.49	1840.4
994.787	1785.26
995.083	1792.27
995.379	1804.25
995.676	1743.91
995.972	1775.09
996.268	1750.24
996.565	1747.07
996.861	1743.01
997.157	1746.17
997.453	1707.53
997.749	1721.08
998.044	1702.78
998.34	1691.48
998.636	1704.59
998.932	1664.81
999.227	1662.1
999.523	1678.37
999.818	1663.01
1000.114	1657.81
1000.409	1628.66
1000.704	1623.46
1001	1629.34
1001.295	1622.78
1001.59	1594.31
1001.885	1599.28
1002.18	1605.38
1002.475	1587.98
1002.77	1586.4
1003.065	1567.19
1003.359	1569.45
1003.654	1570.35
1003.949	1558.38
1004.243	1521.32
1004.538	1543.69
1004.832	1493.75
1005.127	1510.47
1005.421	1505.72
1005.715	1480.41
1006.009	1480.41
1006.304	1502.11
1006.598	1467.08
1006.892	1437.48
1007.186	1470.7
1007.48	1429.34
1007.773	1459.62
1008.067	1416.01
1008.361	1457.59
1008.655	1423.69
1008.948	1413.07
1009.242	1436.8
1009.535	1372.62
1009.829	1367.42
1010.122	1369.46
1010.415	1374.88
1010.708	1373.98
1011.001	1345.28
1011.295	1364.71
1011.588	1341.21
1011.881	1316.8
1012.173	1323.36
1012.466	1339.63
1012.759	1323.13
1013.052	1323.36
1013.344	1316.8
1013.637	1294.43
1013.93	1272.28
1014.222	1267.54
1014.514	1243.58
1014.807	1290.36
1015.099	1269.57
1015.391	1261.89
1015.683	1256.24
1015.976	1226.41
1016.268	1227.31
1016.56	1226.86
1016.851	1203.81
1017.143	1180.08
1017.435	1209.91
1017.727	1198.61
1018.018	1198.61
1018.31	1186.18
1018.602	1188.22
1018.893	1155.22
1019.185	1164.04
1019.476	1150.03
1019.767	1161.1
1020.058	1134.89
1020.35	1131.04
1020.641	1114.77
1020.932	1101.44
1021.223	1103.93
1021.514	1118.16
1021.804	1122.68
1022.095	1088.33
1022.386	1060.31
1022.677	1075.23
1022.967	1084.04
1023.258	1054.21
1023.548	1079.75
1023.839	1049.01
1024.129	1034.1
1024.419	1036.13
1024.709	1032.29
1025	1014.44
1025.29	1013.53
1025.58	1018.5
1025.87	976.25
1026.16	995.45
1026.449	991.61
1026.739	1017.6
1027.029	988.45
1027.319	970.6
1027.608	977.83
1027.898	975.79
1028.187	979.18
1028.477	955
1028.766	958.39
1029.055	938.05
1029.344	952.29
1029.634	950.03
1029.923	916.81
1030.212	925.63
1030.501	937.83
1030.79	899.86
1031.078	896.47
1031.367	898.06
1031.656	896.47
1031.945	908
1032.233	918.85
1032.522	875.23
1032.81	878.62
1033.099	866.42
1033.387	856.93
1033.675	875.91
1033.963	846.76
1034.251	843.59
1034.54	836.81
1034.828	842.92
1035.116	835.68
1035.403	821.45
1035.691	814.22
1035.979	795.01
1036.267	809.7
1036.554	819.19
1036.842	817.38
1037.129	800.88
1037.417	802.69
1037.704	801.11
1037.992	786.87
1038.279	790.94
1038.566	775.35
1038.853	775.35
1039.14	775.35
