Data from hue_180_FLMS001491_00054.txt Node
Date: Tue Feb 07 16:47:10 GMT 2017
User: dcchb
Spectrometer: FLMS00149
Trigger mode: 0
Integration Time (sec): 2.000000E-2
Scans to average: 10
Electric dark correction enabled: true
Nonlinearity correction enabled: false
Boxcar width: 0
XAxis mode: Wavelengths
Number of Pixels in Spectrum: 2048
>>>>>Begin Spectral Data<<<<<
341.393	-4.84
341.776	-4.84
342.16	-4.84
342.543	-74.9
342.927	-51.17
343.31	-59.53
343.693	-69.25
344.077	-62.92
344.46	-54.79
344.843	-52.53
345.226	-32.87
345.61	-31.96
345.993	-19.08
346.376	-16.6
346.759	-0.78
347.142	33.35
347.525	39.22
347.908	50.3
348.291	64.08
348.674	97.98
349.057	115.38
349.44	125.77
349.823	131.2
350.206	158.09
350.588	207.35
350.971	209.84
351.354	216.84
351.737	244.19
352.119	240.8
352.502	261.36
352.884	281.93
353.267	274.02
353.65	290.97
354.032	308.14
354.414	283.96
354.797	317.86
355.179	296.16
355.562	340.46
355.944	321.7
356.326	310.63
356.709	326.45
357.091	316.95
357.473	343.62
357.855	334.36
358.238	307.24
358.62	344.75
359.002	339.78
359.384	347.69
359.766	325.54
360.148	330.29
360.53	338.88
360.912	328.03
361.294	346.56
361.676	330.74
362.057	336.62
362.439	309.72
362.821	312.44
363.203	331.64
363.584	313.57
363.966	316.05
364.348	314.02
364.729	309.72
365.111	308.82
365.493	333.45
365.874	327.8
366.256	319.89
366.637	291.87
367.019	317.18
367.4	316.5
367.781	306.33
368.163	297.75
368.544	311.08
368.925	308.14
369.306	294.13
369.688	287.58
370.069	312.89
370.45	320.12
370.831	297.75
371.212	288.71
371.593	289.84
371.974	319.44
372.355	301.14
372.736	316.5
373.117	328.93
373.498	299.78
373.879	311.98
374.26	307.01
374.641	307.69
375.021	301.14
375.402	313.11
375.783	315.37
376.163	324.64
376.544	330.51
376.925	331.87
377.305	334.58
377.686	326.45
378.066	318.31
378.447	334.36
378.827	319.44
379.208	340.23
379.588	296.39
379.968	314.24
380.349	329.16
380.729	330.29
381.109	333.23
381.489	320.57
381.87	328.71
382.25	328.71
382.63	318.08
383.01	343.85
383.39	346.33
383.77	303.17
384.15	333.23
384.53	334.58
384.91	332.55
385.29	321.7
385.67	355.82
386.049	336.84
386.429	355.37
386.809	343.39
387.189	348.82
387.568	343.39
387.948	340.01
388.328	345.2
388.707	356.05
389.087	368.03
389.466	345.88
389.846	351.3
390.225	359.21
390.605	358.54
390.984	342.94
391.363	375.48
391.743	374.81
392.122	368.48
392.501	368.25
392.881	373.45
393.26	370.74
393.639	361.02
394.018	361.7
394.397	396.27
394.776	388.14
395.155	384.98
395.534	352.43
395.913	383.62
396.292	392.21
396.671	376.16
397.05	388.82
397.429	386.56
397.808	377.29
398.186	398.08
398.565	392.21
398.944	388.82
399.323	398.53
399.701	393.79
400.08	400.12
400.458	399.89
400.837	406.44
401.215	397.4
401.594	401.47
401.972	415.94
402.351	412.77
402.729	436.95
403.107	421.36
403.486	405.31
403.864	430.4
404.242	420
404.62	441.25
404.999	418.42
405.377	455.48
405.755	453.67
406.133	428.36
406.511	442.83
406.889	436.05
407.267	451.41
407.645	460.68
408.023	453.22
408.401	460.23
408.779	460.23
409.156	499.55
409.534	475.14
409.912	474.46
410.29	504.52
410.667	507.23
411.045	506.1
411.422	494.13
411.8	544.07
412.178	524.63
412.555	515.37
412.933	538.64
413.31	563.95
413.687	547.68
414.065	554.91
414.442	583.61
414.819	561.92
415.197	565.99
415.574	582.71
415.951	603.73
416.328	596.27
416.705	609.6
417.082	612.09
417.46	620
417.837	627.46
418.214	645.76
418.591	634.23
418.967	634.69
419.344	668.58
419.721	660.45
420.098	643.5
420.475	670.84
420.852	685.31
421.228	713.78
421.605	719.66
421.982	734.35
422.358	716.04
422.735	735.25
423.111	726.66
423.488	765.08
423.864	759.88
424.241	775.02
424.617	776.6
424.994	783.61
425.37	803.95
425.746	800.33
426.123	813.44
426.499	823.83
426.875	832.87
427.251	873.32
427.627	852.31
428.003	893.66
428.379	900.67
428.756	874.68
429.132	880.56
429.507	901.12
429.883	914
430.259	952.64
430.635	965.07
431.011	954.9
431.387	964.17
431.763	1025.86
432.138	997.84
432.514	985.41
432.89	995.13
433.265	1015.92
433.641	1063.15
434.016	1085.97
434.392	1093.43
434.767	1121
435.143	1121.45
435.518	1148.8
435.894	1169.36
436.269	1172.75
436.644	1182.69
437.02	1196.71
437.395	1201.45
437.77	1227.67
438.145	1244.84
438.52	1303.37
438.895	1293.88
439.271	1278.06
439.646	1330.49
440.021	1374.78
440.395	1363.71
440.77	1335.23
441.145	1389.47
441.52	1414.33
441.895	1410.26
442.27	1432.41
442.645	1407.77
443.019	1460.43
443.394	1466.98
443.769	1478.28
444.143	1499.3
444.518	1497.71
444.892	1511.5
445.267	1528.45
445.641	1570.03
446.016	1559.18
446.39	1551.05
446.764	1572.29
447.139	1582.68
447.513	1607.99
447.887	1622.23
448.262	1611.38
448.636	1655
449.01	1662.68
449.384	1701.55
449.758	1690.93
450.132	1703.13
450.506	1727.99
450.88	1737.71
451.254	1722.57
451.628	1739.06
452.002	1772.74
452.376	1791.27
452.75	1831.04
453.123	1859.74
453.497	1859.74
453.871	1861.77
454.244	1877.82
454.618	1947.65
454.992	1948.1
455.365	1953.97
455.739	1972.5
456.112	2036.91
456.486	2028.32
456.859	2043.92
457.232	2092.5
457.606	2097.93
457.979	2116
458.352	2192.84
458.725	2229.9
459.099	2189.67
459.472	2257.24
459.845	2279.16
460.218	2311.25
460.591	2287.98
460.964	2340.63
461.337	2352.38
461.71	2418.82
462.083	2455.66
462.456	2482.32
462.829	2491.14
463.201	2507.18
463.574	2563.9
463.947	2565.94
464.32	2656.1
464.692	2638.02
465.065	2696.55
465.438	2726.38
465.81	2788.3
466.183	2793.05
466.555	2819.94
466.928	2872.37
467.3	2862.88
467.672	2916.89
468.045	3026.04
468.417	3034.62
468.789	3035.53
469.161	3115.07
469.534	3153.04
469.906	3204.79
470.278	3261.28
470.65	3334.05
471.022	3377.21
471.394	3421.51
471.766	3500.83
472.138	3533.37
472.51	3557.77
472.882	3665.12
473.253	3658.79
473.625	3762.06
473.997	3868.73
474.369	3859.69
474.74	3957.99
475.112	4026.24
475.484	4108.27
475.855	4152.11
476.227	4227.36
476.598	4306
476.97	4426
477.341	4492.66
477.713	4604.3
478.084	4569.27
478.455	4742.38
478.827	4826.89
479.198	4975.14
479.569	4969.26
479.94	5140.78
480.311	5194.34
480.682	5301.46
481.053	5437.95
481.424	5539.19
481.795	5605.86
482.166	5681.56
482.537	5769.24
482.908	5925.62
483.279	6002.46
483.65	6109.35
484.021	6232.05
484.391	6314.09
484.762	6383.46
485.133	6409
485.503	6568.54
485.874	6679.27
486.244	6815.32
486.615	6930.34
486.985	7011.24
487.356	7167.85
487.726	7211.24
488.097	7450.55
488.467	7465.24
488.837	7674.05
489.207	7717.21
489.578	7916.3
489.948	7929.64
490.318	8108.39
490.688	8155.84
491.058	8270.87
491.428	8400.36
491.798	8457.08
492.168	8621.82
492.538	8586.34
492.908	8732.78
493.278	8851.19
493.648	8842.38
494.017	9017.97
494.387	9087.8
494.757	9140
495.126	9304.06
495.496	9234.69
495.866	9319.43
496.235	9496.83
496.605	9584.96
496.974	9602.13
497.344	9666.77
497.713	9723.26
498.082	9891.62
498.452	9968.9
498.821	9952.41
499.19	9998.96
499.559	10092.97
499.928	10170.03
500.298	10103.14
500.667	10245.96
501.036	10285.51
501.405	10355.79
501.774	10364.37
502.143	10432.4
502.512	10447.54
502.88	10576.35
503.249	10563.01
503.618	10662.45
503.987	10632.16
504.356	10649.11
504.724	10666.97
505.093	10767.08
505.462	10793.52
505.83	10824.25
506.199	10899.95
506.567	11006.62
506.936	10962.1
507.304	11010.69
507.672	11151.7
508.041	11098.37
508.409	11226.72
508.777	11285.03
509.145	11283.22
509.514	11240.06
509.882	11264.01
510.25	11332.26
510.618	11287.06
510.986	11374.29
511.354	11426.72
511.722	11562.99
512.09	11548.98
512.458	11435.53
512.826	11559.6
513.193	11652.93
513.561	11644.34
513.929	11585.36
514.297	11763.89
514.664	11834.62
515.032	11742.19
515.4	11768.41
515.767	11855.18
516.135	11856.31
516.502	11784.68
516.869	11914.39
517.237	11932.47
517.604	11858.57
517.972	11888.4
518.339	11895.63
518.706	11862.41
519.073	11911.68
519.44	11909.87
519.808	11999.59
520.175	11928.18
520.542	12005.01
520.909	12066.48
521.276	12066.25
521.643	12187.38
522.009	12174.27
522.376	12139.24
522.743	12208.17
523.11	12225.34
523.477	12351.44
523.843	12255.85
524.21	12348.5
524.577	12314.83
524.943	12294.49
525.31	12353.47
525.676	12404.55
526.043	12394.6
526.409	12366.58
526.776	12470.53
527.142	12448.39
527.508	12446.13
527.874	12423.53
528.241	12495.84
528.607	12385.56
528.973	12472.12
529.339	12413.13
529.705	12411.33
530.071	12415.39
530.437	12368.39
530.803	12444.55
531.169	12410.2
531.535	12348.5
531.901	12412.68
532.267	12387.82
532.632	12314.83
532.998	12380.14
533.364	12309.86
533.73	12284.32
534.095	12363.87
534.461	12318
534.826	12253.82
535.192	12205.46
535.557	12157.55
535.923	12156.19
536.288	12191.44
536.653	12140.37
537.019	11988.74
537.384	12049.98
537.749	12049.98
538.114	11984.67
538.479	11950.1
538.845	11898.35
539.21	11880.27
539.575	11806.37
539.94	11788.52
540.305	11834.62
540.67	11740.16
541.034	11655.41
541.399	11673.27
541.764	11644.34
542.129	11604.79
542.494	11563.21
542.858	11490.22
543.223	11516.43
543.587	11453.84
543.952	11432.59
544.316	11384.23
544.681	11261.3
545.045	11239.38
545.41	11353.5
545.774	11165.48
546.138	11164.13
546.503	11140.17
546.867	11047.75
547.231	11048.42
547.595	11085.94
547.959	11024.47
548.324	10962.55
548.688	10968.2
549.052	10926.17
549.416	10829.67
549.779	10833.74
550.143	10778.6
550.507	10753.52
550.871	10758.71
551.235	10714.65
551.599	10656.12
551.962	10609.34
552.326	10610.24
552.689	10579.28
553.053	10515.78
553.417	10421.1
553.78	10524.6
554.143	10389.23
554.507	10434.2
554.87	10459.29
555.234	10422
555.597	10299.97
555.96	10316.01
556.323	10334.32
556.686	10264.49
557.05	10279.4
557.413	10288.22
557.776	10250.93
558.139	10234.66
558.502	10271.72
558.865	10215.9
559.228	10203.47
559.59	10172.29
559.953	10174.1
560.316	10191.5
560.679	10169.8
561.041	10191.95
561.404	10161.44
561.767	10234.89
562.129	10144.95
562.492	10122.35
562.854	10111.27
563.217	10095
563.579	10037.38
563.941	10107.88
564.304	10191.05
564.666	10121.67
565.028	10104.27
565.39	10046.87
565.753	10138.17
566.115	10136.81
566.477	10117.6
566.839	10139.75
567.201	10142.69
567.563	10094.32
567.925	10117.15
568.287	10183.14
568.648	10164.61
569.01	10189.92
569.372	10164.15
569.734	10165.74
570.095	10159.86
570.457	10223.36
570.819	10141.56
571.18	10130.26
571.542	10211.84
571.903	10247.77
572.265	10166.87
572.626	10208.9
572.987	10157.15
573.349	10170.71
573.71	10265.39
574.071	10214.55
574.432	10224.72
574.794	10272.17
575.155	10195.11
575.516	10203.02
575.877	10230.37
576.238	10168.67
576.599	10269.46
576.96	10267.88
577.32	10212.74
577.681	10219.75
578.042	10224.72
578.403	10225.85
578.763	10210.71
579.124	10261.33
579.485	10282.12
579.845	10266.98
580.206	10229.01
580.566	10190.37
580.927	10159.18
581.287	10201.21
581.648	10200.08
582.008	10246.19
582.368	10236.47
582.728	10155.34
583.089	10208.22
583.449	10205.06
583.809	10193.53
584.169	10180.88
584.529	10089.81
584.889	10120.99
585.249	10103.59
585.609	10101.1
585.969	10166.87
586.329	10080.77
586.688	10075.34
587.048	10053.65
587.408	10091.39
587.768	10035.34
588.127	10039.41
588.487	10029.24
588.846	10079.18
589.206	10017.72
589.565	9940.43
589.925	10019.52
590.284	9989.02
590.643	10011.62
591.003	10001.67
591.362	10046.64
591.721	9953.09
592.08	10007.77
592.44	9980.88
592.799	10032.18
593.158	9956.93
593.517	9962.8
593.876	9911.5
594.235	9972.97
594.593	9933.43
594.952	9931.39
595.311	9905.63
595.67	9972.52
596.029	9925.52
596.387	9974.33
596.746	9971.84
597.104	9862.01
597.463	9874.44
597.822	9895.46
598.18	9929.13
598.538	9834.67
598.897	9979.75
599.255	9766.42
599.613	9928.68
599.972	9818.85
600.33	9900.21
600.688	9771.62
601.046	9862.69
601.404	9868.34
601.762	9852.52
602.12	9894.78
602.478	9853.43
602.836	9798.74
603.194	9812.75
603.552	9868.57
603.91	9790.6
604.268	9862.47
604.625	9787.21
604.983	9814.33
605.341	9764.84
605.698	9830.83
606.056	9770.04
606.413	9814.11
606.771	9861.34
607.128	9763.03
607.485	9812.75
607.843	9777.95
608.2	9780.21
608.557	9861.34
608.914	9846.2
609.272	9898.4
609.629	9780.21
609.986	9899.53
610.343	9880.09
610.7	9851.17
611.057	9845.97
611.414	9958.51
611.771	9839.87
612.127	9884.16
612.484	9890.04
612.841	9948.11
613.198	9890.94
613.554	9899.3
613.911	9971.84
614.267	9920.77
614.624	9930.49
614.98	9969.81
615.337	9961
615.693	9982.46
616.05	9933.43
616.406	9962.58
616.762	9984.5
617.118	9890.26
617.475	10020.88
617.831	10041.45
618.187	9947.21
618.543	10022.91
618.899	10084.61
619.255	9999.19
619.611	10027.89
619.967	10125.74
620.323	9973.42
620.678	10050.71
621.034	10064.95
621.39	10000.09
621.746	9978.85
622.101	10087.09
622.457	10012.52
622.812	10064.27
623.168	10065.85
623.523	10102.91
623.879	10055.23
624.234	9985.18
624.589	9989.24
624.945	10023.59
625.3	10058.62
625.655	10028.79
626.01	9990.37
626.365	10064.72
626.72	10057.49
627.075	10050.03
627.43	10006.19
627.785	10009.81
628.14	10020.2
628.495	10025.4
628.85	9970.71
629.205	10004.84
629.559	9964.16
629.914	9945.63
630.269	10026.76
630.623	9984.05
630.978	9931.62
631.332	9922.13
631.687	9928.45
632.041	9941.33
632.396	9900.21
632.75	9848.91
633.104	9850.49
633.459	9883.48
633.813	9861.34
634.167	9854.11
634.521	9833.77
634.875	9889.13
635.229	9842.81
635.583	9767.78
635.937	9730.94
636.291	9786.76
636.645	9766.42
636.999	9714.22
637.352	9778.18
637.706	9700.89
638.06	9741.11
638.413	9716.03
638.767	9667.22
639.121	9683.26
639.474	9642.81
639.828	9650.72
640.181	9652.53
640.534	9698.86
640.888	9690.72
641.241	9521.68
641.594	9614.56
641.947	9589.03
642.301	9574.56
642.654	9583.38
643.007	9585.41
643.36	9556.49
643.713	9551.97
644.066	9643.72
644.419	9541.57
644.771	9532.98
645.124	9393.33
645.477	9414.12
645.83	9363.72
646.182	9309.03
646.535	9238.08
646.888	9347.23
647.24	9174.12
647.593	9205.53
647.945	9262.71
648.298	9214.35
648.65	9170.73
649.002	9187
649.355	9243.05
649.707	9222.03
650.059	9323.72
650.411	9366.66
650.763	9432.2
651.115	9443.49
651.467	9427.45
651.819	9430.39
652.171	9470.16
652.523	9373.44
652.875	9476.04
653.227	9411.41
653.578	9496.15
653.93	9434.68
654.282	9428.35
654.633	9403.95
654.985	9362.37
655.337	9407.79
655.688	9438.97
656.039	9522.14
656.391	9441.69
656.742	9428.35
657.094	9390.39
657.445	9414.34
657.796	9432.87
658.147	9426.09
658.498	9442.59
658.849	9465.19
659.2	9413.44
659.551	9456.6
659.902	9475.13
660.253	9486.21
660.604	9415.02
660.955	9434
661.306	9460.9
661.656	9422.03
662.007	9455.92
662.358	9480.1
662.708	9459.77
663.059	9476.26
663.409	9421.12
663.76	9448.24
664.11	9463.38
664.461	9496.15
664.811	9444.62
665.161	9456.38
665.511	9474.68
665.862	9524.4
666.212	9361.91
666.562	9521.46
666.912	9441.69
667.262	9504.06
667.612	9479.2
667.962	9474.23
668.312	9437.17
668.662	9507.67
669.011	9495.92
669.361	9436.49
669.711	9560.78
670.06	9517.84
670.41	9477.62
670.76	9435.36
671.109	9460.44
671.459	9465.87
671.808	9432.87
672.157	9459.31
672.507	9366.66
672.856	9354.23
673.205	9437.85
673.554	9441.01
673.904	9367.56
674.253	9457.73
674.602	9339.99
674.951	9286.89
675.3	9237.62
675.649	9339.99
675.998	9267.23
676.346	9396.94
676.695	9387
677.044	9344.29
677.393	9287.79
677.741	9311.29
678.09	9269.94
678.438	9283.27
678.787	9324.18
679.135	9316.04
679.484	9263.39
679.832	9233.1
680.181	9234.91
680.529	9207.12
680.877	9151.75
681.225	9115.14
681.573	9177.96
681.922	9150.62
682.27	9123.73
682.618	9103.39
682.966	9068.82
683.314	9095.48
683.661	9062.26
684.009	9006.22
684.357	9019.1
684.705	8970.51
685.053	8980
685.4	8954.69
685.748	8966.45
686.095	8878.99
686.443	8807.81
686.79	8836.96
687.138	8916.05
687.485	8862.49
687.832	8810.06
688.18	8800.57
688.527	8785.88
688.874	8693.23
689.221	8730.52
689.568	8716.96
689.915	8669.28
690.262	8660.69
690.609	8621.82
690.956	8636.06
691.303	8547.7
691.65	8500.02
691.997	8524.65
692.344	8472.67
692.69	8529.17
693.037	8466.12
693.383	8352.9
693.73	8370.3
694.077	8342.51
694.423	8319.23
694.769	8272.9
695.116	8262.96
695.462	8250.98
695.808	8206.69
696.155	8230.19
696.501	8196.75
696.847	8195.17
697.193	8053.47
697.539	8093.02
697.885	8063.42
698.231	8005.11
698.577	7973.48
698.923	8022.97
699.269	7946.81
699.614	7859.13
699.96	7853.48
700.306	7839.24
700.651	7808.51
700.997	7768.51
701.342	7748.85
701.688	7760.15
702.033	7711.34
702.379	7656.2
702.724	7660.94
703.069	7648.74
703.415	7588.85
703.76	7621.85
704.105	7581.4
704.45	7493.04
704.795	7484.68
705.14	7485.81
705.485	7438.35
705.83	7381.63
706.175	7467.28
706.52	7365.58
706.865	7366.26
707.209	7312.93
707.554	7253.27
707.899	7298.01
708.243	7314.74
708.588	7254.63
708.932	7257.79
709.277	7198.13
709.621	7206.04
709.966	7082.43
710.31	7142.31
710.654	7087.17
710.998	7079.26
711.342	7074.52
711.687	7058.02
712.031	6995.2
712.375	7041.98
712.719	6996.33
713.063	7025.48
713.407	6998.36
713.75	7001.52
714.094	6965.82
714.438	6959.04
714.782	6902.77
715.125	6938.93
715.469	6909.78
715.812	6932.37
716.156	6893.05
716.499	6890.79
716.843	6877.23
717.186	6783.45
717.53	6810.34
717.873	6828.2
718.216	6846.5
718.559	6777.8
718.902	6832.49
719.246	6784.81
719.589	6769.67
719.932	6713.17
720.275	6712.94
720.617	6732.61
720.96	6700.29
721.303	6761.31
721.646	6726.28
721.989	6672.49
722.331	6714.75
722.674	6669.1
723.016	6712.27
723.359	6676.79
723.701	6675.43
724.044	6656.22
724.386	6627.3
724.729	6632.04
725.071	6592.04
725.413	6628.88
725.755	6639.27
726.097	6641.76
726.439	6546.17
726.782	6567.41
727.124	6629.11
727.465	6571.25
727.807	6578.03
728.149	6557.69
728.491	6544.36
728.833	6597.02
729.175	6541.42
729.516	6579.16
729.858	6580.29
730.199	6616.22
730.541	6573.51
730.882	6533.74
731.224	6562.67
731.565	6563.12
731.906	6585.94
732.248	6609.67
732.589	6549.11
732.93	6523.12
733.271	6553.63
733.612	6546.4
733.953	6593.4
734.294	6532.38
734.635	6517.92
734.976	6609.44
735.317	6546.17
735.658	6558.15
735.999	6561.99
736.339	6565.38
736.68	6640.86
737.021	6620.97
737.361	6576.68
737.702	6530.8
738.042	6583.23
738.383	6556.34
738.723	6594.98
739.063	6637.69
739.404	6658.26
739.744	6628.2
740.084	6661.19
740.424	6654.42
740.764	6605.15
741.104	6637.24
741.444	6634.75
741.784	6627.3
742.124	6781.42
742.464	6760.85
742.804	6689.89
743.143	6739.38
743.483	6757.01
743.823	6775.32
744.162	6793.17
744.502	6837.24
744.841	6916.56
745.181	6913.62
745.52	6899.61
745.86	6941.41
746.199	7017.34
746.538	6990.9
746.877	7063.22
747.216	7111.58
747.556	7116.78
747.895	7186.6
748.234	7192.25
748.573	7269.54
748.911	7316.77
749.25	7352.7
749.589	7432.7
749.928	7460.27
750.267	7592.47
750.605	7645.12
750.944	7673.82
751.283	7699.81
751.621	7858.9
751.96	7921.5
752.298	7990.2
752.636	8069.75
752.975	8184.77
753.313	8183.41
753.651	8386.57
753.989	8383.64
754.327	8502.73
754.666	8573.24
755.004	8799.67
755.342	8864.07
755.679	8998.08
756.017	9089.15
756.355	9237.85
756.693	9327.34
757.031	9487.34
757.368	9565.3
757.706	9751.96
758.044	9886.87
758.381	10061.56
758.719	10157.37
759.056	10373.19
759.394	10506.07
759.731	10574.09
760.068	10718.72
760.405	10925.72
760.743	11017.92
761.08	11268.08
761.417	11363.9
761.754	11584.68
762.091	11654.06
762.428	11864.9
762.765	12050.21
763.102	12198.68
763.438	12279.8
763.775	12447.71
764.112	12692
764.449	12863.07
764.785	12937.87
765.122	13125.43
765.458	13230.06
765.795	13402.26
766.131	13569.04
766.467	13691.07
766.804	13842.25
767.14	14026.88
767.476	14181.22
767.812	14269.36
768.148	14375.79
768.485	14503.47
768.821	14555
769.157	14827.31
769.492	14906.4
769.828	15069.34
770.164	15059.62
770.5	15060.97
770.836	15349.78
771.171	15381.19
771.507	15538.48
771.842	15584.58
772.178	15669.55
772.513	15779.15
772.849	15799.94
773.184	15926.71
773.519	16093.49
773.855	15977.56
774.19	16164.9
774.525	16152.02
774.86	16328.96
775.195	16395.18
775.53	16364.44
775.865	16474.72
776.2	16467.49
776.535	16506.81
776.87	16580.71
777.205	16630.65
777.539	16527.15
777.874	16715.17
778.209	16660.71
778.543	16685.11
778.878	16812.57
779.212	16878.1
779.547	16759.46
779.881	16938.21
780.215	16908.38
780.55	16966.46
780.884	16818.44
781.218	16924.43
781.552	17024.31
781.886	16946.35
782.22	16875.84
782.554	16981.6
782.888	16914.94
783.222	16954.03
783.556	16930.3
783.889	16816.86
784.223	16862.28
784.557	16895.95
784.89	16896.41
785.224	16940.02
785.557	16845.11
785.891	16810.76
786.224	16883.07
786.558	16909.51
786.891	16799.46
787.224	16657.77
787.557	16735.96
787.891	16774.83
788.224	16743.64
788.557	16761.49
788.89	16826.35
789.223	16744.55
789.556	16681.04
789.888	16651.67
790.221	16613.7
790.554	16486.47
790.887	16580.71
791.219	16418.23
791.552	16528.05
791.884	16498.22
792.217	16449.41
792.549	16367.15
792.882	16320.38
793.214	16314.95
793.546	16387.49
793.879	16281.96
794.211	16180.04
794.543	16267.04
794.875	16258.68
795.207	16329.42
795.539	16185.46
795.871	16362.86
796.203	16171.45
796.535	15957.22
796.867	15974.4
797.198	16013.94
797.53	15972.81
797.862	15860.28
798.193	15936.43
798.525	15847.17
798.856	15850.11
799.188	15738.24
799.519	15666.16
799.85	15589.32
800.182	15662.77
800.513	15711.58
800.844	15523.79
801.175	15626.38
801.506	15587.29
801.837	15617.12
802.168	15462.09
802.499	15476.56
802.83	15390.68
803.161	15395.65
803.491	15328.76
803.822	15371.47
804.153	15255.55
804.483	15210.35
804.814	15146.17
805.145	15213.96
805.475	15264.58
805.805	15097.58
806.136	15075.66
806.466	15133.51
806.796	15117.7
807.126	15053.29
807.457	14986.85
807.787	14854.2
808.117	14932.16
808.447	14907.98
808.777	14846.74
809.107	14868.21
809.436	14760.64
809.766	14797.48
810.096	14684.94
810.426	14586.86
810.755	14712.51
811.085	14685.62
811.414	14650.14
811.744	14507.32
812.073	14570.37
812.403	14523.59
812.732	14478.84
813.061	14472.29
813.39	14363.14
813.719	14326.98
814.049	14417.6
814.378	14339.41
814.707	14210.6
815.036	14340.54
815.365	14237.04
815.693	14163.6
816.022	14079.08
816.351	14029.36
816.68	13995.69
817.008	14091.06
817.337	13976.93
817.665	13916.37
817.994	14008.35
818.322	14004.05
818.651	13934.22
818.979	13812.65
819.307	13964.05
819.636	13869.14
819.964	13824.4
820.292	13894.45
820.62	13850.16
820.948	13852.87
821.276	13818.52
821.604	13860.33
821.932	13865.3
822.259	13847.22
822.587	13798.86
822.915	13822.14
823.243	13885.19
823.57	13726.55
823.898	13772.19
824.225	13736.94
824.553	13742.14
824.88	13839.54
825.207	13806.32
825.535	13728.13
825.862	13850.84
826.189	13786.43
826.516	13870.27
826.843	13882.25
827.17	13968.12
827.497	13922.02
827.824	13901.68
828.151	13878.18
828.478	13907.56
828.805	13927.22
829.131	13928.12
829.458	13862.59
829.785	13769.71
830.111	13836.83
830.438	13903.49
830.764	13872.76
831.09	13866.2
831.417	13879.54
831.743	13866.2
832.069	13824.4
832.395	13790.72
832.722	13902.13
833.048	13672.99
833.374	13827.56
833.7	13697.17
834.026	13674.12
834.351	13727.22
834.677	13731.07
835.003	13693.78
835.329	13741.69
835.654	13687.45
835.98	13700.78
836.306	13696.72
836.631	13589.6
836.956	13656.04
837.282	13693.78
837.607	13635.7
837.932	13590.28
838.258	13524.74
838.583	13522.03
838.908	13449.94
839.233	13470.73
839.558	13471.19
839.883	13455.82
840.208	13421.24
840.533	13369.04
840.858	13391.19
841.182	13432.77
841.507	13334.01
841.832	13251.76
842.156	13201.81
842.481	13195.71
842.805	13276.39
843.13	13194.58
843.454	13169.27
843.778	13123.17
844.103	13099.9
844.427	13078.88
844.751	13060.12
845.075	13056.28
845.399	12997.3
845.723	12917.53
846.047	12895.38
846.371	12857.87
846.695	12784.65
847.019	12680.92
847.343	12717.31
847.666	12555.28
847.99	12551.66
848.313	12595.28
848.637	12492.68
848.96	12382.4
849.284	12403.42
849.607	12384.43
849.931	12351.21
850.254	12200.03
850.577	12155.51
850.9	12047.27
851.223	12115.29
851.546	12071.67
851.869	11914.62
852.192	12039.36
852.515	11849.53
852.838	11790.33
853.161	11746.26
853.483	11817.9
853.806	11731.34
854.129	11677.79
854.451	11658.58
854.774	11624.91
855.096	11556.89
855.419	11490.9
855.741	11585.59
856.063	11460.84
856.385	11447.74
856.708	11459.49
857.03	11377.91
857.352	11343.11
857.674	11343.78
857.996	11299.94
858.318	11264.24
858.64	11251.13
858.961	11190.12
859.283	11181.3
859.605	11089.78
859.926	11151.02
860.248	11136.78
860.57	11094.52
860.891	11049.1
861.212	10914.42
861.534	10972.72
861.855	10937.47
862.176	10942.44
862.498	10912.38
862.819	10907.41
863.14	10870.12
863.461	10901.76
863.782	10790.8
864.103	10823.57
864.424	10736.34
864.745	10779.5
865.065	10643.69
865.386	10717.81
865.707	10647.53
866.027	10676.91
866.348	10616.57
866.668	10635.78
866.989	10645.95
867.309	10532.96
867.63	10508.1
867.95	10506.74
868.27	10470.81
868.59	10476.91
868.91	10487.08
869.23	10519.62
869.55	10414.99
869.87	10486.41
870.19	10503.35
870.51	10454.32
870.83	10409.8
871.15	10400.76
871.469	10389.46
871.789	10426.97
872.109	10333.87
872.428	10350.14
872.748	10325.73
873.067	10316.01
873.386	10303.59
873.706	10235.34
874.025	10226.52
874.344	10231.72
874.663	10190.37
874.982	10187.88
875.301	10175.45
875.62	10128.22
875.939	10207.54
876.258	10151.27
876.577	10139.07
876.896	10121.22
877.214	10089.81
877.533	10105.17
877.852	10072.4
878.17	10010.26
878.489	10068.34
878.807	10038.28
879.125	9991.73
879.444	9976.36
879.762	9959.64
880.08	9950.37
880.398	9833.99
880.716	9912.18
881.034	9879.64
881.352	9858.4
881.67	9814.33
881.988	9793.09
882.306	9812.98
882.624	9782.69
882.941	9718.97
883.259	9715.8
883.577	9646.88
883.894	9625.64
884.212	9700.21
884.529	9678.97
884.846	9607.56
885.164	9631.06
885.481	9569.37
885.798	9563.04
886.115	9486.88
886.432	9493.89
886.75	9540.22
887.067	9476.26
887.383	9418.18
887.7	9492.31
888.017	9382.25
888.334	9389.26
888.651	9296.38
888.967	9365.53
889.284	9254.35
889.6	9293.44
889.917	9198.08
890.233	9269.49
890.55	9161.24
890.866	9262.03
891.182	9162.6
891.498	9096.84
891.815	9075.59
892.131	9032.66
892.447	9026.56
892.763	9013.9
893.079	8978.87
893.395	8983.39
893.71	8954.69
894.026	8848.03
894.342	8854.81
894.657	8796.73
894.973	8803.51
895.289	8840.57
895.604	8777.07
895.92	8685.55
896.235	8684.42
896.55	8650.07
896.865	8643.29
897.181	8586.34
897.496	8642.84
897.811	8608.04
898.126	8490.07
898.441	8506.34
898.756	8470.19
899.071	8429.06
899.386	8416.4
899.7	8402.39
900.015	8300.02
900.33	8268.61
900.644	8330.3
900.959	8294.82
901.273	8246.46
901.588	8194.94
901.902	8128.95
902.216	8101.83
902.531	8061.61
902.845	8104.32
903.159	8030.88
903.473	7966.02
903.787	7964.44
904.101	7928.05
904.415	7930.31
904.729	7898.22
905.042	7831.79
905.356	7850.32
905.67	7824.1
905.984	7816.87
906.297	7757.21
906.611	7723.31
906.924	7665.69
907.237	7651.9
907.551	7608.74
907.864	7615.52
908.177	7569.19
908.491	7522.87
908.804	7533.94
909.117	7455.3
909.43	7420.95
909.743	7372.36
910.056	7365.36
910.368	7254.4
910.681	7276.09
910.994	7267.96
911.307	7246.94
911.619	7173.05
911.932	7204.91
912.244	7169.2
912.557	7103.22
912.869	7070.22
913.181	7040.85
913.494	6985.71
913.806	7048.76
914.118	7001.52
914.43	6913.17
914.742	6917.46
915.054	6876.33
915.366	6875.43
915.678	6841.3
915.99	6849.66
916.302	6761.31
916.613	6718.82
916.925	6767.86
917.236	6716.11
917.548	6681.53
917.859	6655.55
918.171	6660.06
918.482	6579.39
918.794	6521.76
919.105	6531.93
919.416	6533.51
919.727	6539.62
920.038	6518.37
920.349	6398.15
920.66	6434.53
920.971	6434.31
921.282	6419.62
921.593	6328.77
921.903	6318.15
922.214	6259.17
922.525	6223.01
922.835	6255.33
923.146	6197.25
923.456	6186.63
923.767	6166.74
924.077	6132.4
924.387	6096.01
924.697	6040.87
925.008	6022.12
925.318	5995.9
925.628	6021.66
925.938	6003.81
926.248	5922.91
926.558	5922.01
926.867	5972.85
927.177	5891.27
927.487	5838.84
927.796	5826.41
928.106	5771.5
928.416	5758.62
928.725	5756.81
929.034	5781.67
929.344	5769.01
929.653	5719.3
929.962	5652.86
930.271	5652.18
930.581	5643.82
930.89	5607.89
931.199	5516.14
931.508	5521.56
931.817	5549.81
932.125	5539.19
932.434	5531.51
932.743	5508
933.051	5485.86
933.36	5431.17
933.669	5390.49
933.977	5381.23
934.286	5404.73
934.594	5332.42
934.902	5338.74
935.21	5311.85
935.519	5283.15
935.827	5229.59
936.135	5208.13
936.443	5171.06
936.751	5212.65
937.059	5163.61
937.367	5118.18
937.674	5152.76
937.982	5132.65
938.29	5032.54
938.597	5067.79
938.905	5000.67
939.213	4998.41
939.52	4997.28
939.827	4996.15
940.135	4944.18
940.442	4908.92
940.749	4915.03
941.056	4925.42
941.363	4827.8
941.67	4851.98
941.977	4819.66
942.284	4774.24
942.591	4781.7
942.898	4776.72
943.205	4775.14
943.511	4723.39
943.818	4688.14
944.125	4682.04
944.431	4719.78
944.738	4614.02
945.044	4624.86
945.35	4589.38
945.657	4571.76
945.963	4513.23
946.269	4454.25
946.575	4519.33
946.881	4523.85
947.187	4482.04
947.493	4449.5
947.799	4456.73
948.105	4375.83
948.41	4396.17
948.716	4361.59
949.022	4393.46
949.327	4332.89
949.633	4290.18
949.938	4320.47
950.244	4341.71
950.549	4284.76
950.854	4265.78
951.16	4290.64
951.465	4224.2
951.77	4210.86
952.075	4174.25
952.38	4167.93
952.685	4151.88
952.99	4157.76
953.294	4111.21
953.599	4137.19
953.904	4104.65
954.209	4070.75
954.513	4051.32
954.818	4004.09
955.122	4040.25
955.426	4010.64
955.731	3938.55
956.035	3928.16
956.339	3960.7
956.643	3958.67
956.948	3935.16
957.252	3881.61
957.556	3876.64
957.86	3877.99
958.163	3826.47
958.467	3803.64
958.771	3806.35
959.075	3795.06
959.378	3785.11
959.682	3782.85
959.985	3762.97
960.289	3724.1
960.592	3713.7
960.896	3688.39
961.199	3653.82
961.502	3645.91
961.805	3669.86
962.108	3652.91
962.411	3653.82
962.714	3584.67
963.017	3598
963.32	3607.49
963.623	3569.52
963.926	3570.2
964.228	3536.53
964.531	3557.32
964.833	3522.75
965.136	3500.83
965.438	3470.09
965.741	3440.26
966.043	3473.03
966.345	3439.58
966.648	3414.27
966.95	3397.1
967.252	3412.47
967.554	3338.34
967.856	3370.21
968.158	3316.2
968.46	3310.32
968.761	3278.23
969.063	3314.62
969.365	3275.3
969.666	3264
969.968	3237.33
970.269	3198.01
970.571	3249.99
970.872	3224.45
971.174	3168.86
971.475	3198.24
971.776	3150.78
972.077	3144
972.378	3132.47
972.679	3141.06
972.98	3127.05
973.281	3098.12
973.582	3102.87
973.883	3096.54
974.183	3062.19
974.484	3039.82
974.785	3050.44
975.085	3035.98
975.386	3022.19
975.686	2992.36
975.986	2992.82
976.287	3012.7
976.587	2913.5
976.887	2977.68
977.187	2945.13
977.487	2911.91
977.787	2884.35
978.087	2903.78
978.387	2852.03
978.687	2894.51
978.987	2838.24
979.286	2820.62
979.586	2818.81
979.885	2780.62
980.185	2812.48
980.484	2774.97
980.784	2806.16
981.083	2772.26
981.382	2763.9
981.682	2740.85
981.981	2723.67
982.28	2719.38
982.579	2726.61
982.878	2706.04
983.177	2696.33
983.475	2685.03
983.774	2635.31
984.073	2643
984.372	2618.59
984.67	2617.69
984.969	2605.03
985.267	2586.05
985.566	2574.52
985.864	2613.17
986.162	2566.61
986.461	2544.47
986.759	2546.05
987.057	2528.42
987.355	2510.12
987.653	2472.83
987.951	2515.09
988.249	2506.95
988.547	2472.6
988.844	2471.25
989.142	2501.08
989.44	2426.28
989.737	2420.4
990.035	2411.82
990.332	2386.28
990.63	2398.71
990.927	2409.1
991.224	2368.43
991.521	2363.91
991.819	2320.07
992.116	2365.04
992.413	2338.6
992.71	2284.36
993.006	2320.29
993.303	2319.84
993.6	2313.51
993.897	2285.72
994.193	2274.87
994.49	2299.5
994.787	2244.59
995.083	2236.68
995.379	2224.25
995.676	2203.01
995.972	2206.85
996.268	2212.27
996.565	2176.57
996.861	2143.57
997.157	2134.31
997.453	2132.95
997.749	2129.11
998.044	2128.43
998.34	2123.91
998.636	2111.94
998.932	2071.49
999.227	2102.22
999.523	2076.46
999.818	2052.73
1000.114	2080.75
1000.409	2015.67
1000.704	2008.89
1001	2019.51
1001.295	2000.53
1001.59	2020.64
1001.885	1977.25
1002.18	1957.14
1002.475	1968.44
1002.77	1951.49
1003.065	1934.31
1003.359	1933.18
1003.654	1918.04
1003.949	1909.46
1004.243	1899.29
1004.538	1899.74
1004.832	1886.18
1005.127	1863.58
1005.421	1846.41
1005.715	1840.53
1006.009	1857.48
1006.304	1818.61
1006.598	1820.42
1006.892	1786.52
1007.186	1783.13
1007.48	1793.75
1007.773	1797.37
1008.067	1777.26
1008.361	1735
1008.655	1765.5
1008.948	1745.39
1009.242	1727.99
1009.535	1733.19
1009.829	1676.02
1010.122	1687.31
1010.415	1685.96
1010.708	1670.59
1011.001	1664.49
1011.295	1675.79
1011.588	1632.63
1011.881	1634.89
1012.173	1612.29
1012.466	1608.9
1012.759	1622.01
1013.052	1594.44
1013.344	1601.89
1013.637	1554.66
1013.93	1577.94
1014.222	1569.8
1014.514	1572.97
1014.807	1565.28
1015.099	1548.79
1015.391	1523.02
1015.683	1508.56
1015.976	1507.66
1016.268	1511.73
1016.56	1506.08
1016.851	1502.23
1017.143	1480.31
1017.435	1460.2
1017.727	1446.64
1018.018	1463.59
1018.31	1424.95
1018.602	1439.41
1018.893	1400.09
1019.185	1398.28
1019.476	1385.63
1019.767	1400.09
1020.058	1372.75
1020.35	1405.06
1020.641	1345.18
1020.932	1357.61
1021.223	1346.53
1021.514	1328.68
1021.804	1344.5
1022.095	1306.08
1022.386	1342.92
1022.677	1314.89
1022.967	1295.69
1023.258	1281
1023.548	1269.47
1023.839	1281.22
1024.129	1236.7
1024.419	1266.53
1024.709	1244.84
1025	1263.82
1025.29	1269.47
1025.58	1229.02
1025.87	1256.59
1026.16	1206.42
1026.449	1207.55
1026.739	1209.13
1027.029	1188.57
1027.319	1190.38
1027.608	1146.09
1027.898	1186.76
1028.187	1153.09
1028.477	1157.84
1028.766	1151.06
1029.055	1130.27
1029.344	1136.82
1029.634	1125.07
1029.923	1124.84
1030.212	1116.03
1030.501	1111.06
1030.79	1113.54
1031.078	1088.23
1031.367	1105.63
1031.656	1119.42
1031.945	1063.6
1032.233	1055.47
1032.522	1059.76
1032.81	1045.3
1033.099	1033.32
1033.387	1053.43
1033.675	1017.5
1033.963	1028.57
1034.251	1029.7
1034.54	1031.29
1034.828	1026.99
1035.116	1010.27
1035.403	967.56
1035.691	964.85
1035.979	978.86
1036.267	967.79
1036.554	975.92
1036.842	943.83
1037.129	955.58
1037.417	942.25
1037.704	932.53
1037.992	956.03
1038.279	943.15
1038.566	919.88
1038.853	919.88
1039.14	919.88
