Data from hue_120_FLMS001491_00003.txt Node
Date: Tue Feb 07 16:58:50 GMT 2017
User: dcchb
Spectrometer: FLMS00149
Trigger mode: 0
Integration Time (sec): 2.000000E-2
Scans to average: 10
Electric dark correction enabled: true
Nonlinearity correction enabled: false
Boxcar width: 0
XAxis mode: Wavelengths
Number of Pixels in Spectrum: 2048
>>>>>Begin Spectral Data<<<<<
341.393	-18.05
341.776	-18.05
342.16	-18.05
342.543	-51.04
342.927	-64.6
343.31	-58.95
343.693	-69.8
344.077	-76.81
344.46	-70.93
344.843	-62.79
345.226	-59.86
345.61	-44.72
345.993	-9.46
346.376	-10.14
346.759	11.78
347.142	29.63
347.525	66.02
347.908	82.74
348.291	59.46
348.674	92
349.057	121.83
349.44	132.68
349.823	143.08
350.206	169.97
350.588	185.33
350.971	213.13
351.354	236.18
351.737	249.74
352.119	237.31
352.502	269.63
352.884	273.92
353.267	274.82
353.65	328.16
354.032	305.33
354.414	322.05
354.797	295.39
355.179	318.44
355.562	332.67
355.944	310.08
356.326	323.86
356.709	327.03
357.091	339.91
357.473	344.43
357.855	332.9
358.238	336.97
358.62	340.36
359.002	335.39
359.384	358.66
359.766	356.63
360.148	326.8
360.53	329.06
360.912	346.91
361.294	348.49
361.676	365.89
362.057	336.29
362.439	329.96
362.821	337.19
363.203	338.55
363.584	328.38
363.966	326.8
364.348	316.86
364.729	330.19
365.111	321.38
365.493	321.6
365.874	332.22
366.256	324.31
366.637	305.56
367.019	330.19
367.4	334.48
367.781	322.05
368.163	317.99
368.544	334.26
368.925	314.6
369.306	350.75
369.688	320.25
370.069	334.48
370.45	308.27
370.831	328.38
371.212	317.76
371.593	326.57
371.974	317.76
372.355	311.66
372.736	332.45
373.117	317.99
373.498	338.78
373.879	331.77
374.26	317.76
374.641	312.79
375.021	336.74
375.402	312.34
375.783	307.82
376.163	339.45
376.544	344.2
376.925	328.16
377.305	333.58
377.686	334.03
378.066	342.84
378.447	350.08
378.827	323.86
379.208	322.05
379.588	317.08
379.968	324.99
380.349	345.33
380.729	328.16
381.109	327.93
381.489	345.78
381.87	348.27
382.25	366.12
382.63	345.78
383.01	350.3
383.39	329.29
383.77	336.52
384.15	366.35
384.53	355.05
384.91	364.31
385.29	376.29
385.67	368.15
386.049	368.38
386.429	365.22
386.809	364.31
387.189	363.41
387.568	368.15
387.948	369.06
388.328	356.63
388.707	362.05
389.087	381.04
389.466	376.06
389.846	365.44
390.225	381.94
390.605	374.71
390.984	377.19
391.363	386.46
391.743	377.87
392.122	412.22
392.501	391.43
392.881	396.18
393.26	390.07
393.639	374.03
394.018	395.72
394.397	388.49
394.776	377.42
395.155	371.09
395.534	400.24
395.913	421.71
396.292	409.06
396.671	387.14
397.05	407.25
397.429	399.57
397.808	396.63
398.186	400.02
398.565	396.63
398.944	402.05
399.323	383.97
399.701	408.83
400.08	411.09
400.458	402.28
400.837	428.72
401.215	429.4
401.594	415.61
401.972	432.56
402.351	401.15
402.729	434.37
403.107	414.93
403.486	436.63
403.864	437.3
404.242	429.17
404.62	442.73
404.999	432.33
405.377	426.91
405.755	444.54
406.133	432.79
406.511	426.91
406.889	456.97
407.267	434.14
407.645	443.86
408.023	452.22
408.401	459.45
408.779	433.46
409.156	464.87
409.534	455.16
409.912	456.97
410.29	478.66
410.667	466.46
411.045	490.41
411.422	497.42
411.8	478.66
412.178	493.57
412.555	499
412.933	494.93
413.31	527.7
413.687	501.48
414.065	526.79
414.442	522.73
414.819	508.26
415.197	518.43
415.574	515.95
415.951	544.65
416.328	520.69
416.705	524.53
417.082	524.99
417.46	562.05
417.837	550.97
418.214	533.12
418.591	552.33
418.967	573.8
419.344	541.26
419.721	555.95
420.098	561.6
420.475	557.08
420.852	563.18
421.228	584.65
421.605	566.34
421.982	564.99
422.358	579.45
422.735	588.71
423.111	577.41
423.488	596.62
423.864	596.4
424.241	577.64
424.617	572.44
424.994	600.92
425.37	625.55
425.746	611.99
426.123	617.87
426.499	601.37
426.875	603.4
427.251	635.04
427.627	625.32
428.003	644.31
428.379	633.01
428.756	653.8
429.132	649.73
429.507	647.92
429.883	659.45
430.259	675.94
430.635	682.04
431.011	682.5
431.387	711.87
431.763	702.16
432.138	693.57
432.514	677.52
432.89	706.45
433.265	724.75
433.641	718.43
434.016	720.46
434.392	736.28
434.767	744.42
435.143	733.79
435.518	773.57
435.894	754.13
436.269	771.53
436.644	795.49
437.02	793.45
437.395	770.86
437.77	788.93
438.145	770.18
438.52	816.5
438.895	820.35
439.271	803.85
439.646	806.33
440.021	794.13
440.395	818.54
440.77	845.43
441.145	840.23
441.52	843.17
441.895	857.86
442.27	886.56
442.645	868.71
443.019	864.19
443.394	894.02
443.769	903.96
444.143	881.36
444.518	900.8
444.892	881.81
445.267	886.11
445.641	901.25
446.016	927.46
446.39	915.71
446.764	931.3
447.139	939.66
447.513	928.82
447.887	968.59
448.262	964.3
448.636	927.91
449.01	957.74
449.384	980.57
449.758	988.93
450.132	974.92
450.506	992.09
450.88	980.34
451.254	990.51
451.628	1009.27
452.002	1006.33
452.376	1045.2
452.75	1026.67
453.123	1040.68
453.497	1068.02
453.871	1065.99
454.244	1079.55
454.618	1097.85
454.992	1095.14
455.365	1097.63
455.739	1130.62
456.112	1153.9
456.486	1169.72
456.859	1170.39
457.232	1167.68
457.606	1153.22
457.979	1190.73
458.352	1233.22
458.725	1232.99
459.099	1249.94
459.472	1251.97
459.845	1269.83
460.218	1289.94
460.591	1282.93
460.964	1331.07
461.337	1321.35
461.71	1355.02
462.083	1380.1
462.456	1377.39
462.829	1370.61
463.201	1429.6
463.574	1409.03
463.947	1463.49
464.32	1480.44
464.692	1458.07
465.065	1501.68
465.438	1543.49
465.81	1565.18
466.183	1564.05
466.555	1611.96
466.928	1604.05
467.3	1650.38
467.672	1653.32
468.045	1723.37
468.417	1712.53
468.789	1698.97
469.161	1810.15
469.534	1810.15
469.906	1832.75
470.278	1853.09
470.65	1895.35
471.022	1933.08
471.394	1995.91
471.766	2018.28
472.138	2033.87
472.51	2073.65
472.882	2141.44
473.253	2165.85
473.625	2217.82
473.997	2266.41
474.369	2265.05
474.74	2339.4
475.112	2441.77
475.484	2468.89
475.855	2535.55
476.227	2553.41
476.598	2630.02
476.97	2722.89
477.341	2804.25
477.713	2854.42
478.084	2920.86
478.455	3037.46
478.827	3065.71
479.198	3177.57
479.569	3200.17
479.94	3346.15
480.311	3406.72
480.682	3538.69
481.053	3600.84
481.424	3726.71
481.795	3813.49
482.166	3881.96
482.537	4022.07
482.908	4136.64
483.279	4225.68
483.65	4359.01
484.021	4517.65
484.391	4565.11
484.762	4689.62
485.133	4755.16
485.503	4905.44
485.874	5075.6
486.244	5178.42
486.615	5349.72
486.985	5456.16
487.356	5609.15
487.726	5700.9
488.097	5924.84
488.467	6006.42
488.837	6199.87
489.207	6322.12
489.578	6505.85
489.948	6623.36
490.318	6790.58
490.688	6863.58
491.058	7071.25
491.428	7271.7
491.798	7353.96
492.168	7596.44
492.538	7738.36
492.908	7855.19
493.278	8026.48
493.648	8071.91
494.017	8324.1
494.387	8451.33
494.757	8557.77
495.126	8723.64
495.496	8876.41
495.866	8959.57
496.235	9187.36
496.605	9275.04
496.974	9394.81
497.344	9520
497.713	9605.43
498.082	9840.45
498.452	9975.81
498.821	10044.51
499.19	10162.25
499.559	10243.83
499.928	10394.56
500.298	10544.16
500.667	10660.09
501.036	10754.77
501.405	10867.54
501.774	11029.57
502.143	11110.7
502.512	11146.63
502.88	11318.83
503.249	11340.52
503.618	11525.6
503.987	11611.25
504.356	11715.2
504.724	11862.09
505.093	11847.17
505.462	11904.57
505.83	12086.72
506.199	12188.86
506.567	12356.77
506.936	12357.67
507.304	12512.92
507.672	12553.6
508.041	12643.76
508.409	12727.6
508.777	12818.9
509.145	12950.87
509.514	12974.6
509.882	13005.34
510.25	13087.14
510.618	13150.42
510.986	13181.38
511.354	13338.89
511.722	13450.97
512.09	13504.53
512.458	13463.86
512.826	13623.62
513.193	13686.67
513.561	13700.23
513.929	13715.15
514.297	13748.14
514.664	13879.44
515.032	13945.88
515.4	13999.89
515.767	14073.78
516.135	14168.02
516.502	14080.79
516.869	14209.6
517.237	14324.17
517.604	14239.65
517.972	14316.49
518.339	14409.59
518.706	14338.41
519.073	14421.8
519.44	14523.71
519.808	14467.67
520.175	14535.01
520.542	14645.52
520.909	14613.2
521.276	14702.69
521.643	14713.99
522.009	14850.71
522.376	14889.35
522.743	14934.78
523.11	15018.39
523.477	15081.89
523.843	15092.29
524.21	15172.06
524.577	15245.5
524.943	15266.52
525.31	15306.74
525.676	15187.88
526.043	15298.61
526.409	15339.96
526.776	15277.82
527.142	15455.67
527.508	15473.97
527.874	15553.74
528.241	15506.06
528.607	15403.01
528.973	15553.29
529.339	15514.42
529.705	15578.83
530.071	15619.96
530.437	15570.92
530.803	15629.45
531.169	15619.28
531.535	15621.09
531.901	15544.03
532.267	15565.95
532.632	15543.35
532.998	15604.14
533.364	15533.86
533.73	15536.79
534.095	15478.72
534.461	15483.01
534.826	15652.72
535.192	15447.31
535.557	15611.37
535.923	15362.79
536.288	15494.76
536.653	15473.29
537.019	15440.75
537.384	15355.56
537.749	15382
538.114	15348.33
538.479	15202.57
538.845	15304.71
539.21	15290.02
539.575	15209.8
539.94	15123.92
540.305	15244.15
540.67	15104.04
541.034	15159.18
541.399	15085.96
541.764	15047.77
542.129	15094.32
542.494	15023.81
542.858	14960.09
543.223	14895.46
543.587	14918.73
543.952	14859.75
544.316	14816.59
544.681	14699.75
545.045	14684.39
545.41	14788.11
545.774	14768.68
546.138	14683.48
546.503	14631.96
546.867	14537.73
547.231	14629.47
547.595	14497.95
547.959	14485.75
548.324	14372.08
548.688	14391.29
549.052	14378.63
549.416	14389.03
549.779	14244.17
550.143	14222.48
550.507	14303.38
550.871	14224.06
551.235	14100.67
551.599	14156.94
551.962	14159.43
552.326	14235.13
552.689	14050.73
553.053	14027.91
553.417	14011.64
553.78	14130.28
554.143	13961.92
554.507	13954.46
554.87	13972.77
555.234	14081.47
555.597	13909.27
555.96	13944.29
556.323	13955.82
556.686	13854.35
557.05	14022.48
557.413	13906.56
557.776	13854.58
558.139	13888.02
558.502	13841.02
558.865	13856.84
559.228	13852.32
559.59	13803.28
559.953	13814.13
560.316	13930.06
560.679	13827.69
561.041	13942.03
561.404	13790.4
561.767	13885.09
562.129	13784.75
562.492	13913.33
562.854	13749.72
563.217	13830.17
563.579	13835.82
563.941	13886.44
564.304	13901.81
564.666	13908.36
565.028	13932.09
565.39	13857.07
565.753	13904.3
566.115	13985.65
566.477	13926.22
566.839	13887.35
567.201	14026.1
567.563	13977.51
567.925	14010.96
568.287	14031.07
568.648	14051.86
569.01	13998.53
569.372	14102.93
569.734	14074.46
570.095	14157.62
570.457	14117.4
570.819	14076.49
571.18	14164.18
571.542	14221.12
571.903	14188.58
572.265	14153.33
572.626	14144.74
572.987	14225.87
573.349	14237.62
573.71	14237.62
574.071	14285.75
574.432	14164.4
574.794	14288.92
575.155	14306.09
575.516	14243.72
575.877	14265.87
576.238	14337.5
576.599	14316.94
576.96	14239.2
577.32	14224.96
577.681	14341.12
578.042	14300.9
578.403	14355.58
578.763	14330.95
579.124	14436.71
579.485	14255.92
579.845	14359.65
580.206	14347
580.566	14246.21
580.927	14353.1
581.287	14364.4
581.648	14266.77
582.008	14364.85
582.368	14292.31
582.728	14376.6
583.089	14310.39
583.449	14273.1
583.809	14322.59
584.169	14296.6
584.529	14281.01
584.889	14364.17
585.249	14201.01
585.609	14258.18
585.969	14299.77
586.329	14216.83
586.688	14286.21
587.048	14214.34
587.408	14084.63
587.768	14128.02
588.127	14208.92
588.487	14123.05
588.846	14231.97
589.206	14065.65
589.565	14120.33
589.925	14175.25
590.284	14109.94
590.643	14111.07
591.003	14171.86
591.362	14196.27
591.721	14156.49
592.08	14077.4
592.44	14111.3
592.799	14134.57
593.158	13980.23
593.517	14029.49
593.876	14092.77
594.235	14086.21
594.593	14090.28
594.952	14022.03
595.311	14043.05
595.67	14066.33
596.029	14125.98
596.387	14002.15
596.746	14107
597.104	14048.25
597.463	13986.78
597.822	14028.59
598.18	13998.53
598.538	14006.44
598.897	14098.64
599.255	13935.26
599.613	14174.57
599.972	13981.81
600.33	14108.36
600.688	13925.99
601.046	14023.84
601.404	14097.51
601.762	13948.14
602.12	14079.21
602.478	14098.19
602.836	14099.54
603.194	13978.87
603.552	14010.28
603.91	13903.17
604.268	14067.91
604.625	13958.31
604.983	14017.06
605.341	13975.03
605.698	14043.95
606.056	14098.87
606.413	14060.68
606.771	14108.81
607.128	14133.22
607.485	13997.17
607.843	14048.92
608.2	14140
608.557	14121.01
608.914	14060.45
609.272	14092.54
609.629	14159.43
609.986	14177.73
610.343	13980.68
610.7	14161.24
611.057	14172.99
611.414	14050.28
611.771	14123.05
612.127	14186.55
612.484	14178.41
612.841	14160.79
613.198	14227.9
613.554	14200.78
613.911	14300.44
614.267	14245.08
614.624	14184.51
614.98	14224.96
615.337	14377.96
615.693	14256.83
616.05	14284.62
616.406	14302.25
616.762	14329.59
617.118	14296.83
617.475	14328.47
617.831	14462.02
618.187	14386.99
618.543	14370.5
618.899	14371.18
619.255	14434.68
619.611	14415.02
619.967	14442.36
620.323	14443.94
620.678	14389.71
621.034	14398.29
621.39	14462.92
621.746	14378.18
622.101	14509.25
622.457	14401.23
622.812	14425.64
623.168	14429.25
623.523	14445.07
623.879	14541.34
624.234	14371.18
624.589	14440.55
624.945	14436.48
625.3	14459.54
625.655	14405.3
626.01	14530.27
626.365	14443.72
626.72	14471.74
627.075	14439.42
627.43	14406.88
627.785	14441.68
628.14	14468.8
628.495	14395.81
628.85	14349.93
629.205	14387.67
629.559	14439.87
629.914	14368.92
630.269	14341.8
630.623	14378.18
630.978	14303.15
631.332	14417.5
631.687	14466.77
632.041	14306.54
632.396	14368.24
632.75	14202.82
633.104	14299.31
633.459	14190.62
633.813	14112.65
634.167	14215.47
634.521	14197.85
634.875	14204.17
635.229	14229.71
635.583	14123.05
635.937	14114.69
636.291	14028.13
636.645	14074.01
636.999	14012.32
637.352	14067.45
637.706	14072.65
638.06	14025.87
638.413	14078.3
638.767	14098.19
639.121	14024.97
639.474	13906.33
639.828	13924.63
640.181	13936.16
640.534	13928.02
640.888	13919.89
641.241	13900
641.594	13889.83
641.947	13941.36
642.301	13874.24
642.654	13875.82
643.007	13832.88
643.36	13822.94
643.713	13802.83
644.066	13870.62
644.419	13830.17
644.771	13761.47
645.124	13602.16
645.477	13636.05
645.83	13510.86
646.182	13398.77
646.535	13405.33
646.888	13356.29
647.24	13384.54
647.593	13436.29
647.945	13380.47
648.298	13293.01
648.65	13324.88
649.002	13255.5
649.355	13359.23
649.707	13350.64
650.059	13379.79
650.411	13574.59
650.763	13569.16
651.115	13772.77
651.467	13645.77
651.819	13663.85
652.171	13620.24
652.523	13621.82
652.875	13688.48
653.227	13539.11
653.578	13703.17
653.93	13736.84
654.282	13643.51
654.633	13610.74
654.985	13623.17
655.337	13652.1
655.688	13666.11
656.039	13724.87
656.391	13593.34
656.742	13609.61
657.094	13623.17
657.445	13658.65
657.796	13649.16
658.147	13611.87
658.498	13638.99
658.849	13684.19
659.2	13695.94
659.551	13615.04
659.902	13621.82
660.253	13641.48
660.604	13639.9
660.955	13634.47
661.306	13683.06
661.656	13676.73
662.007	13664.53
662.358	13644.42
662.708	13728.48
663.059	13690.74
663.409	13567.58
663.76	13668.14
664.11	13713.79
664.461	13713.34
664.811	13682.61
665.161	13720.8
665.511	13681.48
665.862	13704.75
666.212	13633.12
666.562	13695.04
666.912	13763.51
667.262	13655.04
667.612	13682.61
667.962	13714.92
668.312	13674.92
668.662	13724.64
669.011	13696.62
669.361	13715.83
669.711	13668.82
670.06	13738.88
670.41	13614.13
670.76	13686.22
671.109	13730.51
671.459	13648.48
671.808	13598.54
672.157	13720.35
672.507	13524.42
672.856	13552.67
673.205	13615.94
673.554	13555.15
673.904	13499.11
674.253	13630.63
674.602	13630.63
674.951	13449.17
675.3	13312.67
675.649	13544.08
675.998	13444.42
676.346	13509.5
676.695	13508.83
677.044	13479
677.393	13487.58
677.741	13496.17
678.09	13437.19
678.438	13432.44
678.787	13414.82
679.135	13424.99
679.484	13338.66
679.832	13336.63
680.181	13239
680.529	13285.1
680.877	13243.3
681.225	13292.56
681.573	13403.52
681.922	13201.04
682.27	13233.35
682.618	13177.99
682.966	13175.73
683.314	13205.1
683.661	13193.81
684.009	13030.65
684.357	13053.02
684.705	12989.97
685.053	13027.93
685.4	13081.94
685.748	12945.68
686.095	12868.62
686.443	12848.28
686.79	12827.04
687.138	12796.53
687.485	12799.01
687.832	12790.65
688.18	12791.56
688.527	12721.95
688.874	12697.55
689.221	12615.97
689.568	12680.37
689.915	12585.23
690.262	12598.34
690.609	12511.56
690.956	12479.25
691.303	12431.11
691.65	12403.54
691.997	12410.55
692.344	12291.46
692.69	12281.51
693.037	12298.24
693.383	12186.6
693.73	12219.37
694.077	12171.69
694.423	12133.49
694.769	12038.13
695.116	12068.19
695.462	12025.93
695.808	11918.58
696.155	11892.6
696.501	11799.72
696.847	11847.85
697.193	11704.35
697.539	11775.54
697.885	11671.81
698.231	11579.84
698.577	11677.91
698.923	11634.75
699.269	11542.1
699.614	11469.33
699.96	11431.82
700.306	11434.08
700.651	11303.23
700.997	11404.25
701.342	11305.95
701.688	11303.46
702.033	11319.5
702.379	11252.84
702.724	11094.65
703.069	11129.91
703.415	11001.77
703.76	11143.69
704.105	11077.7
704.45	11051.04
704.795	10946.18
705.14	10893.75
705.485	10900.98
705.83	10792.06
706.175	10803.59
706.52	10745.28
706.865	10780.31
707.209	10733.76
707.554	10743.47
707.899	10736.24
708.243	10626.19
708.588	10597.04
708.932	10505.97
709.277	10516.81
709.621	10486.98
709.966	10401.11
710.31	10468.68
710.654	10399.3
710.998	10416.93
711.342	10425.52
711.687	10387.1
712.031	10284.73
712.375	10252.19
712.719	10274.79
713.063	10297.84
713.407	10244.05
713.75	10274.11
714.094	10222.13
714.438	10108.91
714.782	10162.92
715.125	10159.99
715.469	10161.57
715.812	10103.49
716.156	10108.46
716.499	10127.22
716.843	10118.86
717.186	9978.07
717.53	10007.67
717.873	10039.54
718.216	10036.15
718.559	9969.26
718.902	9891.75
719.246	9869.37
719.589	9880.45
719.932	9848.81
720.275	9893.55
720.617	9943.5
720.96	9805.65
721.303	9867.79
721.646	9862.82
721.989	9822.37
722.331	9809.71
722.674	9855.14
723.016	9789.15
723.359	9791.86
723.701	9810.62
724.044	9743.73
724.386	9645.65
724.729	9710.06
725.071	9682.03
725.413	9780.11
725.755	9705.08
726.097	9643.84
726.439	9578.76
726.782	9568.82
727.124	9658.08
727.465	9649.27
727.807	9667.57
728.149	9595.71
728.491	9563.62
728.833	9677.74
729.175	9623.73
729.516	9667.8
729.858	9590.28
730.199	9583.73
730.541	9615.59
730.882	9579.89
731.224	9652.66
731.565	9500.8
731.906	9559.55
732.248	9574.01
732.589	9513
732.93	9579.44
733.271	9533.11
733.612	9526.56
733.953	9583.51
734.294	9554.58
734.635	9548.7
734.976	9582.83
735.317	9447.46
735.658	9537.18
735.999	9550.96
736.339	9593.9
736.68	9552.09
737.021	9555.94
737.361	9519.78
737.702	9612.43
738.042	9611.07
738.383	9592.32
738.723	9607.46
739.063	9609.49
739.404	9658.31
739.744	9660.11
740.084	9632.09
740.424	9625.31
740.764	9646.78
741.104	9735.14
741.444	9637.51
741.784	9707.34
742.124	9765.87
742.464	9655.82
742.804	9720.68
743.143	9709.6
743.483	9792.77
743.823	9764.52
744.162	9827.34
744.502	9868.92
744.841	9882.93
745.181	9912.99
745.52	9935.36
745.86	9958.18
746.199	9989.6
746.538	10078.86
746.877	10143.26
747.216	10231.17
747.556	10231.85
747.895	10197.95
748.234	10293.54
748.573	10251.28
748.911	10412.64
749.25	10380.09
749.589	10491.73
749.928	10618.51
750.267	10716.13
750.605	10741.44
750.944	10823.47
751.283	10857.82
751.621	10967.42
751.96	11005.84
752.298	11132.16
752.636	11253.97
752.975	11332.39
753.313	11414.42
753.651	11610.57
753.989	11663.9
754.327	11834.75
754.666	11879.49
755.004	12015.53
755.342	12225.47
755.679	12426.14
756.017	12473.15
756.355	12594.27
756.693	12739.13
757.031	12941.83
757.368	12986.35
757.706	13206.91
758.044	13347.93
758.381	13577.07
758.719	13714.02
759.056	13892.77
759.394	14084.63
759.731	14227.22
760.068	14454.11
760.405	14490.49
760.743	14708.34
761.08	14946.75
761.417	15138.61
761.754	15308.33
762.091	15507.19
762.428	15574.53
762.765	15826.96
763.102	16061.07
763.438	16196.21
763.775	16314.85
764.112	16562.3
764.449	16804.33
764.785	16898.57
765.122	16974.27
765.458	17145.34
765.795	17350.76
766.131	17507.59
766.467	17615.38
766.804	17742.16
767.14	17912.33
767.476	18163.39
767.812	18195.03
768.148	18436.61
768.485	18431.41
768.821	18601.35
769.157	18841.11
769.492	18842.24
769.828	19039.08
770.164	19029.58
770.5	19232.06
770.836	19367.2
771.171	19433.19
771.507	19602.9
771.842	19626.18
772.178	19711.15
772.513	19869.79
772.849	19887.87
773.184	19848.55
773.519	20033.17
773.855	20119.95
774.19	20157.92
774.525	20364.24
774.86	20434.75
775.195	20440.39
775.53	20460.28
775.865	20435.42
776.2	20466.61
776.535	20434.52
776.87	20480.62
777.205	20562.2
777.539	20525.36
777.874	20721.74
778.209	20668.64
778.543	20679.94
778.878	20686.04
779.212	20812.81
779.547	20797.9
779.881	20881.29
780.215	20703.44
780.55	20952.02
780.884	20913.83
781.218	20783.66
781.552	20943.66
781.886	20799.93
782.22	20752.48
782.554	20869.31
782.888	20667.96
783.222	20644.01
783.556	20701.63
783.889	20706.6
784.223	20609.88
784.557	20618.7
784.89	20681.74
785.224	20628.64
785.557	20521.97
785.891	20587.28
786.224	20557.45
786.558	20525.82
786.891	20439.49
787.224	20440.85
787.557	20348.65
787.891	20511.81
788.224	20461.64
788.557	20427.97
788.89	20459.6
789.223	20495.53
789.556	20409.21
789.888	20317.69
790.221	20274.52
790.554	20138.93
790.887	20131.25
791.219	20068.65
791.552	20112.04
791.884	20059.16
792.217	20028.2
792.549	20009.9
792.882	19977.58
793.214	19716.35
793.546	19970.58
793.879	19703.46
794.211	19668.44
794.543	19798.15
794.875	19716.35
795.207	19834.31
795.539	19551.38
795.871	19614.43
796.203	19430.03
796.535	19449.69
796.867	19388.9
797.198	19356.58
797.53	19397.26
797.862	19282.91
798.193	19323.81
798.525	19158.39
798.856	19343.25
799.188	19088.79
799.519	19014.22
799.85	18966.99
800.182	18899.87
800.513	18900.1
800.844	18820.1
801.175	18890.38
801.506	18848.12
801.837	18757.95
802.168	18672.08
802.499	18735.13
802.83	18622.59
803.161	18564.06
803.491	18646.77
803.822	18637.96
804.153	18474.34
804.483	18303.73
804.814	18332.88
805.145	18334.01
805.475	18327.68
805.805	18252.2
806.136	18263.05
806.466	18281.36
806.796	18244.29
807.126	18057.41
807.457	18003.4
807.787	18009.05
808.117	18011.98
808.447	17909.84
808.777	17996.17
809.107	17804.31
809.436	17800.01
809.766	17778.77
810.096	17726.57
810.426	17644.08
810.755	17801.59
811.085	17696.06
811.414	17566.57
811.744	17547.36
812.073	17426.69
812.403	17482.05
812.732	17311.44
813.061	17295.84
813.39	17334.49
813.719	17196.41
814.049	17432.79
814.378	17379.68
814.707	17130.2
815.036	17260.14
815.365	17113.25
815.693	16921.84
816.022	17088.84
816.351	16969.53
816.68	16860.38
817.008	16937.66
817.337	16749.64
817.665	16765.92
817.994	16804.11
818.322	16902.63
818.651	16629.65
818.979	16626.94
819.307	16729.76
819.636	16649.76
819.964	16653.38
820.292	16645.01
820.62	16678.01
820.948	16574.51
821.276	16595.98
821.604	16613.6
821.932	16702.41
822.259	16596.43
822.587	16579.93
822.915	16511.91
823.243	16597.33
823.57	16595.98
823.898	16472.14
824.225	16529.76
824.553	16590.78
824.88	16595.07
825.207	16600.27
825.535	16604.79
825.862	16486.37
826.189	16515.53
826.516	16571.34
826.843	16604.79
827.17	16505.81
827.497	16651.79
827.824	16605.69
828.151	16616.54
828.478	16626.48
828.805	16587.16
829.131	16608.63
829.458	16512.36
829.785	16472.36
830.111	16458.8
830.438	16698.12
830.764	16591.23
831.09	16605.47
831.417	16577.67
831.743	16528.41
832.069	16502.42
832.395	16422.42
832.722	16512.36
833.048	16471.91
833.374	16457
833.7	16395.76
834.026	16416.09
834.351	16433.95
834.677	16365.02
835.003	16467.62
835.329	16439.6
835.654	16488.41
835.98	16389.88
836.306	16269.88
836.631	16358.47
836.956	16296.32
837.282	16272.59
837.607	16223.56
837.932	16224.01
838.258	16199.38
838.583	16248.19
838.908	16130
839.233	16182.43
839.558	16103.11
839.883	16031.7
840.208	16032.6
840.533	15930.46
840.858	16037.35
841.182	16000.06
841.507	15960.06
841.832	15904.02
842.156	15866.5
842.481	15839.16
842.805	15796.45
843.13	15798.26
843.454	15827.41
843.778	15725.72
844.103	15649.56
844.427	15646.4
844.751	15576.12
845.075	15526.17
845.399	15546.06
845.723	15421.54
846.047	15484.59
846.371	15394.43
846.695	15322.79
847.019	15200.08
847.343	15217.71
847.666	15092.29
847.99	15078.05
848.313	15097.71
848.637	14964.61
848.96	14930.48
849.284	14932.52
849.607	14765.74
849.931	14729.81
850.254	14673.77
850.577	14530.49
850.9	14546.09
851.223	14466.77
851.546	14325.53
851.869	14270.61
852.192	14347.45
852.515	14160.33
852.838	14053.22
853.161	14135.93
853.483	14090.05
853.806	13958.08
854.129	14009.15
854.451	13900.91
854.774	13870.62
855.096	13903.62
855.419	13769.61
855.741	13737.97
856.063	13765.54
856.385	13639.9
856.708	13626.56
857.03	13581.37
857.352	13513.35
857.674	13526.45
857.996	13474.48
858.318	13445.32
858.64	13396.74
858.961	13351.99
859.283	13232.9
859.605	13236.74
859.926	13268.15
860.248	13235.16
860.57	13174.82
860.891	13180.25
861.212	13116.07
861.534	12990.87
861.855	13069.97
862.176	13062.74
862.498	13020.7
862.819	13017.99
863.14	12893.7
863.461	12961.72
863.782	12882.85
864.103	12899.12
864.424	12870.88
864.745	12864.77
865.065	12768.51
865.386	12771.67
865.707	12797.21
866.027	12728.06
866.348	12681.05
866.668	12708.17
866.989	12659.13
867.309	12611.45
867.63	12705
867.95	12629.3
868.27	12496.42
868.59	12585.69
868.91	12539.13
869.23	12506.59
869.55	12452.81
869.87	12535.52
870.19	12471.79
870.51	12476.08
870.83	12435.63
871.15	12399.02
871.469	12430.21
871.789	12321.74
872.109	12392.24
872.428	12202.19
872.748	12327.39
873.067	12289.87
873.386	12321.96
873.706	12293.26
874.025	12185.47
874.344	12159.48
874.663	12165.81
874.982	12052.82
875.301	12136.66
875.62	12107.96
875.939	12072.48
876.258	12079.26
876.577	12085.36
876.896	12010.79
877.214	11995.87
877.533	11968.53
877.852	11971.46
878.17	12073.61
878.489	11973.95
878.807	11880.62
879.125	11872.03
879.444	11910.68
879.762	11882.2
880.08	11894.4
880.398	11767.63
880.716	11695.09
881.034	11816.89
881.352	11774.18
881.67	11686.73
881.988	11664.81
882.306	11665.71
882.624	11589.55
882.941	11546.39
883.259	11494.19
883.577	11594.07
883.894	11568.99
884.212	11427.52
884.529	11473.17
884.846	11447.64
885.164	11439.05
885.481	11318.37
885.798	11482.89
886.115	11306.62
886.432	11286.74
886.75	11247.64
887.067	11314.53
887.383	11213.29
887.7	11229.34
888.017	11150.02
888.334	11154.99
888.651	11200.64
888.967	11064.14
889.284	11007.42
889.6	11008.33
889.917	10919.29
890.233	10974.2
890.55	10894.88
890.866	10950.93
891.182	10841.33
891.498	10804.72
891.815	10865.28
892.131	10781.21
892.447	10734.66
892.763	10702.8
893.079	10643.59
893.395	10573.99
893.71	10659.63
894.026	10564.27
894.342	10594.55
894.657	10533.08
894.973	10463.26
895.289	10435.69
895.604	10441.79
895.92	10287.44
896.235	10331.06
896.55	10320.21
896.865	10253.32
897.181	10244.73
897.496	10222.81
897.811	10162.25
898.126	10104.85
898.441	10063.94
898.756	10090.16
899.071	10039.31
899.386	10018.07
899.7	9882.25
900.015	9896.27
900.33	9830.73
900.644	9851.07
900.959	9818.08
901.273	9762.03
901.588	9718.42
901.902	9668.47
902.216	9681.13
902.531	9620.79
902.845	9544.86
903.159	9538.76
903.473	9478.42
903.787	9517.52
904.101	9431.87
904.415	9402.72
904.729	9383.28
905.042	9312.33
905.356	9343.96
905.67	9322.27
905.984	9303.96
906.297	9183.52
906.611	9145.32
906.924	9169.5
907.237	9158.66
907.551	9064.87
907.864	9023.75
908.177	9023.75
908.491	8915.5
908.804	8909.85
909.117	8836.63
909.43	8805.9
909.743	8725.22
910.056	8743.98
910.368	8738.1
910.681	8697.65
910.994	8678.22
911.307	8626.24
911.619	8636.41
911.932	8661.04
912.244	8520.26
912.557	8470.99
912.869	8407.49
913.181	8380.15
913.494	8336.53
913.806	8316.65
914.118	8311
914.43	8270.32
914.742	8243.43
915.054	8234.39
915.366	8208.63
915.678	8133.83
915.99	8094.96
916.302	8014.73
916.613	7992.13
916.925	8024.9
917.236	7978.35
917.548	7890.67
917.859	7933.38
918.171	7866.94
918.482	7810.44
918.794	7798.02
919.105	7795.53
919.416	7672.37
919.727	7723.44
920.038	7693.61
920.349	7626.49
920.66	7577.46
920.971	7619.94
921.282	7554.63
921.593	7524.12
921.903	7462.88
922.214	7493.62
922.525	7363.9
922.835	7397.8
923.146	7351.93
923.456	7367.07
923.767	7247.07
924.077	7291.14
924.387	7231.48
924.697	7215.66
925.008	7184.47
925.318	7193.06
925.628	7157.81
925.938	7083.91
926.248	7088.66
926.558	7022.89
926.867	6987.87
927.177	6973.86
927.487	6990.8
927.796	6902.22
928.106	6885.5
928.416	6841.2
928.725	6871.26
929.034	6764.37
929.344	6799.85
929.653	6726.86
929.962	6660.64
930.271	6630.59
930.581	6593.3
930.89	6581.1
931.199	6556.92
931.508	6577.93
931.817	6600.76
932.125	6523.02
932.434	6476.92
932.743	6445.06
933.051	6431.27
933.36	6406.19
933.669	6397.15
933.977	6344.95
934.286	6387.88
934.594	6343.82
934.902	6246.64
935.21	6226.08
935.519	6247.1
935.827	6204.84
936.135	6182.46
936.443	6118.29
936.751	6154.89
937.059	6083.03
937.367	6034.22
937.674	6091.39
937.982	6015.01
938.29	5978.85
938.597	5971.85
938.905	5916.03
939.213	5900.44
939.52	5874.22
939.827	5885.3
940.135	5837.16
940.442	5828.35
940.749	5802.14
941.056	5790.16
941.363	5722.59
941.67	5685.75
941.977	5642.59
942.284	5648.92
942.591	5636.04
942.898	5629.26
943.205	5591.52
943.511	5508.13
943.818	5591.97
944.125	5531.86
944.431	5524.85
944.738	5496.38
945.044	5463.84
945.35	5440.34
945.657	5420.22
945.963	5376.16
946.269	5376.38
946.575	5343.84
946.881	5258.87
947.187	5296.16
947.493	5248.93
947.799	5222.26
948.105	5242.15
948.41	5140.68
948.716	5203.96
949.022	5157.63
949.327	5167.58
949.633	5030.86
949.938	5128.71
950.244	5091.65
950.549	5039.9
950.854	5023.85
951.16	5007.58
951.465	4982.5
951.77	4940.92
952.075	4994.47
952.38	4901.14
952.685	4943.85
952.99	4849.62
953.294	4825.89
953.599	4810.75
953.904	4772.78
954.209	4782.95
954.513	4806.91
954.818	4773.69
955.122	4705.89
955.426	4713.12
955.731	4649.17
956.035	4669.28
956.339	4615.27
956.643	4638.32
956.948	4594.48
957.252	4556.52
957.556	4550.64
957.86	4482.85
958.163	4538.89
958.467	4513.81
958.771	4477.42
959.075	4426.35
959.378	4437.88
959.682	4399.01
959.985	4409.4
960.289	4437.43
960.592	4368.95
960.896	4375.28
961.199	4345.68
961.502	4308.84
961.805	4281.95
962.108	4278.79
962.411	4272.01
962.714	4217.09
963.017	4182.97
963.32	4199.47
963.623	4154.04
963.926	4152.01
964.228	4128.51
964.531	4132.57
964.833	4121.73
965.136	4084.44
965.438	4084.21
965.741	4054.84
966.043	4009.19
966.345	4037.44
966.648	4025.23
966.95	4017.32
967.252	3958.79
967.554	3944.78
967.856	3944.11
968.158	3887.16
968.46	3874.28
968.761	3884.9
969.063	3834.5
969.365	3859.81
969.666	3802.19
969.968	3806.93
970.269	3782.53
970.571	3802.87
970.872	3751.12
971.174	3752.7
971.475	3720.83
971.776	3693.94
972.077	3717.67
972.378	3705.92
972.679	3687.61
972.98	3701.63
973.281	3649.65
973.582	3639.93
973.883	3586.6
974.183	3590.22
974.484	3544.12
974.785	3510.9
975.085	3514.29
975.386	3562.19
975.686	3524.91
975.986	3490.33
976.287	3484.91
976.587	3457.79
976.887	3460.5
977.187	3458.47
977.487	3413.27
977.787	3411.69
978.087	3404.23
978.387	3366.72
978.687	3363.56
978.987	3325.36
979.286	3305.03
979.586	3345.48
979.885	3299.38
980.185	3310.68
980.484	3235.65
980.784	3253.28
981.083	3244.01
981.382	3255.08
981.682	3191.58
981.981	3186.61
982.28	3174.41
982.579	3112.04
982.878	3164.01
983.177	3135.31
983.475	3125.14
983.774	3079.27
984.073	3101.87
984.372	3073.62
984.67	3047.41
984.969	3061.87
985.267	3032.26
985.566	2997.46
985.864	3009.21
986.162	2981.87
986.461	2974.41
986.759	2931.93
987.057	2928.54
987.355	2924.02
987.653	2901.65
987.951	2889.67
988.249	2904.81
988.547	2848.99
988.844	2857.81
989.142	2846.73
989.44	2874.3
989.737	2826.17
990.035	2804.7
990.332	2790.01
990.63	2816.9
990.927	2794.31
991.224	2780.07
991.521	2745.27
991.819	2743.01
992.116	2737.13
992.413	2723.12
992.71	2698.71
993.006	2684.48
993.303	2695.78
993.6	2673.18
993.897	2633.63
994.193	2628.43
994.49	2640.64
994.787	2608.77
995.083	2564.03
995.379	2592.05
995.676	2570.81
995.972	2576.46
996.268	2530.81
996.565	2508.21
996.861	2536.01
997.157	2541.43
997.453	2499.17
997.749	2446.74
998.044	2493.52
998.34	2447.42
998.636	2445.39
998.932	2421.89
999.227	2418.27
999.523	2393.64
999.818	2414.43
1000.114	2413.52
1000.409	2357.48
1000.704	2352.73
1001	2336.46
1001.295	2339.18
1001.59	2316.35
1001.885	2290.14
1002.18	2284.04
1002.475	2255.34
1002.77	2254.88
1003.065	2227.77
1003.359	2256.69
1003.654	2210.14
1003.949	2180.99
1004.243	2209.69
1004.538	2213.53
1004.832	2185.28
1005.127	2165.17
1005.421	2149.58
1005.715	2140.99
1006.009	2133.76
1006.304	2138.73
1006.598	2135.11
1006.892	2094.66
1007.186	2078.17
1007.48	2091.27
1007.773	2058.73
1008.067	2057.83
1008.361	2034.78
1008.655	2033.2
1008.948	2005.63
1009.242	2001.56
1009.535	2023.93
1009.829	1987.55
1010.122	1950.49
1010.415	1972.41
1010.708	1906.64
1011.001	1943.93
1011.295	1883.37
1011.588	1912.75
1011.881	1925.4
1012.173	1890.83
1012.466	1897.38
1012.759	1868.68
1013.052	1841.56
1013.344	1861.67
1013.637	1836.59
1013.93	1813.54
1014.222	1819.64
1014.514	1797.72
1014.807	1782.35
1015.099	1800.21
1015.391	1769.93
1015.683	1754.56
1015.976	1786.65
1016.268	1739.42
1016.56	1723.15
1016.851	1682.02
1017.143	1670.27
1017.435	1679.98
1017.727	1666.65
1018.018	1663.26
1018.31	1677.05
1018.602	1642.02
1018.893	1658.06
1019.185	1609.93
1019.476	1616.03
1019.767	1628.23
1020.058	1582.59
1020.35	1601.57
1020.641	1580.33
1020.932	1544.62
1021.223	1556.37
1021.514	1564.05
1021.804	1533.55
1022.095	1510.05
1022.386	1527.9
1022.677	1492.87
1022.967	1514.56
1023.258	1472.08
1023.548	1479.54
1023.839	1493.77
1024.129	1459.65
1024.419	1435.92
1024.709	1410.16
1025	1450.84
1025.29	1422.82
1025.58	1411.52
1025.87	1392.08
1026.16	1411.29
1026.449	1388.01
1026.739	1356.15
1027.029	1365.64
1027.319	1338.98
1027.608	1332.65
1027.898	1323.61
1028.187	1327.45
1028.477	1360.9
1028.766	1287.9
1029.055	1286.55
1029.344	1258.53
1029.634	1291.29
1029.923	1259.66
1030.212	1258.07
1030.501	1251.97
1030.79	1251.07
1031.078	1240.9
1031.367	1238.41
1031.656	1201.13
1031.945	1229.6
1032.233	1210.62
1032.522	1205.87
1032.81	1224.63
1033.099	1184.18
1033.387	1181.24
1033.675	1172.88
1033.963	1176.72
1034.251	1161.81
1034.54	1137.17
1034.828	1146.66
1035.116	1112.99
1035.403	1119.55
1035.691	1101.02
1035.979	1122.71
1036.267	1105.54
1036.554	1103.5
1036.842	1068.7
1037.129	1084.52
1037.417	1069.6
1037.704	1060.11
1037.992	1027.35
1038.279	1032.09
1038.566	1044.97
1038.853	1044.97
1039.14	1044.97
