Data from hue_180_FLMS001491_00066.txt Node
Date: Tue Feb 07 16:47:19 GMT 2017
User: dcchb
Spectrometer: FLMS00149
Trigger mode: 0
Integration Time (sec): 2.000000E-2
Scans to average: 10
Electric dark correction enabled: true
Nonlinearity correction enabled: false
Boxcar width: 0
XAxis mode: Wavelengths
Number of Pixels in Spectrum: 2048
>>>>>Begin Spectral Data<<<<<
341.393	-11.77
341.776	-11.77
342.16	-11.77
342.543	-56.51
342.927	-82.95
343.31	-63.74
343.693	-76.62
344.077	-68.03
344.46	-43.63
344.843	-59
345.226	-34.14
345.61	-16.96
345.993	-11.31
346.376	-10.41
346.759	-7.7
347.142	25.75
347.525	35.01
347.908	64.39
348.291	70.04
348.674	88.35
349.057	108.01
349.44	112.75
349.823	160.66
350.206	164.73
350.588	186.65
350.971	200.88
351.354	199.98
351.737	235.46
352.119	231.39
352.502	251.96
352.884	270.26
353.267	273.2
353.65	298.06
354.032	288.57
354.414	308.68
354.797	324.05
355.179	325.4
355.562	316.59
355.944	319.53
356.326	345.29
356.709	332.41
357.091	309.36
357.473	348.45
357.855	362.91
358.238	332.41
358.62	331.73
359.002	340.77
359.384	328.34
359.766	323.82
360.148	343.25
360.53	332.63
360.912	317.49
361.294	325.18
361.676	327.66
362.057	331.95
362.439	327.21
362.821	313.65
363.203	328.56
363.584	318.62
363.966	340.32
364.348	316.14
364.729	299.86
365.111	312.52
365.493	328.56
365.874	331.05
366.256	312.75
366.637	307.1
367.019	287.21
367.4	322.01
367.781	319.3
368.163	315.91
368.544	302.35
368.925	311.39
369.306	314.33
369.688	303.03
370.069	302.58
370.45	295.35
370.831	305.51
371.212	325.63
371.593	306.87
371.974	312.97
372.355	305.29
372.736	328.56
373.117	308.23
373.498	296.93
373.879	305.51
374.26	294.89
374.641	314.1
375.021	296.48
375.402	318.4
375.783	332.18
376.163	331.05
376.544	325.85
376.925	319.98
377.305	306.42
377.686	296.02
378.066	311.39
378.447	327.21
378.827	329.69
379.208	314.55
379.588	320.66
379.968	345.74
380.349	324.5
380.729	338.73
381.109	345.51
381.489	318.62
381.87	326.3
382.25	341.45
382.63	339.86
383.01	340.99
383.39	327.43
383.77	342.35
384.15	314.78
384.53	327.21
384.91	350.26
385.29	343.25
385.67	350.26
386.049	340.09
386.429	343.71
386.809	353.65
387.189	353.87
387.568	348.68
387.948	332.18
388.328	343.48
388.707	337.83
389.087	345.51
389.466	355.23
389.846	345.97
390.225	355.23
390.605	352.74
390.984	355
391.363	355.68
391.743	368.11
392.122	355.23
392.501	386.64
392.881	380.99
393.26	370.6
393.639	364.95
394.018	365.85
394.397	386.42
394.776	370.37
395.155	401.78
395.534	376.93
395.913	377.15
396.292	367.43
396.671	379.41
397.05	365.4
397.429	377.38
397.808	370.37
398.186	385.74
398.565	401.33
398.944	380.09
399.323	419.18
399.701	387.09
400.08	398.39
400.458	402.69
400.837	399.52
401.215	396.81
401.594	395.68
401.972	406.98
402.351	438.39
402.729	402.01
403.107	405.62
403.486	429.35
403.864	421.9
404.242	431.39
404.62	417.38
404.999	424.38
405.377	436.81
405.755	434.55
406.133	440.88
406.511	425.51
406.889	440.88
407.267	457.37
407.645	477.04
408.023	468.22
408.401	464.61
408.779	462.35
409.156	463.7
409.534	466.41
409.912	478.62
410.29	506.19
410.667	494.66
411.045	507.77
411.422	510.03
411.8	520.88
412.178	534.89
412.555	534.44
412.933	549.12
413.31	550.93
413.687	561.55
414.065	536.69
414.442	535.57
414.819	557.94
415.197	573.3
415.574	563.13
415.951	607.65
416.328	598.84
416.705	608.56
417.082	615.11
417.46	595.9
417.837	646.07
418.214	646.52
418.591	671.38
418.967	643.13
419.344	648.56
419.721	667.99
420.098	687.2
420.475	670.93
420.852	691.27
421.228	690.59
421.605	715
421.982	695.33
422.358	722.23
422.735	750.93
423.111	723.81
423.488	755.9
423.864	762.23
424.241	797.03
424.617	812.62
424.994	784.6
425.37	809.91
425.746	813.07
426.123	856.23
426.499	843.81
426.875	825.5
427.251	869.12
427.627	881.77
428.003	867.76
428.379	880.41
428.756	919.28
429.132	917.48
429.507	907.53
429.883	913.86
430.259	915.89
430.635	931.26
431.011	961.32
431.387	981.88
431.763	969.45
432.138	971.94
432.514	1033.86
432.89	1031.37
433.265	1057.13
433.641	1044.03
434.016	1065.95
434.392	1094.65
434.767	1116.11
435.143	1122.22
435.518	1128.09
435.894	1131.03
436.269	1176.9
436.644	1195.21
437.02	1182.55
437.395	1220.07
437.77	1247.18
438.145	1258.48
438.52	1278.6
438.895	1312.49
439.271	1284.25
439.646	1341.65
440.021	1343.68
440.395	1362.66
440.77	1354.75
441.145	1374.19
441.52	1391.14
441.895	1392.94
442.27	1430.91
442.645	1428.42
443.019	1454.86
443.394	1454.41
443.769	1482.66
444.143	1453.73
444.518	1504.35
444.892	1496.9
445.267	1514.75
445.641	1539.83
446.016	1554.97
446.39	1529.21
446.764	1580.96
447.139	1571.02
447.513	1606.95
447.887	1634.29
448.262	1629.1
448.636	1650.56
449.01	1636.33
449.384	1646.95
449.758	1692.82
450.132	1692.6
450.506	1694.4
450.88	1714.29
451.254	1774.18
451.628	1759.26
452.002	1796.77
452.376	1792.03
452.75	1823.21
453.123	1823.67
453.497	1867.73
453.871	1894.17
454.244	1933.49
454.618	1914.74
454.992	1922.42
455.365	1982.76
455.739	1997.9
456.112	2000.16
456.486	2058.69
456.859	2024.79
457.232	2116.09
457.606	2085.35
457.979	2130.1
458.352	2134.17
458.725	2175.07
459.099	2179.82
459.472	2239.48
459.845	2271.56
460.218	2267.95
460.591	2295.07
460.964	2326.25
461.337	2385.46
461.71	2382.3
462.083	2439.47
462.456	2454.84
462.829	2514.5
463.201	2482.18
463.574	2499.13
463.947	2567.83
464.32	2634.72
464.692	2647.37
465.065	2645.34
465.438	2717.2
465.81	2774.38
466.183	2799.69
466.555	2810.08
466.928	2869.06
467.3	2895.95
467.672	2906.8
468.045	3022.28
468.417	2969.63
468.789	3102.05
469.161	3055.95
469.534	3136.85
469.906	3219.11
470.278	3255.49
470.65	3276.28
471.022	3278.09
471.394	3415.94
471.766	3482.61
472.138	3458.2
472.51	3539.78
472.882	3620.46
473.253	3627.01
473.625	3716.95
473.997	3775.48
474.369	3809.6
474.74	3876.04
475.112	3962.82
475.484	4036.72
475.855	4118.97
476.227	4156.94
476.598	4293.88
476.97	4279.87
477.341	4479.87
477.713	4490.49
478.084	4532.97
478.455	4688.68
478.827	4750.6
479.198	4892.96
479.569	4911.72
479.94	5014.09
480.311	5062.9
480.682	5232.16
481.053	5301.32
481.424	5382.9
481.795	5526.85
482.166	5608.2
482.537	5687.75
482.908	5831.02
483.279	5908.98
483.65	6021.97
484.021	6111.92
484.391	6209.09
484.762	6292.48
485.133	6346.26
485.503	6419.25
485.874	6581.28
486.244	6742.18
486.615	6867.83
486.985	6940.82
487.356	7008.16
487.726	7115.73
488.097	7288.61
488.467	7309.4
488.837	7456.74
489.207	7593.46
489.578	7699.9
489.948	7760.46
490.318	7858.54
490.688	7883.62
491.058	8100.79
491.428	8155.25
491.798	8269.6
492.168	8421.91
492.538	8486.32
492.908	8545.75
493.278	8703.49
493.648	8710.94
494.017	8807.66
494.387	8956.36
494.757	8968.79
495.126	9104.83
495.496	9148.67
495.866	9220.99
496.235	9325.84
496.605	9313.19
496.974	9384.15
497.344	9499.85
497.713	9512.28
498.082	9623.91
498.452	9696.91
498.821	9747.07
499.19	9710.24
499.559	9817.13
499.928	9878.37
500.298	9964.02
500.667	10063
501.036	10011.25
501.405	10168.98
501.774	10102.09
502.143	10219.38
502.512	10281.3
502.88	10288.53
503.249	10319.26
503.618	10387.51
503.987	10411.24
504.356	10428.41
504.724	10545.92
505.093	10453.72
505.462	10546.38
505.83	10604.9
506.199	10690.33
506.567	10746.6
506.936	10740.49
507.304	10789.53
507.672	10865.46
508.041	10834.96
508.409	10911.79
508.777	10985.69
509.145	11034.5
509.514	11011.67
509.882	11031.11
510.25	11087.15
510.618	11142.74
510.986	11141.39
511.354	11148.85
511.722	11201.27
512.09	11284.21
512.458	11188.39
512.826	11293.25
513.193	11339.57
513.561	11297.54
513.929	11376.41
514.297	11458.67
514.664	11471.55
515.032	11453.92
515.4	11423.41
515.767	11418.22
516.135	11500.02
516.502	11434.26
516.869	11500.93
517.237	11535.95
517.604	11456.63
517.972	11543.64
518.339	11598.78
518.706	11564.65
519.073	11566.01
519.44	11657.98
519.808	11693.69
520.175	11641.04
520.542	11771.43
520.909	11735.27
521.276	11752.9
521.643	11764.65
522.009	11770.75
522.376	11807.13
522.743	11785.21
523.11	11855.04
523.477	11954.7
523.843	11949.28
524.21	11990.86
524.577	11950.63
524.943	11933.91
525.31	11999.22
525.676	12029.05
526.043	11967.13
526.409	11962.84
526.776	12033.34
527.142	12025.43
527.508	12088.93
527.874	12113.57
528.241	11990.86
528.607	12060.91
528.973	12098.42
529.339	12027.24
529.705	12070.4
530.071	12043.51
530.437	12111.53
530.803	12001.48
531.169	12095.49
531.535	11922.38
531.901	11936.17
532.267	11901.59
532.632	11925.32
532.998	11948.82
533.364	11948.6
533.73	11854.59
534.095	11879.45
534.461	11830.64
534.826	11812.1
535.192	11846.68
535.557	11787.92
535.923	11697.31
536.288	11725.33
536.653	11724.65
537.019	11562.17
537.384	11612.79
537.749	11597.2
538.114	11578.44
538.479	11455.05
538.845	11508.84
539.21	11392.91
539.575	11401.72
539.94	11416.63
540.305	11366.24
540.67	11405.79
541.034	11229.3
541.399	11260.48
541.764	11258.9
542.129	11120.15
542.494	11035.4
542.858	11129.86
543.223	11080.37
543.587	11067.27
543.952	10992.92
544.316	11045.12
544.681	10928.29
545.045	10953.6
545.41	10856.88
545.774	10780.49
546.138	10755.64
546.503	10712.25
546.867	10688.07
547.231	10676.77
547.595	10590.67
547.959	10584.34
548.324	10461.41
548.688	10483.1
549.052	10522.2
549.416	10456.89
549.779	10398.13
550.143	10380.73
550.507	10380.5
550.871	10299.38
551.235	10277
551.599	10284.46
551.962	10243.56
552.326	10139.61
552.689	10145.26
553.053	10052.83
553.417	10130.79
553.78	10179.83
554.143	10024.36
554.507	10060.96
554.87	10022.77
555.234	10036.78
555.597	9946.17
555.96	9900.74
556.323	9918.82
556.686	9802.89
557.05	9788.66
557.413	9830.91
557.776	9835.43
558.139	9795.66
558.502	9801.54
558.865	9769.22
559.228	9796.34
559.59	9711.82
559.953	9762.44
560.316	9775.32
560.679	9663.23
561.041	9764.02
561.404	9711.82
561.767	9765.15
562.129	9651.94
562.492	9692.84
562.854	9619.62
563.217	9625.04
563.579	9637.92
563.941	9654.2
564.304	9651.03
564.666	9673.18
565.028	9649.68
565.39	9681.09
565.753	9713.4
566.115	9714.08
566.477	9689
566.839	9686.96
567.201	9657.59
567.563	9717.24
567.925	9740.97
568.287	9678.38
568.648	9679.73
569.01	9693.29
569.372	9778.71
569.734	9606.06
570.095	9743.23
570.457	9778.03
570.819	9641.99
571.18	9614.65
571.542	9706.85
571.903	9711.82
572.265	9748.88
572.626	9799.73
572.987	9727.87
573.349	9705.95
573.71	9684.03
574.071	9707.3
574.432	9785.94
574.794	9813.51
575.155	9759.5
575.516	9684.7
575.877	9827.98
576.238	9684.03
576.599	9752.72
576.96	9735.78
577.32	9742.78
577.681	9694.42
578.042	9737.58
578.403	9788.66
578.763	9718.15
579.124	9696.45
579.485	9756.11
579.845	9795.89
580.206	9668.21
580.566	9733.52
580.927	9727.19
581.287	9753.18
581.648	9750.46
582.008	9712.27
582.368	9667.75
582.728	9770.58
583.089	9717.7
583.449	9678.6
583.809	9713.4
584.169	9700.75
584.529	9657.59
584.889	9773.97
585.249	9643.8
585.609	9639.73
585.969	9687.19
586.329	9601.99
586.688	9606.06
587.048	9612.16
587.408	9586.85
587.768	9612.61
588.127	9548.21
588.487	9511.37
588.846	9592.28
589.206	9500.98
589.565	9517.02
589.925	9528.55
590.284	9536.23
590.643	9535.55
591.003	9583.69
591.362	9506.85
591.721	9517.48
592.08	9495.78
592.44	9494.88
592.799	9586.4
593.158	9471.15
593.517	9456.46
593.876	9463.01
594.235	9428.89
594.593	9494.43
594.952	9454.88
595.311	9365.16
595.67	9378.27
596.029	9471.83
596.387	9420.98
596.746	9470.25
597.104	9376.01
597.463	9426.63
597.822	9436.35
598.18	9353.64
598.538	9389.8
598.897	9410.13
599.255	9301.21
599.613	9444.94
599.972	9333.98
600.33	9442
600.688	9325.84
601.046	9365.62
601.404	9402
601.762	9396.12
602.12	9417.59
602.478	9403.35
602.836	9373.52
603.194	9344.15
603.552	9346.86
603.91	9296.46
604.268	9348.89
604.625	9368.78
604.983	9380.76
605.341	9286.07
605.698	9337.82
606.056	9373.75
606.413	9402.68
606.771	9335.56
607.128	9385.28
607.485	9280.42
607.843	9340.31
608.2	9360.19
608.557	9437.93
608.914	9366.29
609.272	9418.5
609.629	9385.95
609.986	9390.25
610.343	9304.37
610.7	9363.58
611.057	9381.43
611.414	9373.07
611.771	9405.84
612.127	9504.37
612.484	9388.21
612.841	9504.37
613.198	9471.6
613.554	9460.98
613.911	9455.56
614.267	9489.23
614.624	9434.99
614.98	9471.83
615.337	9546.4
615.693	9479.51
616.05	9483.58
616.406	9539.62
616.762	9500.3
617.118	9529.9
617.475	9399.74
617.831	9494.2
618.187	9519.28
618.543	9524.26
618.899	9633.63
619.255	9542.11
619.611	9555.44
619.967	9581.88
620.323	9620.07
620.678	9530.81
621.034	9551.37
621.39	9550.24
621.746	9555.67
622.101	9651.03
622.457	9542.79
622.812	9512.73
623.168	9589.34
623.523	9557.7
623.879	9545.27
624.234	9524.48
624.589	9535.33
624.945	9558.6
625.3	9510.24
625.655	9547.76
626.01	9533.29
626.365	9512.96
626.72	9552.28
627.075	9542.79
627.43	9566.06
627.785	9462.34
628.14	9551.83
628.495	9532.39
628.85	9465.5
629.205	9474.54
629.559	9494.2
629.914	9473.64
630.269	9463.24
630.623	9426.86
630.978	9408.55
631.332	9418.72
631.687	9477.48
632.041	9443.35
632.396	9407.2
632.75	9387.31
633.104	9398.16
633.459	9363.36
633.813	9360.87
634.167	9367.65
634.521	9341.89
634.875	9395.67
635.229	9333.98
635.583	9275.9
635.937	9337.82
636.291	9337.14
636.645	9279.06
636.999	9270.02
637.352	9251.27
637.706	9207.65
638.06	9281.78
638.413	9207.65
638.767	9200.87
639.121	9238.16
639.474	9117.71
639.828	9185.96
640.181	9220.08
640.534	9227.31
640.888	9128.11
641.241	9121.33
641.594	9080.88
641.947	9120.65
642.301	9093.53
642.654	9107.32
643.007	9168.56
643.36	9094.66
643.713	9103.7
644.066	9139.86
644.419	9049.01
644.771	8995.23
645.124	8922.92
645.477	8879.98
645.83	8895.35
646.182	8897.38
646.535	8873.65
646.888	8842.24
647.24	8816.25
647.593	8828
647.945	8846.98
648.298	8821.45
648.65	8747.55
649.002	8730.6
649.355	8871.39
649.707	8797.49
650.059	8802.92
650.411	8876.14
650.763	8928.79
651.115	9042.01
651.467	8979.86
651.819	8983.25
652.171	9025.51
652.523	8968.11
652.875	8953.65
653.227	8942.8
653.578	8934.21
653.93	8953.87
654.282	8945.97
654.633	8933.99
654.985	8934.89
655.337	8980.77
655.688	8944.38
656.039	9015.34
656.391	8926.08
656.742	8935.34
657.094	8913.65
657.445	9011.73
657.796	8973.08
658.147	8973.76
658.498	8924.5
658.849	9001.11
659.2	9014.89
659.551	8980.09
659.902	8975.12
660.253	9028.68
660.604	9094.89
660.955	8987.09
661.306	8990.26
661.656	9039.75
662.007	9031.39
662.358	9018.96
662.708	9061.67
663.059	9006.08
663.409	8983.03
663.76	9127.66
664.11	9042.23
664.461	9069.8
664.811	9110.93
665.161	9123.36
665.511	9023.93
665.862	9053.53
666.212	9096.47
666.562	9045.85
666.912	9072.52
667.262	9056.7
667.612	9038.39
667.962	9043.82
668.312	9027.32
668.662	9020.31
669.011	9050.82
669.361	9029.58
669.711	9051.73
670.06	9042.46
670.41	9043.82
670.76	8995.68
671.109	9004.49
671.459	8965.85
671.808	8980.77
672.157	9055.34
672.507	8966.3
672.856	8980.54
673.205	8942.58
673.554	9031.84
673.904	8942.58
674.253	9013.08
674.602	9007.43
674.951	8858.28
675.3	8797.95
675.649	8930.82
675.998	8870.49
676.346	8861.9
676.695	8902.35
677.044	8894.44
677.393	8883.37
677.741	8863.48
678.09	8910.49
678.438	8838.4
678.787	8846.98
679.135	8871.17
679.484	8747.55
679.832	8808.34
680.181	8726.76
680.529	8760.43
680.877	8731.96
681.225	8800.43
681.573	8798.17
681.922	8762.02
682.27	8675.24
682.618	8713.43
682.966	8639.98
683.314	8713.43
683.661	8587.56
684.009	8574.68
684.357	8644.5
684.705	8538.29
685.053	8574.68
685.4	8539.65
685.748	8493.77
686.095	8550.72
686.443	8424.62
686.79	8416.71
687.138	8468.69
687.485	8452.19
687.832	8398.86
688.18	8413.78
688.527	8375.58
688.874	8350.27
689.221	8351.86
689.568	8319.32
689.915	8301.91
690.262	8261.92
690.609	8230.96
690.956	8167.91
691.303	8198.64
691.65	8147.57
691.997	8192.76
692.344	8062.37
692.69	8094.91
693.037	8091.75
693.383	7972.21
693.73	8028.02
694.077	7925.2
694.423	7941.02
694.769	7905.77
695.116	7915.94
695.462	7842.04
695.808	7848.37
696.155	7842.49
696.501	7796.84
696.847	7762.72
697.193	7671.65
697.539	7623.06
697.885	7623.97
698.231	7647.24
698.577	7620.58
698.923	7636.17
699.269	7521.6
699.614	7537.64
699.96	7418.1
700.306	7513.01
700.651	7404.08
700.997	7404.08
701.342	7384.88
701.688	7405.44
702.033	7342.39
702.379	7305.1
702.724	7256.74
703.069	7252.9
703.415	7220.81
703.76	7199.34
704.105	7220.36
704.45	7172.68
704.795	7123.19
705.14	7191.21
705.485	7135.39
705.83	7062.17
706.175	7028.5
706.52	7068.05
706.865	7038.67
707.209	7039.8
707.554	6995.06
707.899	6979.01
708.243	6957.54
708.588	6889.07
708.932	6854.04
709.277	6849.3
709.621	6868.96
709.966	6808.39
710.31	6867.83
710.654	6788.28
710.998	6727.94
711.342	6741.28
711.687	6719.58
712.031	6723.42
712.375	6666.03
712.719	6734.72
713.063	6734.72
713.407	6684.78
713.75	6632.81
714.094	6668.06
714.438	6601.17
714.782	6612.02
715.125	6588.29
715.469	6576.76
715.812	6583.54
716.156	6523.2
716.499	6507.39
716.843	6577.89
717.186	6503.32
717.53	6560.04
717.873	6532.02
718.216	6537.67
718.559	6506.71
718.902	6457.9
719.246	6495.41
719.589	6459.25
719.932	6423.32
720.275	6457.22
720.617	6437.56
720.96	6408.4
721.303	6379.03
721.646	6427.39
721.989	6374.73
722.331	6393.72
722.674	6363.21
723.016	6343.1
723.359	6390.1
723.701	6400.5
724.044	6301.74
724.386	6349.65
724.729	6357.56
725.071	6329.76
725.413	6336.54
725.755	6327.28
726.097	6290.67
726.439	6247.73
726.782	6339.71
727.124	6303.32
727.465	6313.49
727.807	6303.1
728.149	6240.05
728.491	6278.92
728.833	6332.25
729.175	6242.08
729.516	6313.49
729.858	6219.94
730.199	6270.78
730.541	6265.81
730.882	6258.58
731.224	6240.27
731.565	6253.83
731.906	6300.84
732.248	6296.54
732.589	6231.01
732.93	6234.17
733.271	6249.09
733.612	6280.05
733.953	6270.56
734.294	6224.45
734.635	6305.13
734.976	6270.56
735.317	6227.39
735.658	6239.14
735.999	6246.15
736.339	6256.54
736.68	6257
737.021	6318.92
737.361	6256.09
737.702	6300.39
738.042	6259.26
738.383	6300.84
738.723	6341.97
739.063	6341.97
739.404	6366.37
739.744	6294.06
740.084	6359.14
740.424	6407.95
740.764	6360.27
741.104	6385.35
741.444	6388.52
741.784	6425.13
742.124	6421.51
742.464	6478.69
742.804	6424.68
743.143	6438.01
743.483	6456.09
743.823	6470.78
744.162	6548.51
744.502	6559.14
744.841	6520.72
745.181	6611.11
745.52	6660.38
745.86	6713.71
746.199	6723.2
746.538	6731.79
746.877	6773.37
747.216	6811.33
747.556	6803.65
747.895	6880.93
748.234	6953.48
748.573	6981.72
748.911	7030.08
749.25	7102.17
749.589	7154.37
749.928	7174.49
750.267	7337.87
750.605	7283.41
750.944	7397.98
751.283	7461.26
751.621	7577.19
751.96	7545.78
752.298	7733.57
752.636	7812.21
752.975	7876.61
753.313	7937.63
753.651	8098.98
753.989	8114.8
754.327	8236.83
754.666	8368.35
755.004	8418.97
755.342	8667.1
755.679	8703.49
756.017	8834.33
756.355	8953.2
756.693	9036.36
757.031	9198.61
757.368	9299.63
757.706	9482.67
758.044	9574.88
758.381	9741.2
758.719	9856.68
759.056	10026.16
759.394	10168.53
759.731	10258.7
760.068	10498.47
760.405	10597.9
760.743	10716.54
761.08	10967.83
761.417	11078.34
761.754	11252.35
762.091	11393.36
762.428	11614.37
762.765	11787.92
763.102	11845.55
763.438	11984.08
763.775	12207.8
764.112	12382.94
764.449	12594.23
764.785	12640.11
765.122	12812.76
765.458	12969.14
765.795	13167.78
766.131	13238.96
766.467	13347.88
766.804	13560.76
767.14	13640.76
767.476	13810.02
767.812	13960.07
768.148	14121.87
768.485	14197.13
768.821	14325.26
769.157	14377.91
769.492	14551.47
769.828	14618.58
770.164	14684.12
770.5	14872.82
770.836	14981.06
771.171	15022.64
771.507	15175.41
771.842	15223.31
772.178	15350.09
772.513	15437.55
772.849	15489.75
773.184	15537.66
773.519	15680.7
773.855	15814.49
774.19	15712.57
774.525	15861.04
774.86	15989.17
775.195	16051.54
775.53	16122.5
775.865	16137.41
776.2	16190.07
776.535	16035.27
776.87	16209.5
777.205	16231.65
777.539	16301.03
777.874	16452.66
778.209	16390.74
778.543	16371.76
778.878	16389.61
779.212	16491.08
779.547	16452.43
779.881	16538.99
780.215	16409.95
780.55	16699.43
780.884	16590.51
781.218	16607.46
781.552	16675.48
781.886	16666.44
782.22	16593.9
782.554	16671.41
782.888	16561.81
783.222	16612.2
783.556	16623.73
783.889	16574.69
784.223	16465.54
784.557	16521.36
784.89	16589.61
785.224	16523.62
785.557	16388.48
785.891	16502.6
786.224	16526.56
786.558	16582.37
786.891	16518.87
787.224	16484.98
787.557	16449.72
787.891	16339.9
788.224	16419.22
788.557	16454.47
788.89	16421.93
789.223	16385.77
789.556	16395.26
789.888	16362.72
790.221	16324.98
790.554	16207.02
790.887	16206.11
791.219	16258.54
791.552	16172.67
791.884	16146.45
792.217	16193.23
792.549	16206.11
792.882	16047.25
793.214	16101.26
793.546	16119.34
793.879	15955.95
794.211	15932.9
794.543	16008.38
794.875	16012.67
795.207	15987.14
795.539	15899.68
795.871	15920.92
796.203	15785.79
796.535	15724.09
796.867	15750.76
797.198	15655.85
797.53	15712.57
797.862	15568.39
798.193	15637.99
798.525	15634.15
798.856	15667.6
799.188	15427.15
799.519	15376.76
799.85	15382.41
800.182	15341.05
800.513	15354.61
800.844	15324.1
801.175	15387.38
801.506	15376.3
801.837	15264.22
802.168	15208.17
802.499	15157.33
802.83	15162.07
803.161	15129.31
803.491	15068.97
803.822	15060.83
804.153	15027.84
804.483	15011.12
804.814	14861.52
805.145	14909.88
805.475	14897.67
805.805	14830.78
806.136	14859.26
806.466	14795.53
806.796	14802.31
807.126	14638.92
807.457	14656.32
807.787	14676.89
808.117	14599.6
808.447	14579.49
808.777	14586.04
809.107	14519.38
809.436	14365.71
809.766	14490
810.096	14439.61
810.426	14383.34
810.755	14420.4
811.085	14411.13
811.414	14419.04
811.744	14278.25
812.073	14222.66
812.403	14285.49
812.732	14240.74
813.061	14168.88
813.39	14126.39
813.719	14128.65
814.049	14190.57
814.378	14085.94
814.707	14018.83
815.036	14093.17
815.365	13949.22
815.693	13873.29
816.022	13875.1
816.351	13791.26
816.68	13763.01
817.008	13854.99
817.337	13732.05
817.665	13646.86
817.994	13736.8
818.322	13669.91
818.651	13656.35
818.979	13644.37
819.307	13673.98
819.636	13651.15
819.964	13565.05
820.292	13646.41
820.62	13590.81
820.948	13490.93
821.276	13645.95
821.604	13659.29
821.932	13594.43
822.259	13618.61
822.587	13522.79
822.915	13590.36
823.243	13588.33
823.57	13532.29
823.898	13584.94
824.225	13558.95
824.553	13547.43
824.88	13556.92
825.207	13586.52
825.535	13492.06
825.862	13648.67
826.189	13527.77
826.516	13625.16
826.843	13661.55
827.17	13606.86
827.497	13569.12
827.824	13606.41
828.151	13608.44
828.478	13534.77
828.805	13657.03
829.131	13672.62
829.458	13592.4
829.785	13421.78
830.111	13575.9
830.438	13589.01
830.764	13580.87
831.09	13581.32
831.417	13512.62
831.743	13544.04
832.069	13583.58
832.395	13477.82
832.722	13559.86
833.048	13532.51
833.374	13535.68
833.7	13465.85
834.026	13483.02
834.351	13528.44
834.677	13485.96
835.003	13424.49
835.329	13482.12
835.654	13539.29
835.98	13357.15
836.306	13426.75
836.631	13382.68
836.956	13416.13
837.282	13426.75
837.607	13318.05
837.932	13326.42
838.258	13343.14
838.583	13248.68
838.908	13162.58
839.233	13192.18
839.558	13292.07
839.883	13208
840.208	13091.85
840.533	13085.97
840.858	13162.35
841.182	13059.08
841.507	13071.96
841.832	13039.19
842.156	13018.4
842.481	13059.08
842.805	12994.67
843.13	13029.02
843.454	12899.53
843.778	12947.89
844.103	12830.38
844.427	12781.8
844.751	12801.23
845.075	12806.43
845.399	12753.77
845.723	12632.42
846.047	12682.59
846.371	12523.27
846.695	12659.77
847.019	12462.03
847.343	12438.3
847.666	12383.16
847.99	12309.94
848.313	12377.97
848.637	12254.35
848.96	12213.45
849.284	12149.95
849.607	12109.5
849.931	12021.82
850.254	11976.17
850.577	12021.14
850.9	11843.74
851.223	11937.75
851.546	11799.9
851.869	11773.24
852.192	11791.99
852.515	11706.57
852.838	11646.69
853.161	11643.3
853.483	11577.31
853.806	11512
854.129	11487.37
854.451	11408.27
854.774	11413.25
855.096	11343.42
855.419	11360.14
855.741	11342.74
856.063	11280.59
856.385	11242.18
856.708	11187.49
857.03	11155.62
857.352	11141.84
857.674	11144.55
857.996	11050.77
858.318	10983.88
858.64	11010.77
858.961	10987.04
859.283	10912.24
859.605	10891.45
859.926	10978.45
860.248	10874.05
860.57	10766.03
860.891	10838.8
861.212	10798.57
861.534	10752.47
861.855	10687.16
862.176	10731.46
862.498	10732.36
862.819	10656.2
863.14	10683.32
863.461	10650.78
863.782	10555.19
864.103	10622.98
864.424	10566.26
864.745	10579.82
865.065	10587.96
865.386	10488.75
865.707	10509.31
866.027	10484.46
866.348	10422.76
866.668	10448.75
866.989	10468.64
867.309	10346.83
867.63	10374.85
867.95	10357.45
868.27	10356.1
868.59	10342.54
868.91	10270.45
869.23	10298.92
869.55	10264.12
869.87	10271.81
870.19	10266.38
870.51	10270
870.83	10245.59
871.15	10204.92
871.469	10154.97
871.789	10228.42
872.109	10153.39
872.428	10133.96
872.748	10155.88
873.067	10111.58
873.386	10055.99
873.706	10107.97
874.025	9980.51
874.344	10079.04
874.663	9985.26
874.982	10021.64
875.301	10025.03
875.62	9942.32
875.939	9932.83
876.258	9968.54
876.577	9892.16
876.896	9933.51
877.214	9948.88
877.533	9806.96
877.852	9893.74
878.17	9914.08
878.489	9894.41
878.807	9842.66
879.125	9828.65
879.444	9767.86
879.762	9763.34
880.08	9796.34
880.398	9743.91
880.716	9738.26
881.034	9750.92
881.352	9703.01
881.67	9692.39
881.988	9641.54
882.306	9662.56
882.624	9574.2
882.941	9519.28
883.259	9563.8
883.577	9492.39
883.894	9511.6
884.212	9481.32
884.529	9489.45
884.846	9444.48
885.164	9498.27
885.481	9351.6
885.798	9449
886.115	9311.15
886.432	9304.83
886.75	9335.33
887.067	9330.36
887.383	9263.7
887.7	9282.45
888.017	9247.65
888.334	9251.27
888.651	9228.67
888.967	9177.37
889.284	9149.58
889.6	9088.56
889.917	8999.07
890.233	9063.25
890.55	8998.39
890.866	8992.97
891.182	8986.42
891.498	8949.36
891.815	8958.39
892.131	8873.42
892.447	8872.29
892.763	8876.81
893.079	8761.56
893.395	8750.04
893.71	8752.3
894.026	8735.12
894.342	8712.3
894.657	8644.5
894.973	8658.06
895.289	8605.86
895.604	8611.06
895.92	8532.19
896.235	8502.59
896.55	8489.93
896.865	8538.07
897.181	8462.81
897.496	8477.5
897.811	8413.32
898.126	8370.16
898.441	8335.59
898.756	8306.21
899.071	8272.54
899.386	8251.97
899.7	8162.94
900.015	8115.93
900.33	8074.8
900.644	8162.03
900.959	8105.54
901.273	8074.35
901.588	8035.03
901.902	8019.21
902.216	8019.21
902.531	7969.72
902.845	7919.78
903.159	7916.61
903.473	7873.9
903.787	7810.63
904.101	7793.91
904.415	7739.44
904.729	7719.78
905.042	7726.11
905.356	7698.54
905.67	7639.78
905.984	7595.49
906.297	7665.1
906.611	7549.84
906.924	7525.21
907.237	7481.6
907.551	7533.12
907.864	7454.48
908.177	7472.56
908.491	7374.03
908.804	7350.53
909.117	7359.11
909.43	7274.82
909.743	7284.99
910.056	7187.37
910.368	7182.4
910.681	7121.61
910.994	7147.82
911.307	7117.09
911.619	7121.83
911.932	7084.32
912.244	7034.83
912.557	7040.48
912.869	6957.32
913.181	6931.56
913.494	6932.01
913.806	6851.78
914.118	6821.28
914.43	6785.12
914.742	6844.1
915.054	6790.99
915.366	6758
915.678	6743.09
915.99	6729.98
916.302	6642.07
916.613	6637.33
916.925	6629.19
917.236	6607.27
917.548	6609.98
917.859	6543.54
918.171	6506.93
918.482	6504.22
918.794	6460.83
919.105	6478.23
919.416	6389.2
919.727	6372.02
920.038	6412.92
920.349	6286.15
920.66	6351.91
920.971	6309.65
921.282	6216.09
921.593	6246.83
921.903	6193.5
922.214	6184.46
922.525	6170.67
922.835	6123.44
923.146	6068.53
923.456	6114.4
923.767	6097.23
924.077	6043.89
924.387	5991.69
924.697	5912.6
925.008	5985.59
925.318	5911.02
925.628	5910.56
925.938	5893.62
926.248	5858.81
926.558	5866.05
926.867	5781.53
927.177	5809.32
927.487	5774.3
927.796	5719.61
928.106	5689.1
928.416	5664.47
928.725	5699.05
929.034	5631.25
929.344	5647.3
929.653	5558.03
929.962	5591.25
930.271	5533.85
930.581	5551.7
930.89	5517.58
931.199	5437.58
931.508	5509.9
931.817	5445.94
932.125	5414.53
932.434	5437.13
932.743	5386.51
933.051	5353.52
933.36	5320.52
933.669	5328.89
933.977	5318.26
934.286	5304.03
934.594	5248.89
934.902	5196.01
935.21	5203.69
935.519	5192.17
935.827	5182.45
936.135	5149
936.443	5132.73
936.751	5121.21
937.059	5075.78
937.367	5044.15
937.674	5064.94
937.982	5003.02
938.29	4958.05
938.597	4992.85
938.905	4918.5
939.213	4889.57
939.52	4936.35
939.827	4897.71
940.135	4932.06
940.442	4842.34
940.749	4850.25
941.056	4851.84
941.363	4764.38
941.67	4763.7
941.977	4757.6
942.284	4748.79
942.591	4672.63
942.898	4673.54
943.205	4693.2
943.511	4647.1
943.818	4652.29
944.125	4596.25
944.431	4584.27
944.738	4592.63
945.044	4591.96
945.35	4488.91
945.657	4472.41
945.963	4445.97
946.269	4423.15
946.575	4447.1
946.881	4452.52
947.187	4431.28
947.493	4367.55
947.799	4344.73
948.105	4354.22
948.41	4292.75
948.716	4300.89
949.022	4316.26
949.327	4295.47
949.633	4274
949.938	4246.88
950.244	4229.48
950.549	4213.89
950.854	4206.88
951.16	4163.72
951.465	4140.22
951.77	4171.63
952.075	4163.72
952.38	4110.84
952.685	4077.39
952.99	4064.96
953.294	4022.25
953.599	4044.63
953.904	4031.74
954.209	4008.24
954.513	3989.03
954.818	3984.97
955.122	3958.3
955.426	3951.75
955.731	3922.82
956.035	3890.28
956.339	3872.88
956.643	3894.57
956.948	3838.3
957.252	3845.53
957.556	3805.54
957.86	3813.67
958.163	3810.28
958.467	3736.16
958.771	3799.43
959.075	3747.91
959.378	3695.71
959.682	3717.4
959.985	3698.65
960.289	3676.73
960.592	3679.89
960.896	3678.76
961.199	3621.36
961.502	3643.73
961.805	3583.17
962.108	3578.2
962.411	3560.57
962.714	3593.11
963.017	3534.81
963.32	3506.33
963.623	3511.08
963.926	3497.75
964.228	3491.65
964.531	3441.25
964.833	3468.6
965.136	3424.53
965.438	3407.35
965.741	3404.87
966.043	3370.29
966.345	3354.93
966.648	3347.92
966.95	3335.27
967.252	3294.14
967.554	3307.24
967.856	3299.33
968.158	3276.06
968.46	3244.65
968.761	3266.79
969.063	3243.97
969.365	3250.3
969.666	3208.72
969.968	3207.36
970.269	3186.34
970.571	3177.08
970.872	3176.4
971.174	3162.39
971.475	3108.15
971.776	3118.1
972.077	3097.53
972.378	3091.2
972.679	3107.02
972.98	3050.08
973.281	3072.22
973.582	3054.37
973.883	3020.02
974.183	3033.8
974.484	2993.81
974.785	3018.44
975.085	2972.11
975.386	2954.71
975.686	2939.8
975.986	2931.89
976.287	2910.64
976.587	2904.54
976.887	2882.17
977.187	2886.01
977.487	2878.1
977.787	2885.56
978.087	2854.6
978.387	2842.17
978.687	2808.05
978.987	2799.01
979.286	2794.94
979.586	2789.74
979.885	2749.97
980.185	2773.7
980.484	2753.36
980.784	2735.06
981.083	2757.2
981.382	2741.61
981.682	2719.46
981.981	2667.49
982.28	2699.35
982.579	2657.77
982.878	2655.74
983.177	2644.66
983.475	2613.02
983.774	2613.25
984.073	2587.94
984.372	2588.84
984.67	2594.27
984.969	2592.01
985.267	2580.71
985.566	2515.4
985.864	2556.75
986.162	2514.72
986.461	2506.13
986.759	2491.9
987.057	2471.79
987.355	2505.46
987.653	2500.26
987.951	2462.97
988.249	2432.92
988.547	2440.6
988.844	2421.17
989.142	2404.89
989.44	2411.45
989.737	2390.21
990.035	2367.61
990.332	2356.31
990.63	2349.3
990.927	2342.98
991.224	2321.96
991.521	2336.42
991.819	2338.68
992.116	2327.61
992.413	2276.76
992.71	2303.43
993.006	2270.66
993.303	2268.4
993.6	2274.5
993.897	2259.36
994.193	2239.48
994.49	2211.91
994.787	2219.59
995.083	2168.29
995.379	2164.9
995.676	2189.08
995.972	2164.45
996.268	2165.35
996.565	2160.38
996.861	2148.86
997.157	2144.56
997.453	2140.95
997.749	2118.12
998.044	2078.58
998.34	2113.38
998.636	2065.02
998.932	2025.92
999.227	2058.46
999.523	2044.9
999.818	2040.16
1000.114	2020.5
1000.409	1997.9
1000.704	2029.99
1001	2027.5
1001.295	1990.67
1001.59	1952.02
1001.885	1956.32
1002.18	1967.84
1002.475	1930.33
1002.77	1917.45
1003.065	1925.36
1003.359	1909.99
1003.654	1896.66
1003.949	1869.09
1004.243	1877.68
1004.538	1833.84
1004.832	1851.01
1005.127	1902.31
1005.421	1846.27
1005.715	1835.87
1006.009	1793.84
1006.304	1801.07
1006.598	1806.72
1006.892	1805.36
1007.186	1756.78
1007.48	1770.33
1007.773	1752.48
1008.067	1735.08
1008.361	1747.28
1008.655	1749.09
1008.948	1691.92
1009.242	1704.57
1009.535	1705.48
1009.829	1683.78
1010.122	1658.93
1010.415	1670.45
1010.708	1632.94
1011.001	1656.67
1011.295	1631.36
1011.588	1643.78
1011.881	1635.2
1012.173	1626.61
1012.466	1617.34
1012.759	1572.15
1013.052	1593.62
1013.344	1601.3
1013.637	1568.53
1013.93	1550.68
1014.222	1551.81
1014.514	1527.4
1014.807	1549.55
1015.099	1525.82
1015.391	1521.3
1015.683	1516.33
1015.976	1481.53
1016.268	1467.74
1016.56	1460.06
1016.851	1473.39
1017.143	1472.94
1017.435	1445.15
1017.727	1454.86
1018.018	1418.48
1018.31	1408.31
1018.602	1418.25
1018.893	1394.3
1019.185	1396.56
1019.476	1398.14
1019.767	1363.57
1020.058	1384.58
1020.35	1364.7
1020.641	1338.71
1020.932	1341.19
1021.223	1331.48
1021.514	1343.23
1021.804	1296.22
1022.095	1307.52
1022.386	1316.79
1022.677	1303.91
1022.967	1279.05
1023.258	1301.87
1023.548	1283.12
1023.839	1256.22
1024.129	1254.87
1024.419	1246.51
1024.709	1257.35
1025	1263.46
1025.29	1218.94
1025.58	1213.74
1025.87	1199.05
1026.16	1213.74
1026.449	1198.6
1026.739	1200.18
1027.029	1181.2
1027.319	1193.85
1027.608	1161.99
1027.898	1168.54
1028.187	1134.42
1028.477	1137.36
1028.766	1144.36
1029.055	1137.81
1029.344	1119.73
1029.634	1118.83
1029.923	1090.8
1030.212	1085.61
1030.501	1081.77
1030.79	1063.69
1031.078	1079.28
1031.367	1068.66
1031.656	1066.85
1031.945	1043.57
1032.233	1048.55
1032.522	1038.15
1032.81	1017.81
1033.099	1022.78
1033.387	1044.7
1033.675	1017.81
1033.963	1014.65
1034.251	997.7
1034.54	1017.81
1034.828	991.15
1035.116	992.05
1035.403	990.24
1035.691	975.1
1035.979	966.29
1036.267	970.58
1036.554	952.28
1036.842	965.16
1037.129	966.06
1037.417	909.11
1037.704	909.57
1037.992	924.93
1038.279	899.62
1038.566	901.66
1038.853	901.66
1039.14	901.66
