Data from hue_26_FLMS001491_00078.txt Node
Date: Tue Feb 07 17:14:30 GMT 2017
User: dcchb
Spectrometer: FLMS00149
Trigger mode: 0
Integration Time (sec): 2.000000E-2
Scans to average: 10
Electric dark correction enabled: true
Nonlinearity correction enabled: false
Boxcar width: 0
XAxis mode: Wavelengths
Number of Pixels in Spectrum: 2048
>>>>>Begin Spectral Data<<<<<
341.393	-23.95
341.776	-23.95
342.16	-23.95
342.543	-80.45
342.927	-66.89
343.31	-72.77
343.693	-58.08
344.077	-82.03
344.46	-55.14
344.843	-42.26
345.226	-20.56
345.61	-25.08
345.993	-48.81
346.376	5.65
346.759	11.98
347.142	19.66
347.525	39.1
347.908	48.36
348.291	76.16
348.674	89.72
349.057	114.12
349.44	115.48
349.823	142.6
350.206	168.13
350.588	203.84
350.971	226.43
351.354	251.29
351.737	230.73
352.119	256.94
352.502	260.11
352.884	278.41
353.267	277.05
353.65	288.81
354.032	281.35
354.414	312.08
354.797	291.07
355.179	303.27
355.562	328.35
355.944	348.01
356.326	336.94
356.709	337.62
357.091	338.52
357.473	339.65
357.855	340.78
358.238	323.61
358.62	341.01
359.002	324.29
359.384	341.01
359.766	314.57
360.148	329.71
360.53	339.2
360.912	353.66
361.294	306.21
361.676	335.58
362.057	321.57
362.439	317.05
362.821	319.77
363.203	309.14
363.584	327.45
363.966	315.47
364.348	322.7
364.729	332.42
365.111	338.3
365.493	323.61
365.874	320.44
366.256	303.27
366.637	313.66
367.019	321.8
367.4	291.74
367.781	317.05
368.163	291.74
368.544	310.05
368.925	312.31
369.306	320.67
369.688	292.87
370.069	307.34
370.45	301.46
370.831	330.84
371.212	327.22
371.593	326.55
371.974	312.31
372.355	322.93
372.736	310.5
373.117	316.83
373.498	341.46
373.879	319.09
374.26	309.82
374.641	303.49
375.021	304.62
375.402	288.81
375.783	336.94
376.163	320.67
376.544	313.89
376.925	321.12
377.305	327.9
377.686	320.9
378.066	333.1
378.447	310.05
378.827	335.58
379.208	315.47
379.588	343.49
379.968	333.78
380.349	341.23
380.729	347.79
381.109	341.46
381.489	328.13
381.87	316.83
382.25	337.17
382.63	346.43
383.01	354.34
383.39	326.32
383.77	333.78
384.15	325.87
384.53	358.63
384.91	354.11
385.29	355.24
385.67	345.75
386.049	357.73
386.429	333.32
386.809	360.89
387.189	342.82
387.568	334.91
387.948	344.85
388.328	368.8
388.707	336.71
389.087	370.39
389.466	361.12
389.846	357.5
390.225	374.45
390.605	355.02
390.984	396.15
391.363	359.31
391.743	375.58
392.122	368.35
392.501	371.97
392.881	370.39
393.26	366.54
393.639	383.27
394.018	384.4
394.397	384.62
394.776	377.17
395.155	382.14
395.534	384.62
395.913	375.81
396.292	370.39
396.671	398.41
397.05	380.55
397.429	382.14
397.808	387.79
398.186	367.9
398.565	380.55
398.944	386.66
399.323	389.37
399.701	383.94
400.08	411.51
400.458	417.39
400.837	398.18
401.215	397.05
401.594	389.59
401.972	397.73
402.351	392.76
402.729	385.53
403.107	413.32
403.486	404.96
403.864	403.15
404.242	411.29
404.62	399.09
404.999	416.49
405.377	398.41
405.755	399.54
406.133	433.21
406.511	428.92
406.889	416.94
407.267	424.17
407.645	428.69
408.023	418.29
408.401	421.68
408.779	423.04
409.156	444.51
409.534	436.15
409.912	449.93
410.29	441.57
410.667	432.76
411.045	441.12
411.422	462.13
411.8	456.03
412.178	466.43
412.555	465.3
412.933	455.58
413.31	462.59
413.687	475.24
414.065	481.34
414.442	473.21
414.819	467.56
415.197	492.42
415.574	494.45
415.951	497.84
416.328	506.2
416.705	498.74
417.082	505.52
417.46	481.8
417.837	501.23
418.214	503.26
418.591	514.56
418.967	505.52
419.344	489.25
419.721	496.03
420.098	519.53
420.475	519.31
420.852	517.05
421.228	522.02
421.605	517.27
421.982	514.79
422.358	543.71
422.735	538.97
423.111	535.13
423.488	537.16
423.864	546.88
424.241	541.91
424.617	575.13
424.994	580.55
425.37	537.84
425.746	574
426.123	544.39
426.499	556.37
426.875	564.73
427.251	575.13
427.627	583.04
428.003	593.88
428.379	600.21
428.756	581
429.132	603.6
429.507	613.09
429.883	589.59
430.259	641.79
430.635	630.49
431.011	634.11
431.387	623.26
431.763	614.9
432.138	630.72
432.514	634.56
432.89	633.66
433.265	643.37
433.641	658.06
434.016	657.38
434.392	700.55
434.767	657.16
435.143	688.57
435.518	686.54
435.894	687.89
436.269	702.58
436.644	702.58
437.02	679.08
437.395	700.77
437.77	712.52
438.145	713.2
438.52	734.22
438.895	720.21
439.271	742.35
439.646	733.09
440.021	744.61
440.395	764.05
440.77	764.73
441.145	744.61
441.52	761.56
441.895	769.25
442.27	764.05
442.645	759.08
443.019	785.06
443.394	775.12
443.769	784.16
444.143	772.86
444.518	796.36
444.892	811.05
445.267	817.38
445.641	781.45
446.016	812.18
446.39	795.23
446.764	803.59
447.139	832.07
447.513	818.74
447.887	836.36
448.262	831.16
448.636	806.76
449.01	846.08
449.384	836.59
449.758	849.92
450.132	869.13
450.506	850.15
450.88	860.32
451.254	869.13
451.628	877.94
452.002	886.98
452.376	870.49
452.75	889.02
453.123	908.68
453.497	935.79
453.871	908.45
454.244	928.11
454.618	952.29
454.992	949.58
455.365	920.65
455.739	961.78
456.112	937.6
456.486	963.14
456.859	982.8
457.232	1002.69
457.606	997.04
457.979	1013.53
458.352	1044.04
458.725	1058.5
459.099	1040.42
459.472	1055.34
459.845	1082.68
460.218	1085.62
460.591	1087.43
460.964	1097.15
461.337	1150.7
461.71	1147.31
462.083	1133.53
462.456	1133.08
462.829	1145.96
463.201	1184.15
463.574	1167.2
463.947	1202.68
464.32	1200.19
464.692	1232.96
465.065	1229.12
465.438	1248.33
465.81	1258.72
466.183	1264.15
466.555	1286.52
466.928	1294.88
467.3	1291.94
467.672	1315.67
468.045	1365.61
468.417	1340.98
468.789	1362.22
469.161	1390.7
469.534	1399.74
469.906	1432.05
470.278	1429.79
470.65	1457.14
471.022	1453.52
471.394	1512.28
471.766	1521.99
472.138	1556.8
472.51	1552.73
472.882	1593.4
473.253	1624.59
473.625	1656.23
473.997	1659.17
474.369	1703.23
474.74	1707.3
475.112	1726.06
475.484	1790.46
475.855	1832.04
476.227	1852.83
476.598	1867.75
476.97	1865.26
477.341	1951.81
477.713	1958.37
478.084	2005.6
478.455	2051.7
478.827	2078.14
479.198	2106.84
479.569	2116.78
479.94	2187.29
480.311	2246.04
480.682	2280.39
481.053	2295.08
481.424	2359.26
481.795	2394.97
482.166	2456.21
482.537	2498.92
482.908	2542.31
483.279	2581.63
483.65	2610.1
484.021	2713.15
484.391	2716.54
484.762	2775.52
485.133	2761.28
485.503	2825.24
485.874	2898.23
486.244	2933.03
486.615	2990.2
486.985	3062.07
487.356	3063.87
487.726	3148.84
488.097	3209.63
488.467	3236.53
488.837	3306.13
489.207	3336.18
489.578	3432.45
489.948	3482.17
490.318	3510.64
490.688	3542.96
491.058	3595.39
491.428	3710.41
491.798	3736.85
492.168	3777.98
492.538	3832.44
492.908	3837.19
493.278	3944.53
493.648	3929.61
494.017	3968.94
494.387	4046.9
494.757	4050.97
495.126	4107.69
495.496	4147.46
495.866	4213.67
496.235	4240.57
496.605	4274.69
496.974	4312.65
497.344	4356.5
497.713	4370.28
498.082	4387
498.452	4445.98
498.821	4528.47
499.19	4556.49
499.559	4601.91
499.928	4587.45
500.298	4631.74
500.667	4689.14
501.036	4671.06
501.405	4651.4
501.774	4783.15
502.143	4795.13
502.512	4852.53
502.88	4866.99
503.249	4872.19
503.618	4888.23
503.987	4946.31
504.356	4953.09
504.724	5022.92
505.093	5015.46
505.462	5026.53
505.83	5055.46
506.199	5098.85
506.567	5153.31
506.936	5179.98
507.304	5230.6
507.672	5206.64
508.041	5266.53
508.409	5295.45
508.777	5355.34
509.145	5370.71
509.514	5372.29
509.882	5422.23
510.25	5410.71
510.618	5492.74
510.986	5487.54
511.354	5516.92
511.722	5532.96
512.09	5591.49
512.458	5574.54
512.826	5647.76
513.193	5649.12
513.561	5689.12
513.929	5753.97
514.297	5746.52
514.664	5762.79
515.032	5791.71
515.4	5835.55
515.767	5807.76
516.135	5873.52
516.502	5810.24
516.869	5909.9
517.237	5970.24
517.604	5890.47
517.972	5978.6
518.339	6001.88
518.706	6009.56
519.073	6056.11
519.44	6078.48
519.808	6086.17
520.175	6047.3
520.542	6211.59
520.909	6238.48
521.276	6183.11
521.643	6231.47
522.009	6240.74
522.376	6311.02
522.743	6360.06
523.11	6415.88
523.477	6455.42
523.843	6423.56
524.21	6514.63
524.577	6542.2
524.943	6520.96
525.31	6528.19
525.676	6643.22
526.043	6591.01
526.409	6679.15
526.776	6715.98
527.142	6791.91
527.508	6780.61
527.874	6887.73
528.241	6925.24
528.607	6921.63
528.973	6996.88
529.339	7031
529.705	7039.81
530.071	7086.82
530.437	7094.95
530.803	7171.11
531.169	7195.07
531.535	7157.1
531.901	7228.06
532.267	7210.43
532.632	7256.31
532.998	7277.32
533.364	7306.93
533.73	7411.1
534.095	7453.36
534.461	7412.23
534.826	7534.72
535.192	7476.19
535.557	7529.97
535.923	7545.11
536.288	7618.78
536.653	7548.73
537.019	7649.29
537.384	7645.9
537.749	7656.52
538.114	7751.21
538.479	7778.1
538.845	7733.36
539.21	7793.02
539.575	7882.5
539.94	7940.58
540.305	7952.33
540.67	7930.86
541.034	7923.41
541.399	8021.26
541.764	8055.61
542.129	8063.74
542.494	8110.07
542.858	8138.32
543.223	8149.62
543.587	8165.44
543.952	8123.63
544.316	8291.99
544.681	8301.02
545.045	8346.67
545.41	8346
545.774	8354.36
546.138	8419.44
546.503	8396.39
546.867	8402.49
547.231	8472.77
547.595	8543.96
547.959	8594.35
548.324	8518.87
548.688	8634.35
549.052	8648.36
549.416	8655.37
549.779	8674.12
550.143	8724.06
550.507	8790.96
550.871	8793.89
551.235	8779.43
551.599	8840.22
551.962	8889.94
552.326	8908.69
552.689	8957.05
553.053	8869.6
553.417	8941.46
553.78	9043.83
554.143	9019.42
554.507	9087.44
554.87	9126.77
555.234	9201.57
555.597	9131.74
555.96	9177.39
556.323	9225.97
556.686	9164.05
557.05	9276.37
557.413	9288.8
557.776	9315.01
558.139	9367.21
558.502	9381
558.865	9398.17
559.228	9504.16
559.59	9542.8
559.953	9447.66
560.316	9564.95
560.679	9580.99
561.041	9601.56
561.404	9737.82
561.767	9757.03
562.129	9640.2
562.492	9749.35
562.854	9801.1
563.217	9742.12
563.579	9802.68
563.941	9881.77
564.304	9912.06
564.666	9972.39
565.028	9938.27
565.39	9962.68
565.753	10097.36
566.115	10125.38
566.477	10137.13
566.839	10213.97
567.201	10250.58
567.563	10273.18
567.925	10356.56
568.287	10332.61
568.648	10316.34
569.01	10412.16
569.372	10492.15
569.734	10450.57
570.095	10535.99
570.457	10592.94
570.819	10594.75
571.18	10645.82
571.542	10704.8
571.903	10790
572.265	10787.06
572.626	10849.21
572.987	10877.91
573.349	10932.59
573.71	10992.93
574.071	11074.06
574.432	11084.45
574.794	11240.83
575.155	11235.86
575.516	11262.53
575.877	11385.69
576.238	11456.2
576.599	11516.76
576.96	11577.1
577.32	11575.29
577.681	11747.49
578.042	11780.93
578.403	11906.13
578.763	11905.22
579.124	12138.89
579.485	12293.24
579.845	12370.75
580.206	12440.58
580.566	12573.91
580.927	12716.73
581.287	12862.94
581.648	12941.58
582.008	13137.73
582.368	13191.07
582.728	13418.63
583.089	13556.25
583.449	13733.42
583.809	13936.13
584.169	14042.79
584.529	14164.83
584.889	14580.18
585.249	14592.84
585.609	14765.94
585.969	15057.23
586.329	15205.93
586.688	15444.57
587.048	15552.13
587.408	15801.84
587.768	16087.26
588.127	16341.49
588.487	16503.07
588.846	16869.39
589.206	17097.18
589.565	17310.96
589.925	17621.91
590.284	17895.12
590.643	18185.51
591.003	18454.66
591.362	18827.53
591.721	19000.63
592.08	19310.45
592.44	19616.89
592.799	19869.76
593.158	20122.41
593.517	20379.58
593.876	20767.59
594.235	21034.25
594.593	21389.49
594.952	21580.45
595.311	21865.87
595.67	22190.15
596.029	22718.72
596.387	23044.59
596.746	23199.62
597.104	23435.77
597.463	23793.05
597.822	24138.57
598.18	24438.45
598.538	24661.5
598.897	25177.42
599.255	25211.54
599.613	25850.85
599.972	25928.58
600.33	26271.63
600.688	26614.44
601.046	26956.35
601.404	27260.98
601.762	27514.53
602.12	27832.26
602.478	28162.2
602.836	28445.13
603.194	28608.06
603.552	28934.61
603.91	29066.13
604.268	29536.85
604.625	29597.64
604.983	30083.5
605.341	30070.62
605.698	30588.35
606.056	30958.96
606.413	31050.26
606.771	31368.89
607.128	31582.67
607.485	31838.48
607.843	32027.18
608.2	32390.33
608.557	32719.37
608.914	32844.33
609.272	33072.12
609.629	33374.72
609.986	33821.94
610.343	33769.06
610.7	34135.6
611.057	34325.2
611.414	34528.36
611.771	34669.82
612.127	34958.18
612.484	35150.71
612.841	35507.77
613.198	35558.84
613.554	35707.08
613.911	36178.94
614.267	36288.09
614.624	36245.37
614.98	36356.56
615.337	36811.69
615.693	36867.51
616.05	37017.78
616.406	37417.32
616.762	37431.78
617.118	37406.25
617.475	37666.35
617.831	37872
618.187	38059.56
618.543	38285.32
618.899	38507.24
619.255	38630.85
619.611	38435.6
619.967	38839.88
620.323	38924.63
620.678	38956.72
621.034	39008.24
621.39	39196.71
621.746	39178.63
622.101	39698.17
622.457	39527.55
622.812	39713.31
623.168	39886.18
623.523	39995.56
623.879	40108.32
624.234	39863.36
624.589	40240.52
624.945	40293.86
625.3	40479.84
625.655	40459.05
626.01	40477.81
626.365	40496.34
626.72	40614.75
627.075	40657.01
627.43	40735.43
627.785	40757.8
628.14	40954.4
628.495	41083.67
628.85	41050.45
629.205	40943.1
629.559	41337.22
629.914	41202.76
630.269	41222.87
630.623	41061.97
630.978	41190.78
631.332	41327.95
631.687	41395.97
632.041	41308.52
632.396	41421.28
632.75	41281.85
633.104	41409.08
633.459	41346.48
633.813	41269.42
634.167	41375.41
634.521	41380.83
634.875	41427.39
635.229	41384.67
635.583	41159.82
635.937	41176.77
636.291	41307.16
636.645	41463.09
636.999	41348.52
637.352	41465.58
637.706	41221.06
638.06	41528.85
638.413	41324.11
638.767	41294.51
639.121	41396.65
639.474	41200.72
639.828	41195.98
640.181	41369.99
640.534	41340.16
640.888	41233.49
641.241	41123.66
641.594	41173.83
641.947	41214.96
642.301	41214.74
642.654	41335.18
643.007	41251.57
643.36	41280.72
643.713	41192.36
644.066	41274.17
644.419	41111.69
644.771	40879.83
645.124	40592.6
645.477	40501.76
645.83	40241.65
646.182	40060.87
646.535	39999.17
646.888	40123.01
647.24	40088.89
647.593	40261.09
647.945	40196.91
648.298	39906.07
648.65	39941.1
649.002	39786.98
649.355	40017.48
649.707	39948.78
650.059	40142.9
650.411	40697.24
650.763	40621.76
651.115	40911.92
651.467	40902.88
651.819	40849.1
652.171	40822.43
652.523	40622.43
652.875	40757.35
653.227	40601.64
653.578	40814.75
653.93	40887.74
654.282	40731.58
654.633	40612.04
654.985	40634.41
655.337	40580.4
655.688	40674.86
656.039	40923.44
656.391	40594.19
656.742	40663.34
657.094	40537.01
657.445	40733.39
657.796	40646.84
658.147	40595.09
658.498	40548.99
658.849	40698.82
659.2	40629.89
659.551	40460.41
659.902	40690.46
660.253	40525.71
660.604	40565.71
660.955	40362.55
661.306	40498.6
661.656	40564.13
662.007	40481.42
662.358	40487.75
662.708	40659.04
663.059	40555.09
663.409	40311.26
663.76	40623.34
664.11	40420.41
664.461	40569.1
664.811	40520.52
665.161	40525.49
665.511	40433.97
665.862	40328.21
666.212	40549.44
666.562	40584.24
666.912	40363.68
667.262	40401.65
667.612	40378.83
667.962	40548.76
668.312	40465.38
668.662	40582.21
669.011	40578.82
669.361	40381.09
669.711	40365.94
670.06	40420.18
670.41	40240.75
670.76	40252.95
671.109	40447.52
671.459	40412.95
671.808	40223.12
672.157	40179.51
672.507	39991.49
672.856	40081.43
673.205	39963.69
673.554	40093.18
673.904	40083.92
674.253	40312.39
674.602	40134.31
674.951	39631.05
675.3	39533.65
675.649	39963.92
675.998	40086.18
676.346	40035.56
676.695	40004.15
677.044	39866.75
677.393	40020.42
677.741	40097.48
678.09	39836.01
678.438	39753.98
678.787	39940.87
679.135	39766.64
679.484	39662.23
679.832	39760.76
680.181	39646.19
680.529	39672.86
680.877	39535.91
681.225	39579.07
681.573	39658.84
681.922	39587.43
682.27	39335.01
682.618	39349.93
682.966	39231.51
683.314	39433.09
683.661	39230.15
684.009	38997.62
684.357	38929.15
684.705	38928.92
685.053	39124.62
685.4	38928.92
685.748	38777.74
686.095	38828.13
686.443	38597.18
686.79	38617.06
687.138	38660.68
687.485	38622.04
687.832	38430.85
688.18	38441.7
688.527	38319.67
688.874	38222.95
689.221	38276.06
689.568	38138.21
689.915	38153.12
690.262	37985.67
690.609	37967.14
690.956	37753.13
691.303	37834.03
691.65	37691.89
691.997	37654.6
692.344	37391.79
692.69	37467.94
693.037	37451.44
693.383	37093.49
693.73	37228.4
694.077	37089.19
694.423	37121.51
694.769	36957.45
695.116	36940.05
695.462	36745.25
695.808	36646.95
696.155	36739.37
696.501	36515.65
696.847	36369.44
697.193	36182.33
697.539	36353.62
697.885	36177.35
698.231	35978.94
698.577	36083.12
698.923	35939.17
699.269	35991.37
699.614	35802.9
699.96	35645.39
700.306	35613.3
700.651	35445.17
700.997	35298.51
701.342	35213.54
701.688	35226.42
702.033	35085.18
702.379	35150.49
702.724	35076.14
703.069	35162.24
703.415	34582.59
703.76	34729.03
704.105	34786.88
704.45	34576.27
704.795	34447.68
705.14	34246.11
705.485	34280.68
705.83	34131.08
706.175	34224.86
706.52	34144.19
706.865	33987.13
707.209	33813.35
707.554	33820.13
707.899	33902.16
708.243	33775.16
708.588	33698.77
708.932	33468.72
709.277	33433.25
709.621	33459.46
709.966	33196.19
710.31	33300.14
710.654	33005.46
710.998	33170.43
711.342	33073.48
711.687	33010.88
712.031	32979.02
712.375	32840.94
712.719	32735.64
713.063	32673.49
713.407	32712.13
713.75	32585.81
714.094	32493.16
714.438	32374.52
714.782	32440.05
715.125	32349.88
715.469	32372.48
715.812	32206.38
716.156	32095.65
716.499	32119.38
716.843	32186.05
717.186	31898.14
717.53	32116.67
717.873	32016.11
718.216	31871.48
718.559	31669.22
718.902	31669.45
719.246	31727.08
719.589	31636.91
719.932	31418.61
720.275	31447.76
720.617	31478.95
720.96	31356.46
721.303	31258.16
721.646	31388.55
721.989	31064.95
722.331	31229.69
722.674	31173.87
723.016	31197.15
723.359	31062.69
723.701	31117.6
724.044	30975.91
724.386	30680.78
724.729	30946.98
725.071	30799.19
725.413	30739.53
725.755	30768
726.097	30707.89
726.439	30411.4
726.782	30491.63
727.124	30530.5
727.465	30387.45
727.807	30443.04
728.149	30511.06
728.491	30319.43
728.833	30370.5
729.175	30296.6
729.516	30160.11
729.858	30148.81
730.199	30109.94
730.541	30055.48
730.882	30099.32
731.224	30100.23
731.565	29870.63
731.906	29935.03
732.248	29921.25
732.589	29833.34
732.93	29648.94
733.271	29676.51
733.612	29744.3
733.953	29787.69
734.294	29550.18
734.635	29448.04
734.976	29540.92
735.317	29416.85
735.658	29390.41
735.999	29533.46
736.339	29411.43
736.68	29458.89
737.021	29246.01
737.361	29223.86
737.702	29307.25
738.042	29243.3
738.383	29162.4
738.723	29197.65
739.063	28987.26
739.404	29094.6
739.744	29057.77
740.084	28930.99
740.424	29068.16
740.764	28951.78
741.104	28910.88
741.444	28840.37
741.784	28750.2
742.124	28782.29
742.464	28703.88
742.804	28648.74
743.143	28558.12
743.483	28579.36
743.823	28455.3
744.162	28405.35
744.502	28495.07
744.841	28392.02
745.181	28449.2
745.52	28394.28
745.86	28399.25
746.199	28354.28
746.538	28323.55
746.877	28313.38
747.216	28314.06
747.556	28125.14
747.895	28101.18
748.234	27982.77
748.573	28049.21
748.911	27984.35
749.25	28037.23
749.589	27966.95
749.928	28010.11
750.267	27858.02
750.605	27837.46
750.944	27886.05
751.283	27651.7
751.621	27724.47
751.96	27642.44
752.298	27604.7
752.636	27593.4
752.975	27390.01
753.313	27429.34
753.651	27504.36
753.989	27284.03
754.327	27275.67
754.666	27146.86
755.004	27230.92
755.342	27232.5
755.679	27169.46
756.017	27010.82
756.355	27040.87
756.693	27029.12
757.031	26998.61
757.368	26847.2
757.706	26792.29
758.044	26701.9
758.381	26669.36
758.719	26652.63
759.056	26685.85
759.394	26497.83
759.731	26436.82
760.068	26350.49
760.405	26352.98
760.743	26200.89
761.08	26238.41
761.417	26140.56
761.754	26013.78
762.091	25965.42
762.428	25946.21
762.765	25737.4
763.102	25945.08
763.438	25649.95
763.775	25664.86
764.112	25556.62
764.449	25612.43
764.785	25426.45
765.122	25306.45
765.458	25167.47
765.795	25201.37
766.131	25150.53
766.467	25087.48
766.804	24992.56
767.14	24726.81
767.476	24825.56
767.812	24757.99
768.148	24854.49
768.485	24604.55
768.821	24487.94
769.157	24396.65
769.492	24483.88
769.828	24464.44
770.164	24087.73
770.5	24135.86
770.836	24167.27
771.171	23953.04
771.507	23955.75
771.842	23772.93
772.178	23824.68
772.513	23626.27
772.849	23598.25
773.184	23399.16
773.519	23506.27
773.855	23317.35
774.19	23407.29
774.525	23180.18
774.86	23067.19
775.195	23207.98
775.53	22937.93
775.865	22816.58
776.2	22718.27
776.535	22497.49
776.87	22682.79
777.205	22440.09
777.539	22306.53
777.874	22421.56
778.209	22249.13
778.543	22114.22
778.878	22043.49
779.212	22015.01
779.547	21800.1
779.881	21945.19
780.215	21722.14
780.55	21798.52
780.884	21659.77
781.218	21673.78
781.552	21694.34
781.886	21482.15
782.22	21366.44
782.554	21260.46
782.888	21089.16
783.222	21028.37
783.556	20875.16
783.889	20904.08
784.223	20863.63
784.557	20805.55
784.89	20722.39
785.224	20555.39
785.557	20542.96
785.891	20510.42
786.224	20353.59
786.558	20367.83
786.891	20164.89
787.224	20197.66
787.557	20021.62
787.891	20037.67
788.224	20048.06
788.557	20046.48
788.89	19895.3
789.223	19850.78
789.556	19771.68
789.888	19728.75
790.221	19582.99
790.554	19409.66
790.887	19441.52
791.219	19501.18
791.552	19395.87
791.884	19347.74
792.217	19298.48
792.549	19168.76
792.882	19016.9
793.214	18854.19
793.546	18941.2
793.879	18913.63
794.211	18694.88
794.543	18768.77
794.875	18844.7
795.207	18742.78
795.539	18617.36
795.871	18653.52
796.203	18479.06
796.535	18356.35
796.867	18316.81
797.198	18237.03
797.53	18304.83
797.862	18152.74
798.193	18190.93
798.525	18033.42
798.856	18138.05
799.188	17865.07
799.519	17813.09
799.85	17784.17
800.182	17796.59
800.513	17751.4
800.844	17551.85
801.175	17593.44
801.506	17590.27
801.837	17428.92
802.168	17422.14
802.499	17357.28
802.83	17388.47
803.161	17268.7
803.491	17250.39
803.822	17203.39
804.153	17137.18
804.483	17018.54
804.814	16985.77
805.145	16905.77
805.475	16925.66
805.805	16813.34
806.136	16806.11
806.466	16711.88
806.796	16797.07
807.126	16599.79
807.457	16557.08
807.787	16506.01
808.117	16442.96
808.447	16436.86
808.777	16428.72
809.107	16391.89
809.436	16312.79
809.766	16369.97
810.096	16178.78
810.426	16198.22
810.755	16266.46
811.085	16116.86
811.414	16120.25
811.744	16041.61
812.073	15998
812.403	15892.92
812.732	15875.51
813.061	15905.8
813.39	15818.57
813.719	15668.74
814.049	15819.25
814.378	15652.7
814.707	15659.02
815.036	15584.22
815.365	15619.02
815.693	15442.76
816.022	15399.82
816.351	15384.45
816.68	15318.69
817.008	15407.05
817.337	15276.66
817.665	15248.64
817.994	15308.07
818.322	15195.53
818.651	15193.05
818.979	15126.16
819.307	15077.12
819.636	15019.72
819.964	14980.17
820.292	15126.38
820.62	15101.75
820.948	15033.95
821.276	14992.37
821.604	14888.65
821.932	14936.33
822.259	14930.23
822.587	14915.54
822.915	14882.55
823.243	14941.98
823.57	14823.57
823.898	14894.3
824.225	14860.63
824.553	14803.45
824.88	14902.66
825.207	14924.81
825.535	14807.52
825.862	14872.83
826.189	14780.85
826.516	14879.61
826.843	14922.32
827.17	14852.49
827.497	14892.26
827.824	14894.3
828.151	14929.32
828.478	14884.35
828.805	14901.08
829.131	14800.06
829.458	14855.88
829.785	14784.92
830.111	14869.67
830.438	14866.95
830.764	14860.4
831.09	14898.14
831.417	14723.68
831.743	14784.92
832.069	14804.81
832.395	14753.06
832.722	14807.75
833.048	14723.23
833.374	14746.05
833.7	14718.03
834.026	14752.83
834.351	14734.75
834.677	14712.83
835.003	14683
835.329	14701.99
835.654	14671.03
835.98	14646.85
836.306	14634.19
836.631	14592.61
836.956	14571.37
837.282	14666.73
837.607	14505.61
837.932	14406.4
838.258	14439.39
838.583	14407.3
838.908	14364.82
839.233	14452.73
839.558	14384.71
839.883	14357.36
840.208	14318.95
840.533	14283.69
840.858	14284.14
841.182	14280.08
841.507	14251.38
841.832	14261.55
842.156	14218.61
842.481	14168.44
842.805	14079.4
843.13	14000.99
843.454	14010.03
843.778	13974.55
844.103	13942.23
844.427	13967.99
844.751	13966.86
845.075	13853.2
845.399	13769.13
845.723	13825.85
846.047	13765.51
846.371	13654.56
846.695	13656.14
847.019	13574.56
847.343	13404.39
847.666	13419.08
847.99	13304.96
848.313	13358.74
848.637	13283.49
848.96	13201.01
849.284	13262.48
849.607	13090.05
849.931	13102.48
850.254	12976.16
850.577	12901.13
850.9	12812.77
851.223	12754.92
851.546	12771.19
851.869	12690.29
852.192	12712.89
852.515	12622.04
852.838	12601.7
853.161	12580.91
853.483	12463.18
853.806	12431.09
854.129	12389.5
854.451	12340.69
854.774	12408.04
855.096	12258.89
855.419	12260.47
855.741	12222.05
856.063	12158.78
856.385	11990.19
856.708	12139.34
857.03	12077.87
857.352	12067.71
857.674	11983.87
857.996	11917.88
858.318	11859.8
858.64	11850.31
858.961	11857.32
859.283	11810.76
859.605	11707.26
859.926	11768.73
860.248	11728.96
860.57	11676.76
860.891	11705.23
861.212	11644.67
861.534	11622.29
861.855	11618.68
862.176	11617.32
862.498	11455.29
862.819	11582.75
863.14	11506.36
863.461	11483.09
863.782	11459.59
864.103	11412.58
864.424	11355.86
864.745	11434.73
865.065	11324.45
865.386	11254.85
865.707	11311.57
866.027	11282.87
866.348	11227.95
866.668	11322.87
866.989	11292.36
867.309	11194.28
867.63	11212.13
867.95	11184.56
868.27	11076.09
868.59	11050.78
868.91	11086.49
869.23	11095.53
869.55	11014.63
869.87	11117.67
870.19	10981.18
870.51	11001.97
870.83	11052.59
871.15	10971.24
871.469	10895.76
871.789	10990.9
872.109	10916.32
872.428	10886.72
872.748	10977.56
873.067	10866.61
873.386	10897.57
873.706	10809.21
874.025	10839.94
874.344	10738.47
874.663	10807.4
874.982	10757.46
875.301	10790.9
875.62	10726.5
875.939	10759.04
876.258	10748.64
876.577	10686.27
876.896	10580.06
877.214	10536.22
877.533	10576.45
877.852	10618.48
878.17	10624.35
878.489	10588.2
878.807	10640.4
879.125	10582.55
879.444	10511.81
879.762	10461.87
880.08	10531.7
880.398	10382.55
880.716	10509.33
881.034	10405.15
881.352	10448.54
881.67	10373.51
881.988	10417.13
882.306	10327.86
882.624	10278.15
882.941	10333.06
883.259	10286.96
883.577	10250.13
883.894	10236.57
884.212	10171.94
884.529	10220.75
884.846	10146.17
885.164	10154.76
885.481	10042.67
885.798	10070.02
886.115	9963.81
886.432	9952.73
886.75	10000.19
887.067	9973.3
887.383	9916.58
887.7	9970.81
888.017	9824.83
888.334	9932.39
888.651	9867.54
888.967	9834.09
889.284	9802.23
889.6	9810.82
889.917	9692.85
890.233	9707.99
890.55	9691.04
890.866	9679.52
891.182	9628.9
891.498	9611.5
891.815	9555
892.131	9486.3
892.447	9522.91
892.763	9514.55
893.079	9431.84
893.395	9420.32
893.71	9416.93
894.026	9411.28
894.342	9399.53
894.657	9372.41
894.973	9305.74
895.289	9289.7
895.604	9229.36
895.92	9293.09
896.235	9171.28
896.55	9145.75
896.865	9086.54
897.181	9078.86
897.496	9134.68
897.811	9088.8
898.126	9023.04
898.441	9012.64
898.756	8923.38
899.071	8909.82
899.386	8890.61
899.7	8781.92
900.015	8772.88
900.33	8782.14
900.644	8717.06
900.959	8703.27
901.273	8645.2
901.588	8629.15
901.902	8612.43
902.216	8570.17
902.531	8543.28
902.845	8582.83
903.159	8474.35
903.473	8449.04
903.787	8410.17
904.101	8410.4
904.415	8443.39
904.729	8341.93
905.042	8343.51
905.356	8281.82
905.67	8245.66
905.984	8241.37
906.297	8232.1
906.611	8165.21
906.924	8125.89
907.237	8102.39
907.551	8096.28
907.864	8103.29
908.177	8093.8
908.491	7988.72
908.804	7967.25
909.117	7896.29
909.43	7886.35
909.743	7894.71
910.056	7745.33
910.368	7711.21
910.681	7730.42
910.994	7732.9
911.307	7610.87
911.619	7600.7
911.932	7648.16
912.244	7613.59
912.557	7556.41
912.869	7546.47
913.181	7468.73
913.494	7459.69
913.806	7452.69
914.118	7426.25
914.43	7326.14
914.742	7301.5
915.054	7269.87
915.366	7244.1
915.678	7286.14
915.99	7249.98
916.302	7162.98
916.613	7055.86
916.925	7164.56
917.236	7077.55
917.548	7040.94
917.859	7108.29
918.171	6960.72
918.482	6938.12
918.794	6972.7
919.105	6932.7
919.416	6840.05
919.727	6873.49
920.038	6825.81
920.349	6806.6
920.66	6791.01
920.971	6770.44
921.282	6788.3
921.593	6659.03
921.903	6644.8
922.214	6659.94
922.525	6596.44
922.835	6561.18
923.146	6513.95
923.456	6518.47
923.767	6502.43
924.077	6453.62
924.387	6394.86
924.697	6382.43
925.008	6379.72
925.318	6343.11
925.628	6367.74
925.938	6337.91
926.248	6210.46
926.558	6269.44
926.867	6204.36
927.177	6193.74
927.487	6149.22
927.796	6118.94
928.106	6079.16
928.416	6063.12
928.725	6095.66
929.034	6051.37
929.344	6037.58
929.653	5969.11
929.962	5965.94
930.271	5914.19
930.581	5914.42
930.89	5935.89
931.199	5874.42
931.508	5855.44
931.817	5866.74
932.125	5751.94
932.434	5761.88
932.743	5709.91
933.051	5690.92
933.36	5649.34
933.669	5630.81
933.977	5630.59
934.286	5631.49
934.594	5604.82
934.902	5544.49
935.21	5503.81
935.519	5497.93
935.827	5520.08
936.135	5455
936.443	5467.88
936.751	5427.2
937.059	5397.82
937.367	5388.78
937.674	5370.48
937.982	5346.75
938.29	5300.88
938.597	5292.06
938.905	5211.61
939.213	5268.11
939.52	5182.69
939.827	5225.63
940.135	5253.65
940.442	5124.39
940.749	5144.05
941.056	5082.13
941.363	5045.52
941.67	5072.18
941.977	5028.34
942.284	4969.13
942.591	4984.73
942.898	4965.29
943.205	4959.19
943.511	4909.48
943.818	4930.72
944.125	4862.25
944.431	4843.94
944.738	4859.08
945.044	4850.72
945.35	4810.95
945.657	4758.74
945.963	4787.44
946.269	4741.57
946.575	4723.94
946.881	4730.72
947.187	4701.8
947.493	4654.57
947.799	4613.89
948.105	4673.55
948.41	4611.4
948.716	4578.86
949.022	4638.52
949.327	4468.81
949.633	4550.16
949.938	4513.78
950.244	4530.73
950.549	4481.92
950.854	4443.05
951.16	4396.27
951.465	4406.89
951.77	4363.95
952.075	4401.69
952.38	4389.04
952.685	4353.78
952.99	4323.28
953.294	4309.04
953.599	4276.72
953.904	4260.23
954.209	4213.45
954.513	4227.01
954.818	4202.6
955.122	4192.66
955.426	4183.62
955.731	4187.69
956.035	4094.13
956.339	4101.36
956.643	4088.93
956.948	4088.48
957.252	4059.55
957.556	4062.04
957.86	4034.02
958.163	4012.1
958.467	4012.55
958.771	3993.57
959.075	3954.47
959.378	3855.49
959.682	3944.53
959.985	3904.53
960.289	3896.17
960.592	3837.41
960.896	3840.13
961.199	3844.87
961.502	3792.67
961.805	3843.51
962.108	3779.34
962.411	3768.49
962.714	3730.52
963.017	3720.58
963.32	3695.95
963.623	3724.42
963.926	3664.76
964.228	3659.79
964.531	3661.15
964.833	3619.79
965.136	3644.88
965.438	3592.9
965.741	3576.63
966.043	3598.78
966.345	3573.92
966.648	3510.19
966.95	3529.4
967.252	3490.08
967.554	3492.56
967.856	3490.3
968.158	3459.34
968.46	3450.08
968.761	3461.6
969.063	3455.95
969.365	3387.48
969.666	3376.18
969.968	3372.34
970.269	3363.75
970.571	3344.32
970.872	3375.73
971.174	3319.23
971.475	3301.38
971.776	3279.91
972.077	3268.16
972.378	3271.55
972.679	3269.97
972.98	3213.02
973.281	3195.85
973.582	3235.4
973.883	3185.68
974.183	3215.73
974.484	3155.85
974.785	3186.36
975.085	3160.59
975.386	3141.39
975.686	3090.77
975.986	3124.21
976.287	3083.76
976.587	3054.83
976.887	3067.72
977.187	3086.7
977.487	3026.59
977.787	2998.57
978.087	3006.02
978.387	2987.04
978.687	3027.27
978.987	2896.65
979.286	2926.93
979.586	2930.09
979.885	2927.61
980.185	2868.85
980.484	2891
980.784	2905.69
981.083	2850.09
981.382	2858.91
981.682	2852.35
981.981	2827.04
982.28	2832.69
982.579	2807.84
982.878	2808.29
983.177	2795.63
983.475	2788.18
983.774	2768.97
984.073	2745.46
984.372	2751.57
984.67	2689.42
984.969	2748.18
985.267	2725.13
985.566	2703.21
985.864	2686.94
986.162	2637.22
986.461	2623.43
986.759	2625.24
987.057	2630.21
987.355	2600.38
987.653	2613.49
987.951	2591.12
988.249	2571.68
988.547	2579.82
988.844	2587.5
989.142	2576.43
989.44	2523.55
989.737	2521.06
990.035	2518.58
990.332	2481.29
990.63	2446.04
990.927	2491.23
991.224	2467.28
991.521	2461.86
991.819	2446.72
992.116	2402.42
992.413	2405.13
992.71	2413.72
993.006	2404.68
993.303	2403.78
993.6	2366.72
993.897	2359.26
994.193	2374.63
994.49	2347.73
994.787	2339.6
995.083	2336.44
995.379	2331.24
995.676	2302.99
995.972	2291.24
996.268	2286.95
996.565	2262.09
996.861	2262.77
997.157	2255.31
997.453	2218.92
997.749	2221.41
998.044	2170.79
998.34	2194.52
998.636	2185.48
998.932	2202.2
999.227	2187.06
999.523	2147.74
999.818	2112.03
1000.114	2146.38
1000.409	2108.65
1000.704	2090.57
1001	2102.54
1001.295	2057.57
1001.59	2089.66
1001.885	2093.28
1002.18	2073.62
1002.475	2023.45
1002.77	2011.25
1003.065	2014.18
1003.359	2008.53
1003.654	1982.77
1003.949	2014.18
1004.243	1965.82
1004.538	2004.92
1004.832	1962.43
1005.127	1990.68
1005.421	1942.32
1005.715	1962.21
1006.009	1909.78
1006.304	1919.27
1006.598	1884.24
1006.892	1848.76
1007.186	1865.04
1007.48	1835.88
1007.773	1873.85
1008.067	1835.88
1008.361	1831.14
1008.655	1793.17
1008.948	1819.84
1009.242	1813.06
1009.535	1771.03
1009.829	1773.06
1010.122	1769.9
1010.415	1768.09
1010.708	1739.39
1011.001	1750.46
1011.295	1758.37
1011.588	1714.76
1011.881	1692.38
1012.173	1675.66
1012.466	1714.31
1012.759	1674.98
1013.052	1700.07
1013.344	1661.43
1013.637	1640.63
1013.93	1623.91
1014.222	1613.29
1014.514	1613.29
1014.807	1615.55
1015.099	1620.52
1015.391	1594.76
1015.683	1573.29
1015.976	1567.87
1016.268	1563.57
1016.56	1564.03
1016.851	1522.45
1017.143	1548.21
1017.435	1543.46
1017.727	1511.15
1018.018	1539.17
1018.31	1479.06
1018.602	1472.5
1018.893	1488.77
1019.185	1493.97
1019.476	1479.74
1019.767	1462.56
1020.058	1449
1020.35	1435.67
1020.641	1414.88
1020.932	1407.19
1021.223	1405.84
1021.514	1391.15
1021.804	1375.33
1022.095	1343.47
1022.386	1359.74
1022.677	1379.85
1022.967	1349.8
1023.258	1340.76
1023.548	1339.17
1023.839	1324.48
1024.129	1336.01
1024.419	1302.56
1024.709	1306.86
1025	1299.17
1025.29	1305.05
1025.58	1289.01
1025.87	1303.92
1026.16	1269.57
1026.449	1251.72
1026.739	1239.06
1027.029	1215.11
1027.319	1233.64
1027.608	1230.25
1027.898	1196.13
1028.187	1203.36
1028.477	1207.65
1028.766	1202.45
1029.055	1190.48
1029.344	1185.05
1029.634	1153.87
1029.923	1162
1030.212	1154.32
1030.501	1156.35
1030.79	1165.17
1031.078	1136.69
1031.367	1111.16
1031.656	1142.79
1031.945	1112.51
1032.233	1108.45
1032.522	1107.09
1032.81	1073.64
1033.099	1084.49
1033.387	1067.32
1033.675	1061.67
1033.963	1046.53
1034.251	1062.57
1034.54	1043.59
1034.828	1058.05
1035.116	1030.03
1035.403	1038.39
1035.691	1039.07
1035.979	1010.82
1036.267	1000.65
1036.554	999.75
1036.842	999.52
1037.129	987.54
1037.417	992.97
1037.704	955.46
1037.992	948.45
1038.279	963.82
1038.566	932.4
1038.853	932.4
1039.14	932.4
