Data from hue_26_FLMS001491_00020.txt Node
Date: Tue Feb 07 17:13:38 GMT 2017
User: dcchb
Spectrometer: FLMS00149
Trigger mode: 0
Integration Time (sec): 2.000000E-2
Scans to average: 10
Electric dark correction enabled: true
Nonlinearity correction enabled: false
Boxcar width: 0
XAxis mode: Wavelengths
Number of Pixels in Spectrum: 2048
>>>>>Begin Spectral Data<<<<<
341.393	-11.06
341.776	-11.06
342.16	-11.06
342.543	-76.37
342.927	-59.42
343.31	-64.62
343.693	-55.13
344.077	-65.75
344.46	-58.52
344.843	-36.82
345.226	-46.54
345.61	-28.01
345.993	-20.78
346.376	1.6
346.759	4.76
347.142	32.1
347.525	48.6
347.908	44.76
348.291	74.81
348.674	78.2
349.057	91.31
349.44	122.95
349.823	143.74
350.206	171.31
350.588	212.66
350.971	205.43
351.354	235.71
351.737	224.19
352.119	252.21
352.502	263.96
352.884	280.91
353.267	279.55
353.65	285.43
354.032	307.12
354.414	303.06
354.797	324.75
355.179	317.97
355.562	356.16
355.944	348.93
356.326	346.45
356.709	328.82
357.091	340.12
357.473	347.12
357.855	332.89
358.238	329.05
358.62	343.06
359.002	341.93
359.384	351.42
359.766	339.21
360.148	351.42
360.53	329.27
360.912	338.31
361.294	346.45
361.676	322.49
362.057	346.45
362.439	332.66
362.821	314.58
363.203	324.53
363.584	333.56
363.966	313
364.348	341.93
364.729	335.82
365.111	315.26
365.493	351.42
365.874	325.2
366.256	334.92
366.637	320.68
367.019	314.13
367.4	320.01
367.781	330.17
368.163	329.27
368.544	320.01
368.925	307.8
369.306	321.81
369.688	322.72
370.069	323.62
370.45	315.03
370.831	328.37
371.212	354.13
371.593	317.52
371.974	322.27
372.355	318.42
372.736	328.37
373.117	343.06
373.498	313.68
373.879	306.45
374.26	341.02
374.641	338.76
375.021	335.82
375.402	329.72
375.783	328.59
376.163	343.06
376.544	331.53
376.925	340.34
377.305	329.72
377.686	340.12
378.066	329.5
378.447	330.85
378.827	354.81
379.208	321.14
379.588	337.41
379.968	343.28
380.349	343.73
380.729	339.89
381.109	350.29
381.489	351.19
381.87	338.76
382.25	346.9
382.63	351.42
383.01	327.01
383.39	324.98
383.77	345.32
384.15	361.36
384.53	360.23
384.91	367.91
385.29	343.51
385.67	348.71
386.049	341.7
386.429	362.04
386.809	366.78
387.189	352.77
387.568	347.8
387.948	356.39
388.328	362.72
388.707	362.94
389.087	368.14
389.466	378.08
389.846	371.3
390.225	353.23
390.605	383.51
390.984	374.47
391.363	364.75
391.743	368.14
392.122	366.78
392.501	374.69
392.881	371.08
393.26	395.03
393.639	396.16
394.018	391.64
394.397	389.16
394.776	382.83
395.155	374.24
395.534	377.18
395.913	401.13
396.292	387.35
396.671	384.64
397.05	397.52
397.429	424.41
397.808	414.01
398.186	386.22
398.565	409.04
398.944	390.06
399.323	386.9
399.701	410.17
400.08	418.53
400.458	419.89
400.837	381.47
401.215	425.09
401.594	437.29
401.972	430.06
402.351	414.69
402.729	414.47
403.107	433.68
403.486	427.35
403.864	392.09
404.242	407.91
404.62	437.97
404.999	425.54
405.377	420.79
405.755	424.41
406.133	426.67
406.511	432.09
406.889	448.82
407.267	456.95
407.645	462.15
408.023	463.05
408.401	471.41
408.779	449.27
409.156	445.43
409.534	466.67
409.912	470.74
410.29	472.54
410.667	460.12
411.045	486.1
411.422	482.26
411.8	473.22
412.178	471.19
412.555	476.84
412.933	498.31
413.31	473.22
413.687	500.11
414.065	490.85
414.442	485.2
414.819	509.83
415.197	503.96
415.574	502.6
415.951	518.64
416.328	522.71
416.705	513.9
417.082	533.11
417.46	516.61
417.837	519.1
418.214	529.04
418.591	536.5
418.967	517.74
419.344	532.43
419.721	534.92
420.098	525.65
420.475	542.82
420.852	516.16
421.228	556.61
421.605	549.83
421.982	548.47
422.358	570.62
422.735	569.72
423.111	558.42
423.488	562.71
423.864	567
424.241	575.59
424.617	587.34
424.994	564.52
425.37	577.17
425.746	598.64
426.123	574.69
426.499	597.06
426.875	606.1
427.251	613.78
427.627	600.9
428.003	598.64
428.379	627.12
428.756	614.24
429.132	631.64
429.507	627.12
429.883	631.18
430.259	638.87
430.635	651.75
431.011	629.15
431.387	671.63
431.763	672.31
432.138	664.86
432.514	674.35
432.89	679.54
433.265	677.74
433.641	698.98
434.016	709.15
434.392	703.5
434.767	710.5
435.143	727.9
435.518	713.44
435.894	723.38
436.269	740.56
436.644	758.19
437.02	736.94
437.395	736.27
437.77	752.99
438.145	749.15
438.52	783.72
438.895	772.2
439.271	750.5
439.646	757.73
440.021	775.36
440.395	771.52
440.77	788.24
441.145	791.86
441.52	809.71
441.895	811.07
442.27	802.03
442.645	813.1
443.019	843.61
443.394	841.35
443.769	794.57
444.143	819.2
444.518	839.31
444.892	824.85
445.267	832.08
445.641	865.75
446.016	823.27
446.39	846.09
446.764	856.04
447.139	877.51
447.513	863.72
447.887	857.62
448.262	840.67
448.636	864.4
449.01	913.66
449.384	887.9
449.758	884.74
450.132	912.31
450.506	921.35
450.88	926.77
451.254	912.53
451.628	920.22
452.002	944.17
452.376	941.46
452.75	933.1
453.123	927.9
453.497	951.18
453.871	969.25
454.244	990.95
454.618	1009.25
454.992	1005.86
455.365	1016.94
455.739	1007.45
456.112	1038.4
456.486	1033.43
456.859	1043.38
457.232	1058.97
457.606	1047.9
457.979	1084.28
458.352	1074.79
458.725	1076.14
459.099	1097.84
459.472	1105.75
459.845	1120.21
460.218	1120.66
460.591	1146.65
460.964	1150.49
461.337	1175.58
461.71	1191.62
462.083	1205.86
462.456	1216.48
462.829	1220.55
463.201	1250.6
463.574	1244.95
463.947	1269.13
464.32	1265.52
464.692	1278.85
465.065	1312.75
465.438	1320.43
465.81	1341
466.183	1335.8
466.555	1355.01
466.928	1355.68
467.3	1371.28
467.672	1400.43
468.045	1412.18
468.417	1409.92
468.789	1450.6
469.161	1458.51
469.534	1468.22
469.906	1513.42
470.278	1520.2
470.65	1530.6
471.022	1552.52
471.394	1588.22
471.766	1604.49
472.138	1626.86
472.51	1656.47
472.882	1678.61
473.253	1687.43
473.625	1748.44
473.997	1747.99
474.369	1764.04
474.74	1795.45
475.112	1846.52
475.484	1873.19
475.855	1906.18
476.227	1927.65
476.598	1964.93
476.97	2012.62
477.341	2028.66
477.713	2063.69
478.084	2080.41
478.455	2138.04
478.827	2166.28
479.198	2198.15
479.569	2235.66
479.94	2312.5
480.311	2321.08
480.682	2390.46
481.053	2465.94
481.424	2497.12
481.795	2520.4
482.166	2553.39
482.537	2610.34
482.908	2677.91
483.279	2740.28
483.65	2733.28
484.021	2798.58
484.391	2809.66
484.762	2861.86
485.133	2928.52
485.503	2979.14
485.874	3053.27
486.244	3074.74
486.615	3169.65
486.985	3203.55
487.356	3253.49
487.726	3279.02
488.097	3354.28
488.467	3369.42
488.837	3451
489.207	3509.3
489.578	3572.12
489.948	3622.29
490.318	3724.89
490.688	3691.44
491.058	3749.75
491.428	3828.39
491.798	3858.44
492.168	3953.81
492.538	4012.34
492.908	4029.06
493.278	4072.45
493.648	4048.72
494.017	4116.29
494.387	4207.59
494.757	4196.29
495.126	4286.23
495.496	4305.66
495.866	4356.51
496.235	4430.41
496.605	4457.52
496.974	4475.15
497.344	4545.43
497.713	4555.15
498.082	4629.04
498.452	4670.63
498.821	4698.2
499.19	4671.98
499.559	4724.86
499.928	4754.92
500.298	4812.77
500.667	4919.66
501.036	4837.63
501.405	4915.82
501.774	4967.34
502.143	5008.7
502.512	4982.03
502.88	5069.49
503.249	5079.2
503.618	5102.7
503.987	5130.5
504.356	5177.28
504.724	5215.7
505.093	5228.13
505.462	5282.81
505.83	5327.78
506.199	5318.97
506.567	5357.61
506.936	5395.8
507.304	5403.71
507.672	5462.02
508.041	5492.98
508.409	5527.78
508.777	5622.47
509.145	5596.25
509.514	5599.87
509.882	5646.19
510.25	5620.43
510.618	5704.95
510.986	5697.04
511.354	5774.33
511.722	5779.75
512.09	5817.71
512.458	5779.75
512.826	5891.38
513.193	5913.08
513.561	5927.77
513.929	5952.4
514.297	6001.21
514.664	6046.18
515.032	6114.43
515.4	6094.09
515.767	6099.74
516.135	6129.57
516.502	6137.03
516.869	6199.17
517.237	6197.14
517.604	6227.42
517.972	6303.8
518.339	6297.02
518.706	6273.97
519.073	6320.53
519.44	6372.5
519.808	6442.1
520.175	6398.94
520.542	6476.23
520.909	6514.65
521.276	6496.57
521.643	6536.57
522.009	6614.08
522.376	6615.43
522.743	6684.58
523.11	6733.17
523.477	6795.09
523.843	6780.17
524.21	6847.52
524.577	6985.14
524.943	6933.17
525.31	6995.31
525.676	6965.71
526.043	7051.81
526.409	7061.98
526.776	7114.4
527.142	7104.01
527.508	7168.64
527.874	7267.62
528.241	7283.66
528.607	7287.73
528.973	7375.41
529.339	7324.57
529.705	7435.52
530.071	7508.52
530.437	7508.07
530.803	7487.5
531.169	7586.03
531.535	7572.47
531.901	7595.52
532.267	7651.34
532.632	7760.94
532.998	7718.46
533.364	7797.32
533.73	7781.96
534.095	7845.46
534.461	7879.35
534.826	7931.11
535.192	7909.18
535.557	8057.66
535.923	8060.37
536.288	8088.62
536.653	8075.51
537.019	8096.75
537.384	8110.31
537.749	8181.49
538.114	8168.16
538.479	8233.92
538.845	8308.04
539.21	8222.85
539.575	8301.04
539.94	8242.06
540.305	8389.62
540.67	8390.3
541.034	8419.68
541.399	8495.16
541.764	8477.31
542.129	8553.01
542.494	8511.65
542.858	8550.75
543.223	8636.17
543.587	8639.11
543.952	8717.98
544.316	8738.77
544.681	8724.53
545.045	8807.24
545.41	8819.67
545.774	8877.75
546.138	8910.51
546.503	8952.77
546.867	8959.33
547.231	9054.69
547.595	9016.5
547.959	9062.37
548.324	9065.54
548.688	9056.73
549.052	9064.63
549.416	9139.89
549.779	9152.09
550.143	9208.36
550.507	9294.46
550.871	9301.24
551.235	9315.93
551.599	9355.7
551.962	9395.02
552.326	9372.88
552.689	9440.22
553.053	9427.34
553.417	9451.52
553.78	9563.15
554.143	9584.62
554.507	9564.73
554.87	9622.13
555.234	9726.31
555.597	9711.85
555.96	9769.25
556.323	9776.03
556.686	9796.82
557.05	9837.5
557.413	9891.05
557.776	9902.13
558.139	9920.21
558.502	9941.9
558.865	9945.52
559.228	10012.41
559.59	10121.1
559.953	10105.29
560.316	10167.88
560.679	10204.94
561.041	10160.42
561.404	10255.56
561.767	10313.42
562.129	10251.95
562.492	10358.39
562.854	10410.81
563.217	10340.31
563.579	10412.17
563.941	10521.09
564.304	10513.64
564.666	10609.45
565.028	10624.82
565.39	10615.55
565.753	10684.93
566.115	10678.6
566.477	10719.05
566.839	10845.83
567.201	10867.98
567.563	10870.01
567.925	10978.03
568.287	10972.38
568.648	10962.66
569.01	11060.06
569.372	11097.12
569.734	11109.33
570.095	11187.74
570.457	11216.22
570.819	11298.02
571.18	11314.29
571.542	11390.9
571.903	11385.03
572.265	11412.82
572.626	11470.22
572.987	11552.03
573.349	11575.53
573.71	11597.9
574.071	11677.45
574.432	11849.19
574.794	11888.52
575.155	11896.65
575.516	11862.75
575.877	12024.33
576.238	12108.62
576.599	12190.88
576.96	12260.26
577.32	12300.71
577.681	12461.38
578.042	12557.65
578.403	12592
578.763	12681.04
579.124	12830.41
579.485	12995.15
579.845	13049.39
580.206	13183.4
580.566	13203.96
580.927	13403.28
581.287	13542.71
581.648	13691.18
582.008	13813.66
582.368	13902.25
582.728	13996.03
583.089	14086.88
583.449	14387.88
583.809	14473.08
584.169	14724.6
584.529	14819.96
584.889	15100.18
585.249	15251.14
585.609	15385.15
585.969	15633.95
586.329	15798.69
586.688	16002.76
587.048	16223.99
587.408	16365.23
587.768	16613.36
588.127	16873.24
588.487	17083.41
588.846	17407.92
589.206	17482.49
589.565	17787.12
589.925	18107.11
590.284	18329.25
590.643	18662.8
591.003	18934.88
591.362	19218.72
591.721	19449.67
592.08	19722.43
592.44	20038.81
592.799	20361.74
593.158	20662.52
593.517	20923.53
593.876	21254.14
594.235	21408.49
594.593	21768.71
594.952	22035.82
595.311	22279.88
595.67	22640.32
596.029	23105.17
596.387	23262.68
596.746	23683.91
597.104	23911.7
597.463	24175.2
597.822	24619.03
598.18	24753.49
598.538	25007.49
598.897	25463.98
599.255	25698.32
599.613	26251.98
599.972	26287.46
600.33	26666.21
600.688	26894.67
601.046	27378.73
601.404	27596.8
601.762	27867.98
602.12	28238.14
602.478	28496.44
602.836	28895.3
603.194	28900.05
603.552	29296.19
603.91	29413.03
604.268	29855.73
604.625	29973.46
604.983	30387.24
605.341	30457.97
605.698	30906.77
606.056	31261.79
606.413	31386.08
606.771	31760.76
607.128	32042.79
607.485	32070.36
607.843	32313.29
608.2	32668.31
608.557	33058.13
608.914	33146.49
609.272	33446.82
609.629	33725.91
609.986	34106.01
610.343	34052.23
610.7	34571.76
611.057	34661.93
611.414	34801.58
611.771	35060.56
612.127	35420.33
612.484	35431.62
612.841	35862.35
613.198	35918.39
613.554	36063.25
613.911	36454.65
614.267	36463.46
614.624	36730.12
614.98	36821.19
615.337	37233.84
615.693	37222.76
616.05	37405.58
616.406	37720.38
616.762	37714.95
617.118	37837.44
617.475	38002.86
617.831	38395.39
618.187	38341.38
618.543	38415.05
618.899	38776.85
619.255	38761.03
619.611	38920.8
619.967	39090.96
620.323	39471.07
620.678	39361.69
621.034	39424.97
621.39	39479.88
621.746	39605.98
622.101	40165.29
622.457	39906.99
622.812	40118.28
623.168	40299.29
623.523	40461.78
623.879	40439.63
624.234	40415
624.589	40518.72
624.945	40633.3
625.3	40706.74
625.655	40800.07
626.01	40961.65
626.365	40950.8
626.72	40946.73
627.075	41045.94
627.43	41042.55
627.785	41170.91
628.14	41264.01
628.495	41221.3
628.85	41416.33
629.205	41228.53
629.559	41453.16
629.914	41372.03
630.269	41512.59
630.623	41508.75
630.978	41468.98
631.332	41698.58
631.687	41660.39
632.041	41720.95
632.396	41810.44
632.75	41665.59
633.104	41694.06
633.459	41567.51
633.813	41738.8
634.167	41684.79
634.521	41668.3
634.875	41757.79
635.229	41815.86
635.583	41596.66
635.937	41677.34
636.291	41654.74
636.645	41809.99
636.999	41571.12
637.352	41839.82
637.706	41711.46
638.06	41781.29
638.413	41710.1
638.767	41529.54
639.121	41731.12
639.474	41538.58
639.828	41648.41
640.181	41715.75
640.534	41666.49
640.888	41574.29
641.241	41442.31
641.594	41609.32
641.947	41745.58
642.301	41545.59
642.654	41649.09
643.007	41648.64
643.36	41579.71
643.713	41518.47
644.066	41595.98
644.419	41338.59
644.771	41171.36
645.124	40946.51
645.477	40784.93
645.83	40620.41
646.182	40372.74
646.535	40423.13
646.888	40471.27
647.24	40244.61
647.593	40387.65
647.945	40374.09
648.298	40225.4
648.65	40144.04
649.002	40097.49
649.355	40254.55
649.707	40245.28
650.059	40393.75
650.411	40854.08
650.763	40958.71
651.115	41314.86
651.467	41168.65
651.819	41190.12
652.171	41095.66
652.523	41030.35
652.875	41155.54
653.227	40888.43
653.578	41062.89
653.93	41178.37
654.282	41021.53
654.633	40875.32
654.985	40934.76
655.337	40936.56
655.688	40947.64
656.039	41118.71
656.391	40760.98
656.742	40750.58
657.094	40923.91
657.445	41018.14
657.796	40955.1
658.147	40776.57
658.498	40742.67
658.849	40908.32
659.2	40732.05
659.551	40623.13
659.902	40847.3
660.253	40725.72
660.604	40825.83
660.955	40634.65
661.306	40805.27
661.656	40614.77
662.007	40747.64
662.358	40718.49
662.708	40678.72
663.059	40652.05
663.409	40522.34
663.76	40779.05
664.11	40686.63
664.461	40934.53
664.811	40669.23
665.161	40705.38
665.511	40625.16
665.862	40657.48
666.212	40791.48
666.562	40735.44
666.912	40650.92
667.262	40614.31
667.612	40667.42
667.962	40699.06
668.312	40654.09
668.662	40842.56
669.011	40610.02
669.361	40627.65
669.711	40607.31
670.06	40547.2
670.41	40473.3
670.76	40367.09
671.109	40549
671.459	40537.25
671.808	40395.11
672.157	40413.87
672.507	40247.54
672.856	40116.7
673.205	40391.49
673.554	40440.98
673.904	40326.41
674.253	40641.66
674.602	40365.73
674.951	39914.9
675.3	39752.87
675.649	40198.05
675.998	40251.61
676.346	40346.3
676.695	40422.91
677.044	40092.75
677.393	40249.13
677.741	40188.79
678.09	40090.49
678.438	39917.38
678.787	40071.73
679.135	40082.35
679.484	39796.93
679.832	39913.99
680.181	39767.56
680.529	39855.24
680.877	39690.04
681.225	39728.24
681.573	39930.26
681.922	39620.44
682.27	39431.07
682.618	39627.67
682.966	39412.54
683.314	39485.08
683.661	39452.08
684.009	39215.71
684.357	39220.45
684.705	39187.46
685.053	39136.16
685.4	39224.75
685.748	38907.47
686.095	39000.12
686.443	38872.66
686.79	38738.88
687.138	38936.17
687.485	38756.96
687.832	38769.84
688.18	38754.25
688.527	38540.7
688.874	38619.11
689.221	38403.52
689.568	38140.93
689.915	38244.21
690.262	38184.55
690.609	38155.4
690.956	38081.5
691.303	38048.96
691.65	37915.18
691.997	37858.68
692.344	37654.84
692.69	37530.33
693.037	37604.22
693.383	37249.43
693.73	37378.01
694.077	37308.86
694.423	37186.83
694.769	37065.03
695.116	36988.87
695.462	36994.07
695.808	36991.36
696.155	36924.92
696.501	36611.25
696.847	36522.9
697.193	36356.35
697.539	36571.03
697.885	36267.76
698.231	36147.76
698.577	36338.04
698.923	36280.19
699.269	35963.59
699.614	35855.79
699.96	35760.88
700.306	35716.82
700.651	35640.21
700.997	35519.08
701.342	35472.08
701.688	35357.5
702.033	35426.65
702.379	35191.63
702.724	35124.51
703.069	35184.85
703.415	34825.77
703.76	34876.16
704.105	34877.74
704.45	34706.22
704.795	34546.9
705.14	34373.35
705.485	34555.26
705.83	34332.44
706.175	34416.51
706.52	34281.82
706.865	34116.86
707.209	34073.24
707.554	34032.57
707.899	33973.81
708.243	33875.28
708.588	33838.67
708.932	33562.3
709.277	33711.9
709.621	33620.15
709.966	33407.27
710.31	33519.36
710.654	33200.95
710.998	33273.49
711.342	33279.37
711.687	33169.09
712.031	32975.19
712.375	32904.69
712.719	33023.33
713.063	32899.49
713.407	32962.09
713.75	32727.97
714.094	32799.6
714.438	32511.25
714.782	32642.55
715.125	32441.42
715.469	32403.46
715.812	32309.22
716.156	32271.26
716.499	32187.87
716.843	32159.85
717.186	32099.28
717.53	32223.8
717.873	32101.77
718.216	31930.7
718.559	31925.5
718.902	31772.74
719.246	31947.42
719.589	31707.2
719.932	31590.14
720.275	31620.65
720.617	31606.64
720.96	31506.08
721.303	31551.05
721.646	31477.6
721.989	31159.19
722.331	31472.18
722.674	31367.1
723.016	31300.21
723.359	31257.27
723.701	31287.1
724.044	30989.93
724.386	30887.56
724.729	31078.74
725.071	30901.12
725.413	31057.5
725.755	30902.25
726.097	30729.6
726.439	30618.87
726.782	30654.12
727.124	30703.84
727.465	30572.77
727.807	30361.25
728.149	30540
728.491	30357.63
728.833	30394.24
729.175	30376.39
729.516	30289.16
729.858	30262.5
730.199	30163.51
730.541	30245.55
730.882	30102.5
731.224	30098.66
731.565	29952.9
731.906	30067.92
732.248	29982.95
732.589	29925.33
732.93	29818.89
733.271	29843.98
733.612	29855.73
733.953	29811.43
734.294	29555.4
734.635	29706.8
734.976	29621.83
735.317	29621.38
735.658	29578.22
735.999	29563.08
736.339	29552.68
736.68	29634.94
737.021	29407.83
737.361	29233.37
737.702	29442.86
738.042	29381.61
738.383	29296.42
738.723	29234.73
739.063	29165.12
739.404	29328.73
739.744	29262.52
740.084	29072.7
740.424	29135.07
740.764	29012.36
741.104	29060.94
741.444	28875.41
741.784	28861.85
742.124	28888.97
742.464	28781.86
742.804	28872.93
743.143	28785.02
743.483	28771.69
743.823	28438.59
744.162	28587.51
744.502	28643.55
744.841	28456.44
745.181	28578.7
745.52	28574.18
745.86	28493.95
746.199	28429.32
746.538	28366.27
746.877	28347.52
747.216	28326.27
747.556	28333.05
747.895	28174.41
748.234	28248.54
748.573	28133.06
748.911	28084.47
749.25	28037.69
749.589	27940.75
749.928	27938.71
750.267	28113.85
750.605	27915.21
750.944	27839.06
751.283	27744.82
751.621	27777.36
751.96	27620.3
752.298	27587.31
752.636	27712.96
752.975	27585.05
753.313	27508.9
753.651	27599.97
753.989	27434.32
754.327	27243.59
754.666	27225.51
755.004	27312.52
755.342	27161.33
755.679	27203.37
756.017	26983.49
756.355	27105.74
756.693	26982.13
757.031	27096.02
757.368	26867.33
757.706	26789.14
758.044	26764.73
758.381	26868.69
758.719	26637.73
759.056	26712.98
759.394	26468.47
759.731	26419.88
760.068	26516.15
760.405	26321.58
760.743	26275.71
761.08	26290.85
761.417	26016.73
761.754	26030.52
762.091	25965.21
762.428	25907.81
762.765	25739.45
763.102	25846.11
763.438	25695.61
763.775	25698.77
764.112	25690.86
764.449	25574.03
764.785	25492.45
765.122	25293.81
765.458	25282.51
765.795	25216.53
766.131	25316.86
766.467	25039.13
766.804	25019.7
767.14	24847.27
767.476	24818.12
767.812	24740.61
768.148	24691.34
768.485	24634.62
768.821	24493.16
769.157	24482.31
769.492	24390.11
769.828	24293.16
770.164	24106.5
770.5	23981.53
770.836	24039.83
771.171	23923
771.507	23934.07
771.842	23711.48
772.178	23682.33
772.513	23561.2
772.849	23541.09
773.184	23395.33
773.519	23515.78
773.855	23384.94
774.19	23277.37
774.525	23116.24
774.86	23179.52
775.195	23175.22
775.53	23009.13
775.865	22851.39
776.2	22761.22
776.535	22590.83
776.87	22666.99
777.205	22511.29
777.539	22406.43
777.874	22468.58
778.209	22184.97
778.543	22202.37
778.878	22083.05
779.212	22015.03
779.547	21959.44
779.881	21968.7
780.215	21776.16
780.55	21861.59
780.884	21719.44
781.218	21527.36
781.552	21517.64
781.886	21466.57
782.22	21415.27
782.554	21186.8
782.888	21078.33
783.222	21125.33
783.556	21011.89
783.889	20848.51
784.223	20790.43
784.557	20738
784.89	20714.95
785.224	20541.39
785.557	20494.84
785.891	20414.17
786.224	20441.06
786.558	20430.66
786.891	20164.68
787.224	20116.1
787.557	20069.77
787.891	20045.36
788.224	20096.89
788.557	19937.34
788.89	19933.05
789.223	19907.97
789.556	19707.07
789.888	19762.21
790.221	19552.04
790.554	19453.74
790.887	19545.71
791.219	19460.52
791.552	19326.06
791.884	19300.3
792.217	19156.35
792.549	19280.86
792.882	18977.59
793.214	19023.02
793.546	19061.66
793.879	18766.07
794.211	18776.47
794.543	18820.76
794.875	18702.57
795.207	18760.65
795.539	18605.85
795.871	18584.84
796.203	18480.66
796.535	18338.51
796.867	18271.4
797.198	18230.95
797.53	18319.31
797.862	18157.95
798.193	18165.86
798.525	18067.11
798.856	17960.45
799.188	17881.13
799.519	17844.06
799.85	17754.12
800.182	17720.68
800.513	17838.19
800.844	17554.81
801.175	17601.36
801.506	17618.31
801.837	17524.53
802.168	17424.41
802.499	17460.35
802.83	17347.13
803.161	17228.71
803.491	17346.22
803.822	17332.21
804.153	17182.16
804.483	17099.9
804.814	16902.39
805.145	17026.46
805.475	16904.88
805.805	16806.35
806.136	16985.78
806.466	16823.07
806.796	16815.62
807.126	16578.34
807.457	16597.09
807.787	16615.17
808.117	16511.67
808.447	16455.17
808.777	16564.78
809.107	16377.44
809.436	16321.62
809.766	16321.62
810.096	16174.73
810.426	16151.91
810.755	16202.3
811.085	16204.79
811.414	16157.33
811.744	16004.11
812.073	16012.7
812.403	15959.59
812.732	15824
813.061	15922.99
813.39	15801.18
813.719	15759.6
814.049	15801.41
814.378	15737.23
814.707	15645.7
815.036	15643.22
815.365	15557.8
815.693	15482.09
816.022	15382.43
816.351	15420.17
816.68	15243.68
817.008	15412.49
817.337	15402.32
817.665	15192.16
817.994	15273.74
818.322	15250.91
818.651	15138.6
818.979	15103.12
819.307	15147.19
819.636	15087.3
819.964	15005.5
820.292	15091.82
820.62	14986.06
820.948	14933.18
821.276	14988.09
821.604	14863.13
821.932	15026.06
822.259	14968.21
822.587	14953.29
822.915	14920.3
823.243	15004.37
823.57	14811.15
823.898	14928.21
824.225	14847.76
824.553	14854.09
824.88	14927.53
825.207	14962.78
825.535	14894.99
825.862	14908.77
826.189	14831.94
826.516	14999.62
826.843	14931.37
827.17	15003.91
827.497	14981.09
827.824	14973.18
828.151	14932.05
828.478	14983.35
828.805	14936.12
829.131	14883.01
829.458	14890.47
829.785	14770.93
830.111	14832.17
830.438	14837.59
830.764	14843.69
831.09	14919.62
831.417	14772.73
831.743	14888.66
832.069	14859.51
832.395	14804.37
832.722	14813.86
833.048	14787.2
833.374	14695.9
833.7	14654.77
834.026	14776.12
834.351	14700.87
834.677	14570.93
835.003	14693.64
835.329	14794.65
835.654	14585.39
835.98	14545.62
836.306	14600.53
836.631	14551.72
836.956	14615.45
837.282	14585.17
837.607	14461.55
837.932	14416.81
838.258	14460.42
838.583	14453.65
838.908	14351.95
839.233	14473.76
839.558	14292.07
839.883	14413.42
840.208	14242.35
840.533	14225.63
840.858	14313.31
841.182	14262.01
841.507	14204.39
841.832	14160.77
842.156	14161.68
842.481	14119.19
842.805	14091.85
843.13	14036.93
843.454	14042.81
843.778	14015.24
844.103	13911.74
844.427	13840.1
844.751	13897.73
845.075	13923.04
845.399	13773.21
845.723	13739.99
846.047	13767.11
846.371	13642.37
846.695	13658.19
847.019	13560.34
847.343	13439.66
847.666	13449.15
847.99	13353.56
848.313	13280.34
848.637	13293.68
848.96	13236.95
849.284	13179.78
849.607	13131.65
849.931	13083.74
850.254	13057.3
850.577	12948.83
850.9	12852.78
851.223	12867.02
851.546	12815.72
851.869	12672.22
852.192	12772.11
852.515	12617.08
852.838	12548.38
853.161	12680.81
853.483	12451.89
853.806	12432.23
854.129	12367.82
854.451	12346.58
854.774	12389.97
855.096	12368.28
855.419	12294.61
855.741	12219.35
856.063	12193.14
856.385	12131.45
856.708	12124.22
857.03	12045.35
857.352	12060.26
857.674	12002.64
857.996	11991.11
858.318	11882.19
858.64	11942.07
858.961	11909.08
859.283	11887.61
859.605	11782.53
859.926	11858.69
860.248	11690.1
860.57	11712.47
860.891	11693.27
861.212	11641.52
861.534	11642.65
861.855	11620.27
862.176	11637.22
862.498	11535.08
862.819	11626.15
863.14	11577.79
863.461	11467.28
863.782	11398.81
864.103	11402.2
864.424	11397
864.745	11346.16
865.065	11297.34
865.386	11309.55
865.707	11255.31
866.027	11277.68
866.348	11293.73
866.668	11280.17
866.989	11210.79
867.309	11259.38
867.63	11183.9
867.95	11151.36
868.27	11107.29
868.59	11131.25
868.91	11097.35
869.23	11135.77
869.55	11049.67
869.87	11055.99
870.19	11036.79
870.51	11081.76
870.83	11113.85
871.15	10972.16
871.469	10937.35
871.789	10983.91
872.109	10938.48
872.428	10838.83
872.748	10933.96
873.067	10894.87
873.386	10837.24
873.706	10871.14
874.025	10805.61
874.344	10749.11
874.663	10789.33
874.982	10733.97
875.301	10736.68
875.62	10705.95
875.939	10766.51
876.258	10730.13
876.577	10697.81
876.896	10668.43
877.214	10612.16
877.533	10606.29
877.852	10623.01
878.17	10650.58
878.489	10625.95
878.807	10560.41
879.125	10519.29
879.444	10524.48
879.762	10490.81
880.08	10495.78
880.398	10465.95
880.716	10500.53
881.034	10427.99
881.352	10468.44
881.67	10405.16
881.988	10315.9
882.306	10305.05
882.624	10303.25
882.941	10178.28
883.259	10235.45
883.577	10220.31
883.894	10219.86
884.212	10191.38
884.529	10182.57
884.846	10147.77
885.164	10104.61
885.481	10148.22
885.798	10153.19
886.115	10014.89
886.432	10021.22
886.75	9966.31
887.067	9969.02
887.383	9915.46
887.7	9969.24
888.017	9888.12
888.334	9915.91
888.651	9857.38
888.967	9924.27
889.284	9834.11
889.6	9758.63
889.917	9738.74
890.233	9720.89
890.55	9638.86
890.866	9680.21
891.182	9670.04
891.498	9561.57
891.815	9642.92
892.131	9543.27
892.447	9563.15
892.763	9521.57
893.079	9463.95
893.395	9421.24
893.71	9416.49
894.026	9331.07
894.342	9402.7
894.657	9390.28
894.973	9310.5
895.289	9288.36
895.604	9332.88
895.92	9174.91
896.235	9195.7
896.55	9181.92
896.865	9182.82
897.181	9108.25
897.496	9134.24
897.811	9109.61
898.126	9031.42
898.441	8964.75
898.756	8986.67
899.071	8901.25
899.386	8935.15
899.7	8869.61
900.015	8813.57
900.33	8748.71
900.644	8760.24
900.959	8742.38
901.273	8691.31
901.588	8623.06
901.902	8659
902.216	8614.02
902.531	8552.56
902.845	8529.51
903.159	8535.38
903.473	8463.97
903.787	8440.24
904.101	8415.39
904.415	8399.57
904.729	8421.49
905.042	8319.34
905.356	8296.75
905.67	8211.78
905.984	8224.88
906.297	8196.18
906.611	8190.99
906.924	8138.56
907.237	8171.32
907.551	8121.83
907.864	8012.23
908.177	8063.08
908.491	8049.75
908.804	7951.22
909.117	7861.95
909.43	7887.72
909.743	7824.67
910.056	7871.45
910.368	7806.36
910.681	7789.87
910.994	7742.41
911.307	7694.05
911.619	7661.51
911.932	7644.78
912.244	7591
912.557	7588.06
912.869	7577.67
913.181	7500.16
913.494	7488.18
913.806	7464.22
914.118	7425.81
914.43	7431.68
914.742	7332.48
915.054	7358.69
915.366	7240.28
915.678	7254.96
915.99	7261.74
916.302	7146.72
916.613	7148.3
916.925	7141.97
917.236	7083.67
917.548	7071.92
917.859	7064.46
918.171	7044.12
918.482	6987.85
918.794	7000.51
919.105	6938.59
919.416	6892.71
919.727	6877.8
920.038	6867.63
920.349	6822.43
920.66	6812.49
920.971	6777.46
921.282	6771.81
921.593	6654.53
921.903	6612.95
922.214	6668.54
922.525	6631.93
922.835	6625.15
923.146	6563.01
923.456	6497.47
923.767	6540.41
924.077	6447.98
924.387	6492.05
924.697	6425.83
925.008	6432.16
925.318	6363.24
925.628	6348.55
925.938	6338.6
926.248	6258.15
926.558	6230.58
926.867	6288.21
927.177	6210.7
927.487	6189.46
927.796	6094.54
928.106	6146.75
928.416	6157.82
928.725	6089.35
929.034	6070.59
929.344	6057.26
929.653	6072.17
929.962	5998.73
930.271	5937.26
930.581	5954.89
930.89	5886.19
931.199	5866.98
931.508	5831.05
931.817	5876.92
932.125	5813.65
932.434	5777.04
932.743	5715.57
933.051	5709.47
933.36	5697.94
933.669	5647.55
933.977	5598.06
934.286	5598.96
934.594	5617.72
934.902	5573.88
935.21	5570.49
935.519	5524.16
935.827	5557.16
936.135	5490.72
936.443	5489.59
936.751	5451.62
937.059	5425.18
937.367	5393.09
937.674	5393.77
937.982	5386.77
938.29	5319.65
938.597	5290.04
938.905	5269.93
939.213	5254.34
939.52	5201.23
939.827	5250.72
940.135	5189.48
940.442	5167.56
940.749	5130.95
941.056	5165.53
941.363	5071.52
941.67	5050.95
941.977	5045.31
942.284	4986.1
942.591	5066.55
942.898	5020.22
943.205	4956.04
943.511	5004.85
943.818	4960.79
944.125	4928.92
944.431	4873.56
944.738	4901.58
945.044	4825.88
945.35	4814.58
945.657	4816.38
945.963	4797.4
946.269	4759.44
946.575	4722.83
946.881	4697.52
947.187	4744.52
947.493	4698.2
947.799	4659.33
948.105	4657.29
948.41	4617.29
948.716	4597.41
949.022	4580.68
949.327	4591.76
949.633	4500.46
949.938	4509.95
950.244	4542.49
950.549	4525.32
950.854	4495.72
951.16	4414.14
951.465	4468.15
951.77	4389.5
952.075	4349.96
952.38	4352.67
952.685	4389.5
952.99	4305.89
953.294	4318.09
953.599	4256.63
953.904	4235.83
954.209	4228.83
954.513	4228.83
954.818	4213.69
955.122	4198.32
955.426	4177.08
955.731	4135.27
956.035	4143.86
956.339	4086.91
956.643	4104.54
956.948	4064.09
957.252	4049.63
957.556	4048.5
957.86	4035.16
958.163	4041.72
958.467	4040.13
958.771	3980.02
959.075	3990.19
959.378	3948.84
959.682	3986.12
959.985	3919.69
960.289	3864.77
960.592	3866.13
960.896	3875.39
961.199	3871.78
961.502	3842.17
961.805	3846.01
962.108	3774.15
962.411	3822.96
962.714	3775.06
963.017	3772.34
963.32	3773.47
963.623	3713.59
963.926	3691.44
964.228	3655.51
964.531	3684.44
964.833	3660.26
965.136	3612.8
965.438	3613.03
965.741	3603.99
966.043	3556.53
966.345	3583.87
966.648	3558.79
966.95	3535.29
967.252	3542.29
967.554	3515.85
967.856	3490.32
968.158	3478.79
968.46	3474.73
968.761	3454.39
969.063	3479.02
969.365	3429.98
969.666	3439.47
969.968	3394.05
970.269	3411.45
970.571	3351.79
970.872	3332.36
971.174	3288.29
971.475	3300.72
971.776	3316.76
972.077	3274.5
972.378	3270.21
972.679	3240.83
972.98	3251.23
973.281	3232.02
973.582	3194.05
973.883	3230.66
974.183	3183.66
974.484	3187.5
974.785	3156.77
975.085	3162.42
975.386	3181.17
975.686	3116.99
975.986	3084.68
976.287	3080.61
976.587	3062.53
976.887	3087.84
977.187	3067.5
977.487	3070.89
977.787	3017.56
978.087	3024.57
978.387	3018.47
978.687	3009.43
978.987	2935.76
979.286	2963.1
979.586	2957.45
979.885	2945.7
980.185	2945.25
980.484	2898.24
980.784	2921.52
981.083	2885.59
981.382	2845.82
981.682	2858.24
981.981	2830.67
982.28	2821.63
982.579	2803.56
982.878	2847.17
983.177	2789.77
983.475	2827.06
983.774	2777.34
984.073	2770.34
984.372	2755.87
984.67	2773.27
984.969	2732.6
985.267	2715.87
985.566	2697.57
985.864	2707.51
986.162	2652.15
986.461	2679.72
986.759	2658.7
987.057	2643.11
987.355	2616.67
987.653	2638.14
987.951	2600.62
988.249	2615.09
988.547	2617.57
988.844	2595.88
989.142	2566.27
989.44	2557.01
989.737	2495.99
990.035	2542.32
990.332	2535.31
990.63	2470.91
990.927	2459.38
991.224	2451.48
991.521	2447.63
991.819	2462.55
992.116	2438.59
992.413	2453.06
992.71	2427.07
993.006	2421.42
993.303	2397.69
993.6	2398.14
993.897	2393.4
994.193	2414.64
994.49	2376.45
994.787	2365.83
995.083	2339.61
995.379	2330.57
995.676	2316.34
995.972	2301.42
996.268	2300.52
996.565	2291.48
996.861	2259.84
997.157	2260.07
997.453	2241.99
997.749	2231.59
998.044	2221.2
998.34	2246.73
998.636	2155.21
998.932	2178.49
999.227	2190.92
999.523	2141.43
999.818	2150.69
1000.114	2134.65
1000.409	2101.65
1000.704	2122.22
1001	2124.7
1001.295	2098.94
1001.59	2098.49
1001.885	2068.89
1002.18	2060.75
1002.475	2042.67
1002.77	2030.92
1003.065	2015.78
1003.359	2023.92
1003.654	2037.25
1003.949	1977.59
1004.243	1975.33
1004.538	1994.99
1004.832	2016.01
1005.127	1965.16
1005.421	1954.99
1005.715	1939.62
1006.009	1925.61
1006.304	1935.1
1006.598	1917.03
1006.892	1895.11
1007.186	1870.7
1007.48	1875.67
1007.773	1878.38
1008.067	1845.62
1008.361	1871.83
1008.655	1840.64
1008.948	1818.05
1009.242	1820.53
1009.535	1813.98
1009.829	1809.46
1010.122	1767.65
1010.415	1777.37
1010.708	1767.43
1011.001	1757.03
1011.295	1744.15
1011.588	1740.31
1011.881	1727.65
1012.173	1710.7
1012.466	1704.6
1012.759	1706.18
1013.052	1695.34
1013.344	1690.59
1013.637	1670.7
1013.93	1642.68
1014.222	1647.43
1014.514	1636.36
1014.807	1608.79
1015.099	1632.74
1015.391	1579.18
1015.683	1583.02
1015.976	1571.5
1016.268	1580.09
1016.56	1559.3
1016.851	1560.2
1017.143	1555.23
1017.435	1566.3
1017.727	1542.8
1018.018	1513.65
1018.31	1493.31
1018.602	1526.3
1018.893	1482.01
1019.185	1472.29
1019.476	1457.6
1019.767	1439.98
1020.058	1462.8
1020.35	1474.1
1020.641	1425.74
1020.932	1401.11
1021.223	1401.56
1021.514	1425.74
1021.804	1374.22
1022.095	1378.51
1022.386	1378.28
1022.677	1366.31
1022.967	1363.82
1023.258	1365.85
1023.548	1355.91
1023.839	1316.36
1024.129	1324.5
1024.419	1339.64
1024.709	1299.64
1025	1319.08
1025.29	1302.13
1025.58	1297.83
1025.87	1289.92
1026.16	1270.04
1026.449	1280.43
1026.739	1246.31
1027.029	1237.27
1027.319	1239.08
1027.608	1229.13
1027.898	1239.3
1028.187	1201.11
1028.477	1149.36
1028.766	1217.61
1029.055	1161.34
1029.344	1183.03
1029.634	1150.94
1029.923	1160.21
1030.212	1148.01
1030.501	1151.85
1030.79	1150.72
1031.078	1136.26
1031.367	1128.12
1031.656	1115.01
1031.945	1124.96
1032.233	1099.42
1032.522	1110.49
1032.81	1082.25
1033.099	1064.62
1033.387	1115.69
1033.675	1062.36
1033.963	1070.72
1034.251	1034.34
1034.54	1051.29
1034.828	1064.62
1035.116	1054.9
1035.403	1027.78
1035.691	1027.56
1035.979	1004.96
1036.267	1014.9
1036.554	994.11
1036.842	1023.72
1037.129	977.62
1037.417	992.08
1037.704	992.76
1037.992	959.08
1038.279	952.76
1038.566	977.84
1038.853	977.84
1039.14	977.84
