Data from hue_60_FLMS001491_36.txt Node
Date: Mon Feb 06 15:17:17 GMT 2017
User: dcchb
Spectrometer: FLMS00149
Trigger mode: 0
Integration Time (sec): 2.000000E-2
Scans to average: 10
Electric dark correction enabled: true
Nonlinearity correction enabled: false
Boxcar width: 0
XAxis mode: Wavelengths
Number of Pixels in Spectrum: 2048
>>>>>Begin Spectral Data<<<<<
341.393	-31.64
341.776	-31.64
342.16	-31.64
342.543	-66.66
342.927	-72.77
343.31	-67.34
343.693	-58.3
344.077	-82.26
344.46	-57.63
344.843	-37.29
345.226	-52.65
345.61	-43.16
345.993	-25.99
346.376	-3.84
346.759	27.8
347.142	16.04
347.525	25.08
347.908	84.52
348.291	69.83
348.674	100.34
349.057	104.86
349.44	122.71
349.823	145.98
350.206	157.51
350.588	183.05
350.971	194.35
351.354	214.91
351.737	218.98
352.119	253.1
352.502	262.37
352.884	305.53
353.267	300.56
353.65	294.23
354.032	309.37
354.414	289.03
354.797	320.22
355.179	331.06
355.562	297.17
355.944	304.4
356.326	342.59
356.709	335.58
357.091	337.62
357.473	355.92
357.855	320.67
358.238	329.26
358.62	348.47
359.002	321.35
359.384	355.02
359.766	343.72
360.148	345.3
360.53	342.82
360.912	318.86
361.294	314.12
361.676	328.8
362.057	326.32
362.439	340.78
362.821	338.97
363.203	323.61
363.584	323.38
363.966	321.57
364.348	319.77
364.729	321.8
365.111	319.31
365.493	299.2
365.874	321.35
366.256	303.04
366.637	306.88
367.019	319.99
367.4	311.4
367.781	314.79
368.163	313.66
368.544	324.29
368.925	297.62
369.306	309.82
369.688	307.56
370.069	329.71
370.45	326.32
370.831	351.86
371.212	311.86
371.593	321.12
371.974	318.64
372.355	317.73
372.736	323.16
373.117	347.56
373.498	304.85
373.879	327.22
374.26	317.05
374.641	330.61
375.021	324.29
375.402	306.21
375.783	321.35
376.163	338.07
376.544	305.75
376.925	326.77
377.305	327.9
377.686	326.77
378.066	360.89
378.447	324.74
378.827	328.58
379.208	325.19
379.588	323.16
379.968	331.29
380.349	327.22
380.729	311.63
381.109	335.36
381.489	318.41
381.87	320.44
382.25	351.86
382.63	321.35
383.01	332.87
383.39	345.3
383.77	348.24
384.15	333.55
384.53	334.91
384.91	346.88
385.29	345.08
385.67	334.45
386.049	349.82
386.429	350.27
386.809	339.65
387.189	344.62
387.568	322.93
387.948	348.01
388.328	355.47
388.707	355.24
389.087	358.41
389.466	369.03
389.846	370.61
390.225	355.7
390.605	316.38
390.984	351.18
391.363	347.56
391.743	347.11
392.122	381.91
392.501	360.22
392.881	359.99
393.26	365.41
393.639	369.26
394.018	364.06
394.397	357.96
394.776	375.58
395.155	373.32
395.534	360.22
395.913	386.88
396.292	354.34
396.671	392.98
397.05	367.45
397.429	374.91
397.808	378.07
398.186	378.52
398.565	369.03
398.944	380.1
399.323	366.32
399.701	361.35
400.08	388.46
400.458	374
400.837	387.11
401.215	380.1
401.594	372.42
401.972	364.51
402.351	389.37
402.729	381.91
403.107	390.72
403.486	392.76
403.864	389.37
404.242	385.3
404.62	398.41
404.999	411.74
405.377	399.31
405.755	392.76
406.133	397.96
406.511	400.44
406.889	417.84
407.267	427.56
407.645	413.32
408.023	421.46
408.401	418.52
408.779	413.32
409.156	425.53
409.534	423.49
409.912	431.18
410.29	409.71
410.667	428.46
411.045	417.84
411.422	436.37
411.8	428.92
412.178	439.76
412.555	432.31
412.933	438.86
413.31	461.91
413.687	460.78
414.065	457.39
414.442	464.17
414.819	436.6
415.197	447.45
415.574	466.43
415.951	461.46
416.328	479.76
416.705	471.63
417.082	451.74
417.46	477.5
417.837	482.02
418.214	492.19
418.591	486.09
418.967	482.47
419.344	484.51
419.721	477.95
420.098	492.42
420.475	498.97
420.852	499.2
421.228	516.37
421.605	492.87
421.982	486.09
422.358	520.44
422.735	515.47
423.111	477.28
423.488	538.06
423.864	524.05
424.241	533.55
424.617	512.08
424.994	531.51
425.37	518.86
425.746	529.48
426.123	545.75
426.499	537.39
426.875	527.67
427.251	523.15
427.627	540.32
428.003	543.04
428.379	565.18
428.756	561.57
429.132	563.83
429.507	549.82
429.883	550.95
430.259	554.79
430.635	592.75
431.011	579.19
431.387	585.75
431.763	592.3
432.138	591.4
432.514	611.96
432.89	619.64
433.265	587.56
433.641	602.47
434.016	596.59
434.392	616.48
434.767	614.9
435.143	619.87
435.518	622.58
435.894	639.98
436.269	633.88
436.644	658.74
437.02	668.68
437.395	671.85
437.77	674.11
438.145	658.97
438.52	682.24
438.895	673.2
439.271	678.85
439.646	694.22
440.021	702.13
440.395	678.63
440.77	657.84
441.145	709.13
441.52	719.08
441.895	720.21
442.27	688.57
442.645	702.13
443.019	717.27
443.394	739.42
443.769	738.96
444.143	716.82
444.518	733.31
444.892	726.99
445.267	711.39
445.641	750.04
446.016	752.75
446.39	770.6
446.764	760.88
447.139	749.13
447.513	749.13
447.887	748.91
448.262	763.14
448.636	742.13
449.01	777.83
449.384	757.49
449.758	782.35
450.132	763.6
450.506	804.95
450.88	797.72
451.254	789.58
451.628	809.02
452.002	798.17
452.376	828.23
452.75	803.59
453.123	818.51
453.497	848.11
453.871	832.29
454.244	856.25
454.618	864.38
454.992	870.71
455.365	855.8
455.739	884.04
456.112	897.15
456.486	919.07
456.859	926.98
457.232	918.62
457.606	910.26
457.979	926.76
458.352	940.09
458.725	956.59
459.099	959.3
459.472	993.42
459.845	987.32
460.218	999.52
460.591	992.97
460.964	1001.78
461.337	1023.93
461.71	1051.05
462.083	1031.84
462.456	1054.44
462.829	1065.51
463.201	1093.98
463.574	1086.75
463.947	1092.85
464.32	1132.17
464.692	1146.86
465.065	1170.36
465.438	1152.51
465.81	1155.22
466.183	1177.37
466.555	1218.95
466.928	1242
467.3	1239.06
467.672	1257.14
468.045	1276.58
468.417	1306.41
468.789	1320.42
469.161	1306.86
469.534	1348.89
469.906	1411.94
470.278	1408.32
470.65	1434.99
471.022	1463.69
471.394	1462.56
471.766	1508.66
472.138	1564.7
472.51	1584.59
472.882	1607.42
473.253	1629.34
473.625	1656.68
473.997	1698.94
474.369	1757.69
474.74	1766.51
475.112	1817.13
475.484	1876.56
475.855	1921.76
476.227	1960.63
476.598	2024.13
476.97	2086.5
477.341	2126.27
477.713	2201.3
478.084	2194.74
478.455	2300.05
478.827	2351.12
479.198	2418.47
479.569	2446.72
479.94	2568.75
480.311	2607.84
480.682	2681.74
481.053	2815.75
481.424	2856.65
481.795	2926.48
482.166	3030.88
482.537	3099.35
482.908	3236.75
483.279	3264.09
483.65	3356.52
484.021	3514.94
484.391	3551.55
484.762	3724.65
485.133	3791.54
485.503	3883.29
485.874	3994.25
486.244	4109.72
486.615	4234.01
486.985	4362.82
487.356	4475.59
487.726	4574.34
488.097	4749.25
488.467	4851.17
488.837	4999.42
489.207	5166.87
489.578	5257.26
489.948	5375.23
490.318	5551.27
490.688	5605.95
491.058	5768.89
491.428	5937.7
491.798	6024.93
492.168	6243.9
492.538	6403.67
492.908	6520.51
493.278	6708.75
493.648	6823.55
494.017	6934.05
494.387	7116.88
494.757	7253.37
495.126	7405.91
495.496	7478.67
495.866	7634.38
496.235	7868.95
496.605	8041.6
496.974	8146.23
497.344	8270.74
497.713	8479.78
498.082	8558.42
498.452	8749.15
498.821	8854.46
499.19	8951.86
499.559	9175.13
499.928	9286.76
500.298	9434.55
500.667	9681.78
501.036	9663.47
501.405	9853.75
501.774	9944.37
502.143	10145.5
502.512	10206.06
502.88	10399.05
503.249	10517.01
503.618	10663.67
503.987	10750.23
504.356	10895.08
504.724	11042.42
505.093	11056.43
505.462	11236.99
505.83	11375.97
506.199	11502.75
506.567	11719.92
506.936	11768.96
507.304	12029.06
507.672	12133.01
508.041	12221.15
508.409	12355.61
508.777	12513.34
509.145	12674.92
509.514	12786.56
509.882	12866.33
510.25	13036.95
510.618	13116.04
510.986	13190.84
511.354	13374.34
511.722	13618.17
512.09	13730.03
512.458	13748.34
512.826	13951.5
513.193	14093.64
513.561	14052.06
513.929	14264.26
514.297	14545.15
514.664	14573.18
515.032	14747.18
515.4	14787.41
515.767	15024.46
516.135	15126.83
516.502	15080.73
516.869	15434.17
517.237	15436.2
517.604	15433.27
517.972	15620.61
518.339	15847.49
518.706	15865.57
519.073	16132.23
519.44	16153.25
519.808	16285.9
520.175	16346.91
520.542	16554.14
520.909	16701.93
521.276	16808.6
521.643	16949.38
522.009	17130.17
522.376	17253.11
522.743	17351.18
523.11	17531.29
523.477	17676.6
523.843	17832.3
524.21	18036.36
524.577	18162.01
524.943	18310.93
525.31	18409.91
525.676	18567.42
526.043	18666.18
526.409	18778.04
526.776	19016
527.142	19162.66
527.508	19221.64
527.874	19414.86
528.241	19552.25
528.607	19625.47
528.973	19808.29
529.339	19802.87
529.705	20096.65
530.071	20169.41
530.437	20331.67
530.803	20373.48
531.169	20557.65
531.535	20538.44
531.901	20534.6
532.267	20746.12
532.632	20888.26
532.998	20928.49
533.364	21144.3
533.73	21141.37
534.095	21356.05
534.461	21394.24
534.826	21627.91
535.192	21641.46
535.557	21759.43
535.923	21763.04
536.288	21749.26
536.653	22037.84
537.019	21970.95
537.384	22089.36
537.749	22126.42
538.114	22321
538.479	22345.4
538.845	22391.28
539.21	22417.72
539.575	22505.62
539.94	22566.64
540.305	22706.97
540.67	22781.1
541.034	22873.52
541.399	22966.4
541.764	23081.65
542.129	23105.61
542.494	23198.26
542.858	23236.45
543.223	23252.27
543.587	23467.63
543.952	23440.06
544.316	23487.74
544.681	23524.58
545.045	23674.63
545.41	23793.72
545.774	23941.74
546.138	23974.51
546.503	24016.09
546.867	24000.95
547.231	24255.41
547.595	24205.47
547.959	24245.01
548.324	24267.61
548.688	24373.6
549.052	24508.51
549.416	24626.02
549.779	24616.08
550.143	24736.98
550.507	24781.5
550.871	24934.94
551.235	24995.05
551.599	25109.62
551.962	25249.05
552.326	25248.83
552.689	25284.98
553.053	25315.72
553.417	25497.41
553.78	25781.69
554.143	25717.74
554.507	25816.04
554.87	25863.05
555.234	26153.89
555.597	25928.58
555.96	26078.18
556.323	26250.38
556.686	26319.08
557.05	26541.45
557.413	26576.7
557.776	26598.17
558.139	26845.85
558.502	26772.4
558.865	26907.32
559.228	27194.54
559.59	27304.82
559.953	27295.78
560.316	27576.68
560.679	27585.94
561.041	27819.38
561.404	27874.3
561.767	28013.05
562.129	27976.21
562.492	28184.8
562.854	28336.2
563.217	28324.45
563.579	28414.39
563.941	28669.75
564.304	28627.5
564.666	29005.11
565.028	29028.62
565.39	28966.24
565.753	29169.4
566.115	29465.44
566.477	29431.32
566.839	29601.26
567.201	29720.35
567.563	29799.22
567.925	29912.43
568.287	29998.31
568.648	29997.18
569.01	30194.01
569.372	30284.4
569.734	30328.02
570.095	30569.37
570.457	30685.07
570.819	30843.26
571.18	30735.92
571.542	30991.5
571.903	31033.99
572.265	31194.21
572.626	31185.39
572.987	31242.34
573.349	31429.23
573.71	31428.33
574.071	31602.78
574.432	31704.25
574.794	31799.84
575.155	31897.69
575.516	31756.23
575.877	32099.95
576.238	32039.16
576.599	32058.59
576.96	32241.64
577.32	32289.09
577.681	32535.87
578.042	32570.9
578.403	32499.03
578.763	32647.5
579.124	32495.87
579.485	32607.73
579.845	32820.15
580.206	32841.85
580.566	32893.37
580.927	32916.87
581.287	32909.64
581.648	32776.99
582.008	32932.92
582.368	32876.42
582.728	32996.42
583.089	32981.73
583.449	32967.95
583.809	32947.16
584.169	33062.86
584.529	33001.39
584.889	33265.11
585.249	33100.82
585.609	33015.4
585.969	33214.95
586.329	33241.16
586.688	33192.12
587.048	33216.08
587.408	33049.07
587.768	33243.65
588.127	33101.5
588.487	33150.99
588.846	33335.39
589.206	33223.31
589.565	33254.72
589.925	33412
590.284	33291.78
590.643	33350.99
591.003	33523.41
591.362	33488.84
591.721	33424.43
592.08	33528.16
592.44	33535.62
592.799	33545.33
593.158	33542.39
593.517	33541.04
593.876	33687.48
594.235	33648.83
594.593	33672.56
594.952	33730.19
595.311	33536.97
595.67	33762.05
596.029	33922.27
596.387	33947.58
596.746	33955.49
597.104	33699
597.463	33891.54
597.822	33967.92
598.18	33868.04
598.538	33861.48
598.897	34043.85
599.255	33919.33
599.613	34274.81
599.972	34176.28
600.33	34266.67
600.688	34055.15
601.046	34155.94
601.404	34427.8
601.762	34410.39
602.12	34335.82
602.478	34487.45
602.836	34497.62
603.194	34330.85
603.552	34433.22
603.91	34312.09
604.268	34642.25
604.625	34512.76
604.983	34682.25
605.341	34500.11
605.698	34622.82
606.056	34789.37
606.413	34772.42
606.771	34822.81
607.128	34945.97
607.485	34754.79
607.843	34841.34
608.2	35065.29
608.557	35261.22
608.914	35161.34
609.272	35273.65
609.629	35380.54
609.986	35428.45
610.343	35336.7
610.7	35500.31
611.057	35590.7
611.414	35573.53
611.771	35610.36
612.127	35770.58
612.484	35780.08
612.841	35905.27
613.198	35830.92
613.554	35787.99
613.911	36195.43
614.267	35986.4
614.624	36079.5
614.98	36130.12
615.337	36289.44
615.693	36353.17
616.05	36201.31
616.406	36477.23
616.762	36258.71
617.118	36363.56
617.475	36298.03
617.831	36619.38
618.187	36547.29
618.543	36709.32
618.899	36709.77
619.255	36818.24
619.611	36752.03
619.967	36928.52
620.323	36986.82
620.678	36758.81
621.034	36789.99
621.39	36906.15
621.746	36757.68
622.101	37309.98
622.457	36917.22
622.812	37025.47
623.168	37125.35
623.523	37080.15
623.879	37183.66
624.234	37050.33
624.589	37173.94
624.945	37383.65
625.3	37341.84
625.655	37422.52
626.01	37401.95
626.365	37436.98
626.72	37394.5
627.075	37427.72
627.43	37378.9
627.785	37239.47
628.14	37389.53
628.495	37395.85
628.85	37289.41
629.205	37386.59
629.559	37403.76
629.914	37406.93
630.269	37241.05
630.623	37235.63
630.978	37161.51
631.332	37372.58
631.687	37394.5
632.041	37341.62
632.396	37334.16
632.75	37199.93
633.104	37229.08
633.459	37088.52
633.813	37265.01
634.167	37066.6
634.521	37076.77
634.875	37202.41
635.229	37140.72
635.583	36886.04
635.937	36934.17
636.291	37050.33
636.645	37056.65
636.999	36917.9
637.352	37110.89
637.706	36853.95
638.06	36881.97
638.413	36852.59
638.767	36712.48
639.121	37005.35
639.474	36708.64
639.828	36740.73
640.181	36826.83
640.534	36737.57
640.888	36731.92
641.241	36592.94
641.594	36571.47
641.947	36818.01
642.301	36557.46
642.654	36644.91
643.007	36633.84
643.36	36494.63
643.713	36447.4
644.066	36638.36
644.419	36299.16
644.771	36219.39
645.124	35888.55
645.477	35714.32
645.83	35587.76
646.182	35432.74
646.535	35286.08
646.888	35485.85
647.24	35181.45
647.593	35396.13
647.945	35348
648.298	35209.7
648.65	35067.1
649.002	34995.24
649.355	35158.85
649.707	35124.5
650.059	35253.31
650.411	35618.5
650.763	35714.77
651.115	36083.35
651.467	35911.6
651.819	35924.25
652.171	35830.92
652.523	35885.16
652.875	35800.41
653.227	35748.44
653.578	35810.13
653.93	35808.32
654.282	35675.45
654.633	35562.45
654.985	35635
655.337	35655.56
655.688	35678.38
656.039	35651.49
656.391	35505.73
656.742	35572.4
657.094	35700.76
657.445	35814.88
657.796	35631.38
658.147	35505.28
658.498	35546.86
658.849	35617.59
659.2	35503.7
659.551	35453.53
659.902	35533.98
660.253	35576.47
660.604	35572.62
660.955	35379.86
661.306	35490.82
661.656	35439.52
662.007	35395.23
662.358	35447.88
662.708	35388.9
663.059	35382.35
663.409	35217.61
663.76	35448.11
664.11	35368.56
664.461	35350.93
664.811	35400.43
665.161	35390.03
665.511	35175.57
665.862	35340.54
666.212	35404.04
666.562	35362.69
666.912	35285.4
667.262	35324.72
667.612	35294.67
667.962	35281.11
668.312	35173.31
668.662	35379.63
669.011	35288.56
669.361	35121.34
669.711	35146.87
670.06	35113.43
670.41	35149.13
670.76	35150.26
671.109	35173.76
671.459	35094.9
671.808	35123.14
672.157	35278.85
672.507	34922.92
672.856	34996.59
673.205	34869.37
673.554	35105.52
673.904	34902.36
674.253	35150.49
674.602	34835.02
674.951	34563.61
675.3	34352.54
675.649	34948.69
675.998	34906.43
676.346	34844.06
676.695	34942.81
677.044	34630.28
677.393	34751.85
677.741	34779.65
678.09	34597.06
678.438	34771.52
678.787	34644.51
679.135	34751.85
679.484	34547.11
679.832	34608.36
680.181	34500.79
680.529	34661.01
680.877	34415.14
681.225	34485.19
681.573	34693.33
681.922	34428.25
682.27	34377.4
682.618	34259.44
682.966	34101.7
683.314	34248.14
683.661	34144.64
684.009	34080.46
684.357	34004.76
684.705	33876.85
685.053	33960.91
685.4	33815.83
685.748	33662.39
686.095	33686.8
686.443	33554.15
686.79	33556.63
687.138	33549.4
687.485	33527.93
687.832	33576.97
688.18	33489.97
688.527	33304.44
688.874	33277.32
689.221	33265.57
689.568	33131.11
689.915	33117.77
690.262	33075.51
690.609	33022.86
690.956	32806.6
691.303	32812.02
691.65	32708.97
691.997	32607.96
692.344	32511.69
692.69	32398.7
693.037	32455.42
693.383	32200.28
693.73	32306.5
694.077	32117.8
694.423	32096.56
694.769	32035.09
695.116	31993.51
695.462	31968.2
695.808	31847.75
696.155	31782.22
696.501	31631.48
696.847	31667.87
697.193	31400.76
697.539	31534.76
697.885	31187.88
698.231	31220.87
698.577	31100.65
698.923	31062.91
699.269	30927.55
699.614	30846.19
699.96	30866.99
700.306	30832.64
700.651	30757.16
700.997	30581.57
701.342	30564.85
701.688	30589.25
702.033	30487.33
702.379	30401.46
702.724	30369.14
703.069	30343.38
703.415	29998.31
703.76	30050.74
704.105	30019.78
704.45	30012.54
704.795	29856.16
705.14	29672.67
705.485	29773.45
705.83	29476.97
706.175	29530.52
706.52	29433.35
706.865	29378.89
707.209	29475.61
707.554	29251.21
707.899	29295.27
708.243	29116.3
708.588	29044.66
708.932	28919.01
709.277	28794.27
709.621	28801.95
709.966	28710.66
710.31	28787.72
710.654	28552.47
710.998	28699.13
711.342	28552.47
711.687	28405.81
712.031	28424.11
712.375	28442.64
712.719	28396.32
713.063	28281.52
713.407	28344.79
713.75	28157
714.094	28153.84
714.438	27993.61
714.782	28106.83
715.125	27951.13
715.469	27904.58
715.812	27719.72
716.156	27745.94
716.499	27761.98
716.843	27743.45
717.186	27533.51
717.53	27738.25
717.873	27663
718.216	27562.44
718.559	27420.75
718.902	27280.19
719.246	27293.75
719.589	27285.16
719.932	27233.41
720.275	27190.02
720.617	27115.67
720.96	27045.16
721.303	27077.25
721.646	27100.3
721.989	26904.83
722.331	27039.97
722.674	26863.02
723.016	26878.16
723.359	26848.56
723.701	26910.25
724.044	26641.56
724.386	26612.63
724.729	26778.28
725.071	26435.92
725.413	26694.67
725.755	26584.84
726.097	26483.82
726.439	26388.68
726.782	26280.44
727.124	26481.79
727.465	26201.8
727.807	26231.63
728.149	26277.95
728.491	26049.94
728.833	26134.91
729.175	26021.69
729.516	25943.27
729.858	26077.05
730.199	26052.42
730.541	26011.29
730.882	25782.37
731.224	25960
731.565	25746.67
731.906	25790.73
732.248	25696.27
732.589	25538.09
732.93	25622.38
733.271	25562.04
733.612	25566.11
733.953	25632.09
734.294	25462.38
734.635	25357.07
734.976	25484.53
735.317	25144.88
735.658	25262.39
735.999	25379.9
736.339	25288.6
736.68	25294.02
737.021	25165.21
737.361	25063.52
737.702	25291.76
738.042	25144.2
738.383	24980.36
738.723	25169.96
739.063	25062.84
739.404	25040.7
739.744	24999.12
740.084	24949.4
740.424	24860.82
740.764	24833.47
741.104	24857.88
741.444	24747.37
741.784	24675.51
742.124	24729.75
742.464	24685.45
742.804	24595.96
743.143	24494.27
743.483	24623.53
743.823	24405.46
744.162	24397.78
744.502	24501.73
744.841	24387.83
745.181	24503.54
745.52	24342.41
745.86	24321.39
746.199	24261.06
746.538	24309.64
746.877	24285.01
747.216	24189.87
747.556	24237.33
747.895	24076.43
748.234	24021.52
748.573	23995.75
748.911	23876.21
749.25	24027.39
749.589	23929.77
749.928	23794.4
750.267	23909.65
750.605	23806.15
750.944	23749.21
751.283	23624.69
751.621	23633.73
751.96	23558.7
752.298	23513.73
752.636	23600.06
752.975	23453.85
753.313	23398.93
753.651	23409.1
753.989	23345.37
754.327	23246.85
754.666	23159.62
755.004	23321.19
755.342	23229.22
755.679	23127.08
756.017	22966.18
756.355	23137.7
756.693	22923.92
757.031	22968.21
757.368	22765.28
757.706	22785.39
758.044	22581.55
758.381	22621.55
758.719	22607.32
759.056	22584.26
759.394	22535.45
759.731	22428.34
760.068	22292.75
760.405	22257.72
760.743	22165.52
761.08	22329.81
761.417	22053.88
761.754	22106.09
762.091	22017.27
762.428	21819.99
762.765	21847.34
763.102	21746.55
763.438	21670.39
763.775	21544.29
764.112	21614.35
764.449	21711.07
764.785	21470.85
765.122	21418.65
765.458	21324.19
765.795	21330.29
766.131	21197.86
766.467	21158.54
766.804	21173.23
767.14	20871.09
767.476	21033.8
767.812	20938.66
768.148	21003.29
768.485	20861.15
768.821	20709.74
769.157	20639.91
769.492	20638.1
769.828	20564.43
770.164	20422.51
770.5	20396.07
770.836	20372.12
771.171	20286.02
771.507	20166.25
771.842	19995.18
772.178	20018.91
772.513	19964.9
772.849	19892.58
773.184	19832.02
773.519	19762.64
773.855	19723.78
774.19	19554.74
774.525	19558.58
774.86	19526.04
775.195	19570.78
775.53	19335.08
775.865	19349.77
776.2	19158.37
776.535	18924.93
776.87	18981.65
777.205	18945.94
777.539	18892.38
777.874	18898.49
778.209	18728.1
778.543	18674.09
778.878	18522.45
779.212	18656.46
779.547	18448.1
779.881	18556.35
780.215	18327.88
780.55	18361.55
780.884	18236.81
781.218	18150.94
781.552	18140.09
781.886	18020.32
782.22	18007.66
782.554	17918.17
782.888	17777.61
783.222	17656.26
783.556	17666.88
783.889	17663.72
784.223	17517.28
784.557	17494
784.89	17543.72
785.224	17341.24
785.557	17306.44
785.891	17206.55
786.224	17212.43
786.558	17231.19
786.891	17101.7
787.224	17063.73
787.557	16930.85
787.891	16898.54
788.224	16868.03
788.557	16923.85
788.89	16706.23
789.223	16754.59
789.556	16681.82
789.888	16572.9
790.221	16470.3
790.554	16431.66
790.887	16390.3
791.219	16268.72
791.552	16235.51
791.884	16240.48
792.217	16158.67
792.549	16112.57
792.882	16039.58
793.214	15889.07
793.546	15963.2
793.879	15852.24
794.211	15744.44
794.543	15876.42
794.875	15763.2
795.207	15815.63
795.539	15747.16
795.871	15616.31
796.203	15492.02
796.535	15379.71
796.867	15378.13
797.198	15355.75
797.53	15384.68
797.862	15209.54
798.193	15241.86
798.525	15191.24
798.856	15206.61
799.188	15006.16
799.519	15032.37
799.85	14908.76
800.182	14932.04
800.513	14954.18
800.844	14792.83
801.175	14864.24
801.506	14847.75
801.837	14691.37
802.168	14657.02
802.499	14598.49
802.83	14537.7
803.161	14526.4
803.491	14585.61
803.822	14516
804.153	14446.85
804.483	14328.66
804.814	14227.65
805.145	14244.37
805.475	14219.51
805.805	14170.25
806.136	14187.65
806.466	14147.88
806.796	14095
807.126	14001.21
807.457	13960.99
807.787	13890.93
808.117	13916.92
808.447	13817.72
808.777	13838.73
809.107	13837.38
809.436	13819.3
809.766	13751.95
810.096	13670.83
810.426	13646.87
810.755	13594.67
811.085	13572.75
811.414	13555.58
811.744	13448.23
812.073	13453.43
812.403	13443.49
812.732	13406.65
813.061	13368.46
813.39	13259.31
813.719	13215.02
814.049	13262.02
814.378	13285.98
814.707	13132.31
815.036	13243.04
815.365	13068.13
815.693	12992.43
816.022	12996.27
816.351	12961.69
816.68	12901.36
817.008	12941.35
817.337	12890.06
817.665	12826.78
817.994	12837.4
818.322	12768.7
818.651	12744.75
818.979	12627.69
819.307	12756.95
819.636	12677.41
819.964	12643.96
820.292	12637.63
820.62	12593.57
820.948	12534.13
821.276	12631.53
821.604	12615.49
821.932	12540.91
822.259	12551.76
822.587	12528.26
822.915	12491.87
823.243	12529.61
823.57	12539.78
823.898	12522.16
824.225	12443.06
824.553	12536.62
824.88	12475.38
825.207	12558.09
825.535	12512.21
825.862	12518.09
826.189	12407.13
826.516	12556.73
826.843	12620.91
827.17	12527.35
827.497	12429.73
827.824	12550.18
828.151	12571.65
828.478	12534.36
828.805	12551.08
829.131	12468.6
829.458	12490.52
829.785	12389.96
830.111	12409.62
830.438	12532.78
830.764	12393.8
831.09	12505.66
831.417	12414.14
831.743	12389.5
832.069	12431.76
832.395	12448.03
832.722	12379.11
833.048	12366.23
833.374	12362.39
833.7	12385.66
834.026	12348.6
834.351	12372.33
834.677	12347.92
835.003	12381.14
835.329	12343.4
835.654	12234.71
835.98	12218.21
836.306	12178.44
836.631	12280.58
836.956	12269.06
837.282	12234.71
837.607	12189.06
837.932	12123.07
838.258	12216.18
838.583	12199
838.908	12061.6
839.233	12114.03
839.558	12133.24
839.883	12083.07
840.208	11929.4
840.533	11980.25
840.858	11952.23
841.182	12050.08
841.507	11918.1
841.832	11864.09
842.156	11812.8
842.481	11754.49
842.805	11820.25
843.13	11805.34
843.454	11814.6
843.778	11737.09
844.103	11680.14
844.427	11664.33
844.751	11646.25
845.075	11627.04
845.399	11586.36
845.723	11557.44
846.047	11536.65
846.371	11418.68
846.695	11458.68
847.019	11328.97
847.343	11313.15
847.666	11284.22
847.99	11204.68
848.313	11191.8
848.637	11180.72
848.96	11110.89
849.284	11083.32
849.607	11063.44
849.931	10932.82
850.254	10886.49
850.577	10859.15
850.9	10790.9
851.223	10782.32
851.546	10701.64
851.869	10679.72
852.192	10712.03
852.515	10557.01
852.838	10595.88
853.161	10555.88
853.483	10462.32
853.806	10464.36
854.129	10382.1
854.451	10432.27
854.774	10301.88
855.096	10320.86
855.419	10286.74
855.741	10310.01
856.063	10223.01
856.385	10117.02
856.708	10151.15
857.03	10156.34
857.352	10120.86
857.674	10038.38
857.996	9997.25
858.318	9950.47
858.64	9987.53
858.961	10050.58
859.283	9924.26
859.605	9855.33
859.926	9889.46
860.248	9865.05
860.57	9760.2
860.891	9825.96
861.212	9754.77
861.534	9717.26
861.855	9751.16
862.176	9695.56
862.498	9754.09
862.819	9721.1
863.14	9648.11
863.461	9703.7
863.782	9579.86
864.103	9595.68
864.424	9532.4
864.745	9594.32
865.065	9510.48
865.386	9548
865.707	9559.52
866.027	9518.17
866.348	9481.56
866.668	9496.7
866.989	9463.71
867.309	9341
867.63	9391.84
867.95	9373.76
868.27	9331.96
868.59	9354.56
868.91	9278.4
869.23	9276.37
869.55	9283.37
869.87	9388.23
870.19	9308.91
870.51	9286.08
870.83	9309.13
871.15	9218.06
871.469	9167.89
871.789	9257.84
872.109	9265.29
872.428	9144.17
872.748	9206.31
873.067	9141.68
873.386	9169.7
873.706	9153.88
874.025	9063.26
874.344	9097.39
874.663	9130.38
874.982	9140.78
875.301	9071.17
875.62	9055.58
875.939	8963.61
876.258	9023.27
876.577	8931.29
876.896	8965.87
877.214	8894.46
877.533	8918.86
877.852	8939.2
878.17	8898.52
878.489	8937.62
878.807	8898.75
879.125	8861.69
879.444	8823.72
879.762	8828.47
880.08	8781.69
880.398	8758.19
880.716	8753.44
881.034	8770.84
881.352	8766.55
881.67	8772.42
881.988	8705.31
882.306	8650.39
882.624	8707.12
882.941	8637.29
883.259	8530.17
883.577	8574.92
883.894	8571.75
884.212	8466.9
884.529	8551.19
884.846	8525.2
885.164	8566.78
885.481	8457.18
885.798	8533.11
886.115	8406.56
886.432	8428.03
886.75	8400.68
887.067	8430.74
887.383	8377.41
887.7	8383.28
888.017	8320.91
888.334	8334.24
888.651	8253.12
888.967	8284.3
889.284	8296.51
889.6	8200.46
889.917	8120.46
890.233	8143.29
890.55	8114.14
890.866	8132.89
891.182	8078.66
891.498	8080.24
891.815	8037.08
892.131	7984.2
892.447	7969.73
892.763	7978.55
893.079	7947.36
893.395	7943.29
893.71	7896.06
894.026	7929.28
894.342	7884.31
894.657	7824.88
894.973	7836.86
895.289	7823.98
895.604	7811.09
895.92	7719.8
896.235	7691.55
896.55	7677.09
896.865	7659.01
897.181	7596.86
897.496	7616.3
897.811	7594.83
898.126	7583.3
898.441	7563.87
898.756	7516.86
899.071	7492.91
899.386	7438
899.7	7484.55
900.015	7334.04
900.33	7266.7
900.644	7332.69
900.959	7346.47
901.273	7314.61
901.588	7267.15
901.902	7240.49
902.216	7240.49
902.531	7168.17
902.845	7168.85
903.159	7134.95
903.473	7113.49
903.787	7064.67
904.101	6999.59
904.415	7076.88
904.729	7007.5
905.042	6954.17
905.356	6922.98
905.67	6888.41
905.984	6932.02
906.297	6914.17
906.611	6827.84
906.924	6804.34
907.237	6817.22
907.551	6787.39
907.864	6725.25
908.177	6737.68
908.491	6733.16
908.804	6679.6
909.117	6637.34
909.43	6630.11
909.743	6583.78
910.056	6571.13
910.368	6513.95
910.681	6507.4
910.994	6540.84
911.307	6474.18
911.619	6473.5
911.932	6388.08
912.244	6399.83
912.557	6361.41
912.869	6352.15
913.181	6323.9
913.494	6309.66
913.806	6228.08
914.118	6267.41
914.43	6206.39
914.742	6153.28
915.054	6126.17
915.366	6170.01
915.678	6085.94
915.99	6080.07
916.302	6067.86
916.613	6046.62
916.925	5975.44
917.236	5986.06
917.548	5962.1
917.859	5964.36
918.171	5874.87
918.482	5911.03
918.794	5868.55
919.105	5829.9
919.416	5810.69
919.727	5814.54
920.038	5782.22
920.349	5771.15
920.66	5744.48
920.971	5724.82
921.282	5658.16
921.593	5667.2
921.903	5588.55
922.214	5654.54
922.525	5546.75
922.835	5603.69
923.146	5612.28
923.456	5511.95
923.767	5493.64
924.077	5500.19
924.387	5506.52
924.697	5377.49
925.008	5403.93
925.318	5370.03
925.628	5387.2
925.938	5357.6
926.248	5316.24
926.558	5258.17
926.867	5264.95
927.177	5258.17
927.487	5233.53
927.796	5225.4
928.106	5201.9
928.416	5191.5
928.725	5164.16
929.034	5124.16
929.344	5073.76
929.653	5096.36
929.962	5037.61
930.271	5039.19
930.581	5022.24
930.89	4976.37
931.199	4943.82
931.508	4965.52
931.817	4913.54
932.125	4935.24
932.434	4898.85
932.743	4845.97
933.051	4915.35
933.36	4807.56
933.669	4801.46
933.977	4788.57
934.286	4740.21
934.594	4793.55
934.902	4723.49
935.21	4654.57
935.519	4692.31
935.827	4675.36
936.135	4656.6
936.443	4609.82
936.751	4626.32
937.059	4600.11
937.367	4592.65
937.674	4544.06
937.982	4561.46
938.29	4524.63
938.597	4465.65
938.905	4466.55
939.213	4437.4
939.52	4385.42
939.827	4419.09
940.135	4406.44
940.442	4362.37
940.749	4346.55
941.056	4326.89
941.363	4319.89
941.67	4307.01
941.977	4267.01
942.284	4240.57
942.591	4226.78
942.898	4255.71
943.205	4205.54
943.511	4177.97
943.818	4183.62
944.125	4156.5
944.431	4113.56
944.738	4150.85
945.044	4092.55
945.35	4095.26
945.657	4066.56
945.963	4047.13
946.269	3993.57
946.575	4020.46
946.881	3985.43
947.187	3990.18
947.493	3949.27
947.799	3944.08
948.105	3917.41
948.41	3881.03
948.716	3889.62
949.022	3856.62
949.327	3855.27
949.633	3832.44
949.938	3815.04
950.244	3831.09
950.549	3771.2
950.854	3806.45
951.16	3768.04
951.465	3769.39
951.77	3736.4
952.075	3744.08
952.38	3706.57
952.685	3733.69
952.99	3631.77
953.294	3641.71
953.599	3620.24
953.904	3601.71
954.209	3587.7
954.513	3597.65
954.818	3580.7
955.122	3556.29
955.426	3556.06
955.731	3538.89
956.035	3541.83
956.339	3520.36
956.643	3492.11
956.948	3481.49
957.252	3414.15
957.556	3452.79
957.86	3436.75
958.163	3412.11
958.467	3422.06
958.771	3403.98
959.075	3339.35
959.378	3389.06
959.682	3348.16
959.985	3336.86
960.289	3322.62
960.592	3275.85
960.896	3261.38
961.199	3254.38
961.502	3241.5
961.805	3244.66
962.108	3199.24
962.411	3190.88
962.714	3191.55
963.017	3151.78
963.32	3175.96
963.623	3148.84
963.926	3170.76
964.228	3137.77
964.531	3103.87
964.833	3083.31
965.136	3076.76
965.438	3068.39
965.741	3055.51
966.043	3103.42
966.345	3016.87
966.648	3010.54
966.95	3016.64
967.252	2994.05
967.554	2986.36
967.856	2942.97
968.158	3003.54
968.46	2972.35
968.761	2880.6
969.063	2919.47
969.365	2890.32
969.666	2934.84
969.968	2877.89
970.269	2879.02
970.571	2898.23
970.872	2841.06
971.174	2807.16
971.475	2844.22
971.776	2824.56
972.077	2798.57
972.378	2796.76
972.679	2784.79
972.98	2768.51
973.281	2743.43
973.582	2734.62
973.883	2718.12
974.183	2744.79
974.484	2698.46
974.785	2703.43
975.085	2720.61
975.386	2710.66
975.686	2684.9
975.986	2648.97
976.287	2651.46
976.587	2625.24
976.887	2614.39
977.187	2609.42
977.487	2601.51
977.787	2597.22
978.087	2570.78
978.387	2552.25
978.687	2549.31
978.987	2531.68
979.286	2532.14
979.586	2517.45
979.885	2506.37
980.185	2481.52
980.484	2480.84
980.784	2446.72
981.083	2464.34
981.382	2448.75
981.682	2402.65
981.981	2450.78
982.28	2432.7
982.579	2400.84
982.878	2397
983.177	2385.25
983.475	2357.9
983.774	2356.77
984.073	2373.72
984.372	2349.09
984.67	2330.33
984.969	2351.35
985.267	2302.99
985.566	2310.45
985.864	2316.78
986.162	2286.49
986.461	2236.1
986.759	2274.97
987.057	2264.57
987.355	2252.82
987.653	2254.18
987.951	2216.66
988.249	2211.47
988.547	2179.6
988.844	2200.17
989.142	2188.64
989.44	2163.78
989.737	2148.42
990.035	2173.28
990.332	2156.1
990.63	2117.46
990.927	2177.12
991.224	2102.54
991.521	2088.98
991.819	2084.69
992.116	2090.57
992.413	2069.55
992.71	2072.26
993.006	2067.29
993.303	2007.18
993.6	2047.4
993.897	2048.53
994.193	2046.73
994.49	1997.91
994.787	2012.6
995.083	2009.21
995.379	1973.28
995.676	1968.31
995.972	1978.03
996.268	1984.13
996.565	1953.62
996.861	1934.19
997.157	1920.4
997.453	1929.89
997.749	1920.4
998.044	1905.26
998.34	1932.15
998.636	1920.85
998.932	1854.64
999.227	1875.66
999.523	1844.92
999.818	1867.75
1000.114	1801.31
1000.409	1850.8
1000.704	1810.12
1001	1773.96
1001.295	1804.7
1001.59	1791.82
1001.885	1807.86
1002.18	1780.52
1002.475	1773.29
1002.77	1736.68
1003.065	1770.8
1003.359	1726.73
1003.654	1722.21
1003.949	1710.24
1004.243	1697.58
1004.538	1690.8
1004.832	1702.33
1005.127	1695.55
1005.421	1683.35
1005.715	1668.43
1006.009	1677.92
1006.304	1648.09
1006.598	1622.56
1006.892	1626.85
1007.186	1605.83
1007.48	1593.18
1007.773	1604.7
1008.067	1586.85
1008.361	1592.5
1008.655	1561.09
1008.948	1549.56
1009.242	1557.93
1009.535	1540.75
1009.829	1535.55
1010.122	1514.76
1010.415	1538.72
1010.708	1505.05
1011.001	1522.67
1011.295	1520.86
1011.588	1520.41
1011.881	1475.22
1012.173	1465.05
1012.466	1471.37
1012.759	1474.99
1013.052	1445.84
1013.344	1429.79
1013.637	1440.41
1013.93	1432.96
1014.222	1420.75
1014.514	1429.34
1014.807	1417.36
1015.099	1396.12
1015.391	1404.26
1015.683	1395.22
1015.976	1377.36
1016.268	1364.71
1016.56	1344.6
1016.851	1364.48
1017.143	1334.65
1017.435	1313.86
1017.727	1316.58
1018.018	1307.31
1018.31	1326.74
1018.602	1314.77
1018.893	1314.32
1019.185	1280.87
1019.476	1277.25
1019.767	1259.4
1020.058	1237.93
1020.35	1265.05
1020.641	1252.62
1020.932	1227.09
1021.223	1251.94
1021.514	1208.1
1021.804	1212.17
1022.095	1199.29
1022.386	1232.51
1022.677	1181.89
1022.967	1211.04
1023.258	1194.09
1023.548	1178.27
1023.839	1197.93
1024.129	1172.17
1024.419	1166.52
1024.709	1145.73
1025	1132.85
1025.29	1124.94
1025.58	1138.05
1025.87	1101.21
1026.16	1122.68
1026.449	1116.58
1026.739	1082.23
1027.029	1099.41
1027.319	1100.76
1027.608	1095.79
1027.898	1075.68
1028.187	1055.57
1028.477	1058.5
1028.766	1047.43
1029.055	1045.62
1029.344	1051.5
1029.634	1056.47
1029.923	1013.08
1030.212	1020.76
1030.501	1006.53
1030.79	995.45
1031.078	1000.65
1031.367	988.67
1031.656	978.73
1031.945	965.62
1032.233	959.3
1032.522	955.68
1032.81	973.08
1033.099	957.04
1033.387	956.36
1033.675	951.16
1033.963	922.69
1034.251	948.22
1034.54	935.34
1034.828	937.38
1035.116	906.64
1035.403	912.74
1035.691	908
1035.979	907.32
1036.267	892.41
1036.554	898.28
1036.842	902.58
1037.129	890.15
1037.417	875.01
1037.704	878.62
1037.992	877.04
1038.279	853.31
1038.566	851.73
1038.853	851.73
1039.14	851.73
