Data from hue_210_FLMS001491_00007.txt Node
Date: Tue Feb 07 16:40:41 GMT 2017
User: dcchb
Spectrometer: FLMS00149
Trigger mode: 0
Integration Time (sec): 2.000000E-2
Scans to average: 10
Electric dark correction enabled: true
Nonlinearity correction enabled: false
Boxcar width: 0
XAxis mode: Wavelengths
Number of Pixels in Spectrum: 2048
>>>>>Begin Spectral Data<<<<<
341.393	-2.06
341.776	-2.06
342.16	-2.06
342.543	-61.04
342.927	-74.38
343.31	-66.69
343.693	-59.24
344.077	-70.99
344.46	-54.94
344.843	-56.07
345.226	-39.35
345.61	-32.12
345.993	-35.51
346.376	-10.88
346.759	2.68
347.142	27.09
347.525	39.07
347.908	69.12
348.291	80.42
348.674	99.86
349.057	107.54
349.44	118.61
349.823	140.31
350.206	159.52
350.588	207.65
350.971	213.07
351.354	217.59
351.737	244.71
352.119	224.6
352.502	245.16
352.884	259.4
353.267	278.38
353.65	291.94
354.032	271.83
354.414	315.67
354.797	300.53
355.179	313.64
355.562	315.22
355.944	318.38
356.326	321.32
356.709	324.93
357.091	329.68
357.473	325.84
357.855	317.48
358.238	338.72
358.62	338.95
359.002	351.15
359.384	328.1
359.766	340.08
360.148	333.97
360.53	322.9
360.912	353.86
361.294	338.27
361.676	305.5
362.057	342.34
362.439	324.71
362.821	308.44
363.203	310.47
363.584	320.19
363.966	309.57
364.348	312.96
364.729	313.18
365.111	325.16
365.493	326.29
365.874	328.1
366.256	317.03
366.637	307.31
367.019	324.93
367.4	308.89
367.781	311.15
368.163	325.61
368.544	291.04
368.925	303.92
369.306	316.12
369.688	299.4
370.069	314.31
370.45	303.92
370.831	302.34
371.212	297.14
371.593	283.13
371.974	307.31
372.355	314.31
372.736	284.48
373.117	298.49
373.498	307.08
373.879	289.91
374.26	331.71
374.641	334.88
375.021	293.75
375.402	310.92
375.783	303.24
376.163	349.12
376.544	314.31
376.925	304.37
377.305	312.73
377.686	312.73
378.066	318.38
378.447	321.32
378.827	323.13
379.208	310.25
379.588	332.17
379.968	343.01
380.349	332.17
380.729	301.88
381.109	319.51
381.489	350.92
381.87	336.69
382.25	349.34
382.63	339.17
383.01	336.01
383.39	322
383.77	322.22
384.15	320.87
384.53	345.95
384.91	357.25
385.29	354.09
385.67	338.72
386.049	374.88
386.429	358.38
386.809	352.96
387.189	364.26
387.568	354.76
387.948	342.11
388.328	347.99
388.707	347.31
389.087	353.41
389.466	364.26
389.846	354.99
390.225	350.7
390.605	371.49
390.984	371.04
391.363	355.89
391.743	363.13
392.122	376.23
392.501	377.59
392.881	385.5
393.26	364.93
393.639	384.37
394.018	372.84
394.397	377.36
394.776	374.88
395.155	400.64
395.534	396.57
395.913	370.58
396.292	377.36
396.671	429.34
397.05	368.55
397.429	394.54
397.808	389.11
398.186	395.44
398.565	388.21
398.944	388.21
399.323	431.82
399.701	409.23
400.08	417.81
400.458	403.8
400.837	429.79
401.215	404.71
401.594	416.23
401.972	425.72
402.351	433.86
402.729	460.3
403.107	418.94
403.486	434.99
403.864	459.85
404.242	427.31
404.62	442.22
404.999	443.58
405.377	451.71
405.755	460.52
406.133	446.97
406.511	469.34
406.889	456.91
407.267	485.38
407.645	473.41
408.023	489.22
408.401	492.39
408.779	498.04
409.156	504.59
409.534	507.53
409.912	529.9
410.29	530.58
410.667	552.05
411.045	550.69
411.422	561.76
411.8	550.69
412.178	561.76
412.555	561.09
412.933	587.98
413.31	604.25
413.687	615.1
414.065	608.09
414.442	632.5
414.819	632.27
415.197	646.73
415.574	656.23
415.951	650.35
416.328	658.71
416.705	665.94
417.082	687.19
417.46	684.7
417.837	701.2
418.214	729.67
418.591	738.71
418.967	731.93
419.344	709.56
419.721	724.02
420.098	744.81
420.475	747.3
420.852	788.43
421.228	806.96
421.605	790.91
421.982	805.15
422.358	825.03
422.735	844.02
423.111	832.49
423.488	874.75
423.864	858.48
424.241	886.28
424.617	914.52
424.994	923.56
425.37	954.3
425.746	955.65
426.123	975.31
426.499	996.56
426.875	1006.72
427.251	1017.35
427.627	1027.52
428.003	1040.17
428.379	1062.77
428.756	1043.79
429.132	1071.81
429.507	1095.76
429.883	1093.5
430.259	1132.6
430.635	1152.94
431.011	1166.72
431.387	1160.85
431.763	1178.7
432.138	1192.26
432.514	1235.19
432.89	1232.03
433.265	1257.34
433.641	1279.26
434.016	1297.11
434.392	1325.81
434.767	1357.45
435.143	1339.6
435.518	1361.29
435.894	1400.39
436.269	1428.18
436.644	1444.23
437.02	1497.79
437.395	1500.5
437.77	1525.36
438.145	1583.66
438.52	1578.46
438.895	1609.65
439.271	1636.09
439.646	1668.4
440.021	1670.89
440.395	1706.82
440.77	1690.55
441.145	1769.42
441.52	1764.9
441.895	1773.26
442.27	1811
442.645	1811.68
443.019	1855.74
443.394	1824.56
443.769	1876.31
444.143	1878.34
444.518	1895.97
444.892	1912.01
445.267	1923.76
445.641	1955.63
446.016	1966.25
446.39	1976.42
446.764	2000.15
447.139	2008.28
447.513	2038.34
447.887	2047.83
448.262	2057.54
448.636	2050.77
449.01	2106.13
449.384	2119.69
449.758	2128.05
450.132	2157.2
450.506	2174.38
450.88	2193.59
451.254	2227.94
451.628	2212.79
452.002	2248.05
452.376	2264.77
452.75	2296.86
453.123	2288.27
453.497	2344.54
453.871	2366.46
454.244	2376.41
454.618	2433.58
454.992	2420.93
455.365	2436.52
455.739	2505.67
456.112	2529.4
456.486	2537.31
456.859	2569.62
457.232	2612.78
457.606	2600.81
457.979	2626.8
458.352	2702.73
458.725	2704.08
459.099	2728.49
459.472	2767.13
459.845	2817.98
460.218	2821.82
460.591	2853.46
460.964	2872.21
461.337	2960.35
461.71	2982.72
462.083	3028.14
462.456	3032.66
462.829	3029.95
463.201	3061.36
463.574	3086.44
463.947	3119.66
464.32	3206.67
464.692	3242.82
465.065	3268.81
465.438	3279.66
465.81	3339.77
466.183	3391.75
466.555	3464.29
466.928	3476.26
467.3	3449.82
467.672	3501.12
468.045	3592.19
468.417	3584.28
468.789	3589.93
469.161	3670.38
469.534	3685.52
469.906	3821.34
470.278	3771.62
470.65	3824.5
471.022	3908.34
471.394	3982.92
471.766	4001.67
472.138	4051.16
472.51	4154.21
472.882	4146.3
473.253	4239.41
473.625	4254.1
473.997	4370.25
474.369	4386.3
474.74	4431.72
475.112	4503.36
475.484	4537.03
475.855	4594.88
476.227	4685.27
476.598	4751.26
476.97	4776.57
477.341	4924.14
477.713	4961.65
478.084	4986.51
478.455	5120.74
478.827	5168.88
479.198	5250.23
479.569	5311.7
479.94	5396.44
480.311	5450.22
480.682	5602.54
481.053	5621.97
481.424	5723.44
481.795	5753.49
482.166	5854.06
482.537	5921.62
482.908	6038.23
483.279	6087.72
483.65	6178.11
484.021	6299.02
484.391	6343.08
484.762	6373.59
485.133	6427.83
485.503	6439.8
485.874	6569.06
486.244	6652.23
486.615	6763.18
486.985	6843.41
487.356	6938.32
487.726	6995.27
488.097	7092.89
488.467	7137.64
488.837	7281.81
489.207	7385.09
489.578	7373.11
489.948	7410.85
490.318	7548.47
490.688	7582.82
491.058	7661.69
491.428	7734.01
491.798	7826.88
492.168	8008.8
492.538	7987.56
492.908	8084.05
493.278	8158.85
493.648	8157.05
494.017	8215.12
494.387	8317.72
494.757	8328.57
495.126	8381.67
495.496	8431.84
495.866	8479.07
496.235	8597.71
496.605	8583.25
496.974	8610.82
497.344	8679.74
497.713	8734.21
498.082	8780.98
498.452	8844.71
498.821	8857.59
499.19	8894.65
499.559	8940.53
499.928	8966.52
500.298	8995.89
500.667	9047.87
501.036	9016.68
501.405	9085.83
501.774	9149.11
502.143	9221.88
502.512	9211.25
502.88	9219.84
503.249	9276.34
503.618	9246.06
503.987	9338.94
504.356	9360.18
504.724	9360.63
505.093	9402.89
505.462	9391.14
505.83	9497.58
506.199	9503.68
506.567	9589.78
506.936	9529.66
507.304	9620.28
507.672	9625.93
508.041	9644.46
508.409	9662.54
508.777	9774.4
509.145	9768.75
509.514	9737.57
509.882	9744.8
510.25	9751.13
510.618	9818.7
510.986	9832.71
511.354	9853.95
511.722	9939.6
512.09	9900.95
512.458	9930.33
512.826	9949.77
513.193	9989.99
513.561	9986.38
513.929	10021.4
514.297	10069.76
514.664	10032.48
515.032	10075.64
515.4	10090.1
515.767	10075.64
516.135	10128.52
516.502	10057.79
516.869	10149.54
517.237	10157.44
517.604	10141.63
517.972	10178.01
518.339	10127.16
518.706	10186.6
519.073	10183.43
519.44	10144.11
519.808	10304.56
520.175	10243.77
520.542	10288.06
520.909	10286.48
521.276	10212.58
521.643	10274.05
522.009	10252.13
522.376	10333.03
522.743	10353.6
523.11	10349.98
523.477	10422.3
523.843	10452.35
524.21	10477.89
524.577	10484.89
524.943	10530.54
525.31	10508.62
525.676	10549.07
526.043	10473.37
526.409	10556.53
526.776	10586.13
527.142	10554.27
527.508	10539.58
527.874	10541.62
528.241	10535.51
528.607	10603.31
528.973	10580.94
529.339	10523.08
529.705	10593.14
530.071	10545.23
530.437	10576.19
530.803	10570.09
531.169	10571.67
531.535	10454.61
531.901	10437.89
532.267	10455.29
532.632	10560.37
532.998	10512.69
533.364	10537.55
533.73	10424.1
534.095	10507.94
534.461	10439.02
534.826	10481.96
535.192	10467.95
535.557	10474.5
535.923	10426.59
536.288	10362.86
536.653	10423.65
537.019	10335.52
537.384	10300.04
537.749	10356.08
538.114	10316.08
538.479	10279.7
538.845	10267.72
539.21	10220.04
539.575	10184.56
539.94	10105.24
540.305	10180.72
540.67	10114.06
541.034	10115.19
541.399	10091.46
541.764	10033.38
542.129	10052.36
542.494	9999.26
542.858	9997.9
543.223	9970.11
543.587	9877
543.952	9850.79
544.316	9776.21
544.681	9791.58
545.045	9819.6
545.41	9802.65
545.774	9686.72
546.138	9724.46
546.503	9678.36
546.867	9651.02
547.231	9668.19
547.595	9641.98
547.959	9600.85
548.324	9597.01
548.688	9557.23
549.052	9455.54
549.416	9553.84
549.779	9399.27
550.143	9431.59
550.507	9467.29
550.871	9410.12
551.235	9366.05
551.599	9385.71
551.962	9318.37
552.326	9277.02
552.689	9287.86
553.053	9274.3
553.417	9174.19
553.78	9281.08
554.143	9203.12
554.507	9182.56
554.87	9150.92
555.234	9261.88
555.597	9099.17
555.96	9143.23
556.323	9088.32
556.686	9119.96
557.05	9119.51
557.413	9067.98
557.776	9087.42
558.139	9110.69
558.502	9035.89
558.865	9048.32
559.228	9059.17
559.59	8980.3
559.953	9030.69
560.316	9060.52
560.679	9047.64
561.041	9012.84
561.404	9025.95
561.767	9060.52
562.129	8983.01
562.492	9055.78
562.854	9056
563.217	9074.54
563.579	8983.46
563.941	9027.53
564.304	9126.06
564.666	9143.69
565.028	9173.29
565.39	9078.15
565.753	9094.87
566.115	9126.29
566.477	9060.52
566.839	9087.87
567.201	9138.26
567.563	9160.86
567.925	9149.56
568.287	9201.54
568.648	9167.64
569.01	9172.84
569.372	9177.81
569.734	9131.26
570.095	9222.33
570.457	9224.14
570.819	9209.67
571.18	9164.25
571.542	9203.8
571.903	9228.2
572.265	9238.6
572.626	9275.43
572.987	9282.67
573.349	9288.77
573.71	9321.31
574.071	9305.94
574.432	9316.79
574.794	9359.05
575.155	9305.26
575.516	9309.56
575.877	9334.19
576.238	9389.1
576.599	9422.1
576.96	9423.68
577.32	9365.38
577.681	9447.63
578.042	9441.76
578.403	9438.14
578.763	9420.06
579.124	9472.94
579.485	9454.19
579.845	9510.23
580.206	9456.67
580.566	9473.39
580.927	9521.3
581.287	9488.08
581.648	9443.57
582.008	9551.13
582.368	9486.73
582.728	9590.45
583.089	9571.02
583.449	9567.63
583.809	9597.91
584.169	9565.6
584.529	9571.7
584.889	9637.68
585.249	9594.97
585.609	9543.45
585.969	9648.53
586.329	9625.93
586.688	9619.15
587.048	9712.26
587.408	9610.34
587.768	9626.16
588.127	9634.97
588.487	9590.91
588.846	9742.31
589.206	9667.29
589.565	9575.77
589.925	9739.38
590.284	9721.75
590.643	9705.93
591.003	9666.61
591.362	9773.27
591.721	9678.59
592.08	9646.27
592.44	9786.83
592.799	9714.97
593.158	9763.33
593.517	9723.78
593.876	9728.08
594.235	9715.65
594.593	9694.41
594.952	9785.48
595.311	9680.4
595.67	9761.75
596.029	9839.26
596.387	9762.43
596.746	9838.81
597.104	9726.04
597.463	9770.34
597.822	9798.81
598.18	9757.68
598.538	9807.17
598.897	9805.82
599.255	9730.34
599.613	9867.51
599.972	9751.58
600.33	9839.26
600.688	9742.77
601.046	9803.1
601.404	9867.06
601.762	9841.97
602.12	9863.89
602.478	9788.19
602.836	9892.59
603.194	9843.33
603.552	9759.72
603.91	9818.47
604.268	9919.94
604.625	9851.24
604.983	9857.57
605.341	9769.88
605.698	9870.67
606.056	9895.3
606.413	9872.48
606.771	9885.59
607.128	9960.61
607.485	9891.46
607.843	9881.29
608.2	9934.63
608.557	9874.97
608.914	9892.59
609.272	9952.48
609.629	9919.48
609.986	10011.23
610.343	9957
610.7	10037.67
611.057	10010.78
611.414	9985.25
611.771	9966.72
612.127	10020.73
612.484	10010.33
612.841	10067.28
613.198	9985.7
613.554	9965.81
613.911	10046.94
614.267	9981.63
614.624	10057.11
614.98	9989.54
615.337	10088.29
615.693	9991.35
616.05	9985.92
616.406	10088.07
616.762	10080.61
617.118	9984.57
617.475	10047.39
617.831	10067.73
618.187	10135.3
618.543	10044.23
618.899	10153.83
619.255	10074.51
619.611	10102.76
619.967	10186.82
620.323	10215.07
620.678	10161.29
621.034	10159.48
621.39	10119.25
621.746	10100.95
622.101	10205.81
622.457	10116.32
622.812	10138.46
623.168	10201.29
623.523	10153.15
623.879	10151.57
624.234	10147.28
624.589	10296.42
624.945	10262.3
625.3	10166.48
625.655	10187.5
626.01	10174.39
626.365	10140.72
626.72	10131.46
627.075	10179.82
627.43	10142.3
627.785	10075.19
628.14	10140.27
628.495	10113.38
628.85	10157.22
629.205	10039.03
629.559	10167.16
629.914	10063.21
630.269	10119.25
630.623	10135.75
630.978	10094.17
631.332	10058.24
631.687	10046.71
632.041	10026.6
632.396	10040.39
632.75	10022.31
633.104	10010.78
633.459	9956.77
633.813	9966.94
634.167	9974.85
634.521	9956.77
634.875	10013.27
635.229	9968.3
635.583	9839.04
635.937	9931.24
636.291	9879.49
636.645	9861.18
636.999	9852.82
637.352	9926.94
637.706	9799.04
638.06	9849.43
638.413	9796.1
638.767	9772.6
639.121	9790.45
639.474	9705.48
639.828	9740.96
640.181	9759.94
640.534	9723.56
640.888	9715.42
641.241	9713.16
641.594	9704.35
641.947	9718.36
642.301	9688.76
642.654	9661.41
643.007	9683.11
643.36	9692.6
643.713	9597.69
644.066	9697.12
644.419	9614.63
644.771	9540.74
645.124	9498.48
645.477	9494.64
645.83	9463.45
646.182	9404.24
646.535	9411.93
646.888	9353.17
647.24	9354.98
647.593	9340.29
647.945	9331.48
648.298	9243.57
648.65	9315.66
649.002	9280.41
649.355	9255.55
649.707	9363.12
650.059	9366.05
650.411	9471.36
650.763	9484.47
651.115	9597.69
651.467	9531.47
651.819	9542.77
652.171	9630.23
652.523	9504.35
652.875	9526.27
653.227	9494.19
653.578	9555.43
653.93	9490.12
654.282	9526.05
654.633	9460.06
654.985	9521.98
655.337	9567.4
655.688	9509.33
656.039	9549.33
656.391	9487.86
656.742	9512.49
657.094	9552.49
657.445	9525.6
657.796	9585.48
658.147	9526.73
658.498	9472.04
658.849	9552.49
659.2	9549.1
659.551	9512.94
659.902	9528.76
660.253	9598.82
660.604	9580.06
660.955	9564.47
661.306	9562.21
661.656	9592.94
662.007	9585.48
662.358	9648.98
662.708	9571.02
663.059	9611.7
663.409	9470.01
663.76	9581.87
664.11	9579.83
664.461	9578.48
664.811	9569.89
665.161	9600.85
665.511	9651.02
665.862	9592.49
666.212	9597.69
666.562	9590.68
666.912	9569.66
667.262	9591.81
667.612	9616.22
667.962	9599.72
668.312	9552.49
668.662	9635.88
669.011	9587.52
669.361	9562.88
669.711	9536.22
670.06	9547.29
670.41	9510
670.76	9428.88
671.109	9561.75
671.459	9504.81
671.808	9456.67
672.157	9526.5
672.507	9462.55
672.856	9456.22
673.205	9475.2
673.554	9505.71
673.904	9412.61
674.253	9503.68
674.602	9510.91
674.951	9317.69
675.3	9313.4
675.649	9474.75
675.998	9430.23
676.346	9467.97
676.695	9513.85
677.044	9411.25
677.393	9346.84
677.741	9426.16
678.09	9314.08
678.438	9430.01
678.787	9441.08
679.135	9391.14
679.484	9287.64
679.832	9365.15
680.181	9258.71
680.529	9321.31
680.877	9312.04
681.225	9227.07
681.573	9315.66
681.922	9218.26
682.27	9207.64
682.618	9214.64
682.966	9205.61
683.314	9199.73
683.661	9127.42
684.009	9173.52
684.357	9059.85
684.705	9089
685.053	9050.58
685.4	9076.8
685.748	8966.97
686.095	9037.47
686.443	8915.9
686.79	8964.93
687.138	8932.62
687.485	8902.34
687.832	8877.03
688.18	8901.21
688.527	8824.82
688.874	8746.86
689.221	8798.16
689.568	8774.66
689.915	8759.52
690.262	8718.61
690.609	8722
690.956	8697.37
691.303	8610.37
691.65	8612.17
691.997	8638.16
692.344	8540.76
692.69	8522.23
693.037	8489.47
693.383	8434.55
693.73	8506.87
694.077	8435.91
694.423	8416.25
694.769	8345.97
695.116	8325.63
695.462	8352.07
695.808	8344.39
696.155	8338.51
696.501	8229.36
696.847	8256.03
697.193	8194.56
697.539	8244.27
697.885	8189.59
698.231	8124.28
698.577	8059.19
698.923	8075.47
699.269	8018.29
699.614	8076.6
699.96	8000.67
700.306	7995.24
700.651	7929.25
700.997	7856.49
701.342	7829.37
701.688	7808.81
702.033	7802.48
702.379	7751.18
702.724	7773.33
703.069	7803.16
703.415	7673.67
703.76	7664.18
704.105	7616.72
704.45	7658.3
704.795	7559.32
705.14	7527.01
705.485	7555.03
705.83	7539.43
706.175	7522.26
706.52	7495.59
706.865	7489.27
707.209	7445.88
707.554	7425.09
707.899	7371.53
708.243	7357.97
708.588	7373.79
708.932	7283.85
709.277	7308.03
709.621	7289.5
709.966	7282.49
710.31	7321.59
710.654	7222.61
710.998	7163.85
711.342	7191.87
711.687	7209.05
712.031	7155.04
712.375	7162.72
712.719	7151.2
713.063	7144.42
713.407	7141.93
713.75	7096.51
714.094	7054.02
714.438	7034.82
714.782	7091.76
715.125	7006.34
715.469	7040.01
715.812	7046.79
716.156	6934.25
716.499	6995.49
716.843	6993.01
717.186	6957.3
717.53	6945.78
717.873	6938.09
718.216	6912.78
718.559	6978.55
718.902	6875.27
719.246	6837.76
719.589	6828.49
719.932	6815.84
720.275	6850.41
720.617	6798.66
720.96	6867.14
721.303	6828.72
721.646	6755.5
721.989	6745.11
722.331	6793.24
722.674	6806.8
723.016	6790.08
723.359	6780.58
723.701	6729.06
724.044	6754.37
724.386	6746.46
724.729	6786.23
725.071	6802.96
725.413	6720.92
725.755	6744.43
726.097	6720.02
726.439	6623.98
726.782	6684.54
727.124	6681.83
727.465	6715.95
727.807	6688.61
728.149	6681.83
728.491	6642.28
728.833	6654.26
729.175	6680.7
729.516	6619.01
729.858	6636.86
730.199	6664.43
730.541	6637.31
730.882	6628.05
731.224	6705.33
731.565	6626.24
731.906	6623.3
732.248	6648.16
732.589	6591.21
732.93	6617.88
733.271	6625.56
733.612	6626.01
733.953	6590.31
734.294	6650.87
734.635	6644.09
734.976	6656.75
735.317	6599.12
735.658	6579.69
735.999	6654.71
736.339	6624.88
736.68	6640.48
737.021	6650.87
737.361	6692
737.702	6707.14
738.042	6596.63
738.383	6596.18
738.723	6739
739.063	6653.13
739.404	6678.89
739.744	6726.35
740.084	6759.34
740.424	6713.92
740.764	6785.78
741.104	6793.92
741.444	6753.24
741.784	6742.39
742.124	6785.33
742.464	6730.19
742.804	6804.99
743.143	6771.55
743.483	6834.82
743.823	6830.07
744.162	6837.53
744.502	6899.45
744.841	6902.62
745.181	6942.39
745.52	6958.43
745.86	7045.66
746.199	7015.61
746.538	7035.72
746.877	7148.26
747.216	7198.88
747.556	7155.04
747.895	7218.54
748.234	7273.68
748.573	7303.51
748.911	7340.34
749.25	7426.22
749.589	7453.34
749.928	7530.17
750.267	7549.38
750.605	7644.74
750.944	7753.67
751.283	7755.02
751.621	7956.82
751.96	7887.22
752.298	8054.68
752.636	8135.35
752.975	8229.59
753.313	8278.4
753.651	8434.1
753.989	8448.11
754.327	8588.67
754.666	8676.58
755.004	8822.79
755.342	8982.11
755.679	9090.13
756.017	9185.04
756.355	9394.3
756.693	9447.18
757.031	9657.8
757.368	9768.3
757.706	9934.4
758.044	10063.21
758.381	10216.43
758.719	10411.9
759.056	10527.83
759.394	10722.63
759.731	10862.06
760.068	10995.39
760.405	11217.53
760.743	11371.88
761.08	11555.83
761.417	11645.99
761.754	11879.21
762.091	12074
762.428	12247.33
762.765	12382.7
763.102	12630.6
763.438	12760.54
763.775	12870.14
764.112	13113.75
764.449	13280.07
764.785	13323.24
765.122	13538.15
765.458	13666.51
765.795	13887.29
766.131	14089.32
766.467	14209.77
766.804	14354.4
767.14	14449.31
767.476	14724.33
767.812	14758.45
768.148	14973.59
768.485	15020.14
768.821	15128.61
769.157	15303.3
769.492	15465.1
769.828	15658.54
770.164	15742.83
770.5	15833.45
770.836	15990.29
771.171	16043.62
771.507	16236.83
771.842	16239.77
772.178	16434.12
772.513	16503.04
772.849	16572.64
773.184	16683.83
773.519	16778.06
773.855	16867.78
774.19	16959.75
774.525	17030.26
774.86	17138.28
775.195	17310.25
775.53	17258.28
775.865	17342.57
776.2	17245.17
776.535	17252.17
776.87	17404.94
777.205	17533.75
777.539	17512.51
777.874	17750.92
778.209	17577.36
778.543	17795.89
778.878	17671.15
779.212	17843.57
779.547	17748.21
779.881	17915.43
780.215	17772.84
780.55	18015.09
780.884	17850.58
781.218	17954.75
781.552	18034.53
781.886	17941.19
782.22	17941.42
782.554	17888.99
782.888	17880.86
783.222	17888.31
783.556	17819.62
783.889	17929.22
784.223	17834.08
784.557	17821.65
784.89	17947.52
785.224	17904.36
785.557	17906.17
785.891	17881.54
786.224	17845.6
786.558	17944.81
786.891	17831.14
787.224	17807.19
787.557	17719.51
787.891	17820.29
788.224	17816.68
788.557	17799.5
788.89	17750.47
789.223	17805.38
789.556	17694.65
789.888	17745.95
790.221	17690.13
790.554	17674.31
790.887	17639.96
791.219	17537.59
791.552	17554.31
791.884	17450.13
792.217	17498.95
792.549	17464.6
792.882	17410.59
793.214	17406.97
793.546	17403.81
793.879	17393.64
794.211	17355.67
794.543	17385.28
794.875	17338.95
795.207	17365.39
795.539	17242
795.871	17345.96
796.203	17121.56
796.535	17161.55
796.867	17124.04
797.198	17119.07
797.53	17083.36
797.862	16971.73
798.193	17118.84
798.525	16917.72
798.856	16843.14
799.188	16690.61
799.519	16742.81
799.85	16665.52
800.182	16682.7
800.513	16647.9
800.844	16563.83
801.175	16653.32
801.506	16613.09
801.837	16489.48
802.168	16509.37
802.499	16476.6
802.83	16405.42
803.161	16399.77
803.491	16350.05
803.822	16463.27
804.153	16422.14
804.483	16163.39
804.814	16139.21
805.145	16200.68
805.475	16257.85
805.805	16102.83
806.136	16159.32
806.466	16159.32
806.796	16048.36
807.126	15976.05
807.457	15943.28
807.787	15928.59
808.117	15862.15
808.447	15847.24
808.777	15916.84
809.107	15802.27
809.436	15807.24
809.766	15739.22
810.096	15733.8
810.426	15556.4
810.755	15651.54
811.085	15557.08
811.414	15646.79
811.744	15545.78
812.073	15454.48
812.403	15468.94
812.732	15348.72
813.061	15380.58
813.39	15421.71
813.719	15235.28
814.049	15473.24
814.378	15314.15
814.707	15148.95
815.036	15324.31
815.365	15135.39
815.693	15082.29
816.022	15107.37
816.351	15119.35
816.68	14968.84
817.008	15123.19
817.337	14904.66
817.665	14920.71
817.994	14901.73
818.322	14950.54
818.651	14907.15
818.979	14710.09
819.307	14953.25
819.636	14849.98
819.964	14780.15
820.292	14910.54
820.62	14854.5
820.948	14728.62
821.276	14814.05
821.604	14749.87
821.932	14819.47
822.259	14837.77
822.587	14712.13
822.915	14711.68
823.243	14830.77
823.57	14745.12
823.898	14732.69
824.225	14708.29
824.553	14760.26
824.88	14725.23
825.207	14856.08
825.535	14743.31
825.862	14812.69
826.189	14648.63
826.516	14728.62
826.843	14849.52
827.17	14792.8
827.497	14821.05
827.824	14827.6
828.151	14848.39
828.478	14839.58
828.805	14798.9
829.131	14768.85
829.458	14783.54
829.785	14741.96
830.111	14782.18
830.438	14848.62
830.764	14888.62
831.09	14833.71
831.417	14719.13
831.743	14755.52
832.069	14775.4
832.395	14710.09
832.722	14780.83
833.048	14694.5
833.374	14723.2
833.7	14581.06
834.026	14776.76
834.351	14589.42
834.677	14683.65
835.003	14662.86
835.329	14668.96
835.654	14600.27
835.98	14604.56
836.306	14578.57
836.631	14567.72
836.956	14627.38
837.282	14535.86
837.607	14508.97
837.932	14441.4
838.258	14486.82
838.583	14496.54
838.908	14443.66
839.233	14449.31
839.558	14348.97
839.883	14340.39
840.208	14274.85
840.533	14284.34
840.858	14281.63
841.182	14325.02
841.507	14245.92
841.832	14176.32
842.156	14144.23
842.481	14248.64
842.805	14116.44
843.13	14147.85
843.454	14015.87
843.778	14009.55
844.103	13918.48
844.427	14039.6
844.751	13984.24
845.075	13896.33
845.399	13946.95
845.723	13777.46
846.047	13930.45
846.371	13756.45
846.695	13706.96
847.019	13655.43
847.343	13625.38
847.666	13510.12
847.99	13430.13
848.313	13455.89
848.637	13353.74
848.96	13333.41
849.284	13261.54
849.607	13238.04
849.931	13213.86
850.254	13064.49
850.577	12948.78
850.9	12865.4
851.223	12898.39
851.546	12909.69
851.869	12818.62
852.192	12783.82
852.515	12726.42
852.838	12714.89
853.161	12636.7
853.483	12544.95
853.806	12567.32
854.129	12504.28
854.451	12417.27
854.774	12397.61
855.096	12309.93
855.419	12305.64
855.741	12321
856.063	12258.63
856.385	12247.33
856.708	12191.74
857.03	12083.04
857.352	12121.23
857.674	12061.12
857.996	12045.3
858.318	11953.78
858.64	11969.15
858.961	11962.82
859.283	11878.3
859.605	11835.37
859.926	11870.62
860.248	11837.17
860.57	11781.58
860.891	11767.12
861.212	11761.02
861.534	11661.36
861.855	11691.64
862.176	11654.81
862.498	11694.58
862.819	11664.07
863.14	11527.58
863.461	11574.81
863.782	11529.61
864.103	11523.06
864.424	11464.98
864.745	11564.41
865.065	11469.73
865.386	11441.25
865.707	11361.71
866.027	11384.31
866.348	11371.42
866.668	11387.69
866.989	11275.16
867.309	11241.26
867.63	11310.41
867.95	11259.79
868.27	11285.32
868.59	11229.96
868.91	11207.81
869.23	11172.11
869.55	11170.98
869.87	11287.81
870.19	11146.12
870.51	11114.26
870.83	11208.49
871.15	11070.87
871.469	11075.84
871.789	11074.93
872.109	11065.44
872.428	10973.92
872.748	10958.55
873.067	10927.59
873.386	11046.69
873.706	10962.17
874.025	10846.01
874.344	10870.65
874.663	10879.23
874.982	10943.41
875.301	10861.83
875.62	10826.35
875.939	10794.72
876.258	10790.42
876.577	10845.11
876.896	10763.98
877.214	10734.38
877.533	10766.02
877.852	10725.79
878.17	10676.98
878.489	10734.15
878.807	10635.4
879.125	10701.16
879.444	10723.98
879.762	10607.38
880.08	10593.59
880.398	10604.44
880.716	10650.54
881.034	10533.71
881.352	10563.54
881.67	10465.91
881.988	10420.26
882.306	10417.1
882.624	10418.68
882.941	10390.21
883.259	10325.12
883.577	10296.42
883.894	10318.34
884.212	10258.23
884.529	10246.48
884.846	10295.97
885.164	10210.78
885.481	10165.81
885.798	10225.24
886.115	10122.42
886.432	10145.47
886.75	10091.01
887.067	10124.45
887.383	10059.14
887.7	10111.57
888.017	10028.86
888.334	9996.32
888.651	9985.92
888.967	10040.84
889.284	9892.59
889.6	9891.46
889.917	9869.32
890.233	9842.2
890.55	9780.73
890.866	9790.9
891.182	9792.26
891.498	9757.68
891.815	9665.93
892.131	9711.35
892.447	9628.42
892.763	9594.97
893.079	9603.56
893.395	9589.32
893.71	9531.47
894.026	9493.73
894.342	9490.34
894.657	9385.26
894.973	9408.76
895.289	9367.86
895.604	9381.87
895.92	9293.96
896.235	9275.43
896.55	9230.92
896.865	9189.56
897.181	9162.89
897.496	9158.15
897.811	9128.55
898.126	9058.04
898.441	9024.82
898.756	9005.61
899.071	8976.46
899.386	8959.74
899.7	8847.65
900.015	8907.53
900.33	8775.11
900.644	8786.86
900.959	8854.43
901.273	8791.6
901.588	8704.15
901.902	8651.5
902.216	8667.31
902.531	8587.54
902.845	8637.94
903.159	8578.5
903.473	8527.66
903.787	8490.6
904.101	8420.99
904.415	8392.97
904.729	8388.45
905.042	8379.86
905.356	8332.86
905.67	8325.63
905.984	8235.91
906.297	8264.16
906.611	8181.23
906.924	8190.26
907.237	8145.97
907.551	8122.92
907.864	8086.31
908.177	8075.01
908.491	8029.14
908.804	7951.85
909.117	7914.79
909.43	7895.81
909.743	7871.4
910.056	7840.44
910.368	7811.07
910.681	7724.06
910.994	7796.15
911.307	7718.64
911.619	7658.08
911.932	7668.92
912.244	7606.55
912.557	7590.73
912.869	7486.1
913.181	7416.73
913.494	7492.43
913.806	7468.7
914.118	7430.51
914.43	7353.45
914.742	7348.48
915.054	7376.95
915.366	7321.14
915.678	7222.61
915.99	7256.5
916.302	7210.63
916.613	7195.26
916.925	7129.95
917.236	7148.48
917.548	7060.58
917.859	7143.29
918.171	7007.47
918.482	6977.42
918.794	6994.36
919.105	6948.94
919.416	6933.12
919.727	6859.23
920.038	6829.62
920.349	6814.93
920.66	6804.09
920.971	6789.17
921.282	6792.34
921.593	6810.19
921.903	6725.44
922.214	6670.3
922.525	6615.62
922.835	6662.17
923.146	6558.67
923.456	6559.57
923.767	6564.77
924.077	6548.73
924.387	6528.61
924.697	6444.32
925.008	6377.66
925.318	6405.23
925.628	6372.46
925.938	6302.86
926.248	6339.24
926.558	6303.08
926.867	6294.5
927.177	6239.58
927.487	6230.32
927.796	6098.57
928.106	6188.28
928.416	6179.02
928.725	6131.34
929.034	6106.48
929.344	6046.14
929.653	6098.34
929.962	5978.57
930.271	6015.63
930.581	5963.88
930.89	5947.84
931.199	5905.58
931.508	5911.91
931.817	5931.79
932.125	5872.36
932.434	5813.15
932.743	5827.39
933.051	5728.63
933.36	5771.8
933.669	5761.4
933.977	5717.56
934.286	5732.25
934.594	5676.88
934.902	5657
935.21	5614.97
935.519	5579.26
935.827	5576.77
936.135	5546.94
936.443	5515.76
936.751	5490.9
937.059	5483.9
937.367	5468.98
937.674	5453.39
937.982	5439.6
938.29	5381.53
938.597	5331.58
938.905	5365.03
939.213	5308.08
939.52	5244.58
939.827	5308.31
940.135	5243
940.442	5258.59
940.749	5208.2
941.056	5244.35
941.363	5139.72
941.67	5165.94
941.977	5061.76
942.284	5076.9
942.591	5067.18
942.898	5031.48
943.205	5036.45
943.511	5014.98
943.818	4988.99
944.125	4974.08
944.431	4948.99
944.738	4972.04
945.044	4899.05
945.35	4911.71
945.657	4840.52
945.963	4844.36
946.269	4845.72
946.575	4797.36
946.881	4775.89
947.187	4803.91
947.493	4733.18
947.799	4733.86
948.105	4696.35
948.41	4689.79
948.716	4651.6
949.022	4690.92
949.327	4652.73
949.633	4581.09
949.938	4641.43
950.244	4586.74
950.549	4551.72
950.854	4551.26
951.16	4510.14
951.465	4482.79
951.77	4473.98
952.075	4459.74
952.38	4455
952.685	4465.84
952.99	4405.73
953.294	4384.72
953.599	4412.29
953.904	4311.95
954.209	4329.8
954.513	4295
954.818	4243.93
955.122	4253.87
955.426	4218.17
955.731	4250.71
956.035	4203.7
956.339	4200.09
956.643	4193.99
956.948	4139.07
957.252	4125.51
957.556	4150.6
957.86	4109.02
958.163	4095.01
958.467	4102.91
958.771	4029.47
959.075	4066.53
959.378	4006.65
959.682	4009.13
959.985	3947.66
960.289	3946.31
960.592	3930.49
960.896	3934.56
961.199	3917.83
961.502	3913.77
961.805	3882.81
962.108	3865.63
962.411	3858.4
962.714	3866.08
963.017	3780.66
963.32	3816.14
963.623	3792.41
963.926	3751.74
964.228	3768.91
964.531	3761.45
964.833	3694.56
965.136	3691.85
965.438	3684.39
965.741	3655.92
966.043	3646.43
966.345	3640.55
966.648	3595.81
966.95	3588.8
967.252	3598.07
967.554	3582.25
967.856	3545.19
968.158	3546.09
968.46	3530.5
968.761	3475.81
969.063	3469.94
969.365	3490.05
969.666	3481.91
969.968	3448.69
970.269	3422.25
970.571	3428.58
970.872	3403.95
971.174	3395.81
971.475	3389.04
971.776	3388.13
972.077	3353.78
972.378	3305.87
972.679	3336.16
972.98	3295.25
973.281	3262.26
973.582	3275.59
973.883	3228.81
974.183	3256.38
974.484	3229.49
974.785	3208.93
975.085	3206.89
975.386	3167.57
975.686	3166.67
975.986	3154.47
976.287	3153.56
976.587	3125.77
976.887	3136.16
977.187	3148.36
977.487	3111.3
977.787	3069.95
978.087	3070.85
978.387	3043.96
978.687	3039.44
978.987	3033.56
979.286	2996.05
979.586	2996.28
979.885	2969.16
980.185	2957.63
980.484	2951.76
980.784	2946.33
981.083	2944.08
981.382	2909.73
981.682	2938.88
981.981	2895.26
982.28	2892.33
982.579	2857.75
982.878	2827.02
983.177	2834.93
983.475	2818.65
983.774	2847.58
984.073	2775.04
984.372	2791.54
984.67	2760.35
984.969	2759.22
985.267	2731.88
985.566	2729.62
985.864	2740.69
986.162	2695.72
986.461	2689.39
986.759	2682.39
987.057	2680.35
987.355	2665.89
987.653	2663.86
987.951	2639
988.249	2612.11
988.547	2615.5
988.844	2579.11
989.142	2560.13
989.44	2597.87
989.737	2600.58
990.035	2558.77
990.332	2558.77
990.63	2512.22
990.927	2520.58
991.224	2511.09
991.521	2526.46
991.819	2515.16
992.116	2514.26
992.413	2460.47
992.71	2451.43
993.006	2454.6
993.303	2435.16
993.6	2427.48
993.897	2390.87
994.193	2381.83
994.49	2357.65
994.787	2372.34
995.083	2351.55
995.379	2374.82
995.676	2320.36
995.972	2299.12
996.268	2336.86
996.565	2323.98
996.861	2290.31
997.157	2294.37
997.453	2298.89
997.749	2252.79
998.044	2238.78
998.34	2248.5
998.636	2258.44
998.932	2211.44
999.227	2192.91
999.523	2162.63
999.818	2168.05
1000.114	2168.5
1000.409	2163.53
1000.704	2124.66
1001	2143.87
1001.295	2145
1001.59	2135.96
1001.885	2124.21
1002.18	2100.71
1002.475	2032.46
1002.77	2063.19
1003.065	2060.03
1003.359	2008.28
1003.654	2036.53
1003.949	2032.23
1004.243	2002.63
1004.538	2006.7
1004.832	2000.6
1005.127	1979.81
1005.421	1960.82
1005.715	1962.86
1006.009	1936.64
1006.304	1924.44
1006.598	1917.66
1006.892	1927.6
1007.186	1872.01
1007.48	1916.08
1007.773	1863.88
1008.067	1842.18
1008.361	1851
1008.655	1839.47
1008.948	1817.78
1009.242	1836.31
1009.535	1815.07
1009.829	1803.09
1010.122	1774.39
1010.415	1774.61
1010.708	1785.46
1011.001	1729.64
1011.295	1762.19
1011.588	1723.54
1011.881	1724.45
1012.173	1717.67
1012.466	1708.63
1012.759	1662.98
1013.052	1691.23
1013.344	1676.76
1013.637	1672.7
1013.93	1661.62
1014.222	1650.55
1014.514	1635.63
1014.807	1653.26
1015.099	1626.14
1015.391	1613.94
1015.683	1617.33
1015.976	1593.15
1016.268	1592.92
1016.56	1545.69
1016.851	1554.96
1017.143	1567.84
1017.435	1563.77
1017.727	1558.12
1018.018	1523.1
1018.31	1518.35
1018.602	1515.64
1018.893	1510.89
1019.185	1491.01
1019.476	1472.25
1019.767	1468.18
1020.058	1429.76
1020.35	1434.74
1020.641	1430.44
1020.932	1427.73
1021.223	1409.43
1021.514	1433.15
1021.804	1403.78
1022.095	1386.38
1022.386	1393.83
1022.677	1354.29
1022.967	1372.82
1023.258	1345.25
1023.548	1331.24
1023.839	1310.22
1024.129	1327.85
1024.419	1320.16
1024.709	1304.57
1025	1314.29
1025.29	1297.56
1025.58	1294.18
1025.87	1288.53
1026.16	1278.36
1026.449	1276.1
1026.739	1255.08
1027.029	1232.71
1027.319	1233.16
1027.608	1238.81
1027.898	1205.36
1028.187	1207.62
1028.477	1217.11
1028.766	1191.8
1029.055	1202.43
1029.344	1177.79
1029.634	1183.44
1029.923	1140.28
1030.212	1149.55
1030.501	1164.01
1030.79	1134.63
1031.078	1129.21
1031.367	1125.37
1031.656	1128.08
1031.945	1116.78
1032.233	1095.08
1032.522	1124.69
1032.81	1104.58
1033.099	1063.9
1033.387	1081.53
1033.675	1064.8
1033.963	1060.28
1034.251	1059.15
1034.54	1068.19
1034.828	1044.92
1035.116	1032.26
1035.403	1036.55
1035.691	1019.61
1035.979	1009.44
1036.267	1004.92
1036.554	1021.64
1036.842	1000.62
1037.129	979.16
1037.417	974.41
1037.704	991.81
1037.992	950.23
1038.279	963.79
1038.566	948.65
1038.853	948.65
1039.14	948.65
