Data from hue_160_FLMS001491_00038.txt Node
Date: Tue Feb 07 16:51:07 GMT 2017
User: dcchb
Spectrometer: FLMS00149
Trigger mode: 0
Integration Time (sec): 2.000000E-2
Scans to average: 10
Electric dark correction enabled: true
Nonlinearity correction enabled: false
Boxcar width: 0
XAxis mode: Wavelengths
Number of Pixels in Spectrum: 2048
>>>>>Begin Spectral Data<<<<<
341.393	-21.54
341.776	-21.54
342.16	-21.54
342.543	-52.72
342.927	-81.65
343.31	-78.71
343.693	-69.22
344.077	-72.61
344.46	-61.76
344.843	-57.02
345.226	-54.98
345.61	-37.81
345.993	-5.04
346.376	-4.14
346.759	19.36
347.142	33.83
347.525	47.61
347.908	64.33
348.291	68.4
348.674	91.45
349.057	116.31
349.44	120.38
349.823	128.51
350.206	160.38
350.588	204.22
350.971	177.55
351.354	231.11
351.737	242.63
352.119	230.21
352.502	265.23
352.884	269.53
353.267	255.29
353.65	281.05
354.032	280.15
354.414	313.14
354.797	317.89
355.179	307.94
355.562	321.28
355.944	316.53
356.326	334.16
356.709	334.16
357.091	325.34
357.473	338.9
357.855	336.64
358.238	337.1
358.62	347.26
359.002	322.41
359.384	343.2
359.766	325.57
360.148	337.55
360.53	345.91
360.912	308.85
361.294	326.93
361.676	330.54
362.057	342.07
362.439	330.99
362.821	327.15
363.203	299.81
363.584	333.71
363.966	327.6
364.348	322.18
364.729	314.95
365.111	312.46
365.493	312.92
365.874	332.8
366.256	293.93
366.637	293.71
367.019	323.31
367.4	296.64
367.781	313.37
368.163	304.55
368.544	300.71
368.925	286.02
369.306	305.01
369.688	323.76
370.069	305.01
370.45	291.22
370.831	298.68
371.212	283.99
371.593	311.56
371.974	297.32
372.355	304.55
372.736	313.82
373.117	312.46
373.498	304.78
373.879	315.18
374.26	323.76
374.641	305.01
375.021	297.55
375.402	325.8
375.783	310.88
376.163	309.3
376.544	321.5
376.925	308.17
377.305	326.02
377.686	296.42
378.066	295.06
378.447	306.36
378.827	316.08
379.208	329.64
379.588	313.82
379.968	313.14
380.349	324.89
380.729	354.04
381.109	316.31
381.489	325.57
381.87	312.46
382.25	325.34
382.63	330.32
383.01	335.06
383.39	316.31
383.77	327.38
384.15	332.58
384.53	335.29
384.91	343.2
385.29	342.52
385.67	328.51
386.049	346.81
386.429	347.94
386.809	340.03
387.189	345.91
387.568	368.06
387.948	346.36
388.328	344.1
388.707	344.55
389.087	334.84
389.466	347.94
389.846	369.86
390.225	352.91
390.605	347.49
390.984	340.94
391.363	353.37
391.743	351.11
392.122	359.92
392.501	349.98
392.881	363.76
393.26	379.58
393.639	363.76
394.018	367.83
394.397	350.65
394.776	366.93
395.155	385.68
395.534	372.8
395.913	374.38
396.292	367.83
396.671	362.86
397.05	373.7
397.429	382.07
397.808	373.93
398.186	389.52
398.565	387.26
398.944	384.1
399.323	381.39
399.701	388.62
400.08	376.42
400.458	380.03
400.837	403.76
401.215	394.95
401.594	385.23
401.972	401.95
402.351	382.29
402.729	403.99
403.107	397.66
403.486	390.2
403.864	404.89
404.242	395.63
404.62	393.82
404.999	400.82
405.377	388.39
405.755	404.21
406.133	440.82
406.511	408.05
406.889	430.88
407.267	437.66
407.645	429.3
408.023	413.93
408.401	434.72
408.779	415.29
409.156	443.53
409.534	441.5
409.912	411.9
410.29	441.95
410.667	444.66
411.045	465.68
411.422	451.67
411.8	467.49
412.178	441.5
412.555	455.74
412.933	446.47
413.31	448.73
413.687	475.4
414.065	459.13
414.442	470.2
414.819	464.32
415.197	469.52
415.574	492.57
415.951	467.26
416.328	482.85
416.705	497.32
417.082	483.53
417.46	490.99
417.837	508.84
418.214	509.97
418.591	478.33
418.967	497.09
419.344	494.83
419.721	496.87
420.098	506.81
420.475	507.26
420.852	516.98
421.228	514.04
421.605	532.8
421.982	532.12
422.358	527.37
422.735	527.15
423.111	530.76
423.488	513.36
423.864	530.31
424.241	540.71
424.617	556.98
424.994	535.28
425.37	531.89
425.746	546.36
426.123	556.52
426.499	543.87
426.875	565.34
427.251	576.64
427.627	589.52
428.003	593.36
428.379	582.74
428.756	593.13
429.132	593.13
429.507	595.17
429.883	618.9
430.259	601.72
430.635	618.44
431.011	628.39
431.387	643.08
431.763	658.44
432.138	637.2
432.514	637.2
432.89	646.01
433.265	657.54
433.641	644.66
434.016	673.13
434.392	685.56
434.767	682.62
435.143	689.63
435.518	690.76
435.894	693.24
436.269	720.36
436.644	705.22
437.02	712.23
437.395	711.55
437.77	714.26
438.145	718.1
438.52	756.97
438.895	742.28
439.271	770.98
439.646	776.63
440.021	770.76
440.395	754.49
440.77	760.14
441.145	774.82
441.52	780.02
441.895	779.8
442.27	809.85
442.645	796.74
443.019	807.14
443.394	784.77
443.769	822.28
444.143	817.31
444.518	804.43
444.892	846.91
445.267	837.42
445.641	853.92
446.016	847.36
446.39	846.46
446.764	832.68
447.139	843.3
447.513	877.65
447.887	870.64
448.262	856.86
448.636	889.62
449.01	885.56
449.384	915.16
449.758	886.91
450.132	888.72
450.506	920.36
450.88	931.43
451.254	920.81
451.628	935.72
452.002	959.23
452.376	932.11
452.75	940.24
453.123	953.8
453.497	953.8
453.871	980.47
454.244	1007.81
454.618	977.08
454.992	1000.13
455.365	1012.78
455.739	1022.28
456.112	1038.55
456.486	1048.49
456.859	1044.65
457.232	1058.43
457.606	1063.86
457.979	1082.84
458.352	1113.12
458.725	1135.04
459.099	1119.67
459.472	1146.57
459.845	1171.88
460.218	1178.88
460.591	1209.39
460.964	1191.31
461.337	1228.37
461.71	1261.37
462.083	1231.99
462.456	1276.51
462.829	1278.31
463.201	1229.5
463.574	1307.92
463.947	1288.03
464.32	1352.66
464.692	1364.87
465.065	1392.21
465.438	1387.01
465.81	1405.99
466.183	1437.86
466.555	1453.45
466.928	1465.43
467.3	1473.11
467.672	1515.82
468.045	1556.27
468.417	1560.57
468.789	1544.3
469.161	1576.39
469.534	1612.32
469.906	1669.94
470.278	1695.7
470.65	1717.17
471.022	1713.56
471.394	1808.02
471.766	1790.39
472.138	1838.3
472.51	1887.56
472.882	1923.49
473.253	1951.74
473.625	2008.01
473.997	2043.27
474.369	2065.86
474.74	2137.27
475.112	2172.3
475.484	2210.94
475.855	2250.72
476.227	2287.78
476.598	2399.64
476.97	2421.11
477.341	2511.28
477.713	2583.14
478.084	2598.73
478.455	2683.7
478.827	2724.83
479.198	2839.4
479.569	2844.83
479.94	2967.99
480.311	3012.73
480.682	3120.75
481.053	3190.13
481.424	3299.73
481.795	3347.41
482.166	3461.53
482.537	3499.27
482.908	3657.23
483.279	3700.4
483.65	3835.31
484.021	3927.51
484.391	4033.95
484.762	4068.75
485.133	4163.44
485.503	4292.92
485.874	4410.21
486.244	4520.94
486.615	4649.07
486.985	4687.04
487.356	4864.66
487.726	4945.56
488.097	5007.71
488.467	5120.92
488.837	5319.79
489.207	5416.51
489.578	5496.28
489.948	5657.41
490.318	5769.04
490.688	5812.43
491.058	6004.07
491.428	6125.64
491.798	6258.07
492.168	6402.92
492.538	6542.13
492.908	6564.5
493.278	6743.71
493.648	6789.36
494.017	6950.03
494.387	7037.94
494.757	7193.86
495.126	7314.77
495.496	7384.82
495.866	7438.38
496.235	7591.37
496.605	7760.18
496.974	7794.53
497.344	7917.69
497.713	7986.84
498.082	8066.61
498.452	8205.36
498.821	8252.14
499.19	8308.86
499.559	8445.36
499.928	8613.94
500.298	8628.63
500.667	8801.28
501.036	8776.65
501.405	8888.28
501.774	8898.23
502.143	9039.69
502.512	9084.44
502.88	9208.73
503.249	9292.34
503.618	9310.65
503.987	9345.22
504.356	9475.84
504.724	9526.68
505.093	9624.54
505.462	9623.18
505.83	9701.6
506.199	9821.59
506.567	9973.68
506.936	9901.14
507.304	10007.8
507.672	10060.23
508.041	10092.55
508.409	10267.91
508.777	10278.76
509.145	10264.97
509.514	10345.65
509.882	10384.06
510.25	10418.64
510.618	10462.48
510.986	10487.79
511.354	10636.03
511.722	10616.37
512.09	10760.32
512.458	10751.29
512.826	10703.38
513.193	10781.11
513.561	10854.33
513.929	10854.33
514.297	10942.92
514.664	10973.43
515.032	10990.6
515.4	11022.46
515.767	11109.02
516.135	11086.42
516.502	11031.73
516.869	11172.74
517.237	11173.65
517.604	11117.83
517.972	11235.34
518.339	11312.63
518.706	11273.98
519.073	11300.65
519.44	11304.04
519.808	11398.73
520.175	11354.21
520.542	11542.22
520.909	11486.86
521.276	11500.19
521.643	11533.19
522.009	11535.45
522.376	11655.67
522.743	11661.32
523.11	11694.76
523.477	11685.95
523.843	11725.27
524.21	11798.94
524.577	11823.57
524.943	11816.12
525.31	11788.09
525.676	11856.57
526.043	11872.84
526.409	11867.41
526.776	11981.31
527.142	11925.72
527.508	11953.06
527.874	11955.32
528.241	11942.89
528.607	11893.85
528.973	11955.77
529.339	11944.47
529.705	11952.61
530.071	12017.47
530.437	11987.41
530.803	11993.06
531.169	12044.13
531.535	11939.05
531.901	11910.8
532.267	11988.54
532.632	11987.64
532.998	11962.55
533.364	12011.36
533.73	11953.51
534.095	12007.07
534.461	11908.09
534.826	11924.59
535.192	11874.87
535.557	11924.36
535.923	11773.86
536.288	11794.87
536.653	11802.1
537.019	11756
537.384	11730.47
537.749	11685.05
538.114	11751.71
538.479	11644.37
538.845	11626.52
539.21	11608.66
539.575	11594.65
539.94	11498.84
540.305	11637.14
540.67	11454.77
541.034	11468.33
541.399	11473.3
541.764	11440.76
542.129	11476.01
542.494	11385.17
542.858	11353.76
543.223	11347.65
543.587	11295.45
543.952	11255.45
544.316	11252.97
544.681	11135.23
545.045	11149.24
545.41	11180.43
545.774	11120.99
546.138	11063.37
546.503	11001
546.867	10947.21
547.231	11056.14
547.595	11036.93
547.959	11000.54
548.324	10850.27
548.688	10926.87
549.052	10930.49
549.416	10813.88
549.779	10678.97
550.143	10746.77
550.507	10693.89
550.871	10734.34
551.235	10651.85
551.599	10651.63
551.962	10630.84
552.326	10623.15
552.689	10625.41
553.053	10535.7
553.417	10574.79
553.78	10707.22
554.143	10542.93
554.507	10516.26
554.87	10486.21
555.234	10567.34
555.597	10411.63
555.96	10479.65
556.323	10412.08
556.686	10432.88
557.05	10453.44
557.413	10434.23
557.776	10399.88
558.139	10436.94
558.502	10381.35
558.865	10271.98
559.228	10383.84
559.59	10363.27
559.953	10322.82
560.316	10396.72
560.679	10429.49
561.041	10370.96
561.404	10398.3
561.767	10368.92
562.129	10385.19
562.492	10429.26
562.854	10460.67
563.217	10391.97
563.579	10387.23
563.941	10427.45
564.304	10407.11
564.666	10481.01
565.028	10452.08
565.39	10349.49
565.753	10386.1
566.115	10476.26
566.477	10376.15
566.839	10432.2
567.201	10478.52
567.563	10457.51
567.925	10488.02
568.287	10471.74
568.648	10473.55
569.01	10499.31
569.372	10474.91
569.734	10497.28
570.095	10552.65
570.457	10560.78
570.819	10591.29
571.18	10531.18
571.542	10544.28
571.903	10526.43
572.265	10539.54
572.626	10642.59
572.987	10612.76
573.349	10563.04
573.71	10657.73
574.071	10590.61
574.432	10700.21
574.794	10608.01
575.155	10663.6
575.516	10598.07
575.877	10711.29
576.238	10653.21
576.599	10725.75
576.96	10622.93
577.32	10661.34
577.681	10664.28
578.042	10728.23
578.403	10612.98
578.763	10724.62
579.124	10765.97
579.485	10668.8
579.845	10741.12
580.206	10671.51
580.566	10764.17
580.927	10652.3
581.287	10785.18
581.648	10659.31
582.008	10664.51
582.368	10691.4
582.728	10685.75
583.089	10663.38
583.449	10642.81
583.809	10590.61
584.169	10721.91
584.529	10628.12
584.889	10727.1
585.249	10666.32
585.609	10530.27
585.969	10611.63
586.329	10590.84
586.688	10612.31
587.048	10607.33
587.408	10544.06
587.768	10607.79
588.127	10544.28
588.487	10580.89
588.846	10598.29
589.206	10522.36
589.565	10511.29
589.925	10608.01
590.284	10554
590.643	10555.36
591.003	10526.88
591.362	10515.13
591.721	10445.53
592.08	10442.37
592.44	10516.04
592.799	10508.58
593.158	10503.16
593.517	10510.16
593.876	10460.45
594.235	10403.27
594.593	10471.29
594.952	10474.46
595.311	10457.28
595.67	10386.1
596.029	10507.45
596.387	10491.18
596.746	10468.35
597.104	10487.11
597.463	10471.97
597.822	10521.01
598.18	10389.71
598.538	10458.64
598.897	10436.49
599.255	10427.23
599.613	10457.96
599.972	10448.02
600.33	10472.42
600.688	10407.11
601.046	10509.26
601.404	10493.66
601.762	10450.5
602.12	10537.05
602.478	10492.31
602.836	10479.2
603.194	10435.59
603.552	10386.77
603.91	10415.93
604.268	10458.41
604.625	10405.98
604.983	10511.74
605.341	10417.06
605.698	10480.78
606.056	10434.68
606.413	10487.11
606.771	10518.97
607.128	10448.92
607.485	10398.07
607.843	10387.68
608.2	10512.2
608.557	10544.06
608.914	10508.35
609.272	10539.77
609.629	10537.96
609.986	10575.24
610.343	10502.7
610.7	10577.05
611.057	10489.82
611.414	10545.87
611.771	10518.07
612.127	10597.84
612.484	10629.93
612.841	10566.88
613.198	10554.45
613.554	10525.53
613.911	10536.38
614.267	10636.49
614.624	10589.71
614.98	10605.53
615.337	10627.9
615.693	10656.15
616.05	10617.96
616.406	10674.45
616.762	10592.65
617.118	10626.54
617.475	10655.24
617.831	10780.66
618.187	10655.02
618.543	10735.69
618.899	10808.68
619.255	10768.69
619.611	10728.91
619.967	10733.66
620.323	10747.67
620.678	10659.08
621.034	10681.68
621.39	10692.98
621.746	10681
622.101	10795.35
622.457	10749.48
622.812	10712.87
623.168	10721.91
623.523	10736.37
623.879	10756.48
624.234	10714.22
624.589	10761.45
624.945	10760.78
625.3	10770.04
625.655	10712.87
626.01	10745.86
626.365	10750.83
626.72	10708.35
627.075	10731.17
627.43	10664.96
627.785	10598.52
628.14	10678.29
628.495	10721.23
628.85	10717.84
629.205	10665.41
629.559	10744.73
629.914	10638.52
630.269	10606.2
630.623	10629.93
630.978	10662.93
631.332	10610.27
631.687	10664.28
632.041	10670.84
632.396	10626.32
632.75	10554.45
633.104	10579.76
633.459	10546.32
633.813	10554.23
634.167	10488.92
634.521	10525.3
634.875	10605.53
635.229	10531.18
635.583	10497.73
635.937	10509.48
636.291	10549.03
636.645	10496.38
636.999	10483.95
637.352	10421.8
637.706	10405.76
638.06	10398.75
638.413	10417.28
638.767	10381.58
639.121	10428.13
639.474	10387
639.828	10351.97
640.181	10346.1
640.534	10380.67
640.888	10316.72
641.241	10251.41
641.594	10339.77
641.947	10232.88
642.301	10295.03
642.654	10271.07
643.007	10303.61
643.36	10321.47
643.713	10293.67
644.066	10289.6
644.419	10234.69
644.771	10152.66
645.124	10128.7
645.477	10093.45
645.83	10041.02
646.182	10056.16
646.535	10009.38
646.888	9973.45
647.24	9909.27
647.593	9985.43
647.945	9934.81
648.298	9883.06
648.65	9905.21
649.002	9923.06
649.355	9975.49
649.707	9966
650.059	9974.58
650.411	10093.22
650.763	10058.2
651.115	10210.51
651.467	10144.75
651.819	10237.4
652.171	10128.02
652.523	10109.04
652.875	10134.35
653.227	10091.64
653.578	10145.2
653.93	10150.85
654.282	10067.91
654.633	10059.1
654.985	10092.77
655.337	10114.01
655.688	10135.48
656.039	10187.23
656.391	10135.93
656.742	10166.44
657.094	10090.74
657.445	10062.26
657.796	10131.64
658.147	10144.97
658.498	10109.04
658.849	10145.2
659.2	10127.12
659.551	10161.7
659.902	10168.02
660.253	10102.26
660.604	10211.19
660.955	10178.42
661.306	10187.23
661.656	10116.05
662.007	10182.94
662.358	10176.16
662.708	10156.72
663.059	10172.32
663.409	10060.23
663.76	10236.95
664.11	10144.97
664.461	10173.45
664.811	10149.94
665.161	10167.8
665.511	10143.84
665.862	10173.22
666.212	10250.73
666.562	10205.76
666.912	10221.81
667.262	10192.88
667.612	10173
667.962	10209.38
668.312	10158.08
668.662	10209.38
669.011	10227.91
669.361	10140.45
669.711	10159.66
670.06	10198.76
670.41	10142.49
670.76	10071.3
671.109	10214.58
671.459	10136.39
671.808	10181.58
672.157	10127.35
672.507	10111.98
672.856	10107.46
673.205	10130.06
673.554	10214.12
673.904	10088.93
674.253	10162.37
674.602	10089.83
674.951	9921.02
675.3	9930.74
675.649	9974.58
675.998	10039.89
676.346	10018.87
676.695	10073.34
677.044	10006.9
677.393	10034.47
677.741	10010.29
678.09	9995.37
678.438	9960.57
678.787	10005.99
679.135	9942.04
679.484	9914.24
679.832	9929.61
680.181	9937.75
680.529	9883.96
680.877	9916.05
681.225	9831.08
681.573	9881.7
681.922	9869.27
682.27	9827.02
682.618	9791.54
682.966	9829.5
683.314	9812.1
683.661	9812.55
684.009	9683.74
684.357	9763.06
684.705	9699.56
685.053	9707.02
685.4	9666.34
685.748	9585.44
686.095	9589.51
686.443	9574.14
686.79	9584.76
687.138	9594.03
687.485	9585.21
687.832	9508.15
688.18	9538.66
688.527	9488.95
688.874	9481.71
689.221	9474.93
689.568	9414.15
689.915	9412.56
690.262	9384.77
690.609	9298.67
690.956	9289.18
691.303	9293.02
691.65	9215.73
691.997	9277.2
692.344	9151.33
692.69	9169.63
693.037	9149.07
693.383	9067.04
693.73	9053.25
694.077	9024.78
694.423	9052.57
694.769	8984.55
695.116	9054.38
695.462	8992.91
695.808	8839.7
696.155	8889.64
696.501	8817.1
696.847	8818.23
697.193	8772.35
697.539	8786.14
697.885	8709.98
698.231	8670.66
698.577	8683.54
698.923	8675.41
699.269	8675.18
699.614	8529.65
699.96	8521.97
700.306	8569.2
700.651	8505.24
700.997	8405.36
701.342	8441.52
701.688	8387.96
702.033	8392.48
702.379	8369.88
702.724	8292.37
703.069	8325.13
703.415	8187.51
703.76	8272.03
704.105	8212.14
704.45	8189.77
704.795	8161.3
705.14	8107.51
705.485	8116.1
705.83	8094.18
706.175	8098.7
706.52	8073.16
706.865	7999.72
707.209	7995.88
707.554	7950.68
707.899	7994.52
708.243	8004.24
708.588	7931.47
708.932	7916.33
709.277	7835.88
709.621	7860.29
709.966	7857.58
710.31	7802.89
710.654	7706.85
710.998	7758.14
711.342	7759.73
711.687	7782.78
712.031	7704.13
712.375	7684.7
712.719	7693.06
713.063	7705.04
713.407	7667.3
713.75	7735.09
714.094	7615.55
714.438	7588.43
714.782	7526.29
715.125	7562.22
715.469	7594.08
715.812	7528.54
716.156	7514.08
716.499	7487.64
716.843	7457.59
717.186	7470.69
717.53	7478.6
717.873	7489
718.216	7493.74
718.559	7427.08
718.902	7387.08
719.246	7398.15
719.589	7416.91
719.932	7382.79
720.275	7317.48
720.617	7404.48
720.96	7353.63
721.303	7392.73
721.646	7340.3
721.989	7256.91
722.331	7344.37
722.674	7291.49
723.016	7291.26
723.359	7300.98
723.701	7303.47
724.044	7191.38
724.386	7243.13
724.729	7243.13
725.071	7241.32
725.413	7261.89
725.755	7245.84
726.097	7172.62
726.439	7254.65
726.782	7180.08
727.124	7210.81
727.465	7167.88
727.807	7214.43
728.149	7213.98
728.491	7229.8
728.833	7209.01
729.175	7170.36
729.516	7158.61
729.858	7168.1
730.199	7113.41
730.541	7171.27
730.882	7145.05
731.224	7133.98
731.565	7191.6
731.906	7189.8
732.248	7128.56
732.589	7179.18
732.93	7065.28
733.271	7142.79
733.612	7158.16
733.953	7186.63
734.294	7114.09
734.635	7105.96
734.976	7170.36
735.317	7100.31
735.658	7083.13
735.999	7118.84
736.339	7130.14
736.68	7163.36
737.021	7090.14
737.361	7152.06
737.702	7171.27
738.042	7166.75
738.383	7192.96
738.723	7190.93
739.063	7198.38
739.404	7176.24
739.744	7220.53
740.084	7204.49
740.424	7181.44
740.764	7251.49
741.104	7245.16
741.444	7271.38
741.784	7331.94
742.124	7331.94
742.464	7252.17
742.804	7307.99
743.143	7322
743.483	7332.62
743.823	7264.82
744.162	7323.8
744.502	7430.92
744.841	7446.29
745.181	7471.6
745.52	7400.64
745.86	7492.84
746.199	7548.88
746.538	7540.52
746.877	7659.84
747.216	7626.17
747.556	7658.26
747.895	7736.9
748.234	7762.66
748.573	7793.62
748.911	7879.5
749.25	7938.7
749.589	7978.02
749.928	7982.32
750.267	8092.37
750.605	8072.94
750.944	8141.18
751.283	8234.52
751.621	8343.21
751.96	8390.9
752.298	8451.91
752.636	8554.28
752.975	8611.23
753.313	8666.37
753.651	8822.3
753.989	8839.7
754.327	8963.08
754.666	9046.02
755.004	9276.75
755.342	9320.59
755.679	9469.51
756.017	9542.96
756.355	9654.59
756.693	9749.05
757.031	9904.3
757.368	9976.84
757.706	10138.42
758.044	10234.24
758.381	10424.74
758.719	10524.62
759.056	10691.63
759.394	10874.9
759.731	10935.24
760.068	11076.25
760.405	11185.4
760.743	11380.2
761.08	11572.96
761.417	11645.95
761.754	11837.13
762.091	12010.46
762.428	12095.88
762.765	12228.31
763.102	12484.12
763.438	12564.12
763.775	12642.31
764.112	12899.7
764.449	13099.47
764.785	13163.43
765.122	13266.7
765.458	13424.21
765.795	13563.87
766.131	13796.4
766.467	13946.68
766.804	14020.8
767.14	14002.95
767.476	14231.42
767.812	14397.29
768.148	14514.58
768.485	14646.78
768.821	14690.62
769.157	14829.82
769.492	14930.16
769.828	15168.57
770.164	15049.7
770.5	15257.38
770.836	15325.63
771.171	15397.49
771.507	15494.44
771.842	15466.42
772.178	15694.43
772.513	15746.41
772.849	15770.14
773.184	15888.78
773.519	16001.32
773.855	16013.52
774.19	16099.85
774.525	16143.69
774.86	16243.12
775.195	16309.11
775.53	16227.3
775.865	16266.62
776.2	16303.23
776.535	16294.42
776.87	16418.48
777.205	16486.95
777.539	16406.5
777.874	16585.71
778.209	16426.84
778.543	16570.57
778.878	16547.52
779.212	16681.3
779.547	16555.88
779.881	16697.57
780.215	16672.49
780.55	16707.29
780.884	16640.4
781.218	16652.82
781.552	16710.9
781.886	16710
782.22	16701.86
782.554	16629.55
782.888	16578.48
783.222	16625.03
783.556	16607.85
783.889	16569.66
784.223	16523.34
784.557	16595.88
784.89	16599.27
785.224	16552.71
785.557	16499.83
785.891	16504.35
786.224	16538.48
786.558	16531.92
786.891	16541.19
787.224	16443.34
787.557	16376.22
787.891	16563.56
788.224	16377.13
788.557	16428.2
788.89	16473.17
789.223	16464.58
789.556	16363.57
789.888	16321.76
790.221	16357.01
790.554	16232.27
790.887	16284.25
791.219	16253.74
791.552	16120.18
791.884	16131.71
792.217	16168.32
792.549	16147.75
792.882	16059.85
793.214	15988.66
793.546	16059.39
793.879	16006.74
794.211	15870.47
794.543	15958.61
794.875	15811.27
795.207	15912.51
795.539	15869.12
795.871	15914.54
796.203	15769.91
796.535	15663.47
796.867	15642.46
797.198	15704.83
797.53	15606.3
797.862	15564.94
798.193	15672.74
798.525	15471.84
798.856	15585.51
799.188	15329.02
799.519	15334.22
799.85	15327.89
800.182	15283.6
800.513	15349.36
800.844	15226.87
801.175	15334.44
801.506	15195.69
801.837	15200.43
802.168	15141.45
802.499	15180.55
802.83	15042.7
803.161	14989.59
803.491	15029.36
803.822	15044.05
804.153	14943.72
804.483	14855.58
804.814	14823.72
805.145	14781.69
805.475	14826.66
805.805	14718.41
806.136	14737.39
806.466	14755.47
806.796	14694.91
807.126	14580.79
807.457	14595.93
807.787	14548.47
808.117	14503.28
808.447	14487.01
808.777	14495.82
809.107	14410.17
809.436	14440.68
809.766	14387.57
810.096	14322.26
810.426	14269.38
810.755	14283.17
811.085	14336.28
811.414	14241.59
811.744	14218.09
812.073	14166.56
812.403	14113.23
812.732	14085.89
813.061	14108.48
813.39	13994.14
813.719	13980.8
814.049	14094.47
814.378	13902.61
814.707	13920.92
815.036	13994.59
815.365	13908.49
815.693	13775.84
816.022	13808.15
816.351	13732
816.68	13681.15
817.008	13756.63
817.337	13598.44
817.665	13606.8
817.994	13684.09
818.322	13597.76
818.651	13574.94
818.979	13576.07
819.307	13627.37
819.636	13502.85
819.964	13449.29
820.292	13442.97
820.62	13477.32
820.948	13451.55
821.276	13540.82
821.604	13479.12
821.932	13411.33
822.259	13572.91
822.587	13487.94
822.915	13444.1
823.243	13600.25
823.57	13466.47
823.898	13457.43
824.225	13369.52
824.553	13393.25
824.88	13437.09
825.207	13503.53
825.535	13397.32
825.862	13497.65
826.189	13461.72
826.516	13500.82
826.843	13472.34
827.17	13566.8
827.497	13507.37
827.824	13470.54
828.151	13515.05
828.478	13573.58
828.805	13528.16
829.131	13492.46
829.458	13495.62
829.785	13423.08
830.111	13437.09
830.438	13522.51
830.764	13457.88
831.09	13476.41
831.417	13404.55
831.743	13440.03
832.069	13411.1
832.395	13410.88
832.722	13412.46
833.048	13396.19
833.374	13395.96
833.7	13337.88
834.026	13324.32
834.351	13503.53
834.677	13313.7
835.003	13367.26
835.329	13353.02
835.654	13356.64
835.98	13263.99
836.306	13296.75
836.631	13236.42
836.956	13240.03
837.282	13334.95
837.607	13142.41
837.932	13116.87
838.258	13209.07
838.583	13183.76
838.908	13114.84
839.233	13155.52
839.558	13146.25
839.883	13085.69
840.208	13054.05
840.533	13082.98
840.858	12981.73
841.182	12970.44
841.507	12947.39
841.832	12895.18
842.156	12871.46
842.481	12869.65
842.805	12874.62
843.13	12814.28
843.454	12741.52
843.778	12748.52
844.103	12735.41
844.427	12774.06
844.751	12715.53
845.075	12648.86
845.399	12693.61
845.723	12538.58
846.047	12588.75
846.371	12447.74
846.695	12473.73
847.019	12368.19
847.343	12333.39
847.666	12289.78
847.99	12294.3
848.313	12246.39
848.637	12122.55
848.96	12105.15
849.284	12185.37
849.607	11996.45
849.931	12012.04
850.254	11939.73
850.577	11861.99
850.9	11779.96
851.223	11744.93
851.546	11699.96
851.869	11676.46
852.192	11731.82
852.515	11544.03
852.838	11553.3
853.161	11475.33
853.483	11488.44
853.806	11430.36
854.129	11398.05
854.451	11325.73
854.774	11270.59
855.096	11226.98
855.419	11228.33
855.741	11208.67
856.063	11201.67
856.385	11138.62
856.708	11042.35
857.03	11131.39
857.352	11102.69
857.674	10919.64
857.996	10939.53
858.318	10991.73
858.64	10893.88
858.961	10842.13
859.283	10832.19
859.605	10822.24
859.926	10837.84
860.248	10730.27
860.57	10713.32
860.891	10800.55
861.212	10682.13
861.534	10639.2
861.855	10639.42
862.176	10621.8
862.498	10614.11
862.819	10552.87
863.14	10612.98
863.461	10580.67
863.782	10479.2
864.103	10495.25
864.424	10500.67
864.745	10507.9
865.065	10455.02
865.386	10352.88
865.707	10356.72
866.027	10362.82
866.348	10380.67
866.668	10419.77
866.989	10339.32
867.309	10208.7
867.63	10303.84
867.95	10259.32
868.27	10175.26
868.59	10221.13
868.91	10162.6
869.23	10268.81
869.55	10138.19
869.87	10269.26
870.19	10163.5
870.51	10120.34
870.83	10165.09
871.15	10091.64
871.469	10067.91
871.789	10075.82
872.109	10089.61
872.428	10071.53
872.748	10014.81
873.067	10028.14
873.386	9936.62
873.706	9957.41
874.025	9951.76
874.344	9932.55
874.663	9941.59
874.982	9893
875.301	9881.25
875.62	9873.12
875.939	9854.13
876.258	9840.57
876.577	9850.29
876.896	9883.51
877.214	9797.19
877.533	9773.91
877.852	9758.99
878.17	9824.76
878.489	9749.73
878.807	9720.58
879.125	9692.1
879.444	9737.53
879.762	9693.69
880.08	9681.93
880.398	9621.15
880.716	9646.23
881.034	9582.05
881.352	9598.77
881.67	9541.37
881.988	9591.54
882.306	9529.85
882.624	9471.09
882.941	9507.93
883.259	9506.12
883.577	9460.7
883.894	9389.51
884.212	9442.84
884.529	9356.07
884.846	9381.6
885.164	9301.38
885.481	9328.72
885.798	9272
886.115	9229.74
886.432	9259.8
886.75	9215.28
887.067	9256.41
887.383	9233.36
887.7	9243.98
888.017	9103.42
888.334	9145.23
888.651	9166.24
888.967	9127.37
889.284	9067.94
889.6	9044.44
889.917	8990.43
890.233	8932.8
890.55	8918.56
890.866	8913.14
891.182	8883.76
891.498	8850.09
891.815	8827.04
892.131	8779.81
892.447	8840.15
892.763	8724.45
893.079	8772.35
893.395	8730.77
893.71	8674.73
894.026	8659.14
894.342	8659.36
894.657	8566.71
894.973	8509.31
895.289	8551.57
895.604	8530.78
895.92	8458.92
896.235	8432.25
896.55	8473.6
896.865	8407.84
897.181	8364.46
897.496	8351.12
897.811	8382.99
898.126	8314.96
898.441	8275.64
898.756	8247.17
899.071	8181.86
899.386	8190
899.7	8145.25
900.015	8113.39
900.33	8056.21
900.644	8027.29
900.959	8049.21
901.273	7959.95
901.588	7954.97
901.902	7898.7
902.216	7905.03
902.531	7915.88
902.845	7858.93
903.159	7795.88
903.473	7815.54
903.787	7749.33
904.101	7707.3
904.415	7690.57
904.729	7683.8
905.042	7586.85
905.356	7575.32
905.67	7567.87
905.984	7538.49
906.297	7540.75
906.611	7480.64
906.924	7529
907.237	7422.56
907.551	7420.75
907.864	7347.98
908.177	7351.6
908.491	7343.01
908.804	7227.31
909.117	7221.21
909.43	7152.06
909.743	7125.62
910.056	7176.46
910.368	7077.26
910.681	7106.86
910.994	7069.12
911.307	7097.82
911.619	7036.58
911.932	6981.67
912.244	6948.9
912.557	6922.91
912.869	6863.93
913.181	6821.22
913.494	6864.83
913.806	6778.06
914.118	6794.1
914.43	6736.25
914.742	6721.79
915.054	6699.41
915.366	6687.21
915.678	6678.17
915.99	6666.19
916.302	6526.54
916.613	6553.43
916.925	6538.97
917.236	6504.84
917.548	6481.34
917.859	6466.88
918.171	6440.21
918.482	6410.83
918.794	6392.76
919.105	6397.28
919.416	6346.2
919.727	6263.04
920.038	6295.58
920.349	6284.28
920.66	6191.41
920.971	6235.7
921.282	6165.42
921.593	6148.24
921.903	6140.11
922.214	6145.53
922.525	6092.65
922.835	5999.55
923.146	6050.62
923.456	5966.33
923.767	5959.32
924.077	5977.63
924.387	5852.66
924.697	5908.7
925.008	5862.37
925.318	5891.75
925.628	5827.57
925.938	5828.48
926.248	5821.25
926.558	5738.54
926.867	5712.77
927.177	5719.55
927.487	5650.18
927.796	5661.48
928.106	5707.35
928.416	5609.5
928.725	5671.87
929.034	5585.77
929.344	5565.43
929.653	5566.34
929.962	5518.88
930.271	5529.95
930.581	5475.94
930.89	5449.5
931.199	5395.27
931.508	5360.69
931.817	5411.76
932.125	5402.5
932.434	5367.7
932.743	5328.15
933.051	5288.38
933.36	5300.58
933.669	5244.99
933.977	5188.04
934.286	5215.84
934.594	5217.19
934.902	5137.87
935.21	5169.51
935.519	5127.03
935.827	5096.74
936.135	5117.31
936.443	5036.86
936.751	5028.05
937.059	4965.45
937.367	5003.64
937.674	5014.71
937.982	4952.57
938.29	4962.06
938.597	4937.88
938.905	4883.87
939.213	4860.14
939.52	4840.93
939.827	4878.22
940.135	4793.7
940.442	4803.87
940.749	4768.62
941.056	4773.36
941.363	4742.63
941.67	4718.9
941.977	4707.38
942.284	4653.59
942.591	4607.72
942.898	4630.99
943.205	4588.06
943.511	4617.66
943.818	4554.84
944.125	4494.95
944.431	4524.33
944.738	4512.58
945.044	4470.32
945.35	4484.78
945.657	4444.11
945.963	4454.28
946.269	4367.95
946.575	4403.2
946.881	4373.6
947.187	4368.18
947.493	4329.53
947.799	4323.88
948.105	4306.48
948.41	4271.91
948.716	4290.89
949.022	4226.71
949.327	4250.67
949.633	4220.38
949.938	4212.25
950.244	4192.81
950.549	4130.67
950.854	4139.03
951.16	4112.14
951.465	4081.86
951.77	4094.51
952.075	4078.24
952.38	4080.5
952.685	4037.11
952.99	4047.05
953.294	4029.43
953.599	4030.78
953.904	3964.34
954.209	3958.7
954.513	3947.85
954.818	3915.98
955.122	3950.79
955.426	3882.31
955.731	3914.18
956.035	3862.43
956.339	3883.67
956.643	3849.77
956.948	3791.47
957.252	3801.19
957.556	3806.38
957.86	3761.41
958.163	3753.95
958.467	3754.63
958.771	3704.69
959.075	3720.06
959.378	3675.76
959.682	3680.74
959.985	3640.96
960.289	3685.71
960.592	3629.66
960.896	3631.7
961.199	3564.81
961.502	3568.65
961.805	3564.36
962.108	3548.31
962.411	3540.63
962.714	3505.15
963.017	3489.56
963.32	3515.54
963.623	3476
963.926	3418.82
964.228	3402.78
964.531	3405.26
964.833	3405.26
965.136	3365.94
965.438	3343.34
965.741	3338.6
966.043	3325.72
966.345	3356.68
966.648	3311.48
966.95	3286.62
967.252	3255.89
967.554	3266.51
967.856	3223.57
968.158	3235.1
968.46	3211.14
968.761	3230.35
969.063	3216.12
969.365	3209.34
969.666	3210.24
969.968	3168.89
970.269	3101.99
970.571	3105.16
970.872	3111.49
971.174	3097.93
971.475	3082.79
971.776	3102.45
972.077	3068.32
972.378	3033.75
972.679	3049.34
972.98	3022.45
973.281	3017.25
973.582	2979.96
973.883	2992.39
974.183	2979.06
974.484	2948.78
974.785	2956.69
975.085	2960.53
975.386	2953.98
975.686	2912.85
975.986	2892.51
976.287	2901.77
976.587	2838.5
976.887	2875.56
977.187	2860.19
977.487	2858.61
977.787	2828.78
978.087	2798.73
978.387	2820.65
978.687	2817.71
978.987	2772.51
979.286	2750.37
979.586	2760.76
979.885	2766.18
980.185	2724.6
980.484	2692.51
980.784	2720.08
981.083	2693.19
981.382	2665.62
981.682	2674.21
981.981	2658.62
982.28	2647.09
982.579	2636.92
982.878	2614.32
983.177	2603.93
983.475	2645.06
983.774	2578.84
984.073	2548.34
984.372	2538.85
984.67	2536.36
984.969	2529.13
985.267	2549.24
985.566	2530.94
985.864	2513.08
986.162	2469.47
986.461	2502.46
986.759	2474.89
987.057	2446.87
987.355	2408.91
987.653	2453.88
987.951	2421.79
988.249	2451.16
988.547	2401.9
988.844	2401.67
989.142	2400.54
989.44	2362.81
989.737	2368.45
990.035	2333.88
990.332	2387.89
990.63	2330.72
990.927	2338.85
991.224	2304.05
991.521	2307.44
991.819	2273.77
992.116	2277.38
992.413	2247.78
992.71	2270.83
993.006	2277.38
993.303	2236.48
993.6	2213.66
993.897	2243.49
994.193	2210.72
994.49	2182.24
994.787	2178.18
995.083	2196.03
995.379	2181.79
995.676	2173.43
995.972	2171.85
996.268	2155.58
996.565	2129.36
996.861	2101.8
997.157	2117.16
997.453	2084.85
997.749	2080.1
998.044	2071.51
998.34	2066.32
998.636	2058.18
998.932	2054.11
999.227	2018.63
999.523	2031.06
999.818	2001.68
1000.114	2001.01
1000.409	1997.62
1000.704	1990.39
1001	1934.57
1001.295	1950.84
1001.59	1939.54
1001.885	1947.45
1002.18	1946.77
1002.475	1911.97
1002.77	1866.55
1003.065	1927.34
1003.359	1893.21
1003.654	1892.76
1003.949	1855.47
1004.243	1879.2
1004.538	1819.09
1004.832	1854.8
1005.127	1812.99
1005.421	1811.18
1005.715	1805.31
1006.009	1794.68
1006.304	1807.79
1006.598	1784.29
1006.892	1770.73
1007.186	1748.58
1007.48	1743.61
1007.773	1744.74
1008.067	1747.91
1008.361	1738.87
1008.655	1716.49
1008.948	1714.23
1009.242	1694.8
1009.535	1692.54
1009.829	1681.02
1010.122	1662.71
1010.415	1635.59
1010.708	1647.34
1011.001	1640.56
1011.295	1622.26
1011.588	1582.49
1011.881	1606.89
1012.173	1605.08
1012.466	1572.09
1012.759	1570.74
1013.052	1575.71
1013.344	1557.85
1013.637	1563.28
1013.93	1543.39
1014.222	1493
1014.514	1559.44
1014.807	1493.9
1015.099	1531.41
1015.391	1502.94
1015.683	1494.35
1015.976	1486.44
1016.268	1460
1016.56	1455.71
1016.851	1450.74
1017.143	1455.03
1017.435	1426.33
1017.727	1433.79
1018.018	1433.34
1018.31	1428.37
1018.602	1407.8
1018.893	1383.4
1019.185	1398.31
1019.476	1399.21
1019.767	1358.31
1020.058	1368.71
1020.35	1335.71
1020.641	1325.77
1020.932	1349.27
1021.223	1330.74
1021.514	1330.06
1021.804	1299.33
1022.095	1309.27
1022.386	1304.53
1022.677	1273.12
1022.967	1266.11
1023.258	1303.4
1023.548	1260.46
1023.839	1228.82
1024.129	1239.9
1024.419	1223.4
1024.709	1237.18
1025	1219.56
1025.29	1231.31
1025.58	1182.95
1025.87	1189.5
1026.16	1218.2
1026.449	1161.71
1026.739	1183.85
1027.029	1158.77
1027.319	1169.16
1027.608	1168.26
1027.898	1159.9
1028.187	1127.81
1028.477	1138.2
1028.766	1129.62
1029.055	1132.55
1029.344	1089.39
1029.634	1103.4
1029.923	1081.03
1030.212	1062.27
1030.501	1080.8
1030.79	1086.91
1031.078	1060.47
1031.367	1062.05
1031.656	1064.08
1031.945	1044.87
1032.233	1037.42
1032.522	1045.33
1032.81	1030.41
1033.099	1006.23
1033.387	1005.33
1033.675	1008.49
1033.963	1014.82
1034.251	981.37
1034.54	1002.16
1034.828	984.08
1035.116	968.49
1035.403	950.19
1035.691	961.26
1035.979	928.72
1036.267	944.54
1036.554	955.38
1036.842	983.86
1037.129	934.14
1037.417	909.28
1037.704	923.07
1037.992	917.19
1038.279	932.11
1038.566	909.96
1038.853	909.96
1039.14	909.96
