Data from hue_130_FLMS001491_00059.txt Node
Date: Tue Feb 07 16:57:48 GMT 2017
User: dcchb
Spectrometer: FLMS00149
Trigger mode: 0
Integration Time (sec): 2.000000E-2
Scans to average: 10
Electric dark correction enabled: true
Nonlinearity correction enabled: false
Boxcar width: 0
XAxis mode: Wavelengths
Number of Pixels in Spectrum: 2048
>>>>>Begin Spectral Data<<<<<
341.393	-1.69
341.776	-1.69
342.16	-1.69
342.543	-41.69
342.927	-72.65
343.31	-64.07
343.693	-50.06
344.077	-52.54
344.46	-50.73
344.843	-52.54
345.226	-57.06
345.61	-36.5
345.993	-20.45
346.376	0.79
346.759	10.06
347.142	14.58
347.525	23.16
347.908	57.06
348.291	91.64
348.674	84.86
349.057	101.81
349.44	122.37
349.823	160.33
350.206	181.13
350.588	198.3
350.971	214.57
351.354	224.97
351.737	242.59
352.119	256.6
352.502	267.9
352.884	248.02
353.267	289.6
353.65	307
354.032	308.13
354.414	304.74
354.797	317.39
355.179	325.08
355.562	308.13
355.944	321.69
356.326	321.01
356.709	326.21
357.091	331.18
357.473	383.38
357.855	354
358.238	334.12
358.62	356.49
359.002	355.36
359.384	330.5
359.766	336.83
360.148	329.14
360.53	350.84
360.912	347.22
361.294	349.93
361.676	317.84
362.057	332.08
362.439	343.15
362.821	336.6
363.203	326.88
363.584	321.23
363.966	347.45
364.348	338.86
364.729	324.62
365.111	322.36
365.493	324.17
365.874	320.1
366.256	336.6
366.637	301.35
367.019	335.25
367.4	305.64
367.781	318.3
368.163	315.36
368.544	302.03
368.925	312.87
369.306	311.97
369.688	340.44
370.069	321.46
370.45	329.82
370.831	328.24
371.212	319.43
371.593	332.53
371.974	319.43
372.355	317.84
372.736	323.04
373.117	302.7
373.498	312.2
373.879	315.81
374.26	335.92
374.641	316.71
375.021	321.23
375.402	314
375.783	337.51
376.163	344.28
376.544	334.12
376.925	336.83
377.305	345.41
377.686	339.31
378.066	336.83
378.447	330.5
378.827	335.7
379.208	348.13
379.588	343.83
379.968	335.92
380.349	348.35
380.729	361.46
381.109	344.96
381.489	321.91
381.87	342.48
382.25	340.44
382.63	353.78
383.01	348.58
383.39	345.87
383.77	332.99
384.15	348.58
384.53	371.63
384.91	346.54
385.29	374.57
385.67	362.36
386.049	361.46
386.429	387.9
386.809	371.18
387.189	374.34
387.568	362.14
387.948	358.3
388.328	388.13
388.707	365.98
389.087	377.5
389.466	364.85
389.846	386.32
390.225	371.63
390.605	367.11
390.984	390.39
391.363	384.51
391.743	415.47
392.122	376.15
392.501	372.08
392.881	372.08
393.26	402.36
393.639	388.13
394.018	394.45
394.397	394.68
394.776	373.21
395.155	381.35
395.534	389.03
395.913	380.22
396.292	400.33
396.671	413.89
397.05	390.84
397.429	423.83
397.808	398.97
398.186	398.29
398.565	418.18
398.944	396.49
399.323	401.91
399.701	426.54
400.08	419.09
400.458	407.56
400.837	413.89
401.215	420.89
401.594	402.81
401.972	400.33
402.351	406.2
402.729	436.26
403.107	434.45
403.486	438.52
403.864	436.03
404.242	441.91
404.62	441.23
404.999	434
405.377	459.54
405.755	426.32
406.133	437.16
406.511	436.49
406.889	429.25
407.267	461.34
407.645	448.01
408.023	457.73
408.401	446.65
408.779	439.65
409.156	455.24
409.534	469.71
409.912	464.51
410.29	478.29
410.667	472.19
411.045	483.72
411.422	473.55
411.8	492.53
412.178	482.13
412.555	487.11
412.933	510.38
413.31	487.56
413.687	488.24
414.065	500.44
414.442	520.78
414.819	536.6
415.197	535.47
415.574	523.72
415.951	525.52
416.328	520.33
416.705	540.89
417.082	542.25
417.46	521.46
417.837	542.92
418.214	503.15
418.591	545.64
418.967	544.96
419.344	539.08
419.721	545.41
420.098	551.06
420.475	554
420.852	562.36
421.228	575.69
421.605	572.3
421.982	555.8
422.358	556.93
422.735	575.24
423.111	560.55
423.488	604.16
423.864	600.55
424.241	604.62
424.617	610.04
424.994	617.5
425.37	607.1
425.746	630.38
426.123	616.82
426.499	619.98
426.875	633.09
427.251	611.4
427.627	637.16
428.003	634.45
428.379	663.37
428.756	652.75
429.132	639.42
429.507	643.94
429.883	670.15
430.259	668.34
430.635	678.74
431.011	663.37
431.387	697.72
431.763	689.59
432.138	693.43
432.514	713.54
432.89	697.5
433.265	734.78
433.641	709.47
434.016	744.05
434.392	746.99
434.767	745.18
435.143	750.38
435.518	776.14
435.894	756.7
436.269	753.54
436.644	771.62
437.02	764.61
437.395	788.79
437.77	806.42
438.145	783.14
438.52	807.32
438.895	821.79
439.271	821.79
439.646	838.96
440.021	843.48
440.395	839.64
440.77	828.57
441.145	843.71
441.52	857.72
441.895	873.31
442.27	871.95
442.645	872.86
443.019	890.49
443.394	854.78
443.769	889.81
444.143	879.41
444.518	905.4
444.892	894.1
445.267	891.16
445.641	925.29
446.016	904.5
446.39	896.36
446.764	927.55
447.139	917.15
447.513	962.12
447.887	932.07
448.262	942.01
448.636	938.17
449.01	933.42
449.384	972.06
449.758	957.38
450.132	982.23
450.506	1000.09
450.88	1000.99
451.254	999.41
451.628	1022.91
452.002	1024.94
452.376	1006.41
452.75	1032.4
453.123	1045.28
453.497	1060.88
453.871	1061.33
454.244	1067.66
454.618	1091.84
454.992	1084.83
455.365	1109.69
455.739	1124.83
456.112	1141.33
456.486	1147.2
456.859	1161.21
457.232	1190.59
457.606	1160.99
457.979	1171.38
458.352	1187.43
458.725	1238.95
459.099	1230.14
459.472	1249.35
459.845	1267.2
460.218	1287.31
460.591	1309.68
460.964	1326.18
461.337	1328.44
461.71	1390.58
462.083	1372.28
462.456	1371.15
462.829	1379.29
463.201	1401.66
463.574	1412.96
463.947	1433.75
464.32	1476.68
464.692	1480.3
465.065	1502.67
465.438	1528.21
465.81	1538.38
466.183	1527.53
466.555	1586.96
466.928	1617.47
467.3	1617.25
467.672	1646.17
468.045	1685.72
468.417	1706.51
468.789	1721.42
469.161	1761.65
469.534	1797.13
469.906	1808.88
470.278	1836.9
470.65	1889.55
471.022	1906.96
471.394	1982.89
471.766	1969.55
472.138	2033.28
472.51	2066.95
472.882	2092.71
473.253	2125.93
473.625	2165.93
473.997	2223.56
474.369	2245.93
474.74	2273.05
475.112	2383.33
475.484	2379.94
475.855	2504
476.227	2505.36
476.598	2597.33
476.97	2628.07
477.341	2715.52
477.713	2797.1
478.084	2836.42
478.455	2916.42
478.827	2976.08
479.198	3093.82
479.569	3176.53
479.94	3263.76
480.311	3322.29
480.682	3456.75
481.053	3527.93
481.424	3593.69
481.795	3679.56
482.166	3804.53
482.537	3911.2
482.908	4002.27
483.279	4076.62
483.65	4219.44
484.021	4319.55
484.391	4428.92
484.762	4531.07
485.133	4597.28
485.503	4779.65
485.874	4879.98
486.244	4969.93
486.615	5130.15
486.985	5296.24
487.356	5433.42
487.726	5525.62
488.097	5708.66
488.467	5753.86
488.837	5952.5
489.207	6101.42
489.578	6248.76
489.948	6352.04
490.318	6478.59
490.688	6610.79
491.058	6809.88
491.428	6939.14
491.798	7064.79
492.168	7324.21
492.538	7356.53
492.908	7568.95
493.278	7737.08
493.648	7752.68
494.017	7911.32
494.387	8081.93
494.757	8261.82
495.126	8345.2
495.496	8454.35
495.866	8559.44
496.235	8749.94
496.605	8898.86
496.974	8993.1
497.344	9187.22
497.713	9284.84
498.082	9356.7
498.452	9537.72
498.821	9619.3
499.19	9703.36
499.559	9846.63
499.928	9985.16
500.298	10047.76
500.667	10198.04
501.036	10252.72
501.405	10394.64
501.774	10490.46
502.143	10644.58
502.512	10684.58
502.88	10817.68
503.249	10848.64
503.618	10965.25
503.987	11073.49
504.356	11200.04
504.724	11219.48
505.093	11359.59
505.462	11364.56
505.83	11484.56
506.199	11588.28
506.567	11773.59
506.936	11767.94
507.304	11958.22
507.672	11951.66
508.041	12125.22
508.409	12198.66
508.777	12319.56
509.145	12346.91
509.514	12375.15
509.882	12446.79
510.25	12524.98
510.618	12516.17
510.986	12563.4
511.354	12709.61
511.722	12862.15
512.09	12891.53
512.458	12837.52
512.826	13016.04
513.193	13085.42
513.561	13085.87
513.929	13169.26
514.297	13276.6
514.664	13318.18
515.032	13305.07
515.4	13532.19
515.767	13493.09
516.135	13455.35
516.502	13363.83
516.869	13663.93
517.237	13674.1
517.604	13651.05
517.972	13776.7
518.339	13775.12
518.706	13772.86
519.073	13889.01
519.44	13887.43
519.808	13946.19
520.175	13905.74
520.542	14039.97
520.909	14024.38
521.276	14026.41
521.643	14200.64
522.009	14209.46
522.376	14180.98
522.743	14261.43
523.11	14484.48
523.477	14476.34
523.843	14474.76
524.21	14595.21
524.577	14638.15
524.943	14678.15
525.31	14719.73
525.676	14737.58
526.043	14742.55
526.409	14785.94
526.776	14867.29
527.142	14851.93
527.508	14857.8
527.874	14869.1
528.241	14880.63
528.607	14933.73
528.973	15018.48
529.339	14993.62
529.705	15061.19
530.071	15085.14
530.437	15111.13
530.803	15131.24
531.169	15133.95
531.535	14995.65
531.901	15025.25
532.267	14983.22
532.632	15054.63
532.998	15019.38
533.364	15149.32
533.73	15141.86
534.095	15087.4
534.461	15079.26
534.826	15150.9
535.192	15120.17
535.557	15179.83
535.923	15102.99
536.288	15067.97
536.653	15065.03
537.019	14976.22
537.384	14968.31
537.749	14998.14
538.114	14945.48
538.479	14895.99
538.845	14910.91
539.21	14799.27
539.575	14855.09
539.94	14821.64
540.305	14868.2
540.67	14724.92
541.034	14816.45
541.399	14747.52
541.764	14643.34
542.129	14741.65
542.494	14700.74
542.858	14668.65
543.223	14708.2
543.587	14616
543.952	14524.93
544.316	14536.45
544.681	14472.5
545.045	14583.01
545.41	14537.81
545.774	14506.85
546.138	14488.32
546.503	14407.87
546.867	14372.62
547.231	14459.17
547.595	14313.18
547.959	14376.01
548.324	14279.29
548.688	14298.49
549.052	14231.38
549.416	14180.08
549.779	14140.53
550.143	14117.03
550.507	14103.92
550.871	14111.38
551.235	14001.1
551.599	14073.64
551.962	14053.08
552.326	13995.68
552.689	14051.49
553.053	13909.58
553.417	13883.59
553.78	14020.99
554.143	13913.65
554.507	13873.87
554.87	13931.5
555.234	13998.61
555.597	13824.61
555.96	13886.08
556.323	13775.57
556.686	13828.22
557.05	13884.95
557.413	13811.5
557.776	13777.15
558.139	13835.23
558.502	13792.97
558.865	13817.83
559.228	13810.6
559.59	13662.13
559.953	13771.5
560.316	13858.28
560.679	13869.13
561.041	13902.8
561.404	13877.71
561.767	13844.04
562.129	13825.29
562.492	13881.56
562.854	13811.28
563.217	13864.16
563.579	13970.37
563.941	13935.34
564.304	13984.6
564.666	13985.73
565.028	14017.15
565.39	14027.09
565.753	14003.81
566.115	14069.35
566.477	14043.13
566.839	14118.61
567.201	14175.79
567.563	14055.11
567.925	14199.74
568.287	14127.43
568.648	14144.37
569.01	14150.93
569.372	14304.37
569.734	14128.78
570.095	14156.8
570.457	14152.28
570.819	14230.02
571.18	14193.19
571.542	14275.67
571.903	14206.07
572.265	14387.31
572.626	14323.35
572.987	14216.69
573.349	14309.79
573.71	14355.89
574.071	14314.99
574.432	14403.58
574.794	14399.28
575.155	14458.72
575.516	14371.03
575.877	14469.11
576.238	14486.96
576.599	14467.76
576.96	14393.86
577.32	14403.12
577.681	14415.78
578.042	14505.04
578.403	14407.64
578.763	14532.16
579.124	14548.66
579.485	14550.24
579.845	14479.28
580.206	14460.52
580.566	14563.12
580.927	14504.82
581.287	14527.87
581.648	14524.93
582.008	14602.89
582.368	14526.06
582.728	14563.35
583.089	14513.18
583.449	14454.42
583.809	14478.6
584.169	14515.66
584.529	14426.85
584.889	14501.2
585.249	14429.34
585.609	14417.36
585.969	14551.59
586.329	14446.74
586.688	14480.86
587.048	14433.41
587.408	14407.64
587.768	14371.71
588.127	14413.29
588.487	14428.43
588.846	14439.73
589.206	14232.96
589.565	14414.42
589.925	14419.62
590.284	14393.86
590.643	14352.73
591.003	14428.89
591.362	14429.79
591.721	14305.5
592.08	14393.63
592.44	14410.13
592.799	14454.87
593.158	14308.44
593.517	14370.36
593.876	14333.07
594.235	14293.3
594.593	14308.66
594.952	14291.49
595.311	14138.72
595.67	14237.25
596.029	14305.05
596.387	14341.43
596.746	14334.88
597.104	14124.04
597.463	14232.96
597.822	14255.33
598.18	14165.16
598.538	14155
598.897	14258.04
599.255	14203.36
599.613	14279.29
599.972	14238.83
600.33	14267.99
600.688	14131.94
601.046	14249
601.404	14306.18
601.762	14249
602.12	14293.75
602.478	14244.03
602.836	14336.91
603.194	14208.1
603.552	14241.55
603.91	14212.17
604.268	14191.6
604.625	14255.56
604.983	14287.42
605.341	14187.31
605.698	14285.39
606.056	14324.71
606.413	14261.66
606.771	14293.52
607.128	14298.27
607.485	14266.86
607.843	14283.35
608.2	14308.89
608.557	14339.62
608.914	14291.94
609.272	14319.06
609.629	14359.96
609.986	14426.4
610.343	14334.43
610.7	14420.3
611.057	14399.06
611.414	14372.84
611.771	14435.89
612.127	14427.98
612.484	14450.35
612.841	14514.76
613.198	14490.35
613.554	14459.39
613.911	14492.61
614.267	14539.62
614.624	14493.74
614.98	14460.52
615.337	14587.07
615.693	14548.66
616.05	14508.43
616.406	14654.19
616.762	14591.82
617.118	14631.82
617.475	14597.24
617.831	14668.88
618.187	14696.68
618.543	14706.84
618.899	14748.88
619.255	14603.57
619.611	14632.72
619.967	14684.02
620.323	14771.02
620.678	14702.78
621.034	14698.03
621.39	14642.89
621.746	14627.07
622.101	14787.52
622.457	14751.82
622.812	14718.37
623.168	14730.57
623.523	14738.93
623.879	14781.65
624.234	14630.01
624.589	14625.94
624.945	14798.82
625.3	14822.77
625.655	14643.57
626.01	14670.69
626.365	14738.93
626.72	14702.55
627.075	14674.53
627.43	14723.34
627.785	14710.91
628.14	14644.47
628.495	14697.58
628.85	14572.84
629.205	14655.32
629.559	14678.37
629.914	14637.02
630.269	14618.94
630.623	14583.68
630.978	14523.57
631.332	14606.96
631.687	14635.21
632.041	14583.46
632.396	14631.14
632.75	14522.67
633.104	14583.01
633.459	14530.8
633.813	14490.35
634.167	14503.01
634.521	14555.89
634.875	14551.37
635.229	14490.35
635.583	14452.39
635.937	14418.94
636.291	14401.54
636.645	14437.93
636.999	14303.47
637.352	14349.79
637.706	14259.63
638.06	14342.56
638.413	14275.22
638.767	14263.69
639.121	14294.2
639.474	14133.98
639.828	14202
640.181	14292.39
640.534	14199.97
640.888	14210.36
641.241	14132.62
641.594	14200.64
641.947	14208.55
642.301	14134.2
642.654	14144.83
643.007	14166.07
643.36	14144.83
643.713	14091.04
644.066	14097.14
644.419	14099.18
644.771	13961.1
645.124	13839.07
645.477	13886.53
645.83	13740.09
646.182	13684.72
646.535	13613.31
646.888	13740.32
647.24	13557.95
647.593	13709.81
647.945	13653.54
648.298	13583.48
648.65	13517.27
649.002	13538.06
649.355	13575.58
649.707	13628.68
650.059	13625.29
650.411	13830.03
650.763	13778.28
651.115	13863.48
651.467	13834.78
651.819	13877.04
652.171	13858.73
652.523	13804.72
652.875	13875
653.227	13784.38
653.578	13945.51
653.93	13933.08
654.282	13832.74
654.633	13764.95
654.985	13867.54
655.337	13855.79
655.688	13813.99
656.039	13947.99
656.391	13831.16
656.742	13802.01
657.094	13808.34
657.445	13897.37
657.796	13879.07
658.147	13817.6
658.498	13888.11
658.849	13955
659.2	13857.15
659.551	13830.94
659.902	13918.17
660.253	13907.32
660.604	13909.13
660.955	13783.03
661.306	13907.32
661.656	13923.59
662.007	13945.96
662.358	14004.04
662.708	13875.45
663.059	13934.21
663.409	13847.21
663.76	13950.48
664.11	13919.52
664.461	14001.33
664.811	13933.31
665.161	13928.56
665.511	13902.35
665.862	13974.66
666.212	13941.67
666.562	13948.67
666.912	14027.09
667.262	13879.75
667.612	13913.19
667.962	13931.5
668.312	13988.9
668.662	14047.2
669.011	13913.87
669.361	14000.2
669.711	13949.35
670.06	13897.6
670.41	13893.31
670.76	13817.15
671.109	13906.64
671.459	13912.97
671.808	13883.82
672.157	13854.21
672.507	13837.94
672.856	13852.4
673.205	13844.27
673.554	13844.04
673.904	13826.19
674.253	13920.88
674.602	13799.07
674.951	13564.5
675.3	13525.41
675.649	13751.84
675.998	13745.51
676.346	13707.1
676.695	13787.32
677.044	13712.75
677.393	13618.06
677.741	13639.53
678.09	13659.64
678.438	13588.68
678.787	13646.76
679.135	13674.1
679.484	13641.56
679.832	13655.35
680.181	13525.63
680.529	13595.46
680.877	13462.81
681.225	13475.24
681.573	13513.88
681.922	13477.05
682.27	13403.38
682.618	13385.07
682.966	13362.93
683.314	13355.47
683.661	13369.48
684.009	13268.46
684.357	13221.69
684.705	13238.41
685.053	13241.8
685.4	13198.41
685.748	13135.81
686.095	13154.12
686.443	13079.54
686.79	13075.02
687.138	13095.81
687.485	13103.05
687.832	13028.7
688.18	13031.18
688.527	12890.17
688.874	12933.33
689.221	12848.36
689.568	12905.31
689.915	12782.15
690.262	12848.14
690.609	12790.06
690.956	12698.08
691.303	12630.97
691.65	12585.09
691.997	12593.23
692.344	12536.73
692.69	12493.34
693.037	12497.19
693.383	12377.19
693.73	12425.1
694.077	12406.57
694.423	12345.33
694.769	12218.1
695.116	12131.32
695.462	12256.29
695.808	12159.34
696.155	12181.49
696.501	12050.42
696.847	12111.21
697.193	11993.24
697.539	11911.89
697.885	11889.74
698.231	11853.81
698.577	11879.12
698.923	11889.74
699.269	11802.97
699.614	11743.08
699.96	11676.87
700.306	11686.13
700.651	11581.5
700.997	11540.15
701.342	11506.7
701.688	11496.99
702.033	11370.89
702.379	11428.06
702.724	11357.55
703.069	11372.92
703.415	11306.03
703.76	11265.35
704.105	11322.53
704.45	11225.81
704.795	11129.99
705.14	11162.08
705.485	11113.49
705.83	10980.39
706.175	11078.47
706.52	11043.44
706.865	11014.74
707.209	11037.56
707.554	10940.84
707.899	10857.91
708.243	10885.48
708.588	10851.58
708.932	10748.3
709.277	10722.09
709.621	10725.48
709.966	10702.66
710.31	10706.95
710.654	10650.45
710.998	10655.2
711.342	10641.64
711.687	10591.25
712.031	10561.42
712.375	10453.4
712.719	10568.87
713.063	10470.12
713.407	10528.65
713.75	10434.64
714.094	10411.59
714.438	10353.29
714.782	10376.56
715.125	10316.68
715.469	10343.34
715.812	10306.51
716.156	10245.04
716.499	10247.75
716.843	10258.6
717.186	10208.66
717.53	10264.25
717.873	10240.97
718.216	10223.12
718.559	10129.56
718.902	10161.88
719.246	10048.66
719.589	10086.85
719.932	10047.08
720.275	10062.45
720.617	10133.18
720.96	10013.64
721.303	10044.14
721.646	10017.7
721.989	10021.09
722.331	10034.43
722.674	9961.43
723.016	9999.85
723.359	9958.27
723.701	9987.42
724.044	9967.99
724.386	9876.01
724.729	9959.85
725.071	9926.41
725.413	9894.99
725.755	9934.32
726.097	9867.88
726.439	9782
726.782	9813.64
727.124	9901.55
727.465	9820.42
727.807	9831.04
728.149	9778.16
728.491	9802.79
728.833	9775.45
729.175	9787.65
729.516	9830.59
729.858	9731.16
730.199	9817.93
730.541	9776.58
730.882	9777.71
731.224	9793.08
731.565	9661.55
731.906	9732.74
732.248	9723.25
732.589	9714.21
732.93	9721.44
733.271	9672.85
733.612	9674.21
733.953	9731.38
734.294	9671.72
734.635	9682.8
734.976	9707.43
735.317	9652.51
735.658	9739.97
735.999	9668.11
736.339	9709.24
736.68	9753.98
737.021	9709.91
737.361	9745.85
737.702	9733.64
738.042	9751.04
738.383	9694.32
738.723	9688.45
739.063	9737.48
739.404	9804.83
739.744	9738.39
740.084	9774.09
740.424	9813.64
740.764	9851.83
741.104	9892.51
741.444	9833.07
741.784	9839.63
742.124	9875.56
742.464	9932.96
742.804	9882.57
743.143	9833.3
743.483	9931.15
743.823	9917.37
744.162	9926.63
744.502	9992.39
744.841	10015.67
745.181	10014.31
745.52	10022.45
745.86	10123.69
746.199	10172.95
746.538	10213.18
746.877	10224.25
747.216	10310.58
747.556	10299.5
747.895	10380.18
748.234	10344.7
748.573	10365.49
748.911	10451.36
749.25	10603.68
749.589	10564.13
749.928	10707.18
750.267	10698.59
750.605	10773.39
750.944	10849.55
751.283	10900.62
751.621	11022.87
751.96	11069.88
752.298	11143.55
752.636	11211.57
752.975	11405.69
753.313	11353.03
753.651	11607.49
753.989	11655.4
754.327	11791.67
754.666	11858.56
755.004	12028.72
755.342	12129.06
755.679	12248.15
756.017	12359.11
756.355	12533.34
756.693	12658.31
757.031	12833
757.368	12973.33
757.706	13007.68
758.044	13095.36
758.381	13351.63
758.719	13510.72
759.056	13718.62
759.394	13881.1
759.731	13947.09
760.068	14073.19
760.405	14232.06
760.743	14356.12
761.08	14615.32
761.417	14673.85
761.754	14799.95
762.091	15076.1
762.428	15121.52
762.765	15315.19
763.102	15568.97
763.438	15607.39
763.775	15750.89
764.112	15958.34
764.449	16157.2
764.785	16257.99
765.122	16340.47
765.458	16549.06
765.795	16665.44
766.131	16863.85
766.467	16959.22
766.804	17042.6
767.14	17251.86
767.476	17321.01
767.812	17537.5
768.148	17686.43
768.485	17673.09
768.821	17797.39
769.157	17868.12
769.492	18095.23
769.828	18218.62
770.164	18184.04
770.5	18295.45
770.836	18435.33
771.171	18520.76
771.507	18581.55
771.842	18589.68
772.178	18737.7
772.513	18826.06
772.849	18906.73
773.184	19000.52
773.519	19077.58
773.855	19110.34
774.19	19084.58
774.525	19236.44
774.86	19336.78
775.195	19387.63
775.53	19405.48
775.865	19415.2
776.2	19323.45
776.535	19347.4
776.87	19464.91
777.205	19474.86
777.539	19548.53
777.874	19518.7
778.209	19486.38
778.543	19567.06
778.878	19529.09
779.212	19581.75
779.547	19605.02
779.881	19699.03
780.215	19520.28
780.55	19655.87
780.884	19641.86
781.218	19561.41
781.552	19632.59
781.886	19557.34
782.22	19652.03
782.554	19547.4
782.888	19518.7
783.222	19485.02
783.556	19480.73
783.889	19491.8
784.223	19402.09
784.557	19373.16
784.89	19447.74
785.224	19388.98
785.557	19379.26
785.891	19276.89
786.224	19374.07
786.558	19344.69
786.891	19313.05
787.224	19152.6
787.557	19279.15
787.891	19195.77
788.224	19116.22
788.557	19195.99
788.89	19192.15
789.223	19124.13
789.556	19108.54
789.888	19114.86
790.221	18982.44
790.554	18888.88
790.887	18915.55
791.219	18795.78
791.552	18854.53
791.884	18845.27
792.217	18861.76
792.549	18763.91
792.882	18720.75
793.214	18542.9
793.546	18667.19
793.879	18526.41
794.211	18499.97
794.543	18538.83
794.875	18469.23
795.207	18520.98
795.539	18454.54
795.871	18536.57
796.203	18326.86
796.535	18219.52
796.867	18255.68
797.198	18141.1
797.53	18160.77
797.862	18001.45
798.193	18074.67
798.525	17973.43
798.856	18041.22
799.188	17824.5
799.519	17832.86
799.85	17757.61
800.182	17797.39
800.513	17779.31
800.844	17705.86
801.175	17646.65
801.506	17615.92
801.837	17600.55
802.168	17549.26
802.499	17569.59
802.83	17493.21
803.161	17369.6
803.491	17330.96
803.822	17369.15
804.153	17334.57
804.483	17176.61
804.814	17107.91
805.145	17156.5
805.475	17132.77
805.805	17115.82
806.136	17052.32
806.466	17088.25
806.796	17036.5
807.126	16902.49
807.457	16886
807.787	16880.35
808.117	16819.78
808.447	16701.82
808.777	16815.72
809.107	16754.47
809.436	16589.28
809.766	16705.44
810.096	16617.3
810.426	16537.31
810.755	16590.41
811.085	16530.53
811.414	16449.17
811.744	16403.07
812.073	16369.85
812.403	16424.99
812.732	16257.76
813.061	16286.92
813.39	16196.52
813.719	16137.32
814.049	16221.83
814.378	16138.22
814.707	16038.79
815.036	16033.36
815.365	15982.97
815.693	15825.91
816.022	15933.25
816.351	15901.39
816.68	15771
817.008	15935.06
817.337	15741.39
817.665	15670.21
817.994	15740.94
818.322	15685.58
818.651	15602.41
818.979	15604.45
819.307	15650.1
819.636	15577.33
819.964	15449.88
820.292	15536.2
820.62	15573.71
820.948	15510.89
821.276	15603.77
821.604	15499.37
821.932	15401.74
822.259	15539.14
822.587	15440.84
822.915	15479.48
823.243	15536.2
823.57	15433.15
823.898	15485.58
824.225	15394.06
824.553	15372.82
824.88	15505.69
825.207	15526.71
825.535	15509.54
825.862	15590.66
826.189	15488.52
826.516	15541.63
826.843	15554.73
827.17	15526.03
827.497	15564.45
827.824	15530.55
828.151	15528.29
828.478	15564.68
828.805	15538.91
829.131	15582.3
829.458	15539.14
829.785	15451.23
830.111	15404.91
830.438	15496.43
830.764	15432.02
831.09	15520.38
831.417	15377.56
831.743	15543.43
832.069	15439.93
832.395	15364.91
832.722	15474.28
833.048	15417.56
833.374	15396.09
833.7	15378.69
834.026	15319.26
834.351	15379.14
834.677	15338.24
835.003	15383.89
835.329	15368.3
835.654	15234.29
835.98	15269.99
836.306	15253.27
836.631	15292.14
836.956	15357.45
837.282	15331.46
837.607	15221.18
837.932	15122.65
838.258	15178.7
838.583	15169.43
838.908	15003.79
839.233	15094.41
839.558	15003.11
839.883	15001.75
840.208	14931.92
840.533	15044.24
840.858	14992.49
841.182	15044.92
841.507	14938.7
841.832	14920.17
842.156	14870.23
842.481	14796.56
842.805	14796.56
843.13	14837.24
843.454	14775.09
843.778	14712.95
844.103	14757.01
844.427	14578.26
844.751	14656.9
845.075	14635.89
845.399	14510.92
845.723	14417.59
846.047	14482.9
846.371	14343.92
846.695	14395.67
847.019	14270.25
847.343	14138.27
847.666	14160.64
847.99	14070.48
848.313	14085.62
848.637	14020.31
848.96	13943.25
849.284	13944.38
849.607	13818.28
849.931	13825.06
850.254	13729.47
850.577	13643.37
850.9	13578.06
851.223	13510.94
851.546	13448.57
851.869	13399.08
852.192	13504.39
852.515	13319.54
852.838	13226.66
853.161	13263.72
853.483	13213.55
853.806	13181.91
854.129	13064.85
854.451	13052.43
854.774	12935.82
855.096	12981.01
855.419	12951.86
855.741	12961.81
856.063	12768.82
856.385	12720
856.708	12770.4
857.03	12714.58
857.352	12736.28
857.674	12609.95
857.996	12660.35
858.318	12597.07
858.64	12511.87
858.961	12548.48
859.283	12476.85
859.605	12379.67
859.926	12420.35
860.248	12352.1
860.57	12387.81
860.891	12386.68
861.212	12226.68
861.534	12241.37
861.855	12224.2
862.176	12233.24
862.498	12226.01
862.819	12153.69
863.14	12188.95
863.461	12129.51
863.782	12080.47
864.103	12050.42
864.424	12053.58
864.745	12023.3
865.065	11915.28
865.386	11890.42
865.707	11924.32
866.027	11911.89
866.348	11884.55
866.668	11965.67
866.989	11833.7
867.309	11845.23
867.63	11851.1
867.95	11753.25
868.27	11627.15
868.59	11752.12
868.91	11770.88
869.23	11741.95
869.55	11731.78
869.87	11742.63
870.19	11617.89
870.51	11669.64
870.83	11714.16
871.15	11527.72
871.469	11673.03
871.789	11636.19
872.109	11549.64
872.428	11475.07
872.748	11466.93
873.067	11447.27
873.386	11471
873.706	11448.17
874.025	11416.31
874.344	11378.34
874.663	11444.56
874.982	11253.6
875.301	11387.61
875.62	11292.92
875.939	11268.52
876.258	11327.72
876.577	11245.47
876.896	11267.39
877.214	11212.25
877.533	11206.37
877.852	11181.29
878.17	11145.36
878.489	11204.11
878.807	11219.48
879.125	11153.04
879.444	11068.75
879.762	11147.62
880.08	11135.41
880.398	11057.45
880.716	11083.44
881.034	11037.79
881.352	11052.93
881.67	10996.43
881.988	11018.13
882.306	10939.26
882.624	10922.54
882.941	10867.62
883.259	10882.76
883.577	10887.06
883.894	10768.42
884.212	10791.92
884.529	10750.34
884.846	10705.14
885.164	10746.05
885.481	10696.33
885.798	10705.59
886.115	10537.69
886.432	10560.97
886.75	10522.77
887.067	10590.57
887.383	10572.49
887.7	10502.44
888.017	10454.53
888.334	10479.39
888.651	10424.92
888.967	10442.1
889.284	10370.69
889.6	10371.14
889.917	10290.92
890.233	10300.86
890.55	10196.23
890.866	10217.02
891.182	10152.16
891.498	10189.45
891.815	10157.59
892.131	10066.51
892.447	10133.86
892.763	10061.32
893.079	10011.15
893.395	9944.94
893.71	10001.43
894.026	9966.86
894.342	9882.57
894.657	9848.44
894.973	9864.71
895.289	9778.84
895.604	9827.88
895.92	9759.63
896.235	9701.33
896.55	9729.12
896.865	9659.29
897.181	9600.09
897.496	9561.44
897.811	9552.18
898.126	9523.48
898.441	9462.46
898.756	9456.81
899.071	9385.85
899.386	9395.12
899.7	9267.67
900.015	9318.06
900.33	9193.09
900.644	9103.83
900.959	9218.85
901.273	9139.76
901.588	9068.12
901.902	9023.6
902.216	9040.1
902.531	8998.97
902.845	8961.91
903.159	8881.01
903.473	8931.63
903.787	8869.48
904.101	8820.22
904.415	8885.76
904.729	8727.12
905.042	8738.64
905.356	8733.89
905.67	8656.61
905.984	8724.18
906.297	8610.96
906.611	8570.51
906.924	8596.5
907.237	8506.1
907.551	8474.69
907.864	8479.66
908.177	8416.61
908.491	8391.3
908.804	8383.62
909.117	8288.93
909.43	8259.33
909.743	8240.57
910.056	8199.22
910.368	8171.2
910.681	8098.21
910.994	8105.89
911.307	8055.27
911.619	8028.83
911.932	8003.74
912.244	7980.47
912.557	7985.44
912.869	7938.44
913.181	7846.23
913.494	7920.13
913.806	7832
914.118	7776.18
914.43	7697.54
914.742	7737.08
915.054	7702.51
915.366	7697.76
915.678	7641.27
915.99	7607.37
916.302	7529.86
916.613	7531.89
916.925	7474.04
917.236	7471.55
917.548	7427.26
917.859	7407.15
918.171	7347.04
918.482	7282.86
918.794	7301.16
919.105	7352.01
919.416	7242.41
919.727	7210.09
920.038	7241.96
920.349	7145.01
920.66	7149.98
920.971	7095.07
921.282	7122.41
921.593	7070.21
921.903	6982.53
922.214	7027.5
922.525	6915.64
922.835	6906.37
923.146	6937.56
923.456	6862.31
923.767	6867.28
924.077	6868.18
924.387	6789.31
924.697	6743.89
925.008	6750.44
925.318	6741.4
925.628	6728.3
925.938	6670.22
926.248	6625.7
926.558	6589.09
926.867	6606.72
927.177	6534.86
927.487	6488.53
927.796	6474.52
928.106	6477.23
928.416	6445.82
928.725	6459.15
929.034	6319.95
929.344	6359.27
929.653	6345.03
929.962	6336.22
930.271	6210.57
930.581	6226.16
930.89	6181.42
931.199	6199.95
931.508	6152.27
931.817	6147.07
932.125	6056.9
932.434	6129.9
932.743	6013.29
933.051	6038.82
933.36	5973.29
933.669	5983.46
933.977	5981.88
934.286	6005.15
934.594	6032.27
934.902	5833.41
935.21	5881.77
935.519	5812.84
935.827	5874.31
936.135	5766.97
936.443	5754.31
936.751	5768.1
937.059	5735.1
937.367	5654.2
937.674	5661.21
937.982	5653.07
938.29	5676.12
938.597	5625.28
938.905	5561.77
939.213	5509.35
939.52	5538.05
939.827	5549.35
940.135	5517.93
940.442	5476.13
940.749	5485.17
941.056	5512.06
941.363	5363.14
941.67	5396.81
941.977	5340.99
942.284	5278.39
942.591	5326.3
942.898	5273.19
943.205	5271.61
943.511	5264.16
943.818	5197.94
944.125	5197.94
944.431	5174.89
944.738	5134.67
945.044	5091.28
945.35	5106.19
945.657	5064.39
945.963	5015.12
946.269	5014.22
946.575	5034.78
946.881	5010.15
947.187	4965.41
947.493	4961.34
947.799	4879.53
948.105	4936.48
948.41	4867.1
948.716	4886.99
949.022	4839.08
949.327	4853.32
949.633	4766.09
949.938	4773.77
950.244	4797.5
950.549	4776.71
950.854	4734
951.16	4729.25
951.465	4691.52
951.77	4688.8
952.075	4613.78
952.38	4635.25
952.685	4585.08
952.99	4579.2
953.294	4562.03
953.599	4462.82
953.904	4536.04
954.209	4510.05
954.513	4509.82
954.818	4435.7
955.122	4428.25
955.426	4453.1
955.731	4414.23
956.035	4370.85
956.339	4359.55
956.643	4379.43
956.948	4320.68
957.252	4285.42
957.556	4300.56
957.86	4251.75
958.163	4249.27
958.467	4270.28
958.771	4234.8
959.075	4230.74
959.378	4143.05
959.682	4202.26
959.985	4162.26
960.289	4163.85
960.592	4198.65
960.896	4127.91
961.199	4128.37
961.502	4101.25
961.805	4049.27
962.108	4025.09
962.411	3990.29
962.714	4024.87
963.017	3986.9
963.32	3978.77
963.623	3956.62
963.926	3955.26
964.228	3915.26
964.531	3899.9
964.833	3854.02
965.136	3823.74
965.438	3830.75
965.741	3826
966.043	3802.27
966.345	3831.42
966.648	3753.46
966.95	3749.17
967.252	3716.17
967.554	3689.06
967.856	3697.87
968.158	3667.59
968.46	3634.82
968.761	3635.95
969.063	3634.59
969.365	3623.52
969.666	3627.36
969.968	3573.13
970.269	3599.11
970.571	3578.32
970.872	3551.88
971.174	3529.29
971.475	3509.17
971.776	3493.13
972.077	3512.34
972.378	3454.94
972.679	3433.02
972.98	3419.46
973.281	3447.03
973.582	3386.01
973.883	3372.23
974.183	3418.1
974.484	3374.26
974.785	3376.52
975.085	3306.69
975.386	3351.89
975.686	3296.75
975.986	3296.75
976.287	3284.55
976.587	3289.07
976.887	3250.65
977.187	3208.39
977.487	3246.13
977.787	3181.72
978.087	3208.16
978.387	3179.69
978.687	3162.74
978.987	3152.12
979.286	3141.73
979.586	3140.14
979.885	3057.43
980.185	3085.23
980.484	3080.03
980.784	3071.22
981.083	3058.11
981.382	3003.2
981.682	3046.59
981.981	3003.2
982.28	3002.75
982.579	2941.5
982.878	2989.86
983.177	2947.38
983.475	2930.21
983.774	2886.14
984.073	2908.51
984.372	2921.84
984.67	2879.36
984.969	2904.44
985.267	2893.14
985.566	2867.38
985.864	2837.1
986.162	2820.83
986.461	2826.48
986.759	2817.67
987.057	2791.45
987.355	2779.02
987.653	2756.2
987.951	2767.95
988.249	2734.73
988.547	2718.91
988.844	2698.35
989.142	2696.77
989.44	2677.33
989.737	2688.18
990.035	2673.49
990.332	2650.21
990.63	2628.74
990.927	2629.87
991.224	2609.76
991.521	2578.12
991.819	2581.51
992.116	2606.82
992.413	2554.17
992.71	2552.81
993.006	2559.82
993.303	2507.17
993.6	2524.34
993.897	2511.69
994.193	2514.4
994.49	2491.8
994.787	2486.38
995.083	2452.25
995.379	2455.19
995.676	2437.56
995.972	2436.66
996.268	2411.12
996.565	2391.69
996.861	2389.2
997.157	2351.46
997.453	2359.15
997.749	2359.6
998.044	2308.3
998.34	2330.9
998.636	2302.2
998.932	2287.06
999.227	2301.3
999.523	2303.33
999.818	2262.2
1000.114	2265.82
1000.409	2244.35
1000.704	2231.01
1001	2216.1
1001.295	2196.21
1001.59	2206.38
1001.885	2230.11
1002.18	2184.91
1002.475	2151.24
1002.77	2154.86
1003.065	2133.16
1003.359	2155.08
1003.654	2099.49
1003.949	2099.04
1004.243	2087.52
1004.538	2058.14
1004.832	2070.34
1005.127	2063.79
1005.421	2021.3
1005.715	2047.74
1006.009	2026.05
1006.304	1984.69
1006.598	1974.52
1006.892	1998.03
1007.186	1993.28
1007.48	1967.07
1007.773	1963.23
1008.067	1968.65
1008.361	1946.28
1008.655	1915.99
1008.948	1935.43
1009.242	1893.17
1009.535	1866.96
1009.829	1899.95
1010.122	1829.44
1010.415	1857.01
1010.708	1843.91
1011.001	1866.5
1011.295	1813.62
1011.588	1815.88
1011.881	1817.24
1012.173	1760.97
1012.466	1806.39
1012.759	1785.83
1013.052	1801.65
1013.344	1745.15
1013.637	1751.93
1013.93	1730.91
1014.222	1735.21
1014.514	1703.35
1014.807	1716.68
1015.099	1725.94
1015.391	1696.11
1015.683	1673.06
1015.976	1666.28
1016.268	1632.84
1016.56	1624.03
1016.851	1622.22
1017.143	1594.2
1017.435	1622.67
1017.727	1618.15
1018.018	1580.64
1018.31	1581.99
1018.602	1539.73
1018.893	1551.26
1019.185	1547.87
1019.476	1577.92
1019.767	1513.52
1020.058	1501.09
1020.35	1514.88
1020.641	1490.7
1020.932	1514.88
1021.223	1509.45
1021.514	1474.65
1021.804	1464.03
1022.095	1466.06
1022.386	1419.74
1022.677	1423.35
1022.967	1407.76
1023.258	1394.65
1023.548	1419.06
1023.839	1377.25
1024.129	1395.33
1024.419	1370.02
1024.709	1349.23
1025	1373.41
1025.29	1356.46
1025.58	1353.07
1025.87	1320.53
1026.16	1311.04
1026.449	1325.05
1026.739	1299.29
1027.029	1305.16
1027.319	1314.65
1027.608	1289.57
1027.898	1275.79
1028.187	1285.28
1028.477	1234.43
1028.766	1236.01
1029.055	1297.25
1029.344	1222.68
1029.634	1208.89
1029.923	1214.32
1030.212	1205.28
1030.501	1207.54
1030.79	1189.46
1031.078	1166.64
1031.367	1188.1
1031.656	1169.35
1031.945	1163.25
1032.233	1188.78
1032.522	1154.21
1032.81	1137.26
1033.099	1131.38
1033.387	1122.34
1033.675	1104.72
1033.963	1122.57
1034.251	1102.46
1034.54	1088.9
1034.828	1104.72
1035.116	1090.25
1035.403	1052.51
1035.691	1043.25
1035.979	1063.59
1036.267	1060.65
1036.554	1024.49
1036.842	1030.14
1037.129	1049.12
1037.417	1027.2
1037.704	1020.2
1037.992	1012.29
1038.279	989.24
1038.566	1010.48
1038.853	1010.48
1039.14	1010.48
