Data from hue_320_FLMS001491_36.txt Node
Date: Mon Feb 06 15:47:07 GMT 2017
User: dcchb
Spectrometer: FLMS00149
Trigger mode: 0
Integration Time (sec): 2.000000E-2
Scans to average: 10
Electric dark correction enabled: true
Nonlinearity correction enabled: false
Boxcar width: 0
XAxis mode: Wavelengths
Number of Pixels in Spectrum: 2048
>>>>>Begin Spectral Data<<<<<
341.393	2.27
341.776	2.27
342.16	2.27
342.543	-56.48
342.927	-61.68
343.31	-69.36
343.693	-59.42
344.077	-76.82
344.46	-60.1
344.843	-39.76
345.226	-53.09
345.61	-38.63
345.993	-22.58
346.376	-2.25
346.759	-8.8
347.142	24.65
347.525	40.92
347.908	56.51
348.291	86.34
348.674	113.01
349.057	109.39
349.44	141.48
349.823	126.34
350.206	173.34
350.588	195.94
350.971	189.16
351.354	237.97
351.737	236.84
352.119	244.08
352.502	245.43
352.884	275.71
353.267	277.07
353.65	279.78
354.032	291.53
354.414	299.44
354.797	310.06
355.179	327.92
355.562	301.48
355.944	332.21
356.326	340.34
356.709	334.92
357.091	333.56
357.473	336.5
357.855	344.19
358.238	336.28
358.62	339.89
359.002	327.69
359.384	340.12
359.766	315.26
360.148	321.81
360.53	321.81
360.912	351.64
361.294	328.37
361.676	310.29
362.057	331.08
362.439	323.4
362.821	357.97
363.203	326.56
363.584	333.11
363.966	332.21
364.348	314.81
364.729	316.39
365.111	319.33
365.493	317.97
365.874	306.45
366.256	320.91
366.637	307.58
367.019	299.22
367.4	321.81
367.781	327.69
368.163	302.83
368.544	310.29
368.925	329.95
369.306	333.11
369.688	300.57
370.069	301.48
370.45	337.18
370.831	307.58
371.212	309.16
371.593	319.78
371.974	310.06
372.355	291.31
372.736	319.33
373.117	298.99
373.498	330.4
373.879	310.74
374.26	296.73
374.641	302.38
375.021	313.9
375.402	299.89
375.783	329.27
376.163	324.98
376.544	315.71
376.925	321.81
377.305	310.29
377.686	332.43
378.066	329.5
378.447	334.24
378.827	323.4
379.208	310.97
379.588	345.54
379.968	342.6
380.349	322.72
380.729	330.4
381.109	341.93
381.489	331.3
381.87	357.07
382.25	347.8
382.63	336.5
383.01	342.38
383.39	337.41
383.77	339.21
384.15	334.92
384.53	364.3
384.91	335.6
385.29	320.01
385.67	329.5
386.049	366.78
386.429	358.2
386.809	346.45
387.189	349.16
387.568	348.71
387.948	378.08
388.328	371.08
388.707	347.8
389.087	357.52
389.466	360.23
389.846	366.33
390.225	378.54
390.605	356.84
390.984	378.76
391.363	375.15
391.743	372.66
392.122	357.74
392.501	376.05
392.881	362.94
393.26	363.17
393.639	372.21
394.018	358.65
394.397	372.21
394.776	369.27
395.155	405.88
395.534	382.15
395.913	375.82
396.292	411.08
396.671	369.27
397.05	369.04
397.429	362.94
397.808	393
398.186	391.19
398.565	382.83
398.944	412.21
399.323	387.35
399.701	414.92
400.08	408.36
400.458	427.57
400.837	403.85
401.215	390.06
401.594	407.91
401.972	403.62
402.351	409.95
402.729	401.13
403.107	403.17
403.486	421.7
403.864	421.92
404.242	418.99
404.62	435.71
404.999	405.88
405.377	415.6
405.755	421.7
406.133	422.6
406.511	424.18
406.889	427.8
407.267	457.4
407.645	454.24
408.023	445.43
408.401	454.69
408.779	458.08
409.156	456.5
409.534	466.44
409.912	478.65
410.29	480
410.667	470.28
411.045	492.43
411.422	495.59
411.8	484.75
412.178	498.76
412.555	492.88
412.933	497.4
413.31	524.75
413.687	508.48
414.065	526.78
414.442	524.07
414.819	546.67
415.197	547.34
415.574	547.12
415.951	556.38
416.328	583.73
416.705	590.06
417.082	571.3
417.46	591.64
417.837	589.6
418.214	592.99
418.591	609.94
418.967	618.3
419.344	633.67
419.721	618.75
420.098	634.8
420.475	621.24
420.852	646.55
421.228	644.29
421.605	644.52
421.982	651.75
422.358	669.6
422.735	672.99
423.111	653.56
423.488	683.84
423.864	691.3
424.241	693.33
424.617	690.17
424.994	705.31
425.37	698.07
425.746	712.76
426.123	722.93
426.499	709.83
426.875	740.79
427.251	740.33
427.627	747.79
428.003	750.28
428.379	771.97
428.756	764.29
429.132	781.01
429.507	782.59
429.883	771.97
430.259	807.68
430.635	799.77
431.011	813.78
431.387	817.85
431.763	843.38
432.138	809.94
432.514	855.36
432.89	862.59
433.265	877.05
433.641	891.74
434.016	882.02
434.392	890.16
434.767	919.54
435.143	903.72
435.518	939.2
435.894	947.11
436.269	946.66
436.644	949.82
437.02	959.08
437.395	952.08
437.77	959.54
438.145	971.97
438.52	991.85
438.895	1016.26
439.271	989.37
439.646	1015.13
440.021	1015.13
440.395	1034.11
440.77	1029.37
441.145	1074.34
441.52	1042.25
441.895	1073.43
442.27	1063.71
442.645	1054.22
443.019	1071.62
443.394	1080.89
443.769	1064.84
444.143	1097.61
444.518	1079.08
444.892	1104.62
445.267	1074.79
445.641	1111.17
446.016	1101
446.39	1111.85
446.764	1149.14
447.139	1087.9
447.513	1148.91
447.887	1105.07
448.262	1113.21
448.636	1140.55
449.01	1159.76
449.384	1145.97
449.758	1155.92
450.132	1146.2
450.506	1165.63
450.88	1187.78
451.254	1150.04
451.628	1190.27
452.002	1209.02
452.376	1177.38
452.75	1203.82
453.123	1203.37
453.497	1221.22
453.871	1241.34
454.244	1258.96
454.618	1250.83
454.992	1258.51
455.365	1250.38
455.739	1280.66
456.112	1281.34
456.486	1286.53
456.859	1292.18
457.232	1341.22
457.606	1315.23
457.979	1343.93
458.352	1335.35
458.725	1350.49
459.099	1350.94
459.472	1362.24
459.845	1371.28
460.218	1377.83
460.591	1402.01
460.964	1391.84
461.337	1397.04
461.71	1438.85
462.083	1428.9
462.456	1467.32
462.829	1441.78
463.201	1460.54
463.574	1464.61
463.947	1494.89
464.32	1495.57
464.692	1539.18
465.065	1558.84
465.438	1539.41
465.81	1564.72
466.183	1562.91
466.555	1584.38
466.928	1581.22
467.3	1594.1
467.672	1612.18
468.045	1616.92
468.417	1646.07
468.789	1667.09
469.161	1667.77
469.534	1696.69
469.906	1757.26
470.278	1728.1
470.65	1703.47
471.022	1782.11
471.394	1790.02
471.766	1786.86
472.138	1788.44
472.51	1822.79
472.882	1891.26
473.253	1862.56
473.625	1911.6
473.997	1905.05
474.369	1898.04
474.74	1902.79
475.112	1976.91
475.484	1968.55
475.855	2013.07
476.227	2057.59
476.598	2063.01
476.97	2076.34
477.341	2116.12
477.713	2131.71
478.084	2152.27
478.455	2160.41
478.827	2210.8
479.198	2247.86
479.569	2221.2
479.94	2298.26
480.311	2347.3
480.682	2345.72
481.053	2392.95
481.424	2416.45
481.795	2437.46
482.166	2452.83
482.537	2473.62
482.908	2521.08
483.279	2521.76
483.65	2539.83
484.021	2601.75
484.391	2622.77
484.762	2652.83
485.133	2675.42
485.503	2659.83
485.874	2732.82
486.244	2779.83
486.615	2778.92
486.985	2811.92
487.356	2876.32
487.726	2820.28
488.097	2918.81
488.467	2929.88
488.837	2955.42
489.207	2951.8
489.578	3054.17
489.948	3017.11
490.318	3092.36
490.688	3098.24
491.058	3110.21
491.428	3156.99
491.798	3181.85
492.168	3223.88
492.538	3244.22
492.908	3266.59
493.278	3328.51
493.648	3296.42
494.017	3355.18
494.387	3337.55
494.757	3414.61
495.126	3368.29
495.496	3418.68
495.866	3425.01
496.235	3483.76
496.605	3508.62
496.974	3493.03
497.344	3542.75
497.713	3548.62
498.082	3558.79
498.452	3577.55
498.821	3580.94
499.19	3612.35
499.559	3652.57
499.928	3630.43
500.298	3646.92
500.667	3680.6
501.036	3682.18
501.405	3712.01
501.774	3713.36
502.143	3727.15
502.512	3758.79
502.88	3758.56
503.249	3797.2
503.618	3840.37
503.987	3846.92
504.356	3872.91
504.724	3846.92
505.093	3829.52
505.462	3839.91
505.83	3891.44
506.199	3905.9
506.567	3949.97
506.936	3922.17
507.304	3952
507.672	3990.19
508.041	4038.33
508.409	3975.95
508.777	4042.62
509.145	4075.39
509.514	4003.3
509.882	4083.97
510.25	4044.65
510.618	4092.56
510.986	4099.57
511.354	4126.23
511.722	4148.61
512.09	4161.71
512.458	4155.84
512.826	4186.57
513.193	4142.73
513.561	4200.36
513.929	4224.99
514.297	4270.86
514.664	4203.29
515.032	4250.52
515.4	4301.6
515.767	4279.9
516.135	4293.46
516.502	4273.57
516.869	4344.53
517.237	4337.3
517.604	4316.74
517.972	4343.85
518.339	4356.28
518.706	4362.84
519.073	4380.46
519.44	4432.89
519.808	4400.58
520.175	4419.33
520.542	4475.38
520.909	4453
521.276	4412.33
521.643	4431.54
522.009	4505.88
522.376	4553.57
522.743	4539.1
523.11	4588.37
523.477	4591.76
523.843	4611.87
524.21	4624.75
524.577	4670.4
524.943	4665.43
525.31	4630.63
525.676	4760.57
526.043	4831.98
526.409	4750.4
526.776	4794.69
527.142	4844.41
527.508	4849.15
527.874	4855.48
528.241	4887.34
528.607	4864.29
528.973	4911.75
529.339	4901.13
529.705	4986.78
530.071	5015.7
530.437	5026.77
530.803	5029.71
531.169	5059.77
531.535	5060.22
531.901	5083.04
532.267	5086.43
532.632	5128.24
532.998	5123.95
533.364	5182.93
533.73	5194.91
534.095	5210.72
534.461	5275.58
534.826	5233.32
535.192	5290.27
535.557	5327.33
535.923	5304.73
536.288	5422.02
536.653	5380.66
537.019	5350.38
537.384	5430.38
537.749	5408.91
538.114	5454.11
538.479	5473.99
538.845	5482.58
539.21	5472.86
539.575	5501.11
539.94	5496.14
540.305	5542.69
540.67	5574.56
541.034	5575.01
541.399	5629.7
541.764	5609.36
542.129	5634.44
542.494	5691.84
542.858	5690.03
543.223	5696.36
543.587	5764.38
543.952	5760.99
544.316	5825.85
544.681	5843.7
545.045	5833.31
545.41	5847.54
545.774	5927.99
546.138	5921.21
546.503	5935.68
546.867	5927.32
547.231	6005.28
547.595	6009.57
547.959	6024.94
548.324	6055.9
548.688	6088.44
549.052	6080.76
549.416	6101.1
549.779	6118.5
550.143	6071.72
550.507	6165.28
550.871	6197.82
551.235	6128.44
551.599	6242.56
551.962	6230.13
552.326	6237.59
552.689	6280.98
553.053	6278.95
553.417	6314.65
553.78	6376.8
554.143	6351.49
554.507	6355.78
554.87	6463.57
555.234	6433.07
555.597	6433.29
555.96	6459.73
556.323	6450.69
556.686	6450.92
557.05	6531.82
557.413	6529.79
557.776	6506.96
558.139	6610.69
558.502	6583.57
558.865	6578.37
559.228	6575.66
559.59	6618.82
559.953	6667.86
560.316	6726.16
560.679	6703.34
561.041	6710.57
561.404	6812.04
561.767	6819.5
562.129	6751.02
562.492	6855.2
562.854	6872.38
563.217	6924.13
563.579	6902.88
563.941	6925.03
564.304	6929.32
564.666	7040.51
565.028	7049.77
565.39	6970
565.753	7033.28
566.115	7091.35
566.477	7079.83
566.839	7086.16
567.201	7114.86
567.563	7154.85
567.925	7219.49
568.287	7185.59
568.648	7182.42
569.01	7268.52
569.372	7345.13
569.734	7297.68
570.095	7350.33
570.457	7395.53
570.819	7427.84
571.18	7433.27
571.542	7465.58
571.903	7488.18
572.265	7498.12
572.626	7565.92
572.987	7608.63
573.349	7623.54
573.71	7722.52
574.071	7765.01
574.432	7835.51
574.794	7887.94
575.155	7930.88
575.516	7889.75
575.877	8033.93
576.238	8110.08
576.599	8119.8
576.96	8187.37
577.32	8241.38
577.681	8345.33
578.042	8408.15
578.403	8488.83
578.763	8575.38
579.124	8655.61
579.485	8783.29
579.845	8846.79
580.206	8942.15
580.566	9015.14
580.927	9188.93
581.287	9363.84
581.648	9435.7
582.008	9567.9
582.368	9597.28
582.728	9779.87
583.089	9971.5
583.449	10086.75
583.809	10206.98
584.169	10422.79
584.529	10544.14
584.889	10864.36
585.249	10972.38
585.609	11173.73
585.969	11341.18
586.329	11506.6
586.688	11785.69
587.048	11878.57
587.408	12196.3
587.768	12395.62
588.127	12616.41
588.487	12846.46
588.846	13175.03
589.206	13292.55
589.565	13601.46
589.925	13915.13
590.284	14072.41
590.643	14286.64
591.003	14668.78
591.362	14902.9
591.721	15198.03
592.08	15434.18
592.44	15729.54
592.799	16093.15
593.158	16229.42
593.517	16552.12
593.876	16895.62
594.235	17176.74
594.593	17420.8
594.952	17773.33
595.311	17984.85
595.67	18356.14
596.029	18673.87
596.387	19087.87
596.746	19298.04
597.104	19521.08
597.463	19826.39
597.822	20184.79
598.18	20356.99
598.538	20736.42
598.897	21147.93
599.255	21098.67
599.613	21716.96
599.972	21909.95
600.33	22214.35
600.688	22416.6
601.046	22809.81
601.404	23258.84
601.762	23358.95
602.12	23675.55
602.478	23944.47
602.836	24347.62
603.194	24282.99
603.552	24686.82
603.91	24875.74
604.268	25156.41
604.625	25377.2
604.983	25738.09
605.341	25834.14
605.698	26326.78
606.056	26491.97
606.413	26661.01
606.771	26984.39
607.128	27238.39
607.485	27392.74
607.843	27612.17
608.2	27954.99
608.557	28347.52
608.914	28342.55
609.272	28620.96
609.629	28915.64
609.986	29205.12
610.343	29209.42
610.7	29688.27
611.057	29851.21
611.414	29985.21
611.771	30180.46
612.127	30478.31
612.484	30565.54
612.841	30782.26
613.198	30905.87
613.554	31102.25
613.911	31376.59
614.267	31656.58
614.624	31659.07
614.98	31888.44
615.337	32238.49
615.693	32173.86
616.05	32366.62
616.406	32702.88
616.762	32671.92
617.118	32829.89
617.475	33017.68
617.831	33312.13
618.187	33396.88
618.543	33425.58
618.899	33623.08
619.255	33811.1
619.611	33917.99
619.967	34155.5
620.323	34130.87
620.678	34225.1
621.034	34325.67
621.39	34431.2
621.746	34557.52
622.101	34971.07
622.457	34758.65
622.812	34903.05
623.168	35097.4
623.523	35345.3
623.879	35403.15
624.234	35286.32
624.589	35420.33
624.945	35598.85
625.3	35636.59
625.655	35634.78
626.01	35840.88
626.365	35833.2
626.72	35913.42
627.075	35936.7
627.43	36013.98
627.785	36013.3
628.14	36107.09
628.495	36243.13
628.85	36220.08
629.205	36129.69
629.559	36464.14
629.914	36329.23
630.269	36419.4
630.623	36366.52
630.978	36442.45
631.332	36516.34
631.687	36768.31
632.041	36594.08
632.396	36713.4
632.75	36520.86
633.104	36778.48
633.459	36537.81
633.813	36663.91
634.167	36707.98
634.521	36691.93
634.875	36759.05
635.229	36593.18
635.583	36626.17
635.937	36645.15
636.291	36810.12
636.645	36697.81
636.999	36659.62
637.352	36858.03
637.706	36550.47
638.06	36900.51
638.413	36630.24
638.767	36639.05
639.121	36724.92
639.474	36587.3
639.828	36686.96
640.181	36612.61
640.534	36690.12
640.888	36590.46
641.241	36482.22
641.594	36569.45
641.947	36723.34
642.301	36556.12
642.654	36559.5
643.007	36566.51
643.36	36605.61
643.713	36564.25
644.066	36720.63
644.419	36468.21
644.771	36185.96
645.124	36069.35
645.477	35930.59
645.83	35788.68
646.182	35719.98
646.535	35555.92
646.888	35640.21
647.24	35400.89
647.593	35729.92
647.945	35670.94
648.298	35492.41
648.65	35454.45
649.002	35252.42
649.355	35481.79
649.707	35290.61
650.059	35649.25
650.411	36019.63
650.763	36045.85
651.115	36443.35
651.467	36288.78
651.819	36230.7
652.171	36104.6
652.523	36158.84
652.875	36179.18
653.227	36013.98
653.578	36285.84
653.93	36244.71
654.282	36009.69
654.633	36005.85
654.985	35998.39
655.337	36061.66
655.688	36033.64
656.039	36102.12
656.391	35905.96
656.742	35944.61
657.094	36086.75
657.445	36071.38
657.796	35900.31
658.147	35833.42
658.498	35911.61
658.849	36093.3
659.2	35873.87
659.551	35842.01
659.902	35990.93
660.253	36026.64
660.604	36089.69
660.955	35721.11
661.306	35913.87
661.656	35806.76
662.007	35826.87
662.358	35850.37
662.708	35752.97
663.059	35949.13
663.409	35624.39
663.76	36017.15
664.11	35842.24
664.461	35896.25
664.811	35860.09
665.161	35858.73
665.511	35701.9
665.862	35806.53
666.212	35979.18
666.562	36044.04
666.912	35936.24
667.262	35882.69
667.612	35880.65
667.962	35909.35
668.312	35681.11
668.662	35804.5
669.011	35682.24
669.361	35635.91
669.711	35730.83
670.06	35667.78
670.41	35659.87
670.76	35596.82
671.109	35764.27
671.459	35780.32
671.808	35717.49
672.157	35670.04
672.507	35425.52
672.856	35482.02
673.205	35649.47
673.554	35665.07
673.904	35680.43
674.253	35738.06
674.602	35573.09
674.951	35047.23
675.3	34839.78
675.649	35550.27
675.998	35494.45
676.346	35448.12
676.695	35550.27
677.044	35314.11
677.393	35320.44
677.741	35574.9
678.09	35441.12
678.438	35143.04
678.787	35424.17
679.135	35297.62
679.484	35026.66
679.832	35294.45
680.181	35079.54
680.529	35181.24
680.877	34983.95
681.225	35056.04
681.573	35277.5
681.922	35024.86
682.27	34829.38
682.618	34793.45
682.966	34888.59
683.314	34852.88
683.661	34744.86
684.009	34677.75
684.357	34512.33
684.705	34529.05
685.053	34535.15
685.4	34481.82
685.748	34286.8
686.095	34312.78
686.443	34214.26
686.79	34323.63
687.138	34242.28
687.485	34102.85
687.832	33974.71
688.18	34040.48
688.527	33964.54
688.874	33927.94
689.221	33985.79
689.568	33741.95
689.915	33706.25
690.262	33729.97
690.609	33602.29
690.956	33427.61
691.303	33332.02
691.65	33413.37
691.997	33385.8
692.344	33234.39
692.69	33158.92
693.037	33015.19
693.383	32885.25
693.73	33080.95
694.077	32779.49
694.423	32813.16
694.769	32760.06
695.116	32645.03
695.462	32530.01
695.808	32430.35
696.155	32430.57
696.501	32396.45
696.847	32341.08
697.193	32035.33
697.539	32194.87
697.885	31980.42
698.231	31965.5
698.577	31960.76
698.923	31785.85
699.269	31622.01
699.614	31569.81
699.96	31602.57
700.306	31520.77
700.651	31264.5
700.997	31319.42
701.342	31235.35
701.688	31203.26
702.033	31081.23
702.379	30993.78
702.724	31008.01
703.069	31064.96
703.415	30585.42
703.76	30758.08
704.105	30695.7
704.45	30678.98
704.795	30403.73
705.14	30366.9
705.485	30411.64
705.83	30237.41
706.175	30394.92
706.52	30213.01
706.865	29997.64
707.209	30039.22
707.554	29995.16
707.899	30098.43
708.243	29864.09
708.588	29740.7
708.932	29460.48
709.277	29569.41
709.621	29653.25
709.966	29508.39
710.31	29510.42
710.654	29200.83
710.998	29273.82
711.342	29148.4
711.687	29184.11
712.031	29120.83
712.375	28937.33
712.719	28946.6
713.063	28910.44
713.407	28976.2
713.75	28856.88
714.094	28754.51
714.438	28725.13
714.782	28806.26
715.125	28516.55
715.469	28606.95
715.812	28571.47
716.156	28233.62
716.499	28310.23
716.843	28339.38
717.186	28202.21
717.53	28371.47
717.873	28242.89
718.216	28202.44
718.559	28072.72
718.902	27930.81
719.246	28025.72
719.589	27846.06
719.932	27863.91
720.275	27945.49
720.617	27787.76
720.96	27718.38
721.303	27743.92
721.646	27768.1
721.989	27523.36
722.331	27698.04
722.674	27557.71
723.016	27553.19
723.359	27486.75
723.701	27561.1
724.044	27270.26
724.386	27178.06
724.729	27376.47
725.071	27186.19
725.413	27249.47
725.755	27198.4
726.097	27039.53
726.439	26950.72
726.782	26975.35
727.124	27126.08
727.465	26848.8
727.807	26896.48
728.149	26818.07
728.491	26744.85
728.833	26789.14
729.175	26685.87
729.516	26595.47
729.858	26703.49
730.199	26554.8
730.541	26654.45
730.882	26483.84
731.224	26562.93
731.565	26435.25
731.906	26464.18
732.248	26527.68
732.589	26240.91
732.93	26271.19
733.271	26218.31
733.612	26190.96
733.953	26209.72
734.294	26117.29
734.635	26095.6
734.976	26237.06
735.317	25950.07
735.658	26058.54
735.999	25947.13
736.339	25914.36
736.68	25929.28
737.021	25847.02
737.361	25744.42
737.702	25932.67
738.042	25784.65
738.383	25632.56
738.723	25764.08
739.063	25593.24
739.404	25742.61
739.744	25519.57
740.084	25503.3
740.424	25617.19
740.764	25462.85
741.104	25478.67
741.444	25263.76
741.784	25343.98
742.124	25415.17
742.464	25339.01
742.804	25307.6
743.143	25109.18
743.483	25287.03
743.823	25160.71
744.162	25082.97
744.502	25200.71
744.841	25027.38
745.181	25094.95
745.52	24921.62
745.86	25015.4
746.199	24900.38
746.538	24736.09
746.877	24804.79
747.216	24899.47
747.556	24889.53
747.895	24774.96
748.234	24718.91
748.573	24798.01
748.911	24644.11
749.25	24672.13
749.589	24581.97
749.928	24580.16
750.267	24588.29
750.605	24409.09
750.944	24428.52
751.283	24324.12
751.621	24512.14
751.96	24273.95
752.298	24283.44
752.636	24196.44
752.975	24092.94
753.313	24044.13
753.651	24217.68
753.989	24051.36
754.327	24051.13
754.666	23870.35
755.004	23913.51
755.342	23834.64
755.679	23737.7
756.017	23701.54
756.355	23697.47
756.693	23631.94
757.031	23658.38
757.368	23537.47
757.706	23453.41
758.044	23300.64
758.381	23424.03
758.719	23310.59
759.056	23333.41
759.394	23262.45
759.731	23023.82
760.068	22993.76
760.405	22893.42
760.743	22911.95
761.08	22940.65
761.417	22846.65
761.754	22793.09
762.091	22655.24
762.428	22610.27
762.765	22421.8
763.102	22474
763.438	22408.69
763.775	22278.3
764.112	22224.74
764.449	22269.26
764.785	22181.35
765.122	22149.71
765.458	22053.22
765.795	21853.68
766.131	21962.15
766.467	21820.46
766.804	21710.18
767.14	21611.2
767.476	21644.64
767.812	21619.33
768.148	21535.27
768.485	21477.42
768.821	21344.09
769.157	21314.48
769.492	21290.3
769.828	21135.96
770.164	20959.01
770.5	20969.18
770.836	21058.22
771.171	20845.12
771.507	20790.43
771.842	20598.34
772.178	20662.97
772.513	20569.64
772.849	20473.37
773.184	20549.3
773.519	20407.39
773.855	20373.94
774.19	20194.74
774.525	20164.46
774.86	20168.3
775.195	20057.11
775.53	20105.47
775.865	19928.3
776.2	19780.06
776.535	19583.68
776.87	19741.19
777.205	19524.02
777.539	19539.84
777.874	19503.68
778.209	19279.28
778.543	19341.65
778.878	19213.07
779.212	19156.12
779.547	19144.6
779.881	19190.92
780.215	18946.86
780.55	18953.19
780.884	18865.73
781.218	18835
781.552	18854.66
781.886	18715
782.22	18660.99
782.554	18568.57
782.888	18329.02
783.222	18299.87
783.556	18246.54
783.889	18145.53
784.223	18108.69
784.557	18008.13
784.89	18123.15
785.224	17999.54
785.557	17725.2
785.891	17774.91
786.224	17764.74
786.558	17788.47
786.891	17620.57
787.224	17511.64
787.557	17457.41
787.891	17407.92
788.224	17494.7
788.557	17408.82
788.89	17350.74
789.223	17163.4
789.556	17074.14
789.888	17103.07
790.221	17112.11
790.554	16935.39
790.887	16976.29
791.219	16865.33
791.552	16803.87
791.884	16812.23
792.217	16786.01
792.549	16676.64
792.882	16468.96
793.214	16433.03
793.546	16483.65
793.879	16435.51
794.211	16326.36
794.543	16334.27
794.875	16213.83
795.207	16361.17
795.539	16195.75
795.871	16122.08
796.203	15958.01
796.535	15886.83
796.867	15851.8
797.198	15845.7
797.53	15870.78
797.862	15773.38
798.193	15747.4
798.525	15624.24
798.856	15670.79
799.188	15461.08
799.519	15483.45
799.85	15375.43
800.182	15426.05
800.513	15412.26
800.844	15296.11
801.175	15432.6
801.506	15232.83
801.837	15166.17
802.168	15171.14
802.499	15102.22
802.83	15019.28
803.161	14985.16
803.491	14940.86
803.822	14926.18
804.153	14939.96
804.483	14772.96
804.814	14806.86
805.145	14719.18
805.475	14744.49
805.805	14594.43
806.136	14707.65
806.466	14545.17
806.796	14531.61
807.126	14361.67
807.457	14349.92
807.787	14326.87
808.117	14274.89
808.447	14304.27
808.777	14375
809.107	14263.59
809.436	14183.14
809.766	14284.61
810.096	14088.91
810.426	14095.01
810.755	14092.98
811.085	14034.22
811.414	14032.41
811.744	13886.2
812.073	13913.09
812.403	13902.47
812.732	13818.63
813.061	13876.94
813.39	13725.75
813.719	13677.17
814.049	13755.81
814.378	13708.58
814.707	13610.73
815.036	13565.99
815.365	13497.74
815.693	13458.42
816.022	13511.07
816.351	13322.83
816.68	13259.55
817.008	13429.94
817.337	13258.42
817.665	13212.55
817.994	13313.34
818.322	13194.92
818.651	13196.5
818.979	13017.52
819.307	13163.28
819.636	13001.71
819.964	12993.12
820.292	13030.41
820.62	13024.98
820.948	12936.4
821.276	13019.11
821.604	12954.02
821.932	12984.31
822.259	12940.01
822.587	12912.22
822.915	12918.32
823.243	12974.14
823.57	12874.03
823.898	12916.96
824.225	12859.34
824.553	12846.68
824.88	12901.6
825.207	12945.89
825.535	12900.47
825.862	12979.11
826.189	12841.71
826.516	12973.91
826.843	12933.23
827.17	12935.04
827.497	12954.48
827.824	12906.34
828.151	12954.7
828.478	12942.27
828.805	12983.4
829.131	12857.3
829.458	12904.31
829.785	12798.32
830.111	12888.04
830.438	12893.69
830.764	12881.03
831.09	12907.92
831.417	12802.16
831.743	12842.16
832.069	12874.48
832.395	12789.28
832.722	12792.22
833.048	12755.38
833.374	12820.47
833.7	12736.4
834.026	12769.4
834.351	12796.06
834.677	12686.46
835.003	12814.14
835.329	12762.16
835.654	12711.77
835.98	12593.13
836.306	12655.95
836.631	12589.29
836.956	12645.11
837.282	12648.04
837.607	12554.26
837.932	12620.02
838.258	12535.5
838.583	12622.06
838.908	12436.98
839.233	12568.05
839.558	12501.83
839.883	12395.62
840.208	12448.5
840.533	12332.57
840.858	12360.37
841.182	12365.11
841.507	12318.11
841.832	12243.76
842.156	12185.23
842.481	12279.24
842.805	12129.19
843.13	12271.1
843.454	12182.97
843.778	12065.46
844.103	12067.72
844.427	12015.07
844.751	12069.3
845.075	11996.53
845.399	11992.69
845.723	11970.55
846.047	11963.32
846.371	11831.34
846.695	11815.07
847.019	11761.51
847.343	11681.51
847.666	11568.98
847.99	11592.25
848.313	11568.98
848.637	11465.7
848.96	11449.43
849.284	11464.8
849.607	11410.56
849.931	11329.43
850.254	11232.04
850.577	11209.89
850.9	11157.46
851.223	11110.91
851.546	11033.85
851.869	11009.44
852.192	11073.17
852.515	10941.2
852.838	10916.34
853.161	10911.82
853.483	10881.31
853.806	10832.95
854.129	10781.65
854.451	10703.46
854.774	10709.34
855.096	10702.56
855.419	10648.55
855.741	10539.4
856.063	10545.05
856.385	10491.94
856.708	10475.44
857.03	10521.32
857.352	10409.46
857.674	10385.05
857.996	10317.93
858.318	10353.41
858.64	10361.78
858.961	10334.21
859.283	10259.18
859.605	10255.79
859.926	10171.72
860.248	10179.41
860.57	10107.32
860.891	10193.64
861.212	10208.33
861.534	10213.53
861.855	10041.33
862.176	10052.86
862.498	10034.1
862.819	10044.27
863.14	9969.47
863.461	9957.72
863.782	9912.97
864.103	9925.18
864.424	9848.79
864.745	9931.73
865.065	9860.32
865.386	9865.74
865.707	9918.4
866.027	9734.22
866.348	9801.79
866.668	9833.43
866.989	9779.19
867.309	9659.87
867.63	9699.65
867.95	9644.51
868.27	9661.46
868.59	9642.47
868.91	9620.33
869.23	9647.44
869.55	9656.48
869.87	9570.84
870.19	9575.36
870.51	9598.63
870.83	9556.37
871.15	9500.1
871.469	9507.33
871.789	9569.48
872.109	9508.46
872.428	9476.38
872.748	9495.36
873.067	9454.45
873.386	9431.63
873.706	9484.28
874.025	9352.99
874.344	9374.46
874.663	9357.73
874.982	9342.82
875.301	9333.55
875.62	9330.39
875.939	9239.09
876.258	9249.26
876.577	9282.71
876.896	9261.69
877.214	9222.82
877.533	9229.83
877.852	9234.35
878.17	9214.24
878.489	9183.73
878.807	9215.37
879.125	9176.72
879.444	9112.99
879.762	9115.48
880.08	9110.28
880.398	9096.05
880.716	9126.1
881.034	9075.93
881.352	9052.88
881.67	8958.65
881.988	9028.93
882.306	8979.67
882.624	8967.46
882.941	8889.27
883.259	8895.6
883.577	8906.9
883.894	8914.36
884.212	8876.16
884.529	8869.61
884.846	8788.94
885.164	8819.9
885.481	8789.16
885.798	8782.38
886.115	8789.16
886.432	8698.09
886.75	8697.86
887.067	8715.04
887.383	8639.33
887.7	8712.55
888.017	8597.08
888.334	8642.5
888.651	8515.04
888.967	8588.04
889.284	8522.5
889.6	8487.02
889.917	8455.16
890.233	8427.59
890.55	8457.42
890.866	8459.45
891.182	8368.38
891.498	8327.03
891.815	8352.79
892.131	8333.81
892.447	8297.42
892.763	8258.33
893.079	8242.28
893.395	8165.22
893.71	8188.5
894.026	8085
894.342	8186.24
894.657	8084.32
894.973	8040.71
895.289	8052.46
895.604	8104.43
895.92	7981.5
896.235	7953.25
896.55	7915.96
896.865	7939.92
897.181	7882.52
897.496	7851.56
897.811	7830.32
898.126	7848.62
898.441	7807.72
898.756	7790.32
899.071	7695.63
899.386	7731.34
899.7	7669.64
900.015	7678.46
900.33	7555.07
900.644	7573.15
900.959	7586.03
901.273	7572.24
901.588	7480.95
901.902	7462.64
902.216	7421.51
902.531	7423.1
902.845	7438.69
903.159	7315.53
903.473	7320.27
903.787	7405.7
904.101	7267.62
904.415	7307.84
904.729	7236.43
905.042	7228.98
905.356	7153.95
905.67	7165.02
905.984	7145.59
906.297	7156.66
906.611	7059.49
906.924	7108.75
907.237	7012.03
907.551	7081.41
907.864	6996.44
908.177	6946.5
908.491	6917.57
908.804	6951.02
909.117	6856.78
909.43	6835.77
909.743	6759.38
910.056	6824.69
910.368	6726.62
910.681	6727.75
910.994	6675.77
911.307	6748.76
911.619	6622.21
911.932	6675.09
912.244	6665.15
912.557	6580.86
912.869	6552.16
913.181	6530.69
913.494	6507.41
913.806	6465.83
914.118	6438.94
914.43	6451.82
914.742	6464.93
915.054	6381.99
915.366	6332.95
915.678	6337.47
915.99	6336.57
916.302	6248.66
916.613	6222.9
916.925	6201.21
917.236	6164.82
917.548	6174.99
917.859	6171.6
918.171	6131.15
918.482	6114.2
918.794	6089.8
919.105	6039.86
919.416	6065.84
919.727	5998.27
920.038	5995.79
920.349	5946.07
920.66	5936.36
920.971	5915.56
921.282	5879.86
921.593	5788.11
921.903	5825.17
922.214	5828.79
922.525	5822.01
922.835	5779.3
923.146	5720.54
923.456	5670.37
923.767	5660.88
924.077	5641.45
924.387	5633.99
924.697	5609.81
925.008	5611.17
925.318	5597.16
925.628	5538.63
925.938	5530.94
926.248	5458.18
926.558	5476.03
926.867	5431.28
927.177	5384.05
927.487	5375.47
927.796	5401.91
928.106	5375.69
928.416	5330.72
928.725	5315.81
929.034	5329.82
929.344	5289.14
929.653	5232.87
929.962	5170.05
930.271	5205.3
930.581	5176.15
930.89	5151.29
931.199	5142.48
931.508	5111.97
931.817	5116.94
932.125	5118.98
932.434	5053.44
932.743	5039.43
933.051	4982.48
933.36	5003.27
933.669	4946.32
933.977	4909.49
934.286	4908.81
934.594	4890.96
934.902	4834.69
935.21	4849.38
935.519	4802.15
935.827	4819.32
936.135	4783.39
936.443	4752.88
936.751	4758.31
937.059	4703.62
937.367	4648.48
937.674	4715.37
937.982	4677.63
938.29	4622.04
938.597	4632.89
938.905	4605.77
939.213	4613.68
939.52	4577.97
939.827	4575.94
940.135	4481.48
940.442	4527.13
940.749	4519.67
941.056	4473.79
941.363	4446.9
941.67	4468.15
941.977	4427.92
942.284	4403.97
942.591	4365.78
942.898	4390.63
943.205	4371.2
943.511	4311.09
943.818	4340.24
944.125	4293.01
944.431	4255.5
944.738	4276.96
945.044	4241.71
945.35	4229.51
945.657	4216.17
945.963	4167.59
946.269	4155.84
946.575	4127.59
946.881	4130.98
947.187	4107.48
947.493	4095.73
947.799	4102.73
948.105	4060.02
948.41	4017.76
948.716	4043.3
949.022	4042.62
949.327	4000.36
949.633	3939.35
949.938	3975.05
950.244	3945
950.549	3926.24
950.854	3927.82
951.16	3931.89
951.465	3888.5
951.77	3835.39
952.075	3829.97
952.38	3806.92
952.685	3803.08
952.99	3822.96
953.294	3798.56
953.599	3770.99
953.904	3735.28
954.209	3723.31
954.513	3702.97
954.818	3681.95
955.122	3691.22
955.426	3711.1
955.731	3640.14
956.035	3582.74
956.339	3582.97
956.643	3648.73
956.948	3588.17
957.252	3544.55
957.556	3533.93
957.86	3549.98
958.163	3562.86
958.467	3531.22
958.771	3543.42
959.075	3462.52
959.378	3440.83
959.682	3464.78
959.985	3434.95
960.289	3451.45
960.592	3410.77
960.896	3393.37
961.199	3363.09
961.502	3405.35
961.805	3363.77
962.108	3341.62
962.411	3339.14
962.714	3292.81
963.017	3313.83
963.32	3294.16
963.623	3262.08
963.926	3267.95
964.228	3240.38
964.531	3230.21
964.833	3211.23
965.136	3201.06
965.438	3182.3
965.741	3168.07
966.043	3145.92
966.345	3170.33
966.648	3119.71
966.95	3110.44
967.252	3100.05
967.554	3084.9
967.856	3082.42
968.158	3062.76
968.46	3043.55
968.761	3049.43
969.063	3005.58
969.365	3002.2
969.666	2998.35
969.968	2976.21
970.269	2948.86
970.571	2943.67
970.872	2914.97
971.174	2892.59
971.475	2931.46
971.776	2919.49
972.077	2913.61
972.378	2880.84
972.679	2872.93
972.98	2882.65
973.281	2833.61
973.582	2811.24
973.883	2810.79
974.183	2797
974.484	2753.61
974.785	2781.86
975.085	2778.25
975.386	2749.55
975.686	2783.22
975.986	2740.73
976.287	2718.81
976.587	2659.61
976.887	2699.83
977.187	2720.62
977.487	2702.77
977.787	2673.39
978.087	2635.65
978.387	2618.93
978.687	2629.1
978.987	2623
979.286	2625.26
979.586	2618.7
979.885	2612.37
980.185	2511.13
980.484	2566.05
980.784	2557.01
981.083	2569.89
981.382	2527.63
981.682	2529.21
981.981	2540.74
982.28	2486.95
982.579	2476.11
982.878	2473.4
983.177	2448.31
983.475	2484.92
983.774	2454.41
984.073	2436.56
984.372	2375.09
984.67	2434.07
984.969	2399.05
985.267	2384.81
985.566	2397.01
985.864	2370.8
986.162	2350.46
986.461	2339.39
986.759	2363.34
987.057	2307.3
987.355	2307.3
987.653	2290.35
987.951	2315.21
988.249	2296.9
988.547	2272.5
988.844	2256
989.142	2258.94
989.44	2235.21
989.737	2230.46
990.035	2258.49
990.332	2197.7
990.63	2210.35
990.927	2192.27
991.224	2185.95
991.521	2152.5
991.819	2192.5
992.116	2154.31
992.413	2161.31
992.71	2166.06
993.006	2130.13
993.303	2102.56
993.6	2129.22
993.897	2132.16
994.193	2095.33
994.49	2065.04
994.787	2045.84
995.083	2059.62
995.379	2043.58
995.676	2045.84
995.972	2039.28
996.268	2037.47
996.565	2011.94
996.861	2031.83
997.157	2007.64
997.453	1981.88
997.749	1995.22
998.044	1954.99
998.34	1930.36
998.636	1959.51
998.932	1922.68
999.227	1919.06
999.523	1958.83
999.818	1891.72
1000.114	1885.16
1000.409	1877.48
1000.704	1862.79
1001	1898.5
1001.295	1843.81
1001.59	1841.1
1001.885	1843.13
1002.18	1837.48
1002.475	1808.1
1002.77	1813.75
1003.065	1819.85
1003.359	1796.13
1003.654	1762
1003.949	1769.91
1004.243	1790.02
1004.538	1753.64
1004.832	1742.57
1005.127	1765.62
1005.421	1741.44
1005.715	1696.01
1006.009	1735.56
1006.304	1719.74
1006.598	1697.37
1006.892	1695.56
1007.186	1673.87
1007.48	1642
1007.773	1662.34
1008.067	1645.39
1008.361	1623.93
1008.655	1637.26
1008.948	1594.77
1009.242	1601.55
1009.535	1603.81
1009.829	1599.97
1010.122	1575.57
1010.415	1591.38
1010.708	1568.33
1011.001	1564.72
1011.295	1555.68
1011.588	1522.01
1011.881	1529.69
1012.173	1513.87
1012.466	1499.18
1012.759	1513.42
1013.052	1506.19
1013.344	1486.08
1013.637	1496.02
1013.93	1486.08
1014.222	1453.99
1014.514	1451.05
1014.807	1460.54
1015.099	1439.07
1015.391	1432.52
1015.683	1425.51
1015.976	1429.81
1016.268	1401.56
1016.56	1377.15
1016.851	1369.47
1017.143	1401.79
1017.435	1367.44
1017.727	1357.49
1018.018	1376.25
1018.31	1339.19
1018.602	1343.26
1018.893	1334.22
1019.185	1309.58
1019.476	1317.72
1019.767	1324.5
1020.058	1302.58
1020.35	1285.4
1020.641	1271.17
1020.932	1264.16
1021.223	1244.73
1021.514	1266.2
1021.804	1252.64
1022.095	1245.18
1022.386	1260.09
1022.677	1236.14
1022.967	1230.04
1023.258	1215.8
1023.548	1182.81
1023.839	1199.53
1024.129	1205.41
1024.419	1190.94
1024.709	1171.96
1025	1191.4
1025.29	1151.85
1025.58	1149.81
1025.87	1145.75
1026.16	1154.79
1026.449	1159.76
1026.739	1129.02
1027.029	1137.39
1027.319	1123.83
1027.608	1119.31
1027.898	1095.8
1028.187	1088.35
1028.477	1085.41
1028.766	1082.92
1029.055	1092.41
1029.344	1054.9
1029.634	1057.39
1029.923	1065.97
1030.212	1064.84
1030.501	1075.01
1030.79	1011.74
1031.078	1026.2
1031.367	1018.07
1031.656	1014.22
1031.945	1014.9
1032.233	999.99
1032.522	1002.02
1032.81	1011.29
1033.099	1014.45
1033.387	978.07
1033.675	969.93
1033.963	966.77
1034.251	959.31
1034.54	939.65
1034.828	948.92
1035.116	949.14
1035.403	959.76
1035.691	942.81
1035.979	950.5
1036.267	918.86
1036.554	926.32
1036.842	916.37
1037.129	909.14
1037.417	909.37
1037.704	889.71
1037.992	888.58
1038.279	878.41
1038.566	882.02
1038.853	882.02
1039.14	882.02
