Data from hue_260_FLMS001491_00091.txt Node
Date: Tue Feb 07 15:59:53 GMT 2017
User: dcchb
Spectrometer: FLMS00149
Trigger mode: 0
Integration Time (sec): 2.000000E-2
Scans to average: 10
Electric dark correction enabled: true
Nonlinearity correction enabled: false
Boxcar width: 0
XAxis mode: Wavelengths
Number of Pixels in Spectrum: 2048
>>>>>Begin Spectral Data<<<<<
341.393	-29.46
341.776	-29.46
342.16	-29.46
342.543	-50.25
342.927	-66.98
343.31	-87.31
343.693	-70.14
344.077	-47.32
344.46	-52.51
344.843	-58.16
345.226	-46.86
345.61	-36.92
345.993	-8.67
346.376	-14.77
346.759	2.63
347.142	38.56
347.525	42.17
347.908	61.16
348.291	85.34
348.674	90.31
349.057	102.51
349.44	116.52
349.823	138.44
350.206	153.58
350.588	199.01
350.971	189.06
351.354	192.9
351.737	236.07
352.119	255.95
352.502	254.82
352.884	272.68
353.267	278.33
353.65	264.99
354.032	289.63
354.414	301.38
354.797	307.93
355.179	302.73
355.562	303.18
355.944	325.56
356.326	315.39
356.709	311.32
357.091	333.47
357.473	327.14
357.855	335.05
358.238	331.66
358.62	324.65
359.002	338.44
359.384	315.61
359.766	312.45
360.148	321.94
360.53	330.53
360.912	307.03
361.294	320.13
361.676	340.25
362.057	331.66
362.439	314.94
362.821	326.46
363.203	331.43
363.584	311.09
363.966	317.42
364.348	312
364.729	317.87
365.111	295.27
365.493	326.23
365.874	292.56
366.256	318.55
366.637	295.27
367.019	310.87
367.4	297.76
367.781	322.62
368.163	297.99
368.544	299.57
368.925	307.48
369.306	309.74
369.688	304.77
370.069	313.58
370.45	281.94
370.831	295.95
371.212	316.74
371.593	312.68
371.974	308.16
372.355	312.45
372.736	309.29
373.117	316.52
373.498	300.25
373.879	316.29
374.26	295.27
374.641	298.21
375.021	302.73
375.402	319
375.783	334.14
376.163	313.58
376.544	323.52
376.925	303.86
377.305	346.57
377.686	302.96
378.066	302.28
378.447	332.11
378.827	335.27
379.208	328.04
379.588	326.46
379.968	313.35
380.349	345.44
380.729	314.48
381.109	305.9
381.489	337.99
381.87	322.84
382.25	309.06
382.63	327.36
383.01	345.67
383.39	348.15
383.77	337.08
384.15	338.89
384.53	344.99
384.91	346.35
385.29	335.05
385.67	335.05
386.049	354.71
386.429	355.16
386.809	345.44
387.189	350.19
387.568	363.97
387.948	369.62
388.328	346.12
388.707	346.12
389.087	352.9
389.466	353.35
389.846	357.87
390.225	365.1
390.605	354.93
390.984	378.66
391.363	358.78
391.743	379.57
392.122	364.65
392.501	361.71
392.881	380.7
393.26	373.69
393.639	384.54
394.018	382.05
394.397	402.62
394.776	387.25
395.155	398.32
395.534	381.15
395.913	366.01
396.292	423.41
396.671	383.41
397.05	379.57
397.429	392.9
397.808	381.15
398.186	376.63
398.565	398.32
398.944	368.27
399.323	403.75
399.701	406.91
400.08	405.33
400.458	426.8
400.837	403.52
401.215	425.67
401.594	431.32
401.972	419.34
402.351	406.46
402.729	415.95
403.107	430.86
403.486	418.21
403.864	425.67
404.242	428.6
404.62	451.43
404.999	451.65
405.377	457.53
405.755	457.76
406.133	448.49
406.511	454.59
406.889	447.14
407.267	469.06
407.645	493.69
408.023	477.87
408.401	473.35
408.779	473.35
409.156	487.13
409.534	496.4
409.912	479.68
410.29	507.25
410.667	510.64
411.045	519
411.422	512.44
411.8	529.84
412.178	543.63
412.555	547.47
412.933	549.96
413.31	566.23
413.687	571.88
414.065	597.19
414.442	589.05
414.819	589.73
415.197	590.18
415.574	591.54
415.951	618.66
416.328	621.14
416.705	599.67
417.082	622.05
417.46	635.38
417.837	633.34
418.214	634.7
418.591	655.27
418.967	672.89
419.344	653.68
419.721	672.89
420.098	671.99
420.475	685.09
420.852	700.46
421.228	695.04
421.605	730.07
421.982	721.93
422.358	733.46
422.735	748.82
423.111	763.29
423.488	761.03
423.864	771.42
424.241	807.35
424.617	816.62
424.994	788.37
425.37	799.89
425.746	846.9
426.123	837.41
426.499	842.6
426.875	880.57
427.251	859.55
427.627	891.87
428.003	908.14
428.379	899.55
428.756	935.48
429.132	927.57
429.507	920.34
429.883	934.13
430.259	958.53
430.635	962.83
431.011	971.64
431.387	1011.41
431.763	1027.01
432.138	1014.8
432.514	1033.11
432.89	1050.06
433.265	1071.98
433.641	1085.54
434.016	1114.69
434.392	1118.08
434.767	1116.27
435.143	1161.01
435.518	1137.74
435.894	1184.74
436.269	1201.01
436.644	1218.41
437.02	1222.48
437.395	1250.28
437.77	1270.16
438.145	1263.38
438.52	1287.11
438.895	1306.32
439.271	1319.88
439.646	1354.23
440.021	1337.51
440.395	1370.27
440.77	1374.12
441.145	1402.59
441.52	1424.06
441.895	1400.78
442.27	1440.56
442.645	1433.32
443.019	1473.1
443.394	1492.31
443.769	1485.07
444.143	1485.98
444.518	1522.14
444.892	1528.91
445.267	1540.21
445.641	1558.07
446.016	1538.41
446.39	1545.64
446.764	1571.85
447.139	1593.32
447.513	1597.39
447.887	1606.65
448.262	1602.36
448.636	1626.54
449.01	1652.53
449.384	1668.8
449.758	1674.22
450.132	1697.72
450.506	1711.28
450.88	1700.66
451.254	1708.57
451.628	1724.16
452.002	1753.09
452.376	1772.98
452.75	1772.3
453.123	1806.2
453.497	1858.62
453.871	1812.75
454.244	1852.75
454.618	1872.63
454.992	1922.12
455.365	1898.62
455.739	1970.94
456.112	1968.45
456.486	1957.6
456.859	1979.98
457.232	2013.42
457.606	2009.58
457.979	2018.39
458.352	2072.86
458.725	2076.47
459.099	2098.84
459.472	2137.49
459.845	2125.51
460.218	2192.17
460.591	2176.58
460.964	2229.01
461.337	2243.47
461.71	2286.86
462.083	2312.62
462.456	2285.28
462.829	2331.83
463.201	2362.11
463.574	2393.07
463.947	2407.54
464.32	2431.49
464.692	2455.44
465.065	2435.33
465.438	2510.13
465.81	2541.09
466.183	2552.39
466.555	2600.52
466.928	2622.9
467.3	2602.56
467.672	2629.22
468.045	2774.53
468.417	2691.37
468.789	2746.51
469.161	2772.5
469.534	2812.95
469.906	2842.1
470.278	2871.03
470.65	2940.4
471.022	2939.5
471.394	3023.56
471.766	3052.04
472.138	3043.45
472.51	3124.35
472.882	3162.09
473.253	3185.82
473.625	3228.08
473.997	3268.98
474.369	3295.42
474.74	3351.47
475.112	3375.42
475.484	3452.71
475.855	3484.57
476.227	3519.82
476.598	3586.71
476.97	3618.35
477.341	3681.17
477.713	3725.24
478.084	3741.74
478.455	3843.66
478.827	3860.83
479.198	3934.28
479.569	3969.08
479.94	4019.47
480.311	4101.73
480.682	4170.88
481.053	4212.69
481.424	4302.4
481.795	4302.63
482.166	4370.87
482.537	4399.8
482.908	4496.29
483.279	4489.29
483.65	4648.61
484.021	4704.42
484.391	4703.97
484.762	4766.8
485.133	4798.66
485.503	4861.03
485.874	4906.9
486.244	4899
486.615	5016.73
486.985	5067.13
487.356	5204.52
487.726	5206.56
488.097	5279.55
488.467	5301.92
488.837	5419.89
489.207	5444.29
489.578	5528.13
489.948	5553.67
490.318	5629.37
490.688	5616.94
491.058	5710.05
491.428	5792.98
491.798	5820.78
492.168	5922.47
492.538	5913.21
492.908	5952.75
493.278	6041.79
493.648	6057.61
494.017	6125.63
494.387	6103.94
494.757	6208.11
495.126	6229.36
495.496	6273.87
495.866	6290.15
496.235	6314.55
496.605	6341.44
496.974	6386.87
497.344	6471.61
497.713	6478.39
498.082	6500.31
498.452	6582.79
498.821	6570.59
499.19	6629.12
499.559	6678.84
499.928	6653.53
500.298	6656.24
500.667	6729.46
501.036	6676.58
501.405	6849.23
501.774	6897.36
502.143	6872.05
502.512	6851.26
502.88	6943.24
503.249	6982.78
503.618	6945.95
503.987	6950.69
504.356	7008.54
504.724	7003.12
505.093	7044.93
505.462	7087.64
505.83	7064.36
506.199	7137.58
506.567	7204.02
506.936	7140.74
507.304	7285.37
507.672	7273.4
508.041	7265.71
508.409	7265.49
508.777	7369.89
509.145	7331.93
509.514	7346.84
509.882	7461.41
510.25	7385.03
510.618	7408.08
510.986	7437.01
511.354	7470.23
511.722	7467.29
512.09	7587.51
512.458	7509.55
512.826	7601.07
513.193	7559.94
513.561	7577.34
513.929	7603.33
514.297	7721.07
514.664	7680.62
515.032	7712.03
515.4	7747.28
515.767	7764.68
516.135	7780.05
516.502	7691.69
516.869	7830.67
517.237	7777.79
517.604	7776.66
517.972	7814.85
518.339	7851.91
518.706	7840.61
519.073	7834.96
519.44	7837.45
519.808	7928.52
520.175	7905.02
520.542	7971.46
520.909	7999.48
521.276	8028.86
521.643	7973.72
522.009	8072.25
522.376	8014.62
522.743	8054.39
523.11	8099.59
523.477	8119.7
523.843	8182.98
524.21	8221.17
524.577	8243.54
524.943	8281.05
525.31	8258.91
525.676	8282.41
526.043	8309.53
526.409	8210.55
526.776	8352.24
527.142	8289.41
527.508	8342.07
527.874	8388.85
528.241	8387.72
528.607	8397.89
528.973	8448.28
529.339	8369.64
529.705	8391.33
530.071	8509.75
530.437	8483.31
530.803	8494.61
531.169	8511.33
531.535	8473.82
531.901	8477.88
532.267	8446.47
532.632	8445.12
532.998	8525.11
533.364	8492.8
533.73	8475.85
534.095	8501.16
534.461	8463.65
534.826	8560.14
535.192	8501.39
535.557	8530.09
535.923	8524.66
536.288	8526.24
536.653	8495.96
537.019	8512.23
537.384	8483.53
537.749	8547.04
538.114	8489.86
538.479	8443.99
538.845	8535.28
539.21	8461.61
539.575	8478.11
539.94	8498
540.305	8449.41
540.67	8443.99
541.034	8486.02
541.399	8498.22
541.764	8465.46
542.129	8469.52
542.494	8441.73
542.858	8449.86
543.223	8398.79
543.587	8454.16
543.952	8428.17
544.316	8512.46
544.681	8401.95
545.045	8426.81
545.41	8414.61
545.774	8405.34
546.138	8392.46
546.503	8341.84
546.867	8316.76
547.231	8414.61
547.595	8439.47
547.959	8406.47
548.324	8387.27
548.688	8284.9
549.052	8426.81
549.416	8336.65
549.779	8331.45
550.143	8346.36
550.507	8371.45
550.871	8334.61
551.235	8305.23
551.599	8331.45
551.962	8332.13
552.326	8321.5
552.689	8333.26
553.053	8317.21
553.417	8257.78
553.78	8346.36
554.143	8338.45
554.507	8352.01
554.87	8335.29
555.234	8372.8
555.597	8294.61
555.96	8339.13
556.323	8367.15
556.686	8338.45
557.05	8400.82
557.413	8310.88
557.776	8286.93
558.139	8348.4
558.502	8330.32
558.865	8343.88
559.228	8374.61
559.59	8476.98
559.953	8405.12
560.316	8462.29
560.679	8399.92
561.041	8414.38
561.404	8457.77
561.767	8522.85
562.129	8440.6
562.492	8493.25
562.854	8493.7
563.217	8448.28
563.579	8512.01
563.941	8560.14
564.304	8508.62
564.666	8546.81
565.028	8581.84
565.39	8595.4
565.753	8629.07
566.115	8608.28
566.477	8669.29
566.839	8651.21
567.201	8726.24
567.563	8704.32
567.925	8766.69
568.287	8768.27
568.648	8691.66
569.01	8777.09
569.372	8831.1
569.734	8779.12
570.095	8861.83
570.457	8914.03
570.819	8875.61
571.18	8879
571.542	8983.63
571.903	8973.46
572.265	8972.79
572.626	8984.76
572.987	8921.04
573.349	9004.65
573.71	8972.11
574.071	9007.59
574.432	9074.93
574.794	9163.29
575.155	9133.46
575.516	9044.65
575.877	9247.58
576.238	9169.17
576.599	9215.72
576.96	9144.76
577.32	9209.84
577.681	9253.91
578.042	9281.93
578.403	9245.32
578.763	9283.29
579.124	9345.43
579.485	9349.05
579.845	9422.94
580.206	9358.77
580.566	9389.5
580.927	9409.16
581.287	9460.91
581.648	9424.53
582.008	9473.56
582.368	9509.72
582.728	9462.04
583.089	9478.99
583.449	9495.03
583.809	9536.39
584.169	9515.37
584.529	9531.87
584.889	9626.78
585.249	9629.27
585.609	9559.89
585.969	9736.61
586.329	9638.53
586.688	9636.95
587.048	9716.27
587.408	9723.05
587.768	9616.61
588.127	9661.58
588.487	9728.02
588.846	9816.61
589.206	9688.02
589.565	9782.71
589.925	9762.82
590.284	9762.14
590.643	9805.99
591.003	9908.13
591.362	9868.13
591.721	9882.14
592.08	9887.11
592.44	9868.13
592.799	9902.71
593.158	9923.5
593.517	9906.32
593.876	9939.31
594.235	9873.1
594.593	9890.28
594.952	9977.28
595.311	9871.07
595.67	9961.91
596.029	10031.06
596.387	10072.19
596.746	10045.75
597.104	10044.85
597.463	9985.42
597.822	10033.32
598.18	10002.59
598.538	10009.6
598.897	10082.81
599.255	10009.6
599.613	10090.5
599.972	10054.34
600.33	10091.63
600.688	10093.21
601.046	10149.25
601.404	10161
601.762	10129.14
602.12	10203.94
602.478	10164.17
602.836	10156.26
603.194	10122.59
603.552	10128.01
603.91	10142.7
604.268	10170.72
604.625	10108.58
604.983	10150.61
605.341	10116.49
605.698	10177.27
606.056	10194
606.413	10169.14
606.771	10227.89
607.128	10259.08
607.485	10198.74
607.843	10182.02
608.2	10250.49
608.557	10243.04
608.914	10230.83
609.272	10241.91
609.629	10215.69
609.986	10390.38
610.343	10296.37
610.7	10412.97
611.057	10330.27
611.414	10384.95
611.771	10398.51
612.127	10348.12
612.484	10421.56
612.841	10397.38
613.198	10359.19
613.554	10367.78
613.911	10338.85
614.267	10415.01
614.624	10402.13
614.98	10485.74
615.337	10489.13
615.693	10457.49
616.05	10550.82
616.406	10500.66
616.762	10430.15
617.118	10479.87
617.475	10543.37
617.831	10531.39
618.187	10537.04
618.543	10548.79
618.899	10553.08
619.255	10510.15
619.611	10500.2
619.967	10535.23
620.323	10655.23
620.678	10631.05
621.034	10560.54
621.39	10529.13
621.746	10497.27
622.101	10588.56
622.457	10555.8
622.812	10616.36
623.168	10667.88
623.523	10610.26
623.879	10618.62
624.234	10594.44
624.589	10615.23
624.945	10655.23
625.3	10588.56
625.655	10643.48
626.01	10528.45
626.365	10574.78
626.72	10640.31
627.075	10589.92
627.43	10525.74
627.785	10557.83
628.14	10553.54
628.495	10622.01
628.85	10516.02
629.205	10529.58
629.559	10601.9
629.914	10461.79
630.269	10511.5
630.623	10429.47
630.978	10457.04
631.332	10546.08
631.687	10511.05
632.041	10405.97
632.396	10521.45
632.75	10440.54
633.104	10469.92
633.459	10388.79
633.813	10344.05
634.167	10350.38
634.521	10365.52
634.875	10398.51
635.229	10325.52
635.583	10321.9
635.937	10322.81
636.291	10328.01
636.645	10297.95
636.999	10206.43
637.352	10254.11
637.706	10215.47
638.06	10239.42
638.413	10236.93
638.767	10222.02
639.121	10226.09
639.474	10092.31
639.828	10184.28
640.181	10233.77
640.534	10192.42
640.888	10233.32
641.241	10081.91
641.594	10184.96
641.947	10111.74
642.301	10170.95
642.654	10116.71
643.007	10144.06
643.36	10108.12
643.713	10108.12
644.066	10117.16
644.419	10043.72
644.771	10028.58
645.124	9876.27
645.477	9845.08
645.83	9854.35
646.182	9831.75
646.535	9785.42
646.888	9803.95
647.24	9738.64
647.593	9804.86
647.945	9783.84
648.298	9824.29
648.65	9704.97
649.002	9646.89
649.355	9739.32
649.707	9685.31
650.059	9823.16
650.411	9868.36
650.763	9848.7
651.115	10003.95
651.467	9921.69
651.819	9884.4
652.171	9958.07
652.523	9885.08
652.875	9918.07
653.227	9862.71
653.578	9991.06
653.93	9888.92
654.282	9883.27
654.633	9876.27
654.985	9901.35
655.337	9871.07
655.688	9870.39
656.039	9945.87
656.391	9827.68
656.742	9847.57
657.094	9876.04
657.445	9907
657.796	9873.78
658.147	9925.08
658.498	9839.2
658.849	9950.61
659.2	9877.4
659.551	9829.94
659.902	9899.32
660.253	9894.12
660.604	9919.65
660.955	9864.29
661.306	9893.44
661.656	9935.47
662.007	10002.36
662.358	9920.78
662.708	9923.27
663.059	9936.15
663.409	9833.1
663.76	9980.22
664.11	9908.58
664.461	9969.37
664.811	9934.12
665.161	9928.69
665.511	9898.64
665.862	9911.97
666.212	9925.3
666.562	9931.63
666.912	9908.36
667.262	9965.75
667.612	9901.58
667.962	9951.97
668.312	9959.88
668.662	9968.92
669.011	9932.76
669.361	9929.37
669.711	9902.93
670.06	9880.33
670.41	9879.2
670.76	9896.15
671.109	9871.52
671.459	9872.42
671.808	9876.49
672.157	9920.11
672.507	9878.3
672.856	9830.62
673.205	9873.1
673.554	9876.49
673.904	9813.44
674.253	9915.36
674.602	9865.64
674.951	9638.53
675.3	9616.39
675.649	9827.91
675.998	9812.76
676.346	9796.04
676.695	9775.93
677.044	9725.31
677.393	9767.12
677.741	9790.17
678.09	9782.93
678.438	9660.9
678.787	9709.94
679.135	9763.5
679.484	9621.81
679.832	9678.76
680.181	9565.99
680.529	9643.5
680.877	9659.1
681.225	9630.17
681.573	9610.74
681.922	9602.37
682.27	9546.56
682.618	9566.9
682.966	9482.15
683.314	9492.1
683.661	9437.41
684.009	9474.02
684.357	9473.34
684.705	9413.45
685.053	9466.11
685.4	9389.5
685.748	9398.09
686.095	9417.75
686.443	9292.78
686.79	9348.14
687.138	9269.73
687.485	9226.57
687.832	9302.04
688.18	9219.79
688.527	9220.46
688.874	9176.85
689.221	9088.04
689.568	9140.01
689.915	9104.08
690.262	9161.03
690.609	9105.44
690.956	8978.66
691.303	8981.37
691.65	8990.19
691.997	9008.49
692.344	8901.15
692.69	8929.85
693.037	8919
693.383	8745.22
693.73	8866.8
694.077	8775.5
694.423	8783.41
694.769	8759.01
695.116	8729.18
695.462	8728.05
695.808	8643.76
696.155	8659.12
696.501	8573.93
696.847	8552.01
697.193	8513.82
697.539	8537.32
697.885	8497.77
698.231	8469.3
698.577	8356.76
698.923	8406.47
699.269	8375.97
699.614	8300.94
699.96	8285.8
700.306	8230.21
700.651	8218.68
700.997	8256.2
701.342	8247.83
701.688	8190.89
702.033	8130.32
702.379	8137.55
702.724	8142.53
703.069	8151.57
703.415	8055.07
703.76	8032.92
704.105	8004.45
704.45	7952.02
704.795	7937.33
705.14	7952.02
705.485	7920.84
705.83	7865.92
706.175	7942.76
706.52	7797.45
706.865	7817.11
707.209	7734.85
707.554	7733.72
707.899	7768.75
708.243	7745.02
708.588	7693.72
708.932	7636.1
709.277	7628.64
709.621	7615.99
709.966	7622.09
710.31	7538.02
710.654	7543.9
710.998	7537.34
711.342	7517.46
711.687	7498.02
712.031	7487.85
712.375	7440.17
712.719	7459.38
713.063	7463
713.407	7441.75
713.75	7428.42
714.094	7422.32
714.438	7419.61
714.782	7406.05
715.125	7292.6
715.469	7371.25
715.812	7328.99
716.156	7236.79
716.499	7287.86
716.843	7324.47
717.186	7257.35
717.53	7311.14
717.873	7309.55
718.216	7263.45
718.559	7197.01
718.902	7216.45
719.246	7225.04
719.589	7173.51
719.932	7146.17
720.275	7083.12
720.617	7152.5
720.96	7111.59
721.303	7149.56
721.646	7133.96
721.989	7100.97
722.331	7117.47
722.674	7058.03
723.016	7117.24
723.359	7047.87
723.701	7104.81
724.044	7035.21
724.386	7038.6
724.729	7068.2
725.071	7023.01
725.413	7086.06
725.755	7100.29
726.097	7009
726.439	6945.04
726.782	6966.74
727.124	7012.39
727.465	6966.96
727.807	6975.78
728.149	6954.31
728.491	6932.16
728.833	6902.56
729.175	6932.84
729.516	6911.37
729.858	6936.91
730.199	6891.26
730.541	6921.99
730.882	6923.35
731.224	6994.53
731.565	6891.03
731.906	6969.68
732.248	6915.67
732.589	6923.8
732.93	6886.74
733.271	6837.02
733.612	6945.5
733.953	6949.11
734.294	6892.39
734.635	6846.29
734.976	6927.19
735.317	6874.08
735.658	6878.38
735.999	6911.6
736.339	6913.86
736.68	6929.45
737.021	6907.98
737.361	6867.31
737.702	6956.79
738.042	6935.33
738.383	6929.22
738.723	6881.99
739.063	6955.21
739.404	6921.77
739.744	6872.95
740.084	6933.97
740.424	6996.79
740.764	6956.34
741.104	6994.76
741.444	6961.31
741.784	6971.03
742.124	7050.13
742.464	6952.05
742.804	6998.15
743.143	6958.6
743.483	7090.35
743.823	7023.23
744.162	6987.98
744.502	7110.91
744.841	7067.98
745.181	7200.63
745.52	7102.1
745.86	7191.82
746.199	7275.2
746.538	7266.84
746.877	7278.37
747.216	7304.36
747.556	7297.12
747.895	7420.51
748.234	7386.39
748.573	7420.29
748.911	7500.73
749.25	7559.49
749.589	7511.58
749.928	7682.43
750.267	7674.97
750.605	7725.81
750.944	7779.82
751.283	7847.39
751.621	7911.8
751.96	7924.23
752.298	7999.48
752.636	8139.81
752.975	8113.6
753.313	8222.75
753.651	8291
753.989	8361.28
754.327	8455.74
754.666	8560.59
755.004	8663.87
755.342	8767.14
755.679	8918.55
756.017	8920.81
756.355	9059.11
756.693	9142.05
757.031	9282.16
757.368	9337.3
757.706	9471.76
758.044	9584.97
758.381	9746.1
758.719	9822.48
759.056	9938.19
759.394	10045.75
759.731	10078.29
760.068	10278.06
760.405	10378.17
760.743	10476.25
761.08	10714.66
761.417	10727.09
761.754	10890.02
762.091	11103.8
762.428	11106.97
762.765	11242.33
763.102	11377.47
763.438	11516
763.775	11591.25
764.112	11835.08
764.449	11962.54
764.785	12057
765.122	12109.88
765.458	12245.24
765.795	12380.15
766.131	12448.18
766.467	12536.08
766.804	12574.27
767.14	12748.73
767.476	12840.93
767.812	12876.41
768.148	13006.13
768.485	13102.62
768.821	13204.77
769.157	13378.55
769.492	13344.42
769.828	13513.68
770.164	13507.36
770.5	13628.48
770.836	13691.98
771.171	13728.14
771.507	13852.66
771.842	13858.31
772.178	13968.81
772.513	14031.86
772.849	14027.12
773.184	14074.8
773.519	14155.02
773.855	14122.03
774.19	14254.91
774.525	14304.85
774.86	14451.51
775.195	14412.19
775.53	14392.76
775.865	14448.57
776.2	14410.38
776.535	14383.49
776.87	14464.39
777.205	14525.64
777.539	14474.34
777.874	14695.12
778.209	14561.34
778.543	14632.75
778.878	14597.72
779.212	14605.86
779.547	14564.05
779.881	14635.91
780.215	14639.98
780.55	14663.48
780.884	14626.88
781.218	14646.08
781.552	14701.9
781.886	14606.08
782.22	14615.8
782.554	14589.14
782.888	14545.97
783.222	14498.07
783.556	14518.18
783.889	14559.53
784.223	14496.94
784.557	14466.2
784.89	14580.1
785.224	14495.81
785.557	14394.79
785.891	14465.98
786.224	14352.98
786.558	14400.89
786.891	14324.28
787.224	14343.49
787.557	14338.52
787.891	14364.51
788.224	14351.4
788.557	14355.24
788.89	14344.62
789.223	14271.4
789.556	14298.52
789.888	14197.51
790.221	14208.13
790.554	14103.5
790.887	14063.5
791.219	14042.26
791.552	14149.6
791.884	14025.08
792.217	14009.94
792.549	14011.3
792.882	13889.49
793.214	13805.2
793.546	13913
793.879	13824.18
794.211	13750.97
794.543	13795.94
794.875	13735.83
795.207	13801.36
795.539	13790.29
795.871	13781.93
796.203	13632.78
796.535	13608.37
796.867	13583.29
797.198	13485.21
797.53	13588.03
797.862	13523.63
798.193	13571.54
798.525	13441.6
798.856	13480.01
799.188	13362.05
799.519	13350.98
799.85	13284.31
800.182	13254.93
800.513	13367.02
800.844	13092.45
801.175	13205.44
801.506	13221.04
801.837	13114.37
802.168	13166.12
802.499	13122.73
802.83	12992.12
803.161	12934.94
803.491	13076.41
803.822	12977.2
804.153	12997.09
804.483	12805.91
804.814	12806.58
805.145	12847.71
805.475	12865.34
805.805	12700.37
806.136	12783.31
806.466	12768.39
806.796	12756.19
807.126	12659.24
807.457	12587.38
807.787	12601.62
808.117	12594.39
808.447	12596.65
808.777	12621.28
809.107	12500.83
809.436	12507.38
809.766	12508.06
810.096	12415.41
810.426	12477.78
810.755	12431.23
811.085	12398.01
811.414	12341.74
811.744	12248.18
812.073	12244.57
812.403	12229.65
812.732	12099.94
813.061	12165.25
813.39	12137.45
813.719	12110.78
814.049	12211.57
814.378	12127.05
814.707	11993.27
815.036	11956.44
815.365	11959.37
815.693	11896.55
816.022	11938.13
816.351	11881.41
816.68	11846.84
817.008	11949.88
817.337	11747.18
817.665	11727.97
817.994	11752.6
818.322	11793.96
818.651	11716.44
818.979	11689.33
819.307	11738.36
819.636	11615.2
819.964	11627.41
820.292	11640.29
820.62	11676.67
820.948	11609.33
821.276	11701.3
821.604	11629.21
821.932	11599.84
822.259	11652.49
822.587	11602.55
822.915	11584.47
823.243	11585.6
823.57	11601.87
823.898	11619.72
824.225	11612.49
824.553	11551.48
824.88	11575.43
825.207	11586.05
825.535	11614.98
825.862	11527.3
826.189	11535.21
826.516	11700.17
826.843	11601.64
827.17	11636.45
827.497	11687.52
827.824	11592.6
828.151	11634.19
828.478	11654.98
828.805	11692.94
829.131	11628.76
829.458	11603.45
829.785	11574.98
830.111	11574.98
830.438	11628.76
830.764	11579.72
831.09	11642.32
831.417	11606.39
831.743	11596.45
832.069	11606.16
832.395	11476.68
832.722	11556.22
833.048	11581.08
833.374	11570.23
833.7	11581.98
834.026	11492.49
834.351	11499.5
834.677	11529.33
835.003	11576.79
835.329	11564.13
835.654	11410.91
835.98	11451.59
836.306	11480.52
836.631	11407.75
836.956	11552.38
837.282	11485.94
837.607	11394.19
837.932	11381.31
838.258	11349.45
838.583	11368.66
838.908	11287.08
839.233	11319.62
839.558	11395.1
839.883	11308.32
840.208	11222.67
840.533	11205.72
840.858	11233.29
841.182	11216.57
841.507	11173.41
841.832	11124.59
842.156	11143.13
842.481	11106.29
842.805	11117.14
843.13	11046.63
843.454	11023.58
843.778	11013.64
844.103	11047.99
844.427	10979.74
844.751	10986.52
845.075	10954.66
845.399	10934.99
845.723	10885.05
846.047	10847.09
846.371	10770.03
846.695	10771.61
847.019	10698.62
847.343	10603.48
847.666	10569.81
847.99	10508.79
848.313	10586.3
848.637	10442.58
848.96	10408.23
849.284	10396.48
849.607	10396.03
849.931	10318.74
850.254	10249.14
850.577	10220.44
850.9	10158.97
851.223	10115.13
851.546	10071.29
851.869	10030.61
852.192	10128.46
852.515	9983.61
852.838	9956.26
853.161	9974.57
853.483	9888.24
853.806	9857.96
854.129	9836.04
854.451	9835.14
854.774	9882.14
855.096	9804.63
855.419	9691.64
855.741	9721.24
856.063	9674.24
856.385	9641.92
856.708	9577.74
857.03	9521.7
857.352	9564.18
857.674	9558.99
857.996	9554.92
858.318	9461.36
858.64	9373
858.961	9420.91
859.283	9419.33
859.605	9306.11
859.926	9392.21
860.248	9267.92
860.57	9320.57
860.891	9312.21
861.212	9251.65
861.534	9196.96
861.855	9219.11
862.176	9149.51
862.498	9197.87
862.819	9218.43
863.14	9155.38
863.461	9154.7
863.782	9061.82
864.103	9138.21
864.424	9064.76
864.745	9061.37
865.065	9004.88
865.386	8944.31
865.707	8988.15
866.027	9024.31
866.348	8960.81
866.668	8950.41
866.989	8983.18
867.309	8878.55
867.63	8938.66
867.95	8909.74
868.27	8881.72
868.59	8858.89
868.91	8814.82
869.23	8874.94
869.55	8815.73
869.87	8817.76
870.19	8870.87
870.51	8806.46
870.83	8786.58
871.15	8759.23
871.469	8717.65
871.789	8798.1
872.109	8700.93
872.428	8696.18
872.748	8680.14
873.067	8665.22
873.386	8695.73
873.706	8669.52
874.025	8616.41
874.344	8657.99
874.663	8620.03
874.982	8619.35
875.301	8645.79
875.62	8591.33
875.939	8505.68
876.258	8562.63
876.577	8441.28
876.896	8491.9
877.214	8520.6
877.533	8547.04
877.852	8488.96
878.17	8547.71
878.489	8466.13
878.807	8513.14
879.125	8436.08
879.444	8378
879.762	8370.54
880.08	8315.85
880.398	8356.53
880.716	8368.51
881.034	8310.43
881.352	8351.33
881.67	8297.1
881.988	8243.31
882.306	8313.59
882.624	8242.86
882.941	8242.86
883.259	8203.77
883.577	8237.21
883.894	8143.43
884.212	8116.09
884.529	8181.17
884.846	8090.1
885.164	8093.04
885.481	8090.32
885.798	8126.71
886.115	8063.21
886.432	8016.2
886.75	7974.39
887.067	7974.62
887.383	7986.15
887.7	7972.14
888.017	7942.53
888.334	7944.57
888.651	7914.06
888.967	7863.66
889.284	7850.1
889.6	7875.64
889.917	7764.46
890.233	7800.16
890.55	7765.59
890.866	7779.82
891.182	7683.56
891.498	7633.84
891.815	7697.57
892.131	7640.62
892.447	7593.61
892.763	7605.36
893.079	7531.24
893.395	7607.17
893.71	7565.59
894.026	7561.07
894.342	7455.99
894.657	7411.02
894.973	7458.93
895.289	7374.41
895.604	7423.9
895.92	7383.68
896.235	7308.88
896.55	7363.56
896.865	7322.66
897.181	7267.52
897.496	7249.44
897.811	7216.67
898.126	7213.06
898.441	7150.46
898.756	7175.09
899.071	7129.9
899.386	7103.23
899.7	7110.91
900.015	7043.57
900.33	7015.55
900.644	6989.34
900.959	6980.75
901.273	6970.13
901.588	6946.85
901.902	6871.82
902.216	6876.57
902.531	6911.82
902.845	6842.22
903.159	6811.71
903.473	6710.7
903.787	6668.89
904.101	6701.21
904.415	6665.95
904.729	6640.64
905.042	6652.4
905.356	6613.75
905.67	6596.58
905.984	6633.19
906.297	6576.92
906.611	6526.52
906.924	6529.69
907.237	6479.52
907.551	6443.36
907.864	6421.67
908.177	6410.59
908.491	6376.92
908.804	6340.77
909.117	6341.67
909.43	6302.12
909.743	6256.93
910.056	6316.13
910.368	6274.33
910.681	6185.52
910.994	6192.75
911.307	6163.14
911.619	6070.72
911.932	6127.44
912.244	6090.15
912.557	6059.42
912.869	6047.21
913.181	5994.33
913.494	5985.52
913.806	5946.2
914.118	5875.47
914.43	5900.55
914.742	5865.75
915.054	5838.86
915.366	5826.88
915.678	5775.36
915.99	5772.42
916.302	5758.41
916.613	5696.49
916.925	5682.93
917.236	5710.95
917.548	5697.17
917.859	5701.23
918.171	5621.24
918.482	5595.02
918.794	5579.43
919.105	5574.01
919.416	5526.32
919.727	5549.6
920.038	5494.23
920.349	5460.56
920.66	5435.7
920.971	5427.34
921.282	5422.82
921.593	5364.97
921.903	5361.36
922.214	5392.99
922.525	5313.45
922.835	5289.95
923.146	5246.78
923.456	5228.7
923.767	5248.82
924.077	5262.38
924.387	5174.02
924.697	5190.29
925.008	5147.35
925.318	5156.62
925.628	5092.21
925.938	5060.57
926.248	5021.93
926.558	5001.14
926.867	4990.97
927.177	4985.55
927.487	4981.25
927.796	4989.84
928.106	4958.43
928.416	4949.39
928.725	4931.54
929.034	4908.03
929.344	4868.26
929.653	4855.61
929.962	4829.62
930.271	4799.34
930.581	4804.99
930.89	4761.37
931.199	4735.38
931.508	4711.66
931.817	4751.43
932.125	4707.59
932.434	4683.86
932.743	4643.63
933.051	4635.05
933.36	4604.54
933.669	4565.9
933.977	4540.81
934.286	4549.17
934.594	4553.02
934.902	4547.82
935.21	4492
935.519	4517.08
935.827	4465.79
936.135	4462.17
936.443	4438.44
936.751	4422.85
937.059	4422.4
937.367	4360.25
937.674	4390.08
937.982	4396.64
938.29	4320.71
938.597	4316.86
938.905	4268.28
939.213	4271.89
939.52	4280.93
939.827	4213.59
940.135	4220.37
940.442	4188.05
940.749	4168.85
941.056	4220.82
941.363	4116.87
941.67	4132.24
941.977	4086.59
942.284	4113.25
942.591	4104.67
942.898	4083.2
943.205	4046.14
943.511	4032.58
943.818	4003.2
944.125	3982.41
944.431	3982.64
944.738	3977.44
945.044	3998.91
945.35	3943.99
945.657	3908.74
945.963	3884.78
946.269	3897.21
946.575	3886.14
946.881	3850.89
947.187	3804.56
947.493	3784.45
947.799	3807.05
948.105	3781.51
948.41	3739.7
948.716	3750.55
949.022	3703.09
949.327	3765.01
949.633	3659.48
949.938	3702.87
950.244	3703.77
950.549	3694.51
950.854	3648.41
951.16	3621.97
951.465	3630.78
951.77	3594.85
952.075	3603.44
952.38	3571.57
952.685	3602.53
952.99	3512.14
953.294	3563.89
953.599	3542.19
953.904	3485.7
954.209	3433.72
954.513	3476.21
954.818	3443.21
955.122	3419.26
955.426	3390.33
955.731	3413.61
956.035	3402.99
956.339	3382.43
956.643	3367.96
956.948	3348.98
957.252	3333.16
957.556	3348.53
957.86	3292.71
958.163	3314.4
958.467	3258.59
958.771	3289.09
959.075	3264.69
959.378	3222.66
959.682	3231.24
959.985	3212.71
960.289	3168.65
960.592	3155.54
960.896	3189.66
961.199	3161.19
961.502	3191.92
961.805	3134.07
962.108	3088.87
962.411	3119.83
962.714	3097.01
963.017	3101.3
963.32	3099.72
963.623	3061.53
963.926	3031.02
964.228	3032.38
964.531	3052.94
964.833	2975.2
965.136	2978.59
965.438	2986.73
965.741	2927.07
966.043	2956.67
966.345	2908.09
966.648	2904.92
966.95	2944.47
967.252	2887.07
967.554	2873.74
967.856	2861.31
968.158	2859.95
968.46	2880.07
968.761	2832.16
969.063	2794.87
969.365	2826.28
969.666	2829.67
969.968	2760.52
970.269	2798.94
970.571	2771.37
970.872	2763.46
971.174	2739.05
971.475	2732.5
971.776	2697.92
972.077	2696.79
972.378	2666.06
972.679	2723.01
972.98	2651.82
973.281	2643.69
973.582	2682.56
973.883	2630.81
974.183	2650.92
974.484	2611.6
974.785	2623.8
975.085	2612.05
975.386	2586.51
975.686	2539.28
975.986	2539.74
976.287	2565.27
976.587	2540.64
976.887	2554.88
977.187	2536.12
977.487	2482.56
977.787	2505.16
978.087	2505.39
978.387	2429.46
978.687	2478.95
978.987	2422.22
979.286	2437.37
979.586	2445.95
979.885	2429.23
980.185	2414.77
980.484	2387.2
980.784	2386.52
981.083	2356.24
981.382	2380.42
981.682	2366.18
981.981	2346.97
982.28	2352.62
982.579	2359.4
982.878	2335.45
983.177	2305.62
983.475	2319.85
983.774	2266.07
984.073	2287.76
984.372	2266.75
984.67	2250.03
984.969	2269.23
985.267	2232.4
985.566	2241.89
985.864	2235.79
986.162	2225.62
986.461	2212.29
986.759	2212.96
987.057	2161.89
987.355	2184.26
987.653	2136.36
987.951	2116.7
988.249	2119.86
988.547	2133.19
988.844	2120.54
989.142	2125.28
989.44	2109.69
989.737	2094.1
990.035	2091.16
990.332	2068.56
990.63	2068.11
990.927	2072.18
991.224	2080.31
991.521	2038.96
991.819	2053.42
992.116	2010.94
992.413	1994.67
992.71	2005.06
993.006	1985.4
993.303	1996.7
993.6	1951.73
993.897	1950.82
994.193	1977.72
994.49	1943.59
994.787	1928.45
995.083	1909.7
995.379	1910.83
995.676	1912.86
995.972	1907.89
996.268	1921.22
996.565	1889.13
996.861	1894.33
997.157	1866.08
997.453	1859.53
997.749	1864.95
998.044	1828.57
998.34	1845.74
998.636	1804.16
998.932	1835.12
999.227	1788.12
999.523	1787.44
999.818	1789.25
1000.114	1778.63
1000.409	1766.2
1000.704	1742.92
1001	1761.45
1001.295	1738.63
1001.59	1732.75
1001.885	1760.32
1002.18	1721.45
1002.475	1732.53
1002.77	1717.16
1003.065	1700.66
1003.359	1669.25
1003.654	1683.71
1003.949	1666.76
1004.243	1662.92
1004.538	1650.27
1004.832	1647.78
1005.127	1646.43
1005.421	1600.78
1005.715	1588.57
1006.009	1627.67
1006.304	1620.66
1006.598	1573.43
1006.892	1596.94
1007.186	1586.77
1007.48	1568.01
1007.773	1572.08
1008.067	1516.26
1008.361	1557.39
1008.655	1544.51
1008.948	1528.46
1009.242	1516.26
1009.535	1508.8
1009.829	1506.54
1010.122	1472.19
1010.415	1496.15
1010.708	1461.35
1011.001	1458.63
1011.295	1473.1
1011.588	1447.56
1011.881	1436.26
1012.173	1431.52
1012.466	1419.99
1012.759	1396.26
1013.052	1424.51
1013.344	1379.54
1013.637	1378.18
1013.93	1389.03
1014.222	1391.74
1014.514	1375.47
1014.807	1343.61
1015.099	1357.85
1015.391	1325.76
1015.683	1322.14
1015.976	1332.54
1016.268	1325.53
1016.56	1324.63
1016.851	1329.37
1017.143	1302.25
1017.435	1338.86
1017.727	1291.41
1018.018	1271.75
1018.31	1285.76
1018.602	1255.25
1018.893	1261.13
1019.185	1231.07
1019.476	1229.71
1019.767	1259.54
1020.058	1221.8
1020.35	1212.09
1020.641	1208.7
1020.932	1164.86
1021.223	1210.28
1021.514	1179.77
1021.804	1158.08
1022.095	1194.01
1022.386	1181.58
1022.677	1147.46
1022.967	1142.94
1023.258	1162.6
1023.548	1130.73
1023.839	1136.16
1024.129	1108.36
1024.419	1112.65
1024.709	1090.51
1025	1089.83
1025.29	1094.58
1025.58	1105.65
1025.87	1111.3
1026.16	1068.36
1026.449	1067.46
1026.739	1061.81
1027.029	1062.94
1027.319	1050.96
1027.608	1059.55
1027.898	1050.06
1028.187	1044.18
1028.477	1007.12
1028.766	1008.93
1029.055	1010.51
1029.344	1011.19
1029.634	993.56
1029.923	1002.6
1030.212	998.99
1030.501	973.67
1030.79	960.57
1031.078	958.76
1031.367	978.65
1031.656	960.12
1031.945	935.03
1032.233	930.96
1032.522	954.24
1032.81	941.36
1033.099	927.35
1033.387	921.7
1033.675	922.38
1033.963	906.78
1034.251	888.48
1034.54	900.46
1034.828	877.41
1035.116	873.34
1035.403	865.43
1035.691	889.16
1035.979	866.56
1036.267	881.7
1036.554	878.76
1036.842	878.76
1037.129	857.97
1037.417	848.93
1037.704	837.63
1037.992	847.12
1038.279	831.98
1038.566	836.05
1038.853	836.05
1039.14	836.05
