Data from hue_40_FLMS001491_20.txt Node
Date: Mon Feb 06 15:07:32 GMT 2017
User: dcchb
Spectrometer: FLMS00149
Trigger mode: 0
Integration Time (sec): 2.000000E-2
Scans to average: 10
Electric dark correction enabled: true
Nonlinearity correction enabled: false
Boxcar width: 0
XAxis mode: Wavelengths
Number of Pixels in Spectrum: 2048
>>>>>Begin Spectral Data<<<<<
341.393	-16.86
341.776	-16.86
342.16	-16.86
342.543	-52.34
342.927	-46.24
343.31	-76.3
343.693	-57.09
344.077	-43.53
344.46	-59.12
344.843	-73.59
345.226	-39.69
345.61	-28.62
345.993	-10.31
346.376	-8.28
346.759	21.78
347.142	23.59
347.525	47.77
347.908	30.14
348.291	81.44
348.674	78.27
349.057	113.53
349.44	130.02
349.823	134.54
350.206	180.19
350.588	214.09
350.971	217.93
351.354	229.01
351.737	246.18
352.119	259.96
352.502	286.4
352.884	252.06
353.267	269.91
353.65	296.57
354.032	312.84
354.414	299.06
354.797	305.16
355.179	345.39
355.562	324.37
355.944	337.03
356.326	329.12
356.709	338.38
357.091	361.21
357.473	349.45
357.855	347.65
358.238	348.55
358.62	352.62
359.002	337.48
359.384	356.69
359.766	352.39
360.148	349.23
360.53	347.42
360.912	334.31
361.294	351.49
361.676	333.86
362.057	336.35
362.439	344.93
362.821	338.61
363.203	310.81
363.584	327.99
363.966	327.53
364.348	336.8
364.729	324.37
365.111	322.56
365.493	339.96
365.874	335.22
366.256	311.49
366.637	304.94
367.019	318.95
367.4	321.88
367.781	323.92
368.163	325.05
368.544	305.84
368.925	325.95
369.306	322.11
369.688	328.89
370.069	330.7
370.45	314.2
370.831	328.21
371.212	332.73
371.593	330.02
371.974	303.81
372.355	329.57
372.736	321.43
373.117	321.66
373.498	323.47
373.879	316.69
374.26	311.71
374.641	322.79
375.021	305.61
375.402	323.01
375.783	330.25
376.163	337.03
376.544	332.73
376.925	333.64
377.305	321.88
377.686	344.48
378.066	341.54
378.447	357.14
378.827	356.23
379.208	333.18
379.588	342.67
379.968	347.42
380.349	321.66
380.729	345.16
381.109	341.09
381.489	344.03
381.87	348.1
382.25	343.58
382.63	360.98
383.01	352.62
383.39	350.36
383.77	349.23
384.15	340.87
384.53	345.39
384.91	349.91
385.29	332.28
385.67	337.25
386.049	375.89
386.429	341.77
386.809	360.53
387.189	376.35
387.568	348.55
387.948	356.46
388.328	349.91
388.707	368.44
389.087	370.24
389.466	336.12
389.846	373.41
390.225	361.66
390.605	360.3
390.984	379.74
391.363	359.62
391.743	370.02
392.122	380.41
392.501	379.06
392.881	385.39
393.26	359.85
393.639	374.54
394.018	402.11
394.397	360.3
394.776	361.88
395.155	375.67
395.534	383.13
395.913	369.11
396.292	386.29
396.671	376.57
397.05	394.88
397.429	368.44
397.808	401.43
398.186	403.92
398.565	378.61
398.944	386.97
399.323	395.78
399.701	388.78
400.08	401.43
400.458	407.31
400.837	391.26
401.215	402.11
401.594	414.99
401.972	379.06
402.351	417.02
402.729	420.64
403.107	425.61
403.486	410.02
403.864	416.8
404.242	441.43
404.62	409.11
404.999	413.63
405.377	400.75
405.755	437.14
406.133	431.94
406.511	436.91
406.889	442.11
407.267	435.55
407.645	432.84
408.023	451.15
408.401	417.93
408.779	442.56
409.156	433.97
409.534	450.24
409.912	441.88
410.29	456.34
410.667	450.47
411.045	457.02
411.422	473.97
411.8	454.76
412.178	456.57
412.555	461.32
412.933	482.11
413.31	444.14
413.687	462.67
414.065	468.55
414.442	480.07
414.819	448.66
415.197	487.53
415.574	469.9
415.951	460.86
416.328	495.21
416.705	500.64
417.082	519.85
417.46	492.95
417.837	511.26
418.214	489.56
418.591	506.74
418.967	521.2
419.344	511.26
419.721	514.2
420.098	513.07
420.475	533.18
420.852	529.56
421.228	532.95
421.605	535.66
421.982	517.36
422.358	534.08
422.735	528.88
423.111	543.12
423.488	524.59
423.864	559.62
424.241	560.75
424.617	579.28
424.994	554.87
425.37	551.48
425.746	556.68
426.123	556.45
426.499	559.39
426.875	560.52
427.251	575.21
427.627	568.43
428.003	565.95
428.379	578.37
428.756	582.22
429.132	596.91
429.507	589.67
429.883	609.33
430.259	639.84
430.635	629.22
431.011	618.15
431.387	619.05
431.763	660.18
432.138	641.65
432.514	635.77
432.89	644.81
433.265	649.56
433.641	670.35
434.016	661.54
434.392	676.23
434.767	673.97
435.143	676.23
435.518	696.56
435.894	673.29
436.269	709.9
436.644	702.21
437.02	710.12
437.395	730.91
437.77	693.17
438.145	735.66
438.52	722.1
438.895	730.01
439.271	738.6
439.646	748.31
440.021	740.4
440.395	760.97
440.77	750.12
441.145	756.9
441.52	754.42
441.895	741.31
442.27	780.4
442.645	772.27
443.019	798.03
443.394	776.11
443.769	778.6
444.143	775.21
444.518	784.24
444.892	780.18
445.267	805.49
445.641	806.39
446.016	788.99
446.39	814.98
446.764	808.65
447.139	822.66
447.513	809.55
447.887	830.12
448.262	831.02
448.636	821.76
449.01	844.13
449.384	840.74
449.758	837.12
450.132	871.02
450.506	849.55
450.88	864.24
451.254	859.72
451.628	850.23
452.002	861.76
452.376	894.52
452.75	875.32
453.123	916.67
453.497	880.29
453.871	908.76
454.244	919.83
454.618	956.67
454.992	941.75
455.365	955.99
455.739	972.49
456.112	968.65
456.486	972.26
456.859	973.39
457.232	1005.93
457.606	985.82
457.979	1017.23
458.352	1022.43
458.725	1032.37
459.099	1050.23
459.472	1061.53
459.845	1070.79
460.218	1079.38
460.591	1103.11
460.964	1089.32
461.337	1124.12
461.71	1127.29
462.083	1121.64
462.456	1141.98
462.829	1160.96
463.201	1193.95
463.574	1177.68
463.947	1195.31
464.32	1245.25
464.692	1236.44
465.065	1243.67
465.438	1265.59
465.81	1267.17
466.183	1282.99
466.555	1341.07
466.928	1315.53
467.3	1336.32
467.672	1371.35
468.045	1384.23
468.417	1396.21
468.789	1427.17
469.161	1437.11
469.534	1460.16
469.906	1496.09
470.278	1487.96
470.65	1511.46
471.022	1565.69
471.394	1620.61
471.766	1607.5
472.138	1638.69
472.51	1669.65
472.882	1703.77
473.253	1740.38
473.625	1764.33
473.997	1801.85
474.369	1813.14
474.74	1851.11
475.112	1910.32
475.484	1928.4
475.855	1989.86
476.227	2035.51
476.598	2054.27
476.97	2105.79
477.341	2176.52
477.713	2240.48
478.084	2247.71
478.455	2336.75
478.827	2362.96
479.198	2462.62
479.569	2483.64
479.94	2540.13
480.311	2616.51
480.682	2687.92
481.053	2794.81
481.424	2823.29
481.795	2917.52
482.166	2961.59
482.537	3037.07
482.908	3148.25
483.279	3176.72
483.65	3289.72
484.021	3391.86
484.391	3437.96
484.762	3519.99
485.133	3595.92
485.503	3667.11
485.874	3832.53
486.244	3866.42
486.615	4025.29
486.985	4042.24
487.356	4208.34
487.726	4276.81
488.097	4395.68
488.467	4448.33
488.837	4574.2
489.207	4665.27
489.578	4781.88
489.948	4871.14
490.318	5023.91
490.688	5096.22
491.058	5210.8
491.428	5316.78
491.798	5398.13
492.168	5558.58
492.538	5649.88
492.908	5723.32
493.278	5901.85
493.648	5979.36
494.017	6140.49
494.387	6133.26
494.757	6291.9
495.126	6436.3
495.496	6425.23
495.866	6560.36
496.235	6644.2
496.605	6746.35
496.974	6870.64
497.344	6970.3
497.713	7000.35
498.082	7149.95
498.452	7280.35
498.821	7333.23
499.19	7411.87
499.559	7547.23
499.928	7641.24
500.298	7725.08
500.667	7812.08
501.036	7871.06
501.405	8068.12
501.774	8040.33
502.143	8180.89
502.512	8253.2
502.88	8332.07
503.249	8368.68
503.618	8490.48
503.987	8567.77
504.356	8697.94
504.724	8759.63
505.093	8791.27
505.462	8853.19
505.83	8970.92
506.199	9032.84
506.567	9137.7
506.936	9194.42
507.304	9350.8
507.672	9449.78
508.041	9512.15
508.409	9518.25
508.777	9626.27
509.145	9733.61
509.514	9787.62
509.882	9861.75
510.25	9937.45
510.618	9974.51
510.986	10038.24
511.354	10103.77
511.722	10242.3
512.09	10372.24
512.458	10333.82
512.826	10454.5
513.193	10518.68
513.561	10597.32
513.929	10643.87
514.297	10785.79
514.664	10849.52
515.032	10810.2
515.4	11023.07
515.767	11037.08
516.135	11196.4
516.502	11095.39
516.869	11284.31
517.237	11298.09
517.604	11285.44
517.972	11494.25
518.339	11501.03
518.706	11588.03
519.073	11636.84
519.44	11700.79
519.808	11856.04
520.175	11811.07
520.542	11986.89
520.909	12069.37
521.276	12096.72
521.643	12245.86
522.009	12254
522.376	12362.02
522.743	12414.45
523.11	12546.87
523.477	12669.36
523.843	12681.56
524.21	12900.99
524.577	12832.06
524.943	12965.39
525.31	13042.23
525.676	13111.6
526.043	13285.16
526.409	13286.74
526.776	13377.81
527.142	13497.13
527.508	13608.99
527.874	13620.29
528.241	13832.94
528.607	13856.22
528.973	13895.99
529.339	13918.59
529.705	14079.49
530.071	14172.37
530.437	14262.08
530.803	14327.17
531.169	14340.72
531.535	14500.72
531.901	14453.26
532.267	14509.53
532.632	14620.04
532.998	14672.02
533.364	14768.96
533.73	14761.28
534.095	14944.78
534.461	14962.18
534.826	15026.81
535.192	15094.6
535.557	15276.29
535.923	15145.45
536.288	15267.71
536.653	15366.23
537.019	15395.16
537.384	15445.1
537.749	15443.97
538.114	15565.78
538.479	15562.84
538.845	15628.83
539.21	15730.29
539.575	15698.43
539.94	15840.8
540.305	15953.56
540.67	15918.08
541.034	15987.69
541.399	16125.08
541.764	16145.2
542.129	16140.68
542.494	16335.47
542.858	16372.54
543.223	16272.65
543.587	16460.89
543.952	16484.62
544.316	16554
544.681	16558.07
545.045	16671.28
545.41	16719.19
545.774	16820.21
546.138	16767.55
546.503	16871.96
546.867	16946.31
547.231	17029.02
547.595	17066.98
547.959	17179.07
548.324	17180.42
548.688	17235.11
549.052	17282.12
549.416	17400.31
549.779	17363.24
550.143	17444.6
550.507	17590.58
550.871	17634.65
551.235	17658.15
551.599	17829.22
551.962	17758.04
552.326	17878.48
552.689	17925.26
553.053	17914.87
553.417	17972.95
553.78	18233.5
554.143	18210.45
554.507	18206.39
554.87	18262.43
555.234	18369.32
555.597	18229.66
555.96	18454.97
556.323	18544.46
556.686	18539.03
557.05	18643.89
557.413	18786.48
557.776	18710.55
558.139	18899.02
558.502	18935.86
558.865	18926.59
559.228	19068.51
559.59	19069.19
559.953	19179.92
560.316	19360.03
560.679	19310.76
561.041	19378.78
561.404	19552.34
561.767	19597.99
562.129	19649.96
562.492	19792.56
562.854	19729.51
563.217	19806.12
563.579	19963.4
563.941	19975.83
564.304	20077.3
564.666	20354.8
565.028	20313
565.39	20328.14
565.753	20378.31
566.115	20578.53
566.477	20641.35
566.839	20595.02
567.201	20705.3
567.563	20794.34
567.925	20934.68
568.287	20953.43
568.648	20928.8
569.01	21136.48
569.372	21343.25
569.734	21195.01
570.095	21288.34
570.457	21322.01
570.819	21471.38
571.18	21431.84
571.542	21616.47
571.903	21740.76
572.265	21804.48
572.626	21863.24
572.987	21919.73
573.349	22019.17
573.71	22111.82
574.071	22203.34
574.432	22305.26
574.794	22623.22
575.155	22517.46
575.516	22622.77
575.877	22665.25
576.238	22957.9
576.599	22927.84
576.96	23103.21
577.32	23100.95
577.681	23302.75
578.042	23352.01
578.403	23575.28
578.763	23673.59
579.124	23691.21
579.485	23888.27
579.845	23991.54
580.206	24080.81
580.566	24182.27
580.927	24420.91
581.287	24584.07
581.648	24752.65
582.008	24885.31
582.368	24960.56
582.728	25121.23
583.089	25252.08
583.449	25511.28
583.809	25628.11
584.169	25834.43
584.529	25914.21
584.889	26219.73
585.249	26018.38
585.609	26288.66
585.969	26600.52
586.329	26647.97
586.688	26806.16
587.048	26994.63
587.408	27238.24
587.768	27423.54
588.127	27607.72
588.487	27726.36
588.846	27984.21
589.206	27991.67
589.565	28231.43
589.925	28544.87
590.284	28667.13
590.643	28790.29
591.003	28985.99
591.362	29484.96
591.721	29542.36
592.08	29642.24
592.44	29944.16
592.799	30034.32
593.158	30299.63
593.517	30427.31
593.876	30540.75
594.235	30732.61
594.593	30937.8
594.952	31252.82
595.311	31162.88
595.67	31433.61
596.029	31678.8
596.387	32006.25
596.746	32171.89
597.104	32146.58
597.463	32387.48
597.822	32761.71
598.18	32710.64
598.538	32906.79
598.897	33170.96
599.255	33126.45
599.613	33677.17
599.972	33546.55
600.33	33765.75
600.688	33812.08
601.046	34133.42
601.404	34339.29
601.762	34498.61
602.12	34699.96
602.478	34855.67
602.836	34942.89
603.194	34916
603.552	35174.98
603.91	35133.62
604.268	35469.21
604.625	35409.32
604.983	35745.36
605.341	35537.23
605.698	35858.35
606.056	36157.1
606.413	36162.98
606.771	36317.32
607.128	36453.14
607.485	36552.8
607.843	36608.16
608.2	36938.32
608.557	37020.58
608.914	37030.52
609.272	37277.52
609.629	37397.29
609.986	37682.26
610.343	37530.4
610.7	37998.86
611.057	37942.82
611.414	37915.47
611.771	38187.78
612.127	38190.94
612.484	38372.86
612.841	38498.06
613.198	38503.03
613.554	38610.59
613.911	38712.51
614.267	38926.07
614.624	38790.93
614.98	39035.67
615.337	39279.05
615.693	39195.89
616.05	39146.63
616.406	39531.02
616.762	39420.97
617.118	39531.7
617.475	39504.13
617.831	39796.78
618.187	39776.21
618.543	39821.18
618.899	40081.29
619.255	40052.59
619.611	40190.89
619.967	40317.89
620.323	40456.2
620.678	40281.51
621.034	40429.76
621.39	40563.76
621.746	40380.49
622.101	40809.18
622.457	40582.29
622.812	40664.55
623.168	40788.39
623.523	40751.33
623.879	40957.65
624.234	40676.53
624.589	40937.99
624.945	40885.11
625.3	40933.7
625.655	41027.25
626.01	41182.05
626.365	41039.91
626.72	41199
627.075	41139.34
627.43	41257.53
627.785	41140.7
628.14	41234.03
628.495	41305.67
628.85	41295.27
629.205	41235.84
629.559	41398.09
629.914	41271.32
630.269	41309.96
630.623	41320.13
630.978	41095.28
631.332	41307.25
631.687	41525.77
632.041	41279
632.396	41268.38
632.75	41194.03
633.104	41198.78
633.459	41162.39
633.813	41187.93
634.167	41203.3
634.521	41328.49
634.875	41249.17
635.229	41286.68
635.583	41159
635.937	41189.51
636.291	41172.34
636.645	41210.98
636.999	41132.34
637.352	41185.44
637.706	41088.04
638.06	41126.01
638.413	41130.75
638.767	40980.7
639.121	40995.84
639.474	40926.69
639.828	40943.64
640.181	41076.74
640.534	41002.17
640.888	40820.25
641.241	40692.8
641.594	40825.68
641.947	40965.11
642.301	41004.66
642.654	40930.99
643.007	40805.79
643.36	40723.76
643.713	40705.23
644.066	40947.93
644.419	40559.7
644.771	40357.44
645.124	40118.58
645.477	40062.53
645.83	39680.62
646.182	39641.75
646.535	39472.49
646.888	39619.61
647.24	39380.29
647.593	39630
647.945	39532.38
648.298	39218.26
648.65	39259.39
649.002	39203.12
649.355	39360.86
649.707	39307.53
650.059	39303.68
650.411	39893.5
650.763	39854.86
651.115	40235.41
651.467	40245.35
651.819	40126.49
652.171	40049.43
652.523	40075.87
652.875	40044.46
653.227	39857.79
653.578	40192.02
653.93	40060.27
654.282	39888.3
654.633	39876.78
654.985	39952.03
655.337	39821.41
655.688	39861.86
656.039	39963.78
656.391	39539.16
656.742	39758.59
657.094	39651.92
657.445	39894.18
657.796	39784.8
658.147	39611.7
658.498	39743.9
658.849	39822.31
659.2	39704.35
659.551	39593.85
659.902	39861.18
660.253	39598.37
660.604	39679.49
660.955	39530.12
661.306	39583.45
661.656	39632.71
662.007	39591.81
662.358	39525.37
662.708	39606.73
663.059	39497.58
663.409	39437.01
663.76	39673.39
664.11	39621.64
664.461	39611.25
664.811	39642.21
665.161	39500.06
665.511	39386.39
665.862	39582.55
666.212	39635.2
666.562	39743.9
666.912	39590.68
667.262	39566.73
667.612	39512.49
667.962	39506.84
668.312	39252.39
668.662	39620.74
669.011	39504.36
669.361	39290.35
669.711	39337.36
670.06	39263.69
670.41	39191.82
670.76	39232.5
671.109	39232.05
671.459	39340.07
671.808	39194.53
672.157	39384.81
672.507	38960.19
672.856	38990.02
673.205	39174.2
673.554	39191.14
673.904	39187.08
674.253	39241.76
674.602	39202.9
674.951	38640.42
675.3	38528.56
675.649	39015.56
675.998	39062.56
676.346	38957.25
676.695	39121.77
677.044	38900.98
677.393	39008.55
677.741	38951.83
678.09	38815.11
678.438	38679.97
678.787	38802.91
679.135	38910.47
679.484	38613.08
679.832	38761.33
680.181	38645.4
680.529	38775.11
680.877	38624.38
681.225	38520.88
681.573	38764.94
681.922	38444.72
682.27	38298.96
682.618	38385.52
682.966	38293.09
683.314	38315.46
683.661	38155.24
684.009	38049.25
684.357	38050.38
684.705	37935.36
685.053	37977.39
685.4	37963.61
685.748	37787.34
686.095	37699.21
686.443	37759.54
686.79	37640
687.138	37680.22
687.485	37749.83
687.832	37400.68
688.18	37605.88
688.527	37341.25
688.874	37297.18
689.221	37258.77
689.568	37187.36
689.915	36927.25
690.262	36899
690.609	36927.48
690.956	36843.41
691.303	36746.24
691.65	36538.33
691.997	36562.74
692.344	36407.26
692.69	36429.18
693.037	36299.02
693.383	36171.34
693.73	36241.84
694.077	36026.26
694.423	36063.54
694.769	35971.34
695.116	35885.69
695.462	35840.95
695.808	35642.99
696.155	35785.58
696.501	35500.85
696.847	35499.94
697.193	35314.86
697.539	35286.84
697.885	35113.51
698.231	35040.29
698.577	35020.18
698.923	35016.79
699.269	34744.71
699.614	34585.16
699.96	34688.66
700.306	34567.76
700.651	34462
700.997	34373.19
701.342	34332.29
701.688	34316.92
702.033	33994.67
702.379	34032.18
702.724	34147.21
703.069	33991.51
703.415	33715.81
703.76	33626.32
704.105	33686.43
704.45	33501.12
704.795	33320.34
705.14	33285.09
705.485	33401.01
705.83	33243.5
706.175	33312.88
706.52	33180.91
706.865	33058.42
707.209	33032.44
707.554	33044.87
707.899	33081.7
708.243	32828.6
708.588	32698.66
708.932	32502.06
709.277	32496.63
709.621	32604.88
709.966	32267.48
710.31	32345.9
710.654	32139.58
710.998	32379.57
711.342	32227.03
711.687	32057.77
712.031	31978.68
712.375	31980.03
712.719	31929.87
713.063	31773.26
713.407	31893.26
713.75	31663.43
714.094	31750.44
714.438	31424.8
714.782	31542.31
715.125	31298.92
715.469	31385.93
715.812	31296.21
716.156	31138.93
716.499	31088.08
716.843	31129.21
717.186	30906.84
717.53	31114.07
717.873	31101.19
718.216	31004.92
718.559	30758.37
718.902	30661.65
719.246	30796.79
719.589	30507.98
719.932	30461.2
720.275	30582.11
720.617	30467.08
720.96	30382.79
721.303	30409.68
721.646	30375.78
721.989	30209.46
722.331	30399.06
722.674	30184.83
723.016	30128.33
723.359	30178.27
723.701	30024.83
724.044	30031.61
724.386	29863.71
724.729	29888.56
725.071	29919.3
725.413	29902.8
725.755	29838.62
726.097	29755.01
726.439	29549.14
726.782	29569.02
727.124	29721.56
727.465	29458.29
727.807	29492.87
728.149	29352.08
728.491	29405.41
728.833	29447.45
729.175	29303.95
729.516	29264.4
729.858	29213.78
730.199	29147.34
730.541	29100.79
730.882	29121.58
731.224	29147.11
731.565	28936.95
731.906	28955.48
732.248	29158.19
732.589	28731.98
732.93	28752.32
733.271	28817.41
733.612	28743.28
733.953	28813.34
734.294	28656.51
734.635	28504.87
734.976	28718.2
735.317	28511.43
735.658	28504.65
735.999	28513.01
736.339	28352.33
736.68	28459
737.021	28326.8
737.361	28181.72
737.702	28281.83
738.042	28257.19
738.383	28226.46
738.723	28272.79
739.063	28060.82
739.404	28115.5
739.744	28117.76
740.084	27912.12
740.424	27958.22
740.764	27930.88
741.104	28005.9
741.444	27778.56
741.784	27677.78
742.124	27800.48
742.464	27768.85
742.804	27548.96
743.143	27617.44
743.483	27691.79
743.823	27479.36
744.162	27398.91
744.502	27532.69
744.841	27321.85
745.181	27523.65
745.52	27367.73
745.86	27334.28
746.199	27265.58
746.538	27233.72
746.877	27311.01
747.216	27288.63
747.556	27080.73
747.895	27231.69
748.234	27133.83
748.573	26941.75
748.911	26862.2
749.25	26958.7
749.589	26617.24
749.928	26784.01
750.267	26781.08
750.605	26682.55
750.944	26689.55
751.283	26568.2
751.621	26670.57
751.96	26472.38
752.298	26410.69
752.636	26430.35
752.975	26251.37
753.313	26344.25
753.651	26274.87
753.989	26161.2
754.327	26190.58
754.666	25912.85
755.004	26012.06
755.342	25985.84
755.679	25961.89
756.017	25815.9
756.355	25928.44
756.693	25875.56
757.031	25895.22
757.368	25651.61
757.706	25626.76
758.044	25535.23
758.381	25557.15
758.719	25547.21
759.056	25445.74
759.394	25368.91
759.731	25266.77
760.068	25147.45
760.405	25043.72
760.743	25081.69
761.08	25098.86
761.417	24963.95
761.754	24846.66
762.091	24760.79
762.428	24699.32
762.765	24621.58
763.102	24667.01
763.438	24485.99
763.775	24326
764.112	24495.94
764.449	24452.78
764.785	24299.56
765.122	24092.56
765.458	23940.7
765.795	23961.26
766.131	23951.32
766.467	23897.99
766.804	23672.68
767.14	23601.72
767.476	23630.42
767.812	23464.33
768.148	23455.74
768.485	23375.74
768.821	23166.03
769.157	23123.32
769.492	23115.18
769.828	23101.4
770.164	22862.08
770.5	22918.35
770.836	22904.12
771.171	22702.09
771.507	22725.36
771.842	22483.56
772.178	22468.65
772.513	22512.49
772.849	22425.03
773.184	22259.39
773.519	22249.9
773.855	22126.51
774.19	22096.23
774.525	21980.52
774.86	21979.85
775.195	21939.62
775.53	21768.33
775.865	21736.46
776.2	21544.6
776.535	21504.6
776.87	21430.93
777.205	21303.71
777.539	21269.81
777.874	21264.16
778.209	21053.54
778.543	21087.67
778.878	20964.28
779.212	20944.17
779.547	20800.44
779.881	20803.83
780.215	20649.94
780.55	20698.98
780.884	20566.55
781.218	20484.07
781.552	20422.82
781.886	20375.37
782.22	20336.73
782.554	20160.46
782.888	20055.6
783.222	19981.48
783.556	19884.53
783.889	19826.91
784.223	19707.36
784.557	19694.71
784.89	19666.46
785.224	19574.49
785.557	19398.9
785.891	19441.16
786.224	19349.63
786.558	19384.66
786.891	19208.62
787.224	19060.6
787.557	19088.17
787.891	19040.49
788.224	19013.6
788.557	18974.73
788.89	18969.3
789.223	18879.36
789.556	18716.2
789.888	18625.58
790.221	18574.51
790.554	18500.16
790.887	18507.62
791.219	18369.09
791.552	18320.96
791.884	18303.56
792.217	18241.19
792.549	18143.11
792.882	18122.09
793.214	17975.21
793.546	17973.85
793.879	17858.6
794.211	17739.28
794.543	17867.19
794.875	17696.57
795.207	17663.58
795.539	17620.64
795.871	17547.42
796.203	17500.64
796.535	17362.11
796.867	17328.67
797.198	17355.11
797.53	17231.27
797.862	17193.98
798.193	17183.14
798.525	17103.36
798.856	17113.31
799.188	16954.67
799.519	16718.06
799.85	16776.59
800.182	16755.8
800.513	16805.97
800.844	16617.95
801.175	16614.56
801.506	16526.43
801.837	16526.88
802.168	16559.2
802.499	16449.37
802.83	16351.29
803.161	16296.38
803.491	16289.37
803.822	16272.43
804.153	16168.93
804.483	16092.99
804.814	16079.66
805.145	15956.5
805.475	16067.01
805.805	15926.22
806.136	15925.99
806.466	15954.47
806.796	15845.54
807.126	15805.09
807.457	15693.91
807.787	15698.2
808.117	15657.3
808.447	15571.2
808.777	15594.7
809.107	15511.99
809.436	15460.02
809.766	15481.26
810.096	15432.45
810.426	15398.55
810.755	15349.06
811.085	15296.41
811.414	15259.57
811.744	15182.51
812.073	15129.63
812.403	15088.73
812.732	15032.46
813.061	14990.43
813.39	14902.74
813.719	14893.48
814.049	14967.37
814.378	14915.4
814.707	14810.54
815.036	14776.42
815.365	14667.95
815.693	14472.02
816.022	14634.95
816.351	14582.75
816.68	14451
817.008	14518.35
817.337	14400.38
817.665	14319.48
817.994	14369.88
818.322	14383.66
818.651	14305.25
818.979	14254.17
819.307	14366.94
819.636	14220.5
819.964	14122.88
820.292	14173.5
820.62	14223.89
820.948	14191.8
821.276	14199.71
821.604	14150
821.932	14213.95
822.259	14121.75
822.587	14116.78
822.915	14069.09
823.243	14120.62
823.57	14093.73
823.898	14133.5
824.225	14003.11
824.553	14072.03
824.88	14075.42
825.207	14070.68
825.535	14043.78
825.862	14153.84
826.189	14027.96
826.516	14070
826.843	14053.05
827.17	14070.68
827.497	14167.62
827.824	14123.1
828.151	14144.8
828.478	14136.44
828.805	14120.84
829.131	14049.21
829.458	13997
829.785	13995.2
830.111	14056.66
830.438	14070.22
830.764	13990.45
831.09	14044.46
831.417	13933.96
831.743	13993.16
832.069	14050.79
832.395	13905.26
832.722	13984.8
833.048	13931.02
833.374	14010.11
833.7	13834.52
834.026	13910.91
834.351	13903
834.677	13856.22
835.003	13811.02
835.329	13896.44
835.654	13933.96
835.98	13776.67
836.306	13799.5
836.631	13771.02
836.956	13724.7
837.282	13722.21
837.607	13657.35
837.932	13646.73
838.258	13636.56
838.583	13686.96
838.908	13667.3
839.233	13541.65
839.558	13581.2
839.883	13489.9
840.208	13467.53
840.533	13449
840.858	13484.48
841.182	13465.04
841.507	13413.29
841.832	13348.21
842.156	13306.18
842.481	13350.69
842.805	13305.27
843.13	13228.44
843.454	13272.05
843.778	13210.13
844.103	13212.62
844.427	13183.24
844.751	13149.12
845.075	13143.24
845.399	13119.29
845.723	12943.02
846.047	12976.92
846.371	12892.63
846.695	12869.12
847.019	12804.27
847.343	12745.29
847.666	12706.64
847.99	12630.94
848.313	12626.65
848.637	12551.85
848.96	12561.56
849.284	12449.47
849.607	12425.97
849.931	12395.92
850.254	12292.42
850.577	12215.13
850.9	12105.08
851.223	12161.8
851.546	12038.19
851.869	12003.16
852.192	12058.07
852.515	11851.52
852.838	11920.9
853.161	11859.89
853.483	11803.16
853.806	11721.81
854.129	11765.43
854.451	11710.74
854.774	11593.9
855.096	11621.02
855.419	11649.5
855.741	11568.14
856.063	11547.8
856.385	11462.61
856.708	11430.74
857.03	11411.31
857.352	11402.72
857.674	11298.32
857.996	11303.74
858.318	11210.41
858.64	11300.58
858.961	11161.83
859.283	11127.93
859.605	11139
859.926	11151.2
860.248	11135.61
860.57	11077.53
860.891	11056.52
861.212	10960.02
861.534	10961.6
861.855	10968.16
862.176	10956.18
862.498	10875.73
862.819	10927.93
863.14	10867.37
863.461	10817.88
863.782	10745.79
864.103	10742.18
864.424	10734.27
864.745	10759.35
865.065	10689.75
865.386	10680.48
865.707	10682.06
866.027	10707.83
866.348	10633.93
866.668	10680.93
866.989	10574.72
867.309	10535.63
867.63	10481.84
867.95	10586.02
868.27	10549.86
868.59	10479.36
868.91	10496.08
869.23	10477.1
869.55	10458.79
869.87	10477.78
870.19	10443.2
870.51	10426.25
870.83	10385.57
871.15	10366.14
871.469	10442.07
871.789	10349.87
872.109	10335.86
872.428	10301.96
872.748	10348.97
873.067	10317.33
873.386	10305.12
873.706	10229.87
874.025	10249.76
874.344	10158.46
874.663	10244.34
874.982	10179.93
875.301	10156.65
875.62	10172.92
875.939	10108.52
876.258	10147.84
876.577	10160.27
876.896	10152.59
877.214	10057.45
877.533	10066.03
877.852	10017.22
878.17	9984.45
878.489	10007.28
878.807	10061.52
879.125	10059.71
879.444	9973.83
879.762	9926.38
880.08	9945.36
880.398	9886.6
880.716	9934.74
881.034	9846.15
881.352	9774.29
881.67	9778.13
881.988	9774.29
882.306	9706.27
882.624	9771.35
882.941	9703.56
883.259	9707.85
883.577	9626.27
883.894	9642.77
884.212	9641.19
884.529	9614.3
884.846	9588.99
885.164	9581.3
885.481	9534.07
885.798	9534.98
886.115	9515.31
886.432	9552.15
886.75	9452.27
887.067	9433.28
887.383	9367.3
887.7	9435.77
888.017	9366.62
888.334	9378.37
888.651	9300.18
888.967	9278.26
889.284	9271.25
889.6	9233.97
889.917	9213.85
890.233	9130.24
890.55	9152.16
890.866	9201.2
891.182	9132.95
891.498	9124.36
891.815	9041.43
892.131	8980.64
892.447	9007.31
892.763	8905.16
893.079	8979.51
893.395	8932.96
893.71	8841.21
894.026	8892.51
894.342	8837.59
894.657	8767.76
894.973	8766.41
895.289	8786.29
895.604	8737.71
895.92	8631.27
896.235	8658.61
896.55	8606.86
896.865	8621.33
897.181	8630.14
897.496	8614.32
897.811	8541.1
898.126	8523.93
898.441	8495.23
898.756	8439.18
899.071	8433.08
899.386	8429.02
899.7	8333.88
900.015	8335.23
900.33	8271.05
900.644	8276.03
900.959	8238.96
901.273	8198.51
901.588	8226.31
901.902	8174.56
902.216	8178.4
902.531	8080.78
902.845	8018.18
903.159	7968.69
903.473	8012.53
903.787	7904.74
904.101	7944.06
904.415	7940.67
904.729	7901.8
905.042	7850.95
905.356	7783.83
905.67	7771.63
905.984	7806.66
906.297	7718.3
906.611	7697.74
906.924	7674.91
907.237	7645.99
907.551	7652.54
907.864	7550.85
908.177	7631.52
908.491	7533.67
908.804	7513.56
909.117	7420.45
909.43	7421.13
909.743	7408.48
910.056	7371.87
910.368	7357.41
910.681	7300.46
910.994	7316.05
911.307	7278.76
911.619	7206.67
911.932	7230.86
912.244	7116.06
912.557	7127.81
912.869	7088.03
913.181	7092.1
913.494	7068.83
913.806	7001.03
914.118	7036.96
914.43	6986.34
914.742	6939.11
915.054	6896.4
915.366	6870.19
915.678	6873.12
915.99	6871.54
916.302	6790.19
916.613	6725.78
916.925	6762.84
917.236	6734.6
917.548	6672.23
917.859	6664.77
918.171	6597.65
918.482	6625
918.794	6571.66
919.105	6548.39
919.416	6527.82
919.727	6556.52
920.038	6470.65
920.349	6450.99
920.66	6365.12
920.971	6385.68
921.282	6305
921.593	6369.86
921.903	6346.81
922.214	6234.72
922.525	6287.6
922.835	6186.81
923.146	6177.32
923.456	6128.96
923.767	6183.42
924.077	6127.61
924.387	6096.2
924.697	6095.97
925.008	6100.04
925.318	6030.21
925.628	6070.21
925.938	5993.83
926.248	5946.37
926.558	5922.19
926.867	5893.94
927.177	5874.51
927.487	5847.61
927.796	5771.46
928.106	5830.67
928.416	5725.58
928.725	5781.4
929.034	5712.02
929.344	5710.9
929.653	5693.72
929.962	5655.76
930.271	5649.88
930.581	5620.73
930.89	5544.12
931.199	5524.01
931.508	5561.52
931.817	5528.75
932.125	5524.69
932.434	5464.12
932.743	5413.05
933.051	5330.11
933.36	5394.75
933.669	5381.86
933.977	5382.32
934.286	5331.24
934.594	5290.57
934.902	5229.1
935.21	5248.53
935.519	5273.39
935.827	5238.37
936.135	5198.14
936.443	5139.61
936.751	5126.73
937.059	5171.25
937.367	5071.14
937.674	5055.55
937.982	4996.56
938.29	5050.57
938.597	5043.79
938.905	5011.03
939.213	4961.31
939.52	4932.61
939.827	4970.8
940.135	4920.63
940.442	4875.66
940.749	4878.15
941.056	4900.29
941.363	4802.9
941.67	4814.2
941.977	4766.29
942.284	4741.43
942.591	4727.19
942.898	4719.96
943.205	4722.45
943.511	4652.39
943.818	4673.86
944.125	4591.15
944.431	4630.47
944.738	4591.15
945.044	4581.66
945.35	4526.75
945.657	4578.27
945.963	4536.91
946.269	4505.05
946.575	4474.77
946.881	4459.4
947.187	4463.47
947.493	4443.58
947.799	4411.04
948.105	4422.79
948.41	4338.05
948.716	4401.78
949.022	4347.77
949.327	4312.74
949.633	4282.91
949.938	4267.77
950.244	4295.57
950.549	4222.57
950.854	4194.32
951.16	4253.08
951.465	4228.9
951.77	4177.83
952.075	4177.6
952.38	4112.52
952.685	4130.37
952.99	4103.71
953.294	4066.64
953.599	4054.67
953.904	4035.91
954.209	4025.52
954.513	4012.86
954.818	4026.42
955.122	3992.75
955.426	3948.91
955.731	3929.25
956.035	3928.34
956.339	3921.56
956.643	3913.43
956.948	3860.55
957.252	3868.01
957.556	3838.18
957.86	3838.85
958.163	3792.3
958.467	3777.16
958.771	3795.92
959.075	3764.51
959.378	3731.74
959.682	3723.38
959.985	3702.13
960.289	3693.09
960.592	3661.23
960.896	3691.06
961.199	3652.87
961.502	3622.81
961.805	3621.68
962.108	3580.56
962.411	3621.01
962.714	3601.8
963.017	3538.07
963.32	3571.74
963.623	3509.82
963.926	3496.04
964.228	3490.16
964.531	3454.68
964.833	3467.11
965.136	3419.43
965.438	3418.98
965.741	3385.76
966.043	3395.25
966.345	3391.18
966.648	3400.9
966.95	3360.9
967.252	3366.32
967.554	3317.96
967.856	3310.51
968.158	3272.99
968.46	3287.68
968.761	3290.62
969.063	3259.43
969.365	3238.19
969.666	3218.76
969.968	3182.15
970.269	3227.57
970.571	3196.61
970.872	3206.33
971.174	3123.84
971.475	3198.87
971.776	3165.65
972.077	3098.99
972.378	3117.06
972.679	3082.04
972.98	3101.47
973.281	3083.39
973.582	3035.26
973.883	3042.49
974.183	3040
974.484	3009.72
974.785	2970.85
975.085	2976.96
975.386	2999.55
975.686	2949.84
975.986	2954.13
976.287	2958.88
976.587	2915.04
976.887	2892.66
977.187	2919.56
977.487	2909.39
977.787	2884.98
978.087	2853.57
978.387	2838.2
978.687	2847.69
978.987	2874.81
979.286	2797.53
979.586	2788.71
979.885	2766.57
980.185	2765.66
980.484	2746.23
980.784	2727.92
981.083	2747.13
981.382	2745.78
981.682	2690.64
981.981	2712.78
982.28	2687.02
982.579	2671.2
982.878	2672.33
983.177	2652.44
983.475	2657.42
983.774	2608.15
984.073	2609.28
984.372	2640.24
984.67	2618.55
984.969	2582.62
985.267	2603.41
985.566	2579.23
985.864	2586.46
986.162	2555.05
986.461	2554.14
986.759	2547.81
987.057	2508.27
987.355	2491.77
987.653	2489.28
987.951	2485.22
988.249	2507.59
988.547	2482.96
988.844	2453.13
989.142	2422.85
989.44	2383.75
989.737	2403.19
990.035	2394.6
990.332	2383.98
990.63	2416.74
990.927	2397.99
991.224	2327.93
991.521	2346.01
991.819	2319.12
992.116	2303.08
992.413	2313.24
992.71	2306.69
993.006	2278.89
993.303	2273.92
993.6	2270.31
993.897	2239.8
994.193	2284.32
994.49	2248.84
994.787	2202.29
995.083	2193.25
995.379	2196.86
995.676	2202.96
995.972	2161.38
996.268	2206.13
996.565	2173.59
996.861	2148.28
997.157	2120.93
997.453	2141.95
997.749	2143.08
998.044	2081.84
998.34	2110.31
998.636	2090.65
998.932	2086.81
999.227	2083.65
999.523	2086.36
999.818	2030.54
1000.114	2026.25
1000.409	2036.64
1000.704	2011.11
1001	2003.65
1001.295	1985.34
1001.59	1987.83
1001.885	1984.44
1002.18	1952.58
1002.475	1981.95
1002.77	1947.15
1003.065	1941.05
1003.359	1927.94
1003.654	1872.13
1003.949	1889.98
1004.243	1850.88
1004.538	1867.61
1004.832	1906.25
1005.127	1875.06
1005.421	1855.18
1005.715	1833.48
1006.009	1834.16
1006.304	1811.11
1006.598	1805.91
1006.892	1809.98
1007.186	1787.38
1007.48	1785.57
1007.773	1786.7
1008.067	1793.48
1008.361	1766.82
1008.655	1736.08
1008.948	1712.81
1009.242	1743.32
1009.535	1736.08
1009.829	1713.49
1010.122	1682.53
1010.415	1667.61
1010.708	1701.28
1011.001	1659.48
1011.295	1677.1
1011.588	1679.14
1011.881	1649.31
1012.173	1619.7
1012.466	1622.64
1012.759	1619.93
1013.052	1634.17
1013.344	1592.81
1013.637	1601.4
1013.93	1567.73
1014.222	1569.31
1014.514	1546.71
1014.807	1550.33
1015.099	1539.25
1015.391	1532.7
1015.683	1536.54
1015.976	1516.2
1016.268	1516.43
1016.56	1514.17
1016.851	1480.27
1017.143	1483.66
1017.435	1498.12
1017.727	1467.39
1018.018	1471.91
1018.31	1453.61
1018.602	1449.31
1018.893	1463.78
1019.185	1430.33
1019.476	1429.43
1019.767	1416.32
1020.058	1353.04
1020.35	1365.25
1020.641	1390.56
1020.932	1357.56
1021.223	1354.17
1021.514	1327.51
1021.804	1328.64
1022.095	1322.99
1022.386	1329.54
1022.677	1312.82
1022.967	1323.44
1023.258	1270.56
1023.548	1296.32
1023.839	1296.77
1024.129	1273.72
1024.419	1264.46
1024.709	1243.89
1025	1251.35
1025.29	1252.71
1025.58	1244.8
1025.87	1207.06
1026.16	1223.78
1026.449	1215.19
1026.739	1174.52
1027.029	1182.65
1027.319	1196.66
1027.608	1211.35
1027.898	1166.61
1028.187	1155.08
1028.477	1170.45
1028.766	1162.99
1029.055	1164.57
1029.344	1148.3
1029.634	1127.29
1029.923	1118.25
1030.212	1132.03
1030.501	1099.94
1030.79	1097.46
1031.078	1092.71
1031.367	1086.61
1031.656	1081.41
1031.945	1069.21
1032.233	1081.41
1032.522	1056.55
1032.81	1040.51
1033.099	1042.54
1033.387	1034.86
1033.675	1045.71
1033.963	1020.17
1034.251	1016.1
1034.54	1009.1
1034.828	985.82
1035.116	1006.39
1035.403	972.04
1035.691	997.35
1035.979	980.17
1036.267	984.47
1036.554	983.34
1036.842	980.85
1037.129	952.6
1037.417	945.82
1037.704	988.08
1037.992	949.21
1038.279	937.24
1038.566	945.6
1038.853	945.6
1039.14	945.6
