Data from hue_200_FLMS001491_00045.txt Node
Date: Tue Feb 07 16:43:20 GMT 2017
User: dcchb
Spectrometer: FLMS00149
Trigger mode: 0
Integration Time (sec): 2.000000E-2
Scans to average: 10
Electric dark correction enabled: true
Nonlinearity correction enabled: false
Boxcar width: 0
XAxis mode: Wavelengths
Number of Pixels in Spectrum: 2048
>>>>>Begin Spectral Data<<<<<
341.393	-11.98
341.776	-11.98
342.16	-11.98
342.543	-60.11
342.927	-72.99
343.31	-70.96
343.693	-83.84
344.077	-54.46
344.46	-54.46
344.843	-62.37
345.226	-42.48
345.61	-31.86
345.993	-35.93
346.376	6.33
346.759	15.82
347.142	20.56
347.525	51.75
347.908	55.14
348.291	80.22
348.674	89.49
349.057	117.06
349.44	128.81
349.823	177.4
350.206	168.81
350.588	191.41
350.971	198.64
351.354	228.69
351.737	235.7
352.119	247.9
352.502	249.03
352.884	281.35
353.267	274.57
353.65	294.91
354.032	293.78
354.414	294
354.797	301.91
355.179	325.19
355.562	302.36
355.944	320.22
356.326	318.18
356.709	348.92
357.091	318.86
357.473	343.95
357.855	325.19
358.238	357.73
358.62	357.28
359.002	351.86
359.384	337.62
359.766	332.42
360.148	331.74
360.53	319.99
360.912	343.49
361.294	331.29
361.676	344.4
362.057	341.91
362.439	330.16
362.821	325.42
363.203	340.1
363.584	308.92
363.966	339.2
364.348	341.01
364.729	331.52
365.111	313.21
365.493	306.43
365.874	325.87
366.256	321.57
366.637	319.99
367.019	298.07
367.4	333.55
367.781	320.67
368.163	303.72
368.544	281.8
368.925	319.09
369.306	313.44
369.688	296.04
370.069	337.62
370.45	318.41
370.831	296.72
371.212	314.57
371.593	295.13
371.974	310.5
372.355	312.99
372.736	314.12
373.117	310.5
373.498	315.7
373.879	315.7
374.26	308.01
374.641	298.52
375.021	307.34
375.402	312.99
375.783	338.75
376.163	334.23
376.544	322.93
376.925	317.51
377.305	325.64
377.686	331.97
378.066	343.72
378.447	320.44
378.827	325.42
379.208	320.22
379.588	329.93
379.968	317.96
380.349	320.22
380.729	350.5
381.109	322.25
381.489	348.92
381.87	353.44
382.25	327.45
382.63	323.38
383.01	354.79
383.39	347.34
383.77	323.61
384.15	358.41
384.53	347.34
384.91	345.3
385.29	343.49
385.67	355.24
386.049	344.85
386.429	352.08
386.809	343.27
387.189	344.62
387.568	343.49
387.948	355.24
388.328	366.77
388.707	350.73
389.087	364.96
389.466	375.36
389.846	365.41
390.225	364.96
390.605	367.22
390.984	364.06
391.363	363.38
391.743	354.79
392.122	366.32
392.501	367.9
392.881	399.99
393.26	377.39
393.639	379.65
394.018	374.91
394.397	391.85
394.776	378.75
395.155	378.07
395.534	397.96
395.913	395.47
396.292	399.31
396.671	402.25
397.05	392.31
397.429	405.64
397.808	394.11
398.186	382.59
398.565	398.63
398.944	413.1
399.323	407.67
399.701	411.06
400.08	386.66
400.458	432.98
400.837	436.6
401.215	445.64
401.594	416.94
401.972	426.66
402.351	453.1
402.729	420.33
403.107	454.23
403.486	437.5
403.864	450.84
404.242	464.62
404.62	447.9
404.999	445.41
405.377	450.61
405.755	459.65
406.133	470.5
406.511	462.13
406.889	474.79
407.267	505.75
407.645	482.02
408.023	500.1
408.401	490.61
408.779	501.23
409.156	514.11
409.534	514.56
409.912	527.22
410.29	552.75
410.667	541.68
411.045	571.06
411.422	560.44
411.8	558.4
412.178	565.18
412.555	574.9
412.933	609.7
413.31	627.33
413.687	602.02
414.065	643.15
414.442	630.72
414.819	655.12
415.197	660.1
415.574	658.06
415.951	687.44
416.328	676.59
416.705	677.72
417.082	711.62
417.46	696.93
417.837	717.72
418.214	712.52
418.591	738.29
418.967	745.74
419.344	768.34
419.721	762.01
420.098	770.15
420.475	794.56
420.852	811.73
421.228	824.61
421.605	830.49
421.982	837.04
422.358	874.1
422.735	879.3
423.111	896.47
423.488	909.58
423.864	936.7
424.241	966.98
424.617	953.42
424.994	961.56
425.37	994.55
425.746	997.94
426.123	1007.21
426.499	1044.94
426.875	1041.1
427.251	1082.91
427.627	1059.18
428.003	1105.73
428.379	1107.77
428.756	1138.5
429.132	1166.07
429.507	1169.01
429.883	1183.02
430.259	1185.05
430.635	1172.17
431.011	1176.92
431.387	1197.93
431.763	1278.38
432.138	1276.35
432.514	1275.45
432.89	1280.42
433.265	1361.32
433.641	1340.98
434.016	1368.33
434.392	1441.77
434.767	1446.06
435.143	1431.6
435.518	1450.58
435.894	1492.62
436.269	1529
436.644	1560.18
437.02	1586.62
437.395	1611.03
437.77	1658.94
438.145	1661.2
438.52	1688.09
438.895	1717.47
439.271	1732.16
439.646	1806.73
440.021	1810.57
440.395	1836.34
440.77	1821.65
441.145	1866.84
441.52	1900.06
441.895	1900.06
442.27	1952.72
442.645	1954.3
443.019	2013.73
443.394	2013.96
443.769	2011.92
444.143	2011.7
444.518	2046.27
444.892	2070.68
445.267	2102.09
445.641	2114.07
446.016	2170.11
446.39	2145.93
446.764	2178.25
447.139	2190
447.513	2222.31
447.887	2201.3
448.262	2223.67
448.636	2253.27
449.01	2293.73
449.384	2306.15
449.758	2342.99
450.132	2357.23
450.506	2371.46
450.88	2368.75
451.254	2373.5
451.628	2439.94
452.002	2449.43
452.376	2462.99
452.75	2496.88
453.123	2519.26
453.497	2549.54
453.871	2562.19
454.244	2633.15
454.618	2649.87
454.992	2643.55
455.365	2697.78
455.739	2717.22
456.112	2732.13
456.486	2787.95
456.859	2831.79
457.232	2846.7
457.606	2843.09
457.979	2890.09
458.352	2990.43
458.725	3020.26
459.099	3000.15
459.472	3059.81
459.845	3060.03
460.218	3099.81
460.591	3146.13
460.964	3183.19
461.337	3218.22
461.71	3303.64
462.083	3339.8
462.456	3357.65
462.829	3386.58
463.201	3424.99
463.574	3432.23
463.947	3474.26
464.32	3564.2
464.692	3587.93
465.065	3610.53
465.438	3643.52
465.81	3701.6
466.183	3774.82
466.555	3821.82
466.928	3855.27
467.3	3883.06
467.672	3915.15
468.045	4026.11
468.417	4008.71
468.789	4016.62
469.161	4097.29
469.534	4123.73
469.906	4241.02
470.278	4289.83
470.65	4318.3
471.022	4370.28
471.394	4507.68
471.766	4525.53
472.138	4549.03
472.51	4652.53
472.882	4681.23
473.253	4709.25
473.625	4821.79
473.997	4905.86
474.369	4932.53
474.74	5022.01
475.112	5082.35
475.484	5143.59
475.855	5243.93
476.227	5272.18
476.598	5390.14
476.97	5482.57
477.341	5570.25
477.713	5607.76
478.084	5619.97
478.455	5803.24
478.827	5853.18
479.198	6007.07
479.569	6014.76
479.94	6183.57
480.311	6266.73
480.682	6294.3
481.053	6460.17
481.424	6546.49
481.795	6580.84
482.166	6611.8
482.537	6726.15
482.908	6808.86
483.279	6967.27
483.65	7080.49
484.021	7170.43
484.391	7248.17
484.762	7271.9
485.133	7357.55
485.503	7453.59
485.874	7603.19
486.244	7674.37
486.615	7789.85
486.985	7889.06
487.356	8063.29
487.726	8112.78
488.097	8207.24
488.467	8191.2
488.837	8365.66
489.207	8469.83
489.578	8520.91
489.948	8609.94
490.318	8752.09
490.688	8759.77
491.058	8844.29
491.428	8956.83
491.798	8971.97
492.168	9221
492.538	9195.01
492.908	9290.83
493.278	9343.94
493.648	9403.37
494.017	9569.92
494.387	9589.35
494.757	9689.24
495.126	9740.08
495.496	9767.2
495.866	9777.6
496.235	9817.59
496.605	9919.29
496.974	10023.01
497.344	10084.25
497.713	10088.55
498.082	10099.85
498.452	10170.81
498.821	10285.15
499.19	10260.3
499.559	10340.07
499.928	10408.54
500.298	10391.82
500.667	10467.07
501.036	10497.13
501.405	10473.85
501.774	10576.45
502.143	10540.97
502.512	10656.89
502.88	10646.73
503.249	10684.69
503.618	10753.84
503.987	10754.29
504.356	10878.13
504.724	10908.87
505.093	10819.6
505.462	10877.45
505.83	10953.61
506.199	10960.16
506.567	11149.31
506.936	11074.51
507.304	11141.85
507.672	11119.48
508.041	11132.81
508.409	11150.89
508.777	11229.99
509.145	11276.54
509.514	11236.09
509.882	11322.19
510.25	11326.71
510.618	11358.35
510.986	11325.13
511.354	11400.38
511.722	11441.73
512.09	11499.36
512.458	11483.54
512.826	11540.04
513.193	11573.26
513.561	11512.69
513.929	11582.52
514.297	11586.14
514.664	11650.09
515.032	11644.67
515.4	11654.38
515.767	11658
516.135	11710.43
516.502	11589.3
516.869	11842.63
517.237	11758.33
517.604	11699.35
517.972	11838.78
518.339	11826.58
518.706	11766.24
519.073	11757.66
519.44	11799.46
519.808	11885.11
520.175	11802.4
520.542	11903.42
520.909	11970.08
521.276	11851.21
521.643	11928.05
522.009	11954.49
522.376	11886.92
522.743	11912.91
523.11	12021.15
523.477	12099.57
523.843	12076.29
524.21	12182.05
524.577	12174.14
524.943	12097.99
525.31	12118.1
525.676	12135.95
526.043	12197.42
526.409	12172.34
526.776	12239.23
527.142	12135.5
527.508	12241.49
527.874	12177.31
528.241	12217.53
528.607	12216.63
528.973	12231.54
529.339	12133.92
529.705	12165.78
530.071	12225.44
530.437	12165.56
530.803	12220.02
531.169	12176.18
531.535	12117.42
531.901	12100.7
532.267	12123.07
532.632	12081.04
532.998	12135.27
533.364	12070.42
533.73	11999.91
534.095	12012.34
534.461	12076.97
534.826	11970.08
535.192	12004.66
535.557	12004.2
535.923	11875.39
536.288	11856.19
536.653	11837.43
537.019	11802.18
537.384	11763.76
537.749	11707.94
538.114	11740.93
538.479	11699.58
538.845	11637.66
539.21	11568.06
539.575	11586.36
539.94	11438.34
540.305	11537.55
540.67	11384.33
541.034	11465.69
541.399	11373.94
541.764	11359.02
542.129	11301.85
542.494	11253.26
542.858	11231.34
543.223	11169.42
543.587	11146.83
543.952	11112.7
544.316	11064.79
544.681	10951.58
545.045	10944.34
545.41	10964.91
545.774	10859.15
546.138	10955.87
546.503	10781.64
546.867	10722.66
547.231	10775.54
547.595	10689.21
547.959	10736.44
548.324	10617.8
548.688	10523.57
549.052	10564.47
549.416	10472.04
549.779	10421.42
550.143	10412.61
550.507	10421.87
550.871	10423.91
551.235	10225.72
551.599	10364.7
551.962	10231.37
552.326	10200.18
552.689	10250.58
553.053	10136.91
553.417	10074.31
553.78	10178.49
554.143	10032.05
554.507	10026.18
554.87	10056.68
555.234	10077.93
555.597	9965.16
555.96	9924.48
556.323	9872.28
556.686	9889.68
557.05	9914.09
557.413	9879.74
557.776	9897.59
558.139	9763.81
558.502	9835.67
558.865	9741.44
559.228	9847.65
559.59	9702.12
559.953	9655.79
560.316	9750.03
560.679	9687.2
561.041	9721.78
561.404	9735.11
561.767	9702.57
562.129	9638.16
562.492	9704.83
562.854	9644.72
563.217	9597.71
563.579	9639.97
563.941	9602.69
564.304	9593.87
564.666	9635.45
565.028	9648.11
565.39	9619.86
565.753	9646.98
566.115	9596.81
566.477	9600.43
566.839	9668.22
567.201	9646.98
567.563	9665.96
567.925	9657.83
568.287	9668.45
568.648	9693.3
569.01	9649.01
569.372	9650.82
569.734	9677.49
570.095	9682.91
570.457	9710.93
570.819	9724.49
571.18	9658.73
571.542	9707.09
571.903	9603.36
572.265	9740.08
572.626	9652.63
572.987	9712.51
573.349	9679.07
573.71	9689.01
574.071	9685.4
574.432	9754.77
574.794	9743.02
575.155	9765.62
575.516	9712.74
575.877	9723.59
576.238	9714.32
576.599	9746.86
576.96	9674.1
577.32	9713.64
577.681	9787.77
578.042	9737.15
578.403	9717.26
578.763	9717.71
579.124	9816.92
579.485	9775.79
579.845	9799.52
580.206	9750.25
580.566	9729.24
580.927	9692.17
581.287	9686.52
581.648	9698.95
582.008	9738.95
582.368	9780.31
582.728	9703.93
583.089	9666.86
583.449	9721.78
583.809	9708.67
584.169	9693.53
584.529	9629.8
584.889	9674.1
585.249	9647.88
585.609	9618.05
585.969	9652.85
586.329	9644.94
586.688	9641.33
587.048	9605.85
587.408	9616.7
587.768	9623.7
588.127	9626.19
588.487	9610.14
588.846	9683.59
589.206	9550.03
589.565	9555.45
589.925	9658.28
590.284	9547.09
590.643	9629.58
591.003	9615.79
591.362	9606.75
591.721	9627.09
592.08	9497.6
592.44	9634.77
592.799	9590.48
593.158	9588.9
593.517	9607.43
593.876	9597.49
594.235	9497.38
594.593	9519.52
594.952	9489.47
595.311	9440.88
595.67	9527.89
596.029	9518.39
596.387	9558.39
596.746	9499.19
597.104	9465.29
597.463	9466.42
597.822	9470.49
598.18	9409.24
598.538	9422.58
598.897	9534.66
599.255	9438.85
599.613	9445.4
599.972	9457.15
600.33	9531.5
600.688	9376.48
601.046	9508
601.404	9471.16
601.762	9463.03
602.12	9524.95
602.478	9463.93
602.836	9522.46
603.194	9431.16
603.552	9454.44
603.91	9396.82
604.268	9435.23
604.625	9409.7
604.983	9457.6
605.341	9392.07
605.698	9426.42
606.056	9495.8
606.413	9444.72
606.771	9506.19
607.128	9519.07
607.485	9399.75
607.843	9366.76
608.2	9467.32
608.557	9484.27
608.914	9501.45
609.272	9441.79
609.629	9491.05
609.986	9565.17
610.343	9457.83
610.7	9512.74
611.057	9491.5
611.414	9512.07
611.771	9508.9
612.127	9510.71
612.484	9477.72
612.841	9567.43
613.198	9532.63
613.554	9503.93
613.911	9550.26
614.267	9518.17
614.624	9516.81
614.98	9572.4
615.337	9614.89
615.693	9533.08
616.05	9548.9
616.406	9654.44
616.762	9551.39
617.118	9515
617.475	9585.28
617.831	9601.1
618.187	9590.93
618.543	9642.23
618.899	9618.73
619.255	9605.17
619.611	9623.48
619.967	9633.87
620.323	9679.75
620.678	9561.1
621.034	9606.3
621.39	9616.47
621.746	9619.63
622.101	9726.3
622.457	9634.77
622.812	9650.82
623.168	9647.66
623.523	9668.9
623.879	9653.53
624.234	9544.83
624.589	9599.97
624.945	9652.63
625.3	9679.29
625.655	9652.63
626.01	9629.13
626.365	9615.11
626.72	9555.45
627.075	9618.5
627.43	9530.37
627.785	9496.47
628.14	9589.8
628.495	9550.03
628.85	9632.74
629.205	9569.47
629.559	9600.88
629.914	9541.22
630.269	9560.65
630.623	9529.69
630.978	9529.69
631.332	9489.69
631.687	9584.83
632.041	9524.95
632.396	9564.27
632.75	9434.33
633.104	9542.57
633.459	9467.55
633.813	9429.81
634.167	9432.07
634.521	9389.13
634.875	9532.63
635.229	9425.06
635.583	9386.65
635.937	9359.98
636.291	9342.35
636.645	9364.05
636.999	9305.07
637.352	9373.09
637.706	9270.04
638.06	9265.07
638.413	9332.86
638.767	9275.91
639.121	9312.3
639.474	9217.38
639.828	9230.27
640.181	9308.23
640.534	9280.21
640.888	9130.16
641.241	9179.42
641.594	9205.63
641.947	9216.71
642.301	9193.2
642.654	9210.38
643.007	9201.34
643.36	9178.74
643.713	9139.65
644.066	9101.23
644.419	9079.54
644.771	9020.55
645.124	9014.9
645.477	9008.12
645.83	8917.51
646.182	8961.12
646.535	8941.69
646.888	8898.98
647.24	8888.13
647.593	8803.38
647.945	8793.89
648.298	8844.06
648.65	8828.47
649.002	8886.09
649.355	8843.61
649.707	8889.48
650.059	8891.74
650.411	8979.88
650.763	9016.71
651.115	9054.23
651.467	9011.97
651.819	9075.69
652.171	9048.12
652.523	9013.32
652.875	9057.39
653.227	9004.51
653.578	9042.02
653.93	9030.72
654.282	9017.62
654.633	9023.49
654.985	9054.45
655.337	9059.65
655.688	9062.59
656.039	9088.8
656.391	9065.75
656.742	9105.75
657.094	9003.61
657.445	9131.51
657.796	9065.3
658.147	9058.07
658.498	9034.56
658.849	9044.96
659.2	9102.13
659.551	9038.18
659.902	9087.9
660.253	9042.02
660.604	9031.4
660.955	9074.79
661.306	9059.87
661.656	9106.2
662.007	9118.4
662.358	9146.43
662.708	9127.67
663.059	9132.42
663.409	9064.85
663.76	9141.45
664.11	9110.49
664.461	9165.63
664.811	9179.19
665.161	9140.78
665.511	9108.24
665.862	9165.63
666.212	9122.7
666.562	9188.91
666.912	9107.78
667.262	9094
667.612	9105.3
667.962	9187.1
668.312	9138.74
668.662	9163.15
669.011	9151.62
669.361	9137.16
669.711	9131.74
670.06	9108.24
670.41	9123.6
670.76	9042.02
671.109	9112.75
671.459	9132.19
671.808	9108.69
672.157	9079.99
672.507	9064.85
672.856	9040.67
673.205	9044.28
673.554	9070.5
673.904	9079.99
674.253	9120.89
674.602	9061
674.951	8971.74
675.3	8896.04
675.649	9011.51
675.998	9008.58
676.346	8994.57
676.695	9055.36
677.044	8980.33
677.393	8997.96
677.741	8990.05
678.09	8957.5
678.438	8909.82
678.787	8889.26
679.135	8905.08
679.484	8847.9
679.832	8968.13
680.181	8868.47
680.529	8813.55
680.877	8813.78
681.225	8770.62
681.573	8948.47
681.922	8805.42
682.27	8826.89
682.618	8746.66
682.966	8722.26
683.314	8743.5
683.661	8688.81
684.009	8675.48
684.357	8647
684.705	8606.55
685.053	8638.64
685.4	8597.97
685.748	8576.27
686.095	8585.09
686.443	8537.63
686.79	8482.04
687.138	8483.39
687.485	8466.9
687.832	8488.82
688.18	8412.89
688.527	8427.12
688.874	8397.29
689.221	8410.85
689.568	8377.41
689.915	8283.85
690.262	8330.4
690.609	8308.48
690.956	8279.33
691.303	8260.57
691.65	8244.98
691.997	8237.75
692.344	8140.8
692.69	8146.45
693.037	8111.2
693.383	8021.03
693.73	8089.96
694.077	8033.01
694.423	8008.15
694.769	7967.25
695.116	7943.07
695.462	7938.77
695.808	7861.49
696.155	7875.05
696.501	7836.4
696.847	7817.87
697.193	7741.27
697.539	7767.03
697.885	7735.39
698.231	7656.07
698.577	7638.22
698.923	7714.37
699.269	7578.78
699.614	7594.38
699.96	7531.55
700.306	7541.5
700.651	7493.14
700.997	7438
701.342	7397.77
701.688	7447.04
702.033	7333.82
702.379	7330.65
702.724	7257.66
703.069	7336.53
703.415	7249.98
703.76	7236.19
704.105	7201.84
704.45	7173.37
704.795	7161.85
705.14	7158
705.485	7106.48
705.83	7139.02
706.175	7136.99
706.52	7023.77
706.865	7042.98
707.209	6980.16
707.554	6986.71
707.899	7010.66
708.243	6944.9
708.588	6919.14
708.932	6905.58
709.277	6900.16
709.621	6883.21
709.966	6800.95
710.31	6867.62
710.654	6786.26
710.998	6811.35
711.342	6835.3
711.687	6757.79
712.031	6743.55
712.375	6740.39
712.719	6675.53
713.063	6705.36
713.407	6725.92
713.75	6667.62
714.094	6651.12
714.438	6645.47
714.782	6636.66
715.125	6654.74
715.469	6604.8
715.812	6562.99
716.156	6575.87
716.499	6545.59
716.843	6551.69
717.186	6532.94
717.53	6544.69
717.873	6575.65
718.216	6514.4
718.559	6472.6
718.902	6446.16
719.246	6453.62
719.589	6451.36
719.932	6450
720.275	6445.93
720.617	6420.85
720.96	6432.37
721.303	6407.74
721.646	6468.53
721.989	6397.57
722.331	6403.67
722.674	6354.64
723.016	6368.65
723.359	6377.23
723.701	6357.12
724.044	6341.98
724.386	6390.79
724.729	6370.91
725.071	6323
725.413	6352.83
725.755	6357.8
726.097	6302.43
726.439	6318.25
726.782	6336.33
727.124	6335.65
727.465	6308.31
727.807	6322.55
728.149	6339.04
728.491	6246.62
728.833	6309.21
729.175	6298.82
729.516	6304.02
729.858	6275.54
730.199	6323.45
730.541	6302.66
730.882	6339.04
731.224	6332.26
731.565	6345.6
731.906	6273.28
732.248	6316.44
732.589	6307.63
732.93	6282.32
733.271	6280.51
733.612	6281.19
733.953	6264.92
734.294	6297.01
734.635	6303.34
734.976	6324.35
735.317	6319.61
735.658	6280.29
735.999	6343.56
736.339	6305.6
736.68	6342.88
737.021	6285.94
737.361	6267.18
737.702	6317.35
738.042	6343.34
738.383	6318.25
738.723	6373.84
739.063	6328.87
739.404	6404.13
739.744	6399.38
740.084	6351.47
740.424	6384.46
740.764	6406.39
741.104	6438.47
741.444	6394.18
741.784	6416.78
742.124	6471.24
742.464	6494.07
742.804	6462.65
743.143	6532.71
743.483	6532.03
743.823	6531.81
744.162	6523.44
744.502	6593.5
744.841	6660.16
745.181	6711.01
745.52	6668.3
745.86	6742.87
746.199	6724.79
746.538	6772.25
746.877	6829.2
747.216	6858.8
747.556	6917.33
747.895	6987.61
748.234	7007.95
748.573	6996.65
748.911	7102.86
749.25	7212.92
749.589	7206.36
749.928	7295.63
750.267	7360.94
750.605	7393.7
750.944	7516.64
751.283	7599.35
751.621	7666.47
751.96	7722.73
752.298	7807.7
752.636	7960.47
752.975	7970.19
753.313	8103.29
753.651	8238.2
753.989	8284.98
754.327	8432.32
754.666	8492.21
755.004	8625.76
755.342	8774.68
755.679	8894.68
756.017	8983.49
756.355	9189.36
756.693	9265.97
757.031	9506.64
757.368	9555.23
757.706	9707.09
758.044	9879.74
758.381	10018.27
758.719	10220.52
759.056	10318.15
759.394	10488.31
759.731	10631.13
760.068	10788.64
760.405	10931.46
760.743	11077.22
761.08	11293.49
761.417	11475.63
761.754	11618.68
762.091	11777.77
762.428	11981.61
762.765	12097.08
763.102	12319.45
763.438	12516.51
763.775	12667.46
764.112	12728.03
764.449	13041.24
764.785	13166.89
765.122	13278.75
765.458	13449.82
765.795	13666.31
766.131	13815.68
766.467	13905.62
766.804	14158.27
767.14	14211.38
767.476	14447.53
767.812	14508.77
768.148	14650.01
768.485	14819.05
768.821	14880.96
769.157	14998.93
769.492	15217
769.828	15365.7
770.164	15438.92
770.5	15483.21
770.836	15687.05
771.171	15774.95
771.507	15808.4
771.842	15900.6
772.178	16064.66
772.513	16223.53
772.849	16235.96
773.184	16261.72
773.519	16546.91
773.855	16516.85
774.19	16599.56
774.525	16619
774.86	16758.88
775.195	16863.96
775.53	16896.05
775.865	16896.73
776.2	16947.13
776.535	16978.54
776.87	17035.71
777.205	17097.18
777.539	17167.68
777.874	17219.89
778.209	17112.77
778.543	17298.75
778.878	17248.13
779.212	17331.3
779.547	17381.69
779.881	17433.89
780.215	17359.54
780.55	17492.87
780.884	17476.83
781.218	17484.06
781.552	17529.26
781.886	17492.65
782.22	17535.13
782.554	17477.05
782.888	17546.21
783.222	17423.27
783.556	17433.21
783.889	17456.94
784.223	17306.89
784.557	17345.08
784.89	17538.75
785.224	17406.77
785.557	17344.85
785.891	17358.64
786.224	17395.02
786.558	17398.19
786.891	17240.9
787.224	17263.73
787.557	17197.51
787.891	17340.11
788.224	17294.46
788.557	17400.45
788.89	17285.65
789.223	17251.98
789.556	17204.52
789.888	17154.13
790.221	17250.39
790.554	17058.31
790.887	17107.8
791.219	17065.09
791.552	17094.01
791.884	17007.46
792.217	17058.08
792.549	16974.47
792.882	16887.01
793.214	16869.39
793.546	16911.65
793.879	16873.68
794.211	16772.21
794.543	16830.97
794.875	16817.64
795.207	16958.42
795.539	16731.31
795.871	16731.76
796.203	16602.73
796.535	16677.08
796.867	16541.26
797.198	16550.98
797.53	16548.94
797.862	16520.92
798.193	16512.79
798.525	16366.58
798.856	16464.65
799.188	16282.96
799.519	16304.88
799.85	16224.43
800.182	16245.67
800.513	16193.7
800.844	16052.46
801.175	16198.67
801.506	16241.83
801.837	16076.64
802.168	16085.9
802.499	15962.52
802.83	15926.59
803.161	15896.53
803.491	15876.19
803.822	15892.46
804.153	15823.09
804.483	15695.18
804.814	15746.25
805.145	15686.37
805.475	15723.65
805.805	15647.27
806.136	15580.83
806.466	15582.19
806.796	15561.4
807.126	15504.45
807.457	15455.64
807.787	15455.86
808.117	15404.11
808.447	15370.9
808.777	15404.57
809.107	15372.03
809.436	15219.71
809.766	15278.69
810.096	15230.33
810.426	15148.98
810.755	15224.91
811.085	15201.63
811.414	15162.77
811.744	15080.96
812.073	15090.9
812.403	15049.77
812.732	14980.85
813.061	14970.45
813.39	14914.64
813.719	14837.58
814.049	14940.17
814.378	14805.03
814.707	14814.98
815.036	14889.78
815.365	14713.29
815.693	14608.66
816.022	14668.31
816.351	14610.69
816.68	14608.66
817.008	14635.32
817.337	14559.39
817.665	14502.9
817.994	14500.41
818.322	14465.83
818.651	14420.64
818.979	14366.4
819.307	14467.42
819.636	14367.98
819.964	14342
820.292	14318.49
820.62	14367.98
820.948	14341.77
821.276	14325.05
821.604	14370.47
821.932	14365.72
822.259	14267.87
822.587	14333.63
822.915	14360.53
823.243	14355.33
823.57	14236.46
823.898	14331.83
824.225	14288.89
824.553	14288.21
824.88	14198.04
825.207	14294.99
825.535	14339.51
825.862	14372.96
826.189	14346.06
826.516	14311.26
826.843	14382.22
827.17	14418.15
827.497	14381.77
827.824	14323.69
828.151	14369.11
828.478	14334.76
828.805	14424.71
829.131	14361.66
829.458	14285.05
829.785	14332.96
830.111	14299.06
830.438	14395.78
830.764	14274.88
831.09	14323.92
831.417	14299.29
831.743	14395.33
832.069	14253.18
832.395	14335.22
832.722	14325.73
833.048	14302
833.374	14257.7
833.7	14272.39
834.026	14248.89
834.351	14233.52
834.677	14301.09
835.003	14138.61
835.329	14149.01
835.654	14208.89
835.98	14153.98
836.306	14215.45
836.631	14080.08
836.956	14231.94
837.282	14078.95
837.607	14090.02
837.932	14079.86
838.258	14136.13
838.583	14027.88
838.908	14040.53
839.233	13985.85
839.558	14003.47
839.883	13912.85
840.208	13804.83
840.533	13891.84
840.858	13836.92
841.182	13889.13
841.507	13886.87
841.832	13788.79
842.156	13756.93
842.481	13743.37
842.805	13758.73
843.13	13785.85
843.454	13657.04
843.778	13600.09
844.103	13576.37
844.427	13486.2
844.751	13548.12
845.075	13530.72
845.399	13475.13
845.723	13413.66
846.047	13426.09
846.371	13267.22
846.695	13266.09
847.019	13208.01
847.343	13163.72
847.666	13001.24
847.99	12988.59
848.313	12983.84
848.637	12974.12
848.96	12992.43
849.284	12845.54
849.607	12775.48
849.931	12787.69
850.254	12706.11
850.577	12641.48
850.9	12564.19
851.223	12507.47
851.546	12495.49
851.869	12368.94
852.192	12406
852.515	12377.75
852.838	12233.58
853.161	12346.57
853.483	12201.71
853.806	12171.21
854.129	12114.71
854.451	12073.81
854.774	12013.24
855.096	12103.86
855.419	11981.15
855.741	11911.1
856.063	11866.13
856.385	11931.44
856.708	11784.77
857.03	11799.01
857.352	11790.65
857.674	11687.6
857.996	11712.91
858.318	11637.43
858.64	11525.12
858.961	11543.65
859.283	11553.82
859.605	11511.79
859.926	11537.55
860.248	11485.12
860.57	11391.56
860.891	11446.03
861.212	11392.69
861.534	11269.76
861.855	11327.84
862.176	11370.1
862.498	11291
862.819	11237.67
863.14	11207.39
863.461	11286.48
863.782	11223.89
864.103	11241.06
864.424	11194.96
864.745	11112.48
865.065	11084.68
865.386	11008.98
865.707	11039.48
866.027	11073.83
866.348	11045.59
866.668	11062.99
866.989	10924.68
867.309	10967.85
867.63	10989.09
867.95	11031.8
868.27	10901.18
868.59	10936.44
868.91	10899.83
869.23	10905.02
869.55	10792.48
869.87	10889.43
870.19	10824.12
870.51	10926.72
870.83	10831.13
871.15	10678.82
871.469	10776.44
871.789	10751.13
872.109	10749.55
872.428	10678.36
872.748	10701.41
873.067	10662.77
873.386	10656.44
873.706	10631.58
874.025	10570.57
874.344	10536.22
874.663	10639.95
874.982	10556.11
875.301	10567.18
875.62	10511.14
875.939	10497.35
876.258	10522.89
876.577	10557.24
876.896	10502.32
877.214	10491.93
877.533	10418.71
877.852	10402.44
878.17	10408.99
878.489	10411.25
878.807	10377.58
879.125	10340.29
879.444	10401.08
879.762	10366.28
880.08	10340.97
880.398	10330.8
880.716	10206.51
881.034	10241.54
881.352	10244.7
881.67	10224.59
881.988	10185.49
882.306	10180.75
882.624	10139.85
882.941	10100.53
883.259	10037.7
883.577	9949.57
883.894	10013.3
884.212	10042.45
884.529	10004.48
884.846	9907.08
885.164	9977.82
885.481	9917.25
885.798	9954.09
886.115	9841.55
886.432	9869.35
886.75	9834.77
887.067	9863.47
887.383	9808.78
887.7	9792.51
888.017	9694.66
888.334	9760.87
888.651	9697.82
888.967	9734.89
889.284	9645.62
889.6	9636.13
889.917	9552.29
890.233	9610.82
890.55	9488.11
890.866	9554.1
891.182	9507.32
891.498	9497.38
891.815	9424.38
892.131	9408.57
892.447	9346.65
892.763	9299.19
893.079	9338.29
893.395	9316.37
893.71	9294.22
894.026	9262.81
894.342	9275.69
894.657	9157.05
894.973	9126.31
895.289	9133.32
895.604	9115.01
895.92	9030.27
896.235	8981.46
896.55	8959.54
896.865	8961.57
897.181	8919.99
897.496	9002.02
897.811	8825.53
898.126	8864.85
898.441	8818.07
898.756	8772.65
899.071	8765.65
899.386	8704.18
899.7	8619.89
900.015	8622.37
900.33	8561.13
900.644	8566.55
900.959	8534.01
901.273	8524.97
901.588	8499.89
901.902	8419.21
902.216	8346.45
902.531	8384.41
902.845	8320.01
903.159	8294.47
903.473	8251.53
903.787	8266.45
904.101	8200.91
904.415	8213.57
904.729	8173.34
905.042	8105.55
905.356	8098.32
905.67	8123.18
905.984	8085.89
906.297	8023.74
906.611	7964.08
906.924	7934.25
907.237	7968.38
907.551	7927.93
907.864	7875.27
908.177	7841.15
908.491	7792.11
908.804	7749.4
909.117	7784.65
909.43	7671.89
909.743	7652.45
910.056	7575.85
910.368	7591.66
910.681	7562.51
910.994	7501.72
911.307	7489.07
911.619	7448.39
911.932	7414.04
912.244	7400.48
912.557	7353.03
912.869	7338.34
913.181	7306.47
913.494	7343.54
913.806	7217.66
914.118	7208.17
914.43	7129.76
914.742	7149.87
915.054	7131.79
915.366	7109.19
915.678	7077.1
915.99	7057.89
916.302	6971.12
916.613	6967.27
916.925	6977.9
917.236	6903.55
917.548	6819.26
917.859	6902.87
918.171	6831.46
918.482	6822.65
918.794	6760.95
919.105	6843.21
919.416	6730.22
919.727	6704.68
920.038	6725.25
920.349	6677.79
920.66	6606.38
920.971	6631.01
921.282	6554.4
921.593	6638.02
921.903	6516.89
922.214	6465.59
922.525	6549.88
922.835	6462.43
923.146	6405.03
923.456	6406.16
923.767	6409.32
924.077	6349.89
924.387	6368.42
924.697	6276.45
925.008	6255.43
925.318	6230.57
925.628	6236.67
925.938	6202.32
926.248	6162.78
926.558	6145.15
926.867	6130.91
927.177	6119.61
927.487	6080.97
927.796	5990.12
928.106	5953.74
928.416	5982.22
928.725	6001.88
929.034	5942.67
929.344	5989.9
929.653	5932.73
929.962	5884.59
930.271	5882.78
930.581	5859.96
930.89	5766.63
931.199	5757.81
931.508	5763.01
931.817	5739.51
932.125	5655.44
932.434	5763.01
932.743	5708.55
933.051	5560.08
933.36	5623.58
933.669	5595.33
933.977	5551.72
934.286	5551.49
934.594	5554.88
934.902	5474.21
935.21	5516.01
935.519	5484.15
935.827	5452.74
936.135	5409.58
936.443	5375.23
936.751	5360.99
937.059	5314.66
937.367	5335.9
937.674	5300.2
937.982	5295.45
938.29	5268.79
938.597	5262.69
938.905	5224.04
939.213	5156.02
939.52	5190.15
939.827	5154.67
940.135	5096.59
940.442	5069.47
940.749	5076.7
941.056	5092.52
941.363	5035.12
941.67	4992.64
941.977	5006.65
942.284	4972.3
942.591	4958.74
942.898	4924.39
943.205	4899.31
943.511	4897.5
943.818	4849.14
944.125	4819.31
944.431	4819.08
944.738	4886.43
945.044	4822.25
945.35	4735.24
945.657	4690.05
945.963	4674.91
946.269	4712.42
946.575	4688.92
946.881	4633.32
947.187	4619.54
947.493	4644.17
947.799	4613.21
948.105	4597.39
948.41	4543.61
948.716	4534.12
949.022	4552.65
949.327	4522.37
949.633	4488.02
949.938	4492.31
950.244	4462.03
950.549	4454.35
950.854	4393.1
951.16	4425.42
951.465	4353.56
951.77	4369.38
952.075	4347.68
952.38	4303.84
952.685	4319.89
952.99	4301.13
953.294	4268.14
953.599	4236.27
953.904	4179.1
954.209	4180.68
954.513	4187.69
954.818	4153.56
955.122	4118.54
955.426	4121.93
955.731	4090.74
956.035	4064.53
956.339	4074.47
956.643	4091.87
956.948	4077.41
957.252	4004.64
957.556	3993.79
957.86	4002.61
958.163	4007.13
958.467	3949.5
958.771	3938.43
959.075	3958.77
959.378	3930.97
959.682	3876.06
959.985	3916.73
960.289	3862.05
960.592	3848.94
960.896	3836.51
961.199	3845.55
961.502	3828.83
961.805	3797.19
962.108	3746.57
962.411	3770.3
962.714	3762.84
963.017	3724.2
963.32	3701.82
963.623	3719.9
963.926	3655.27
964.228	3677.64
964.531	3640.36
964.833	3631.32
965.136	3566.01
965.438	3581.37
965.741	3563.75
966.043	3569.62
966.345	3517.2
966.648	3555.16
966.95	3488.04
967.252	3512.68
967.554	3474.48
967.856	3450.98
968.158	3488.5
968.46	3414.6
968.761	3423.64
969.063	3385
969.365	3399.68
969.666	3369.18
969.968	3346.13
970.269	3373.47
970.571	3298.67
970.872	3315.85
971.174	3291.21
971.475	3292.57
971.776	3288.05
972.077	3295.51
972.378	3240.82
972.679	3216.64
972.98	3235.62
973.281	3220.25
973.582	3182.52
973.883	3196.3
974.183	3187.03
974.484	3165.57
974.785	3183.87
975.085	3155.85
975.386	3092.57
975.686	3109.52
975.986	3105.91
976.287	3073.14
976.587	3025.91
976.887	3069.75
977.187	3047.15
977.487	3027.72
977.787	3014.16
978.087	2994.95
978.387	2973.26
978.687	2984.55
978.987	2952.01
979.286	2927.38
979.586	2925.8
979.885	2923.09
980.185	2911.34
980.484	2879.47
980.784	2852.58
981.083	2883.77
981.382	2831.34
981.682	2826.59
981.981	2834.5
982.28	2799.25
982.579	2790.21
982.878	2817.55
983.177	2794.95
983.475	2748.4
983.774	2752.24
984.073	2721.28
984.372	2680.61
984.67	2698.46
984.969	2721.51
985.267	2711.12
985.566	2661.62
985.864	2700.27
986.162	2661.17
986.461	2632.25
986.759	2625.69
987.057	2643.77
987.355	2619.14
987.653	2603.77
987.951	2569.65
988.249	2574.17
988.547	2566.26
988.844	2565.36
989.142	2540.72
989.44	2533.94
989.737	2529.43
990.035	2491.01
990.332	2490.1
990.63	2469.09
990.927	2435.64
991.224	2443.33
991.521	2469.31
991.819	2429.99
992.116	2432.7
992.413	2419.82
992.71	2395.64
993.006	2383.67
993.303	2382.31
993.6	2371.24
993.897	2339.37
994.193	2337.79
994.49	2371.92
994.787	2303.44
995.083	2340.73
995.379	2308.41
995.676	2237.68
995.972	2240.17
996.268	2295.76
996.565	2245.36
996.861	2228.64
997.157	2235.65
997.453	2223.44
997.749	2208.08
998.044	2196.78
998.34	2191.81
998.636	2159.72
998.932	2151.58
999.227	2121.07
999.523	2152.94
999.818	2145.93
1000.114	2138.25
1000.409	2082.21
1000.704	2111.36
1001	2081.08
1001.295	2078.82
1001.59	2030.91
1001.885	2095.09
1002.18	2052.6
1002.475	2011.92
1002.77	1991.81
1003.065	1989.1
1003.359	1958.14
1003.654	1972.83
1003.949	1957.69
1004.243	1991.59
1004.538	1928.54
1004.832	1956.11
1005.127	1955.2
1005.421	1920.85
1005.715	1845.6
1006.009	1910.46
1006.304	1913.85
1006.598	1890.57
1006.892	1872.27
1007.186	1862.32
1007.48	1841.99
1007.773	1865.49
1008.067	1796.11
1008.361	1823.23
1008.655	1804.25
1008.948	1795.66
1009.242	1774.19
1009.535	1776.45
1009.829	1774.42
1010.122	1728.77
1010.415	1718.15
1010.708	1735.1
1011.001	1710.69
1011.295	1689.22
1011.588	1683.8
1011.881	1679.96
1012.173	1689.22
1012.466	1677.24
1012.759	1652.61
1013.052	1667.07
1013.344	1656.23
1013.637	1635.66
1013.93	1633.18
1014.222	1615.78
1014.514	1607.87
1014.807	1603.35
1015.099	1586.17
1015.391	1569.68
1015.683	1555.89
1015.976	1601.09
1016.268	1551.15
1016.56	1531.94
1016.851	1529.45
1017.143	1527.19
1017.435	1511.82
1017.727	1539.39
1018.018	1504.37
1018.31	1490.13
1018.602	1492.84
1018.893	1477.25
1019.185	1458.27
1019.476	1430.47
1019.767	1448.78
1020.058	1412.17
1020.35	1442.22
1020.641	1423.47
1020.932	1403.13
1021.223	1380.3
1021.514	1406.74
1021.804	1387.76
1022.095	1373.07
1022.386	1364.48
1022.677	1348.67
1022.967	1338.72
1023.258	1357.93
1023.548	1335.11
1023.839	1338.5
1024.129	1300.3
1024.419	1317.25
1024.709	1288.1
1025	1291.27
1025.29	1278.16
1025.58	1255.33
1025.87	1276.8
1026.16	1242
1026.449	1265.96
1026.739	1231.15
1027.029	1220.76
1027.319	1234.32
1027.608	1193.64
1027.898	1213.98
1028.187	1204.94
1028.477	1206.3
1028.766	1195.22
1029.055	1172.17
1029.344	1156.58
1029.634	1147.31
1029.923	1141.66
1030.212	1150.93
1030.501	1132.85
1030.79	1137.82
1031.078	1124.72
1031.367	1099.18
1031.656	1102.57
1031.945	1093.53
1032.233	1081.55
1032.522	1068.45
1032.81	1060.54
1033.099	1071.16
1033.387	1091.04
1033.675	1054.89
1033.963	1057.6
1034.251	1055.79
1034.54	1049.92
1034.828	1044.49
1035.116	1025.74
1035.403	1024.38
1035.691	1019.63
1035.979	992.97
1036.267	1013.98
1036.554	997.26
1036.842	990.26
1037.129	991.84
1037.417	977.15
1037.704	981.44
1037.992	977.6
1038.279	975.79
1038.566	931.95
1038.853	931.95
1039.14	931.95
