Data from hue_24_FLMS001491_00040.txt Node
Date: Tue Feb 07 17:12:12 GMT 2017
User: dcchb
Spectrometer: FLMS00149
Trigger mode: 0
Integration Time (sec): 2.000000E-2
Scans to average: 10
Electric dark correction enabled: true
Nonlinearity correction enabled: false
Boxcar width: 0
XAxis mode: Wavelengths
Number of Pixels in Spectrum: 2048
>>>>>Begin Spectral Data<<<<<
341.393	-10.25
341.776	-10.25
342.16	-10.25
342.543	-66.98
342.927	-69.01
343.31	-71.95
343.693	-73.3
344.077	-71.5
344.46	-64.04
344.843	-42.12
345.226	-41.67
345.61	-42.34
345.993	-29.91
346.376	2.63
346.759	15.06
347.142	32.23
347.525	35.62
347.908	53.47
348.291	75.17
348.674	113.36
349.057	109.29
349.44	128.5
349.823	143.41
350.206	179.35
350.588	189.97
350.971	212.34
351.354	222.96
351.737	254.82
352.119	239.23
352.502	257.54
352.884	284.2
353.267	278.55
353.65	278.55
354.032	295.27
354.414	294.37
354.797	301.6
355.179	329.62
355.562	319.91
355.944	320.58
356.326	319.23
356.709	347.25
357.091	334.14
357.473	352.9
357.855	332.34
358.238	337.53
358.62	335.5
359.002	353.58
359.384	333.47
359.766	340.7
360.148	353.35
360.53	339.79
360.912	333.01
361.294	341.38
361.676	343.64
362.057	337.99
362.439	315.84
362.821	320.13
363.203	333.24
363.584	324.65
363.966	327.59
364.348	322.84
364.729	312.45
365.111	330.75
365.493	341.83
365.874	332.56
366.256	323.3
366.637	317.65
367.019	333.92
367.4	304.31
367.781	321.49
368.163	322.17
368.544	306.35
368.925	315.16
369.306	316.97
369.688	337.08
370.069	315.84
370.45	292.11
370.831	321.71
371.212	303.86
371.593	331.21
371.974	315.84
372.355	327.59
372.736	312.9
373.117	310.19
373.498	335.05
373.879	302.05
374.26	308.61
374.641	300.92
375.021	318.55
375.402	318.32
375.783	330.98
376.163	328.04
376.544	331.88
376.925	310.87
377.305	315.61
377.686	323.07
378.066	336.4
378.447	309.96
378.827	319.68
379.208	313.81
379.588	336.63
379.968	334.37
380.349	330.98
380.729	333.01
381.109	338.89
381.489	342.96
381.87	328.95
382.25	333.24
382.63	317.65
383.01	341.6
383.39	355.61
383.77	341.6
384.15	362.39
384.53	346.35
384.91	349.96
385.29	332.11
385.67	357.87
386.049	356.97
386.429	356.52
386.809	355.16
387.189	370.08
387.568	356.74
387.948	355.39
388.328	366.91
388.707	384.31
389.087	371.66
389.466	387.48
389.846	382.28
390.225	373.46
390.605	382.73
390.984	383.41
391.363	369.4
391.743	362.84
392.122	371.2
392.501	372.56
392.881	372.79
393.26	414.37
393.639	384.76
394.018	392.67
394.397	370.53
394.776	406.46
395.155	386.12
395.534	380.7
395.913	387.7
396.292	385.89
396.671	396.06
397.05	402.84
397.429	395.16
397.808	417.53
398.186	401.26
398.565	395.61
398.944	394.93
399.323	412.56
399.701	401.49
400.08	397.42
400.458	410.53
400.837	428.6
401.215	439
401.594	406.68
401.972	429.96
402.351	412.33
402.729	397.42
403.107	437.19
403.486	436.06
403.864	433.35
404.242	424.31
404.62	432.9
404.999	429.96
405.377	436.97
405.755	419.34
406.133	450.07
406.511	439.23
406.889	432.22
407.267	449.39
407.645	462.95
408.023	463.41
408.401	468.15
408.779	460.47
409.156	460.69
409.534	475.16
409.912	468.15
410.29	473.35
410.667	465.21
411.045	488.49
411.422	478.32
411.8	490.75
412.178	488.04
412.555	518.77
412.933	494.14
413.31	493.91
413.687	486.91
414.065	486.46
414.442	511.09
414.819	495.5
415.197	527.36
415.574	510.64
415.951	517.87
416.328	496.85
416.705	513.35
417.082	507.92
417.46	532.56
417.837	565.78
418.214	548.38
418.591	536.62
418.967	520.35
419.344	535.72
419.721	551.54
420.098	551.77
420.475	580.01
420.852	559.9
421.228	562.16
421.605	569.62
421.982	570.75
422.358	570.97
422.735	576.4
423.111	560.13
423.488	588.83
423.864	570.52
424.241	603.74
424.617	571.2
424.994	603.52
425.37	608.03
425.746	586.34
426.123	633.34
426.499	615.49
426.875	611.2
427.251	633.57
427.627	622.05
428.003	644.64
428.379	639.45
428.756	646.9
429.132	626.79
429.507	652.33
429.883	641.93
430.259	650.97
430.635	672.89
431.011	679.9
431.387	686
431.763	687.35
432.138	688.03
432.514	678.77
432.89	703.4
433.265	680.35
433.641	728.03
434.016	708.15
434.392	707.47
434.767	754.25
435.143	738.2
435.518	752.89
435.894	722.16
436.269	759.44
436.644	768.48
437.02	762.16
437.395	775.04
437.77	768.26
438.145	781.14
438.52	793.57
438.895	821.14
439.271	767.58
439.646	796.73
440.021	823.17
440.395	814.58
440.77	807.35
441.145	800.8
441.52	844.41
441.895	840.8
442.27	836.96
442.645	834.47
443.019	851.64
443.394	862.72
443.769	867.24
444.143	875.6
444.518	871.53
444.892	877.63
445.267	881.7
445.641	883.96
446.016	892.1
446.39	885.99
446.764	904.07
447.139	876.95
447.513	881.93
447.887	938.42
448.262	900.68
448.636	917.63
449.01	911.08
449.384	930.96
449.758	953.79
450.132	962.38
450.506	951.53
450.88	959.66
451.254	951.98
451.628	980.45
452.002	989.27
452.376	994.92
452.75	1000.11
453.123	989.04
453.497	1033.56
453.871	1042.15
454.244	1049.61
454.618	1019.55
454.992	1051.64
455.365	1071.53
455.739	1080.79
456.112	1064.97
456.486	1091.41
456.859	1118.3
457.232	1142.94
457.606	1111.52
457.979	1142.26
458.352	1145.2
458.725	1142.03
459.099	1163.5
459.472	1198.75
459.845	1204.18
460.218	1216.15
460.591	1215.93
460.964	1218.41
461.337	1237.85
461.71	1254.57
462.083	1266.55
462.456	1290.5
462.829	1278.75
463.201	1319.43
463.574	1316.94
463.947	1328.24
464.32	1361.24
464.692	1376.38
465.065	1378.64
465.438	1403.27
465.81	1383.38
466.183	1427.9
466.555	1469.93
466.928	1473.32
467.3	1478.07
467.672	1485.07
468.045	1517.16
468.417	1537.95
468.789	1552.19
469.161	1586.77
469.534	1601.46
469.906	1620.21
470.278	1615.24
470.65	1653.66
471.022	1688.46
471.394	1709.93
471.766	1712.86
472.138	1719.64
472.51	1789.7
472.882	1792.41
473.253	1829.92
473.625	1872.63
473.997	1868.34
474.369	1880.77
474.74	1960.09
475.112	1964.84
475.484	2000.09
475.855	2055
476.227	2020.43
476.598	2099.75
476.97	2144.04
477.341	2155.11
477.713	2228.56
478.084	2243.47
478.455	2322.34
478.827	2321.66
479.198	2368.89
479.569	2375.9
479.94	2475.56
480.311	2499.06
480.682	2606.85
481.053	2641.88
481.424	2686.62
481.795	2707.19
482.166	2756.68
482.537	2794.42
482.908	2863.57
483.279	2898.82
483.65	2967.75
484.021	3046.39
484.391	3067.63
484.762	3084.13
485.133	3138.14
485.503	3145.37
485.874	3243.45
486.244	3291.35
486.615	3355.99
486.985	3399.37
487.356	3459.71
487.726	3503.1
488.097	3631.91
488.467	3663.77
488.837	3696.32
489.207	3732.02
489.578	3784
489.948	3839.59
490.318	3895.18
490.688	3936.08
491.058	3996.42
491.428	4089.75
491.798	4088.4
492.168	4205.91
492.538	4204.1
492.908	4229.41
493.278	4318.22
493.648	4359.35
494.017	4373.59
494.387	4470.08
494.757	4485.9
495.126	4538.78
495.496	4579.68
495.866	4590.08
496.235	4674.59
496.605	4741.94
496.974	4770.86
497.344	4818.77
497.713	4862.39
498.082	4917.07
498.452	4971.31
498.821	4931.31
499.19	5013.79
499.559	5038.88
499.928	5115.49
500.298	5105.77
500.667	5121.36
501.036	5169.72
501.405	5185.77
501.774	5224.18
502.143	5281.36
502.512	5304.86
502.88	5332.88
503.249	5359.32
503.618	5360.23
503.987	5423.95
504.356	5469.15
504.724	5460.79
505.093	5511.41
505.462	5531.75
505.83	5553.22
506.199	5650.39
506.567	5657.62
506.936	5658.52
507.304	5763.61
507.672	5772.87
508.041	5778.75
508.409	5811.29
508.777	5872.3
509.145	5914.11
509.514	5871.17
509.882	5941
510.25	5925.86
510.618	6030.04
510.986	6053.54
511.354	6036.37
511.722	6045.41
512.09	6165.63
512.458	6106.2
512.826	6228
513.193	6199.98
513.561	6213.99
513.929	6259.64
514.297	6327.43
514.664	6372.63
515.032	6366.98
515.4	6390.71
515.767	6414.89
516.135	6465.06
516.502	6439.97
516.869	6550.48
517.237	6516.35
517.604	6576.01
517.972	6618.72
518.339	6606.07
518.706	6638.84
519.073	6667.99
519.44	6718.38
519.808	6730.81
520.175	6767.87
520.542	6839.06
520.909	6800.41
521.276	6850.13
521.643	6905.95
522.009	6903.01
522.376	6999.73
522.743	6975.78
523.11	7073.18
523.477	7105.94
523.843	7137.81
524.21	7208.09
524.577	7294.86
524.943	7248.76
525.31	7284.24
525.676	7365.37
526.043	7377.12
526.409	7468.19
526.776	7500.51
527.142	7457.57
527.508	7566.72
527.874	7624.12
528.241	7616.21
528.607	7580.51
528.973	7751.8
529.339	7719.71
529.705	7811.01
530.071	7907.28
530.437	7889.2
530.803	7963.55
531.169	7972.59
531.535	7958.35
531.901	8027.27
532.267	8061.62
532.632	8104.79
532.998	8180.04
533.364	8174.62
533.73	8263.88
534.095	8266.14
534.461	8313.59
534.826	8332.13
535.192	8357.89
535.557	8399.92
535.923	8405.57
536.288	8484.44
536.653	8518.56
537.019	8501.84
537.384	8506.13
537.749	8532.8
538.114	8601.05
538.479	8631.78
538.845	8677.2
539.21	8681.27
539.575	8655.28
539.94	8725.34
540.305	8789.06
540.67	8786.8
541.034	8855.95
541.399	8939.12
541.764	8958.1
542.129	9007.59
542.494	8971.43
542.858	9102.27
543.223	9092.78
543.587	9105.44
543.952	9129.62
544.316	9187.24
544.681	9198.32
545.045	9254.14
545.41	9269.5
545.774	9308.6
546.138	9277.86
546.503	9345.43
546.867	9403.06
547.231	9419.33
547.595	9476.05
547.959	9490.29
548.324	9511.08
548.688	9592.66
549.052	9608.93
549.416	9584.07
549.779	9589.95
550.143	9640.34
550.507	9729.83
550.871	9738.19
551.235	9744.29
551.599	9863.61
551.962	9827.45
552.326	9870.62
552.689	9892.54
553.053	9910.62
553.417	9944.29
553.78	10035.13
554.143	10002.82
554.507	10104.73
554.87	10091.18
555.234	10187.9
555.597	10157.61
555.96	10188.8
556.323	10247.1
556.686	10326.2
557.05	10346.76
557.413	10372.07
557.776	10358.29
558.139	10424.05
558.502	10377.95
558.865	10452.75
559.228	10465.85
559.59	10576.13
559.953	10687.54
560.316	10706.53
560.679	10697.26
561.041	10746.98
561.404	10782.68
561.767	10867.88
562.129	10810.7
562.492	10887.99
562.854	10920.08
563.217	10946.97
563.579	11001.43
563.941	10959.4
564.304	11022.68
564.666	11119.85
565.028	11079.85
565.39	11247.08
565.753	11284.82
566.115	11226.96
566.477	11293.86
566.839	11292.95
567.201	11388.09
567.563	11407.98
567.925	11467.18
568.287	11473.51
568.648	11537.01
569.01	11645.26
569.372	11596.9
569.734	11614.07
570.095	11667.18
570.457	11773.84
570.819	11839.6
571.18	11825.14
571.542	11964.12
571.903	11995.31
572.265	12009.09
572.626	12038.24
572.987	12122.99
573.349	12226.94
573.71	12231.68
574.071	12306.03
574.432	12404.56
574.794	12533.6
575.155	12531.11
575.516	12552.35
575.877	12544.22
576.238	12614.5
576.599	12782.86
576.96	12830.54
577.32	12995.96
577.681	12990.31
578.042	13121.38
578.403	13110.98
578.763	13287.02
579.124	13385.78
579.485	13470.52
579.845	13687.24
580.206	13684.75
580.566	13776.05
580.927	13884.3
581.287	14108.24
581.648	14129.04
582.008	14349.14
582.368	14464.39
582.728	14659.19
583.089	14746.42
583.449	14919.07
583.809	15023.25
584.169	15264.6
584.529	15427.98
584.889	15613.97
585.249	15818.03
585.609	15913.85
585.969	16131.02
586.329	16419.82
586.688	16707.27
587.048	16840.38
587.408	17060.26
587.768	17230.2
588.127	17494.14
588.487	17713.12
588.846	18060.68
589.206	18290.73
589.565	18412.31
589.925	18755.58
590.284	19049.58
590.643	19320.31
591.003	19665.61
591.362	19982.89
591.721	20182.44
592.08	20449.55
592.44	20725.92
592.799	21111.9
593.158	21274.84
593.517	21780.36
593.876	21926.8
594.235	22259.67
594.593	22529.04
594.952	22921.35
595.311	23279.08
595.67	23487.43
596.029	23952.28
596.387	24204.48
596.746	24556.11
597.104	24679.49
597.463	25020.05
597.822	25453.26
598.18	25667.26
598.538	25876.07
598.897	26337.3
599.255	26423.4
599.613	27086.66
599.972	27259.31
600.33	27598.06
600.688	27703.59
601.046	28186.52
601.404	28540.86
601.762	28666.05
602.12	29279.37
602.478	29457.22
602.836	29782.18
603.194	29754.61
603.552	30197.99
603.91	30407.93
604.268	30842.95
604.625	31024.18
604.983	31312.76
605.341	31364.97
605.698	31924.27
606.056	32212.85
606.413	32279.07
606.771	32747.75
607.128	33083.57
607.485	33085.15
607.843	33300.51
608.2	33841.06
608.557	34083.76
608.914	34103.43
609.272	34552.45
609.629	34748.38
609.986	35155.38
610.343	35217.52
610.7	35686.21
611.057	35778.41
611.414	36081
611.771	36088.01
612.127	36485.06
612.484	36579.07
612.841	37028.77
613.198	36960.07
613.554	37087.75
613.911	37430.34
614.267	37744.46
614.624	37825.14
614.98	38061.74
615.337	38351.9
615.693	38546.47
616.05	38475.06
616.406	38813.36
616.762	38845.45
617.118	39026.46
617.475	39125.67
617.831	39457.41
618.187	39497.63
618.543	39847.68
618.899	40027.79
619.255	40152.98
619.611	40129.71
619.967	40273.66
620.323	40603.37
620.678	40529.92
621.034	40658.96
621.39	40802.91
621.746	40893.76
622.101	41263.92
622.457	41130.59
622.812	41394.76
623.168	41558.82
623.523	41617.13
623.879	41797.23
624.234	41545.26
624.589	41795.88
624.945	41784.81
625.3	42044.23
625.655	42068.19
626.01	42224.34
626.365	42303.44
626.72	42288.29
627.075	42228.64
627.43	42446.03
627.785	42491.68
628.14	42652.81
628.495	42652.81
628.85	42660.49
629.205	42587.27
629.559	42742.07
629.914	42589.98
630.269	42748.85
630.623	42778.45
630.978	42674.5
631.332	42898.67
631.687	43013.02
632.041	42939.58
632.396	42935.28
632.75	43013.93
633.104	42991.1
633.459	42996.3
633.813	43022.51
634.167	43076.3
634.521	43039.91
634.875	43319.45
635.229	43055.96
635.583	42881.73
635.937	43012.12
636.291	43149.52
636.645	43003.08
636.999	42970.76
637.352	43130.08
637.706	43008.73
638.06	43006.69
638.413	43068.16
638.767	43014.15
639.121	43013.93
639.474	42901.16
639.828	42963.31
640.181	42976.64
640.534	43164.66
640.888	42982.06
641.241	42877.66
641.594	42902.52
641.947	43054.6
642.301	42808.73
642.654	43045.34
643.007	43050.31
643.36	43017.32
643.713	42873.59
644.066	43158.33
644.419	42825.91
644.771	42672.69
645.124	42255.3
645.477	42293.49
645.83	41933.28
646.182	41982.77
646.535	41721.98
646.888	41763.11
647.24	41657.58
647.593	41851.47
647.945	41802.21
648.298	41607.63
648.65	41476.79
649.002	41412.39
649.355	41606.73
649.707	41571.7
650.059	41853.28
650.411	42282.87
650.763	42253.27
651.115	42694.39
651.467	42599.7
651.819	42559.47
652.171	42415.52
652.523	42391.57
652.875	42529.64
653.227	42169.43
653.578	42573.03
653.93	42512.02
654.282	42301.63
654.633	42301.63
654.985	42371.23
655.337	42417.33
655.688	42344.56
656.039	42461.62
656.391	42170.33
656.742	42220.73
657.094	42205.13
657.445	42369.2
657.796	42328.29
658.147	42172.59
658.498	42096.21
658.849	42352.47
659.2	42295.98
659.551	42179.15
659.902	42328.52
660.253	42086.49
660.604	42271.57
660.955	42064.8
661.306	42254.62
661.656	42238.58
662.007	42107.73
662.358	42191.35
662.708	42152.03
663.059	42220.05
663.409	41811.47
663.76	42218.24
664.11	42312.48
664.461	42187.05
664.811	42230.67
665.161	42204.68
665.511	41976.44
665.862	42191.12
666.212	42192.48
666.562	42287.62
666.912	42145.93
667.262	42017.34
667.612	42192.48
667.962	42110.45
668.312	42109.09
668.662	42297.11
669.011	42078.13
669.361	41925.82
669.711	41882.88
670.06	41970.11
670.41	42009.66
670.76	41766.5
671.109	42047.62
671.459	41845.14
671.808	41830.23
672.157	41956.55
672.507	41677.01
672.856	41666.16
673.205	41986.83
673.554	41914.75
673.904	41773.96
674.253	42000.62
674.602	41964.24
674.951	41220.53
675.3	41204.71
675.649	41793.62
675.998	41718.37
676.346	41779.16
676.695	41745.71
677.044	41442.89
677.393	41616
677.741	41851.7
678.09	41595.21
678.438	41507.52
678.787	41518.82
679.135	41490.12
679.484	41200.87
679.832	41289.68
680.181	41105.95
680.529	41183.69
680.877	41156.57
681.225	41039.97
681.573	41347.53
681.922	40981.44
682.27	40943.02
682.618	41003.58
682.966	40894.43
683.314	40971.95
683.661	40774.89
684.009	40646.76
684.357	40680.65
684.705	40634.33
685.053	40727.21
685.4	40645.63
685.748	40389.59
686.095	40526.99
686.443	40356.82
686.79	40508.23
687.138	40453.09
687.485	40442.92
687.832	40262.13
688.18	40112.98
688.527	40027.79
688.874	39929.03
689.221	39839.32
689.568	39892.2
689.915	39748.93
690.262	39609.04
690.609	39550.06
690.956	39488.37
691.303	39393
691.65	39279.56
691.997	39223.29
692.344	39034.6
692.69	39120.47
693.037	38933.13
693.383	38806.58
693.73	38833.02
694.077	38678.45
694.423	38690.42
694.769	38457.66
695.116	38336.99
695.462	38262.86
695.808	38285.46
696.155	38300.83
696.501	38009.09
696.847	38160.72
697.193	37706.27
697.539	37942.87
697.885	37739.49
698.231	37536.78
698.577	37607.51
698.923	37557.12
699.269	37438.93
699.614	37379.27
699.96	37129.56
700.306	37211.37
700.651	37014.76
700.997	36934.99
701.342	36888.66
701.688	36769.57
702.033	36681.21
702.379	36709.46
702.724	36516.02
703.069	36679.85
703.415	36082.81
703.76	36243.71
704.105	36136.82
704.45	36143.37
704.795	36029.25
705.14	35818.18
705.485	35812.08
705.83	35707.68
706.175	35810.73
706.52	35648.7
706.865	35506.78
707.209	35576.61
707.554	35428.36
707.899	35510.39
708.243	35115.83
708.588	35236.95
708.932	34924.42
709.277	34964.42
709.621	34930.52
709.966	34751.54
710.31	34780.24
710.654	34536.18
710.998	34655.28
711.342	34543.64
711.687	34636.74
712.031	34327.83
712.375	34084.44
712.719	34238.34
713.063	34153.82
713.407	34250.77
713.75	34037.89
714.094	34031.56
714.438	33944.33
714.782	33992.47
715.125	33705.7
715.469	33781.85
715.812	33644.68
716.156	33396.55
716.499	33507.28
716.843	33556.77
717.186	33371.47
717.53	33386.16
717.873	33422.31
718.216	33318.36
718.559	33173.05
718.902	32929.22
719.246	33042.21
719.589	33034.98
719.932	32840.86
720.275	32902.1
720.617	32926.28
720.96	32713.86
721.303	32787.75
721.646	32800.41
721.989	32513.18
722.331	32559.06
722.674	32565.61
723.016	32600.19
723.359	32498.95
723.701	32559.29
724.044	32281.55
724.386	32143.7
724.729	32351.61
725.071	32141.22
725.413	32256.69
725.755	32269.35
726.097	32031.62
726.439	31905.74
726.782	31898.51
727.124	31933.54
727.465	31712.08
727.807	31770.15
728.149	31660.1
728.491	31595.24
728.833	31747.56
729.175	31512.76
729.516	31534.68
729.858	31447.9
730.199	31624.85
730.541	31361.8
730.882	31211.98
731.224	31526.09
731.565	31270.73
731.906	31295.14
732.248	31280
732.589	31070.74
732.93	31082.26
733.271	31123.84
733.612	31111.41
733.953	31117.74
734.294	30865.54
734.635	30900.57
734.976	30803.17
735.317	30759.56
735.658	30694.02
735.999	30705.55
736.339	30673.68
736.68	30687.7
737.021	30496.97
737.361	30516.85
737.702	30721.59
738.042	30499.9
738.383	30338.33
738.723	30477.76
739.063	30316.86
739.404	30367.7
739.744	30333.58
740.084	30164.09
740.424	30218.1
740.764	30225.56
741.104	30339.23
741.444	30045.68
741.784	29938.56
742.124	30218.78
742.464	30024.21
742.804	29950.31
743.143	29828.06
743.483	29895.4
743.823	29775.63
744.162	29836.64
744.502	29775.4
744.841	29697.89
745.181	29788.74
745.52	29594.17
745.86	29561.4
746.199	29612.24
746.538	29545.58
746.877	29621.96
747.216	29456.54
747.556	29487.28
747.895	29452.02
748.234	29362.53
748.573	29282.31
748.911	29152.14
749.25	29318.69
749.589	29176.55
749.928	29252.48
750.267	29238.24
750.605	29183.78
750.944	29039.83
751.283	28922.54
751.621	28959.83
751.96	28814.07
752.298	28831.47
752.636	28918.25
752.975	28657.47
753.313	28558.94
753.651	28702.89
753.989	28536.11
754.327	28489.79
754.666	28280.3
755.004	28445.49
755.342	28454.53
755.679	28381.77
756.017	28094.09
756.355	28406.85
756.693	28153.98
757.031	28167.99
757.368	28010.25
757.706	27997.15
758.044	27840.31
758.381	27902.46
758.719	27801.22
759.056	27873.98
759.394	27902.91
759.731	27704.05
760.068	27599.42
760.405	27438.29
760.743	27457.95
761.08	27565.29
761.417	27288.24
761.754	27308.8
762.091	27170.95
762.428	27102.93
762.765	26914.69
763.102	27073.55
763.438	27002.6
763.775	26731.87
764.112	26906.55
764.449	26860.68
764.785	26744.97
765.122	26540.91
765.458	26454.59
765.795	26333.23
766.131	26337.3
766.467	26279.9
766.804	26218.21
767.14	25903.19
767.476	25974.83
767.812	25962.4
768.148	25823.87
768.485	25651.22
768.821	25591.78
769.157	25599.47
769.492	25527.38
769.828	25473.37
770.164	25234.28
770.5	25192.93
770.836	25166.94
771.171	25014.85
771.507	24974.63
771.842	24708.19
772.178	24811.69
772.513	24721.3
772.849	24689.44
773.184	24412.15
773.519	24431.36
773.855	24250.58
774.19	24318.37
774.525	24209.45
774.86	24253.97
775.195	24223.69
775.53	24017.81
775.865	23952.51
776.2	23728.33
776.535	23568.11
776.87	23656.02
777.205	23472.97
777.539	23381.22
777.874	23428.23
778.209	23245.63
778.543	23182.58
778.878	22926.09
779.212	23020.55
779.547	22886.55
779.881	22947.56
780.215	22778.98
780.55	22837.96
780.884	22694.91
781.218	22601.13
781.552	22670.51
781.886	22399.1
782.22	22402.94
782.554	22341.93
782.888	22189.39
783.222	22003.63
783.556	21957.08
783.889	22005.44
784.223	21732.45
784.557	21593.25
784.89	21812.22
785.224	21602.29
785.557	21526.35
785.891	21368.39
786.224	21375.4
786.558	21416.98
786.891	21147.16
787.224	21138.34
787.557	20934.05
787.891	20958.46
788.224	20924.34
788.557	20913.26
788.89	20884.79
789.223	20871.68
789.556	20615.87
789.888	20748.97
790.221	20496.33
790.554	20338.36
790.887	20388.08
791.219	20303.34
791.552	20355.31
791.884	20149.22
792.217	20110.12
792.549	20061.08
792.882	19911.03
793.214	19837.81
793.546	19850.47
793.879	19712.17
794.211	19598.95
794.543	19657.7
794.875	19541.1
795.207	19665.39
795.539	19433.98
795.871	19505.62
796.203	19383.59
796.535	19182.69
796.867	19137.27
797.198	19157.38
797.53	19120.77
797.862	18967.33
798.193	19093.65
798.525	18876.48
798.856	18841.91
799.188	18567.56
799.519	18628.58
799.85	18542.03
800.182	18572.31
800.513	18558.07
800.844	18335.03
801.175	18501.35
801.506	18429.26
801.837	18327.57
802.168	18226.78
802.499	18142.49
802.83	18056.16
803.161	17977.75
803.491	18017.52
803.822	18007.8
804.153	17958.09
804.483	17804.64
804.814	17761.48
805.145	17751.99
805.475	17726.68
805.805	17633.35
806.136	17536.63
806.466	17604.2
806.796	17442.62
807.126	17372.57
807.457	17348.61
807.787	17384.99
808.117	17196.53
808.447	17206.47
808.777	17216.41
809.107	17146.58
809.436	17028.17
809.766	17091.9
810.096	17081.5
810.426	16905.91
810.755	16993.82
811.085	16941.62
811.414	16897.55
811.744	16791.11
812.073	16758.57
812.403	16698.46
812.732	16555.86
813.061	16539.14
813.39	16580.72
813.719	16491.01
814.049	16533.94
814.378	16484.23
814.707	16517.9
815.036	16353.38
815.365	16280.62
815.693	16199.26
816.022	16177.79
816.351	16089.44
816.68	16023.9
817.008	16081.75
817.337	15955.43
817.665	15925.37
817.994	15980.29
818.322	15859.84
818.651	15764.47
818.979	15738.26
819.307	15864.13
819.636	15740.52
819.964	15698.94
820.292	15753.17
820.62	15738.26
820.948	15670.01
821.276	15716.56
821.604	15632.5
821.932	15649.67
822.259	15571.03
822.587	15657.81
822.915	15554.53
823.243	15661.42
823.57	15526.51
823.898	15531.48
824.225	15577.36
824.553	15583.69
824.88	15601.09
825.207	15606.74
825.535	15467.98
825.862	15542.78
826.189	15549.79
826.516	15558.83
826.843	15537.81
827.17	15570.81
827.497	15656.45
827.824	15630.01
828.151	15655.77
828.478	15602.89
828.805	15668.43
829.131	15445.16
829.458	15506.63
829.785	15476.8
830.111	15467.98
830.438	15577.13
830.764	15512.73
831.09	15490.81
831.417	15434.31
831.743	15531.71
832.069	15458.72
832.395	15436.57
832.722	15502.11
833.048	15426.18
833.374	15399.96
833.7	15376.01
834.026	15497.59
834.351	15416.46
834.677	15348.44
835.003	15397.25
835.329	15349.34
835.654	15292.17
835.98	15232.74
836.306	15254.43
836.631	15225.5
836.956	15214.66
837.282	15278.61
837.607	15249.01
837.932	15025.51
838.258	15189.12
838.583	15082.23
838.908	15068.22
839.233	15070.48
839.558	14992.74
839.883	14912.52
840.208	14868.9
840.533	14858.96
840.858	14913.2
841.182	14892.86
841.507	14881.33
841.832	14854.44
842.156	14783.93
842.481	14686.08
842.805	14759.75
843.13	14648.34
843.454	14734.22
843.778	14635.46
844.103	14592.75
844.427	14534.67
844.751	14548.01
845.075	14439.76
845.399	14372.19
845.723	14304.4
846.047	14432.08
846.371	14221.46
846.695	14219.43
847.019	14141.01
847.343	14108.7
847.666	14039.55
847.99	13964.75
848.313	13928.36
848.637	13882.94
848.96	13835.26
849.284	13872.77
849.607	13738.99
849.931	13675.94
850.254	13583.96
850.577	13504.19
850.9	13470.97
851.223	13486.79
851.546	13449.05
851.869	13200.02
852.192	13303.07
852.515	13155.73
852.838	13144.2
853.161	13267.59
853.483	13063.53
853.806	12951.67
854.129	13056.52
854.451	12941.5
854.774	12911.44
855.096	12806.13
855.419	12816.53
855.741	12787.38
856.063	12640.94
856.385	12692.24
856.708	12591.22
857.03	12633.26
857.352	12614.5
857.674	12544.22
857.996	12524.33
858.318	12410.66
858.64	12506.48
858.961	12386.48
859.283	12312.81
859.605	12251.12
859.926	12333.6
860.248	12305.58
860.57	12194.17
860.891	12199.14
861.212	12174.28
861.534	12070.78
861.855	12053.61
862.176	12135.87
862.498	12082.31
862.819	12093.61
863.14	12049.77
863.461	12046.38
863.782	11998.47
864.103	11943.33
864.424	11855.2
864.745	11960.96
865.065	11788.76
865.386	11832.15
865.707	11845.03
866.027	11837.57
866.348	11802.09
866.668	11805.03
866.989	11783.33
867.309	11644.13
867.63	11693.39
867.95	11660.63
868.27	11554.87
868.59	11621.08
868.91	11635.99
869.23	11571.81
869.55	11524.58
869.87	11567.07
870.19	11553.96
870.51	11529.1
870.83	11582.89
871.15	11484.81
871.469	11413.63
871.789	11535.21
872.109	11412.72
872.428	11424.02
872.748	11325.27
873.067	11397.81
873.386	11397.13
873.706	11355.55
874.025	11279.39
874.344	11283.69
874.663	11308.32
874.982	11251.6
875.301	11226.74
875.62	11150.58
875.939	11134.99
876.258	11190.58
876.577	11177.93
876.896	11171.6
877.214	11082.11
877.533	11148.77
877.852	11104.48
878.17	10933.64
878.489	11069.91
878.807	11091.6
879.125	11059.51
879.444	11000.98
879.762	11008.44
880.08	10926.86
880.398	10842.12
880.716	10949.01
881.034	10857.71
881.352	10885.73
881.67	10837.14
881.988	10866.07
882.306	10781.78
882.624	10763.25
882.941	10715.79
883.259	10629.01
883.577	10739.52
883.894	10615.46
884.212	10654.78
884.529	10677.15
884.846	10589.47
885.164	10579.52
885.481	10590.37
885.798	10538.85
886.115	10462.92
886.432	10466.08
886.75	10376.82
887.067	10466.08
887.383	10385.63
887.7	10397.83
888.017	10402.13
888.334	10388.79
888.651	10276.71
888.967	10243.26
889.284	10276.93
889.6	10175.01
889.917	10178.63
890.233	10209.59
890.55	10131.63
890.866	10149.03
891.182	10106.54
891.498	10015.25
891.815	10012.76
892.131	9941.35
892.447	9928.47
892.763	9881.46
893.079	9863.84
893.395	9849.83
893.71	9831.97
894.026	9852.09
894.342	9817.74
894.657	9706.78
894.973	9753.33
895.289	9669.04
895.604	9725.08
895.92	9557.63
896.235	9567.57
896.55	9595.37
896.865	9509.5
897.181	9442.15
897.496	9544.75
897.811	9421.14
898.126	9457.97
898.441	9410.29
898.756	9329.39
899.071	9343.4
899.386	9318.31
899.7	9192.89
900.015	9183.85
900.33	9156.06
900.644	9160.35
900.959	9074.25
901.273	9056.17
901.588	9046.23
901.902	8977.76
902.216	9024.54
902.531	8971.88
902.845	8887.59
903.159	8843.98
903.473	8889.4
903.787	8827.71
904.101	8796.52
904.415	8744.32
904.729	8724.66
905.042	8708.16
905.356	8654.6
905.67	8663.87
905.984	8627.49
906.297	8578.22
906.611	8493.03
906.924	8541.84
907.237	8512.91
907.551	8474.95
907.864	8410.99
908.177	8418.9
908.491	8372.12
908.804	8365.35
909.117	8256.2
909.43	8167.38
909.743	8146.14
910.056	8124
910.368	8154.28
910.681	8133.94
910.994	8142.75
911.307	8029.31
911.619	7989.99
911.932	8059.82
912.244	7909.31
912.557	7937.79
912.869	7897.56
913.181	7881.97
913.494	7818.69
913.806	7741.63
914.118	7727.62
914.43	7727.4
914.742	7640.39
915.054	7618.02
915.366	7650.34
915.678	7609.88
915.99	7541.19
916.302	7452.6
916.613	7429.1
916.925	7433.84
917.236	7436.33
917.548	7409.21
917.859	7394.52
918.171	7344.35
918.482	7297.35
918.794	7256.67
919.105	7278.37
919.416	7180.29
919.727	7243.79
920.038	7201.53
920.349	7032.95
920.66	7095.55
920.971	7046.51
921.282	7056.23
921.593	6995.21
921.903	6939.39
922.214	6940.3
922.525	6887.87
922.835	6864.14
923.146	6839.06
923.456	6865.95
923.767	6750.92
924.077	6765.61
924.387	6747.99
924.697	6677.93
925.008	6624.37
925.318	6609.91
925.628	6649.46
925.938	6594.77
926.248	6540.53
926.558	6505.51
926.867	6542.79
927.177	6459.18
927.487	6478.16
927.796	6416.24
928.106	6408.33
928.416	6366.98
928.725	6371.95
929.034	6335.12
929.344	6325.17
929.653	6296.25
929.962	6282.46
930.271	6145.74
930.581	6171.5
930.89	6142.13
931.199	6154.56
931.508	6072.52
931.817	6115.01
932.125	6087.44
932.434	6076.82
932.743	6094.67
933.051	6006.99
933.36	5928.35
933.669	5883.83
933.977	5877.95
934.286	5903.94
934.594	5866.2
934.902	5820.78
935.21	5797.5
935.519	5807.45
935.827	5807.9
936.135	5690.61
936.443	5664.85
936.751	5671.63
937.059	5714.34
937.367	5626.21
937.674	5619.65
937.982	5622.37
938.29	5532.65
938.597	5538.53
938.905	5496.27
939.213	5422.6
939.52	5420.11
939.827	5392.54
940.135	5407.68
940.442	5391.86
940.749	5388.7
941.056	5369.04
941.363	5270.51
941.67	5272.54
941.977	5268.93
942.284	5278.65
942.591	5225.54
942.898	5249.95
943.205	5233.68
943.511	5192.55
943.818	5145.09
944.125	5099.89
944.431	5133.11
944.738	5084.98
945.044	5046.79
945.35	5021.7
945.657	5009.73
945.963	5032.55
946.269	4921.14
946.575	4962.04
946.881	4927.02
947.187	4886.11
947.493	4839.56
947.799	4807.02
948.105	4806.12
948.41	4809.51
948.716	4804.76
949.022	4732.67
949.327	4796.85
949.633	4713.24
949.938	4735.61
950.244	4674.37
950.549	4654.48
950.854	4614.71
951.16	4607.25
951.465	4583.52
951.77	4559.8
952.075	4579.68
952.38	4563.86
952.685	4552.11
952.99	4481.15
953.294	4491.55
953.599	4462.62
953.904	4445
954.209	4423.08
954.513	4446.8
954.818	4348.05
955.122	4373.13
955.426	4359.35
955.731	4348.73
956.035	4296.98
956.339	4299.46
956.643	4261.5
956.948	4235.96
957.252	4226.47
957.556	4233.48
957.86	4221.73
958.163	4226.47
958.467	4147.15
958.771	4165.46
959.075	4132.69
959.378	4104.89
959.682	4089.53
959.985	4110.32
960.289	4049.75
960.592	4033.03
960.896	4067.15
961.199	4014.05
961.502	3986.25
961.805	3969.08
962.108	3951.9
962.411	3928.4
962.714	3884.11
963.017	3845.24
963.32	3911.45
963.623	3867.16
963.926	3832.58
964.228	3778.12
964.531	3821.28
964.833	3812.92
965.136	3779.93
965.438	3744.9
965.741	3730.44
966.043	3748.52
966.345	3730.21
966.648	3692.93
966.95	3662.42
967.252	3615.87
967.554	3661.74
967.856	3639.82
968.158	3622.87
968.46	3582.87
968.761	3566.38
969.063	3568.41
969.365	3535.87
969.666	3583.32
969.968	3542.42
970.269	3510.33
970.571	3499.71
970.872	3477.56
971.174	3462.42
971.475	3452.93
971.776	3482.08
972.077	3437.79
972.378	3364.35
972.679	3376.1
972.98	3361.63
973.281	3396.21
973.582	3374.29
973.883	3355.08
974.183	3340.17
974.484	3333.39
974.785	3268.08
975.085	3280.28
975.386	3255.42
975.686	3273.5
975.986	3227.18
976.287	3243.22
976.587	3227.4
976.887	3198.93
977.187	3183.33
977.487	3183.56
977.787	3149.89
978.087	3126.61
978.387	3117.8
978.687	3111.25
978.987	3088.87
979.286	3043.9
979.586	3095.88
979.885	3061.98
980.185	3031.02
980.484	3057.91
980.784	3008.42
981.083	3017.69
981.382	2991.48
981.682	2970.68
981.981	2928.65
982.28	2952.38
982.579	2936.34
982.878	2920.29
983.177	2913.06
983.475	2870.35
983.774	2870.35
984.073	2866.51
984.372	2859.05
984.67	2811.14
984.969	2862.21
985.267	2843.68
985.566	2813.4
985.864	2799.39
986.162	2838.94
986.461	2792.61
986.759	2765.04
987.057	2734.08
987.355	2708.54
987.653	2724.36
987.951	2683.91
988.249	2666.96
988.547	2678.94
988.844	2678.71
989.142	2653.63
989.44	2638.49
989.737	2655.89
990.035	2589
990.332	2599.17
990.63	2558.72
990.927	2606.63
991.224	2578.6
991.521	2521.88
991.819	2546.06
992.116	2546.06
992.413	2495.44
992.71	2521.88
993.006	2462.9
993.303	2496.8
993.6	2486.4
993.897	2472.39
994.193	2440.3
994.49	2462
994.787	2436.24
995.083	2436.01
995.379	2420.64
995.676	2380.87
995.972	2401.21
996.268	2362.34
996.565	2341.77
996.861	2329.12
997.157	2340.87
997.453	2390.59
997.749	2294.54
998.044	2292.74
998.34	2283.02
998.636	2278.5
998.932	2266.52
999.227	2261.55
999.523	2221.1
999.818	2227.88
1000.114	2243.92
1000.409	2230.14
1000.704	2199.41
1001	2165.51
1001.295	2184.49
1001.59	2149.01
1001.885	2154.43
1002.18	2118.73
1002.475	2137.94
1002.77	2111.27
1003.065	2111.5
1003.359	2076.24
1003.654	2109.24
1003.949	2064.72
1004.243	2050.93
1004.538	2046.42
1004.832	2022.23
1005.127	2023.36
1005.421	2005.96
1005.715	2005.29
1006.009	1996.92
1006.304	1960.09
1006.598	1971.61
1006.892	1942.24
1007.186	1963.93
1007.48	1932.07
1007.773	1912.86
1008.067	1925.29
1008.361	1893.2
1008.655	1891.39
1008.948	1885.52
1009.242	1867.89
1009.535	1871.28
1009.829	1837.61
1010.122	1882.8
1010.415	1830.83
1010.708	1815.23
1011.001	1820.21
1011.295	1779.53
1011.588	1778.63
1011.881	1774.78
1012.173	1753.99
1012.466	1758.97
1012.759	1751.73
1013.052	1742.24
1013.344	1737.95
1013.637	1749.47
1013.93	1733.65
1014.222	1703.6
1014.514	1694.79
1014.807	1672.41
1015.099	1652.75
1015.391	1649.36
1015.683	1640.32
1015.976	1623.38
1016.268	1609.59
1016.56	1613.66
1016.851	1598.97
1017.143	1585.86
1017.435	1584.96
1017.727	1581.34
1018.018	1586.99
1018.31	1561.46
1018.602	1551.96
1018.893	1544.28
1019.185	1521.91
1019.476	1506.54
1019.767	1528.46
1020.058	1493.44
1020.35	1464.96
1020.641	1455.02
1020.932	1472.19
1021.223	1471.51
1021.514	1471.51
1021.804	1452.98
1022.095	1432.42
1022.386	1418.41
1022.677	1413.44
1022.967	1409.82
1023.258	1399.43
1023.548	1400.56
1023.839	1384.29
1024.129	1379.99
1024.419	1347.68
1024.709	1339.77
1025	1347
1025.29	1318.3
1025.58	1347.68
1025.87	1315.59
1026.16	1318.52
1026.449	1295.02
1026.739	1294.12
1027.029	1284.85
1027.319	1252.09
1027.608	1243.27
1027.898	1270.84
1028.187	1279.88
1028.477	1243.27
1028.766	1247.34
1029.055	1203.05
1029.344	1235.81
1029.634	1229.04
1029.923	1195.36
1030.212	1205.31
1030.501	1201.92
1030.79	1191.97
1031.078	1174.12
1031.367	1135.03
1031.656	1149.04
1031.945	1146.55
1032.233	1158.3
1032.522	1146.1
1032.81	1139.32
1033.099	1170.05
1033.387	1101.81
1033.675	1110.17
1033.963	1089.15
1034.251	1116.04
1034.54	1087.8
1034.828	1082.15
1035.116	1050.51
1035.403	1088.02
1035.691	1062.49
1035.979	1047.12
1036.267	1044.18
1036.554	1059.32
1036.842	1051.86
1037.129	1021.81
1037.417	998.08
1037.704	1012.09
1037.992	1003.05
1038.279	993.11
1038.566	989.27
1038.853	989.27
1039.14	989.27
