Data from hue_230_FLMS001491_00053.txt Node
Date: Tue Feb 07 16:37:26 GMT 2017
User: dcchb
Spectrometer: FLMS00149
Trigger mode: 0
Integration Time (sec): 2.000000E-2
Scans to average: 10
Electric dark correction enabled: true
Nonlinearity correction enabled: false
Boxcar width: 0
XAxis mode: Wavelengths
Number of Pixels in Spectrum: 2048
>>>>>Begin Spectral Data<<<<<
341.393	10.83
341.776	10.83
342.16	10.83
342.543	-73.46
342.927	-72.33
343.31	-65.55
343.693	-78.88
344.077	-52.89
344.46	-74.59
344.843	-44.08
345.226	-37.53
345.61	-35.04
345.993	-23.29
346.376	-5.21
346.759	-2.5
347.142	16.03
347.525	50.38
347.908	55.8
348.291	81.79
348.674	105.97
349.057	109.59
349.44	114.33
349.823	148.68
350.206	181
350.588	186.2
350.971	196.82
351.354	211.05
351.737	233.2
352.119	226.87
352.502	255.8
352.884	252.18
353.267	281.11
353.65	303.71
354.032	304.38
354.414	284.72
354.797	287.66
355.179	291.96
355.562	316.81
355.944	325.4
356.326	348
356.709	326.08
357.091	304.61
357.473	330.82
357.855	348.9
358.238	340.09
358.62	343.93
359.002	344.84
359.384	332.41
359.766	336.93
360.148	332.18
360.53	321.11
360.912	330.37
361.294	333.99
361.676	323.14
362.057	324.95
362.439	322.46
362.821	311.39
363.203	308.9
363.584	328.79
363.966	324.95
364.348	333.76
364.729	321.79
365.111	294.44
365.493	305.51
365.874	322.69
366.256	333.31
366.637	316.14
367.019	319.07
367.4	316.81
367.781	310.03
368.163	317.49
368.544	313.65
368.925	306.87
369.306	314.33
369.688	320.43
370.069	289.47
370.45	321.33
370.831	309.81
371.212	322.24
371.593	307.55
371.974	298.28
372.355	296.02
372.736	298.74
373.117	304.38
373.498	307.1
373.879	312.07
374.26	312.29
374.641	323.59
375.021	308.45
375.402	302.35
375.783	297.61
376.163	307.1
376.544	336.47
376.925	325.85
377.305	331.73
377.686	319.53
378.066	310.03
378.447	317.94
378.827	315.68
379.208	329.69
379.588	322.46
379.968	319.3
380.349	309.81
380.729	344.84
381.109	315.23
381.489	338.28
381.87	320.2
382.25	330.15
382.63	324.27
383.01	334.21
383.39	333.54
383.77	322.24
384.15	334.21
384.53	325.85
384.91	343.71
385.29	346.87
385.67	345.06
386.049	359.98
386.429	349.81
386.809	350.94
387.189	343.25
387.568	362.69
387.948	362.01
388.328	347.55
388.707	358.85
389.087	330.6
389.466	361.56
389.846	361.56
390.225	369.92
390.605	340.77
390.984	344.38
391.363	366.98
391.743	372.63
392.122	361.33
392.501	341.22
392.881	361.56
393.26	387.09
393.639	373.31
394.018	370.82
394.397	359.3
394.776	387.09
395.155	392.29
395.534	386.87
395.913	384.38
396.292	384.38
396.671	380.31
397.05	405.17
397.429	383.03
397.808	374.67
398.186	383.7
398.565	395.46
398.944	397.26
399.323	409.01
399.701	398.39
400.08	380.31
400.458	395.23
400.837	403.14
401.215	426.87
401.594	406.75
401.972	411.73
402.351	423.25
402.729	392.52
403.107	403.37
403.486	430.48
403.864	405.85
404.242	403.59
404.62	421.9
404.999	463.48
405.377	434.32
405.755	454.66
406.133	441.78
406.511	449.47
406.889	455.34
407.267	441.56
407.645	451.5
408.023	442.69
408.401	472.52
408.779	454.89
409.156	477.49
409.534	479.07
409.912	454.44
410.29	486.75
410.667	502.12
411.045	528.11
411.422	505.96
411.8	513.87
412.178	508.22
412.555	536.24
412.933	537.82
413.31	521.78
413.687	555.9
414.065	558.39
414.442	577.6
414.819	555.68
415.197	566.98
415.574	585.96
415.951	590.48
416.328	602.46
416.705	616.69
417.082	590.03
417.46	605.62
417.837	622.12
418.214	630.03
418.591	642.45
418.967	652.17
419.344	652.62
419.721	650.14
420.098	682.45
420.475	673.87
420.852	704.15
421.228	665.73
421.605	704.6
421.982	709.35
422.358	729.68
422.735	739.63
423.111	751.38
423.488	752.96
423.864	743.24
424.241	768.33
424.617	785.28
424.994	806.29
425.37	792.73
425.746	801.77
426.123	815.33
426.499	826.86
426.875	822.79
427.251	828.66
427.627	842
428.003	874.54
428.379	849.68
428.756	885.84
429.132	914.99
429.507	879.96
429.883	903.46
430.259	947.08
430.635	922.22
431.011	944.37
431.387	944.14
431.763	956.57
432.138	978.49
432.514	972.84
432.89	1011.71
433.265	1043.8
433.641	1048.55
434.016	1058.72
434.392	1049
434.767	1092.16
435.143	1083.12
435.518	1112.05
435.894	1152.72
436.269	1166.73
436.644	1183.46
437.02	1166.96
437.395	1171.25
437.77	1216.23
438.145	1223.91
438.52	1251.03
438.895	1236.79
439.271	1234.98
439.646	1297.8
440.021	1342.78
440.395	1310.46
440.77	1327.18
441.145	1318.82
441.52	1370.12
441.895	1371.02
442.27	1391.59
442.645	1406.28
443.019	1418.93
443.394	1385.26
443.769	1440.17
444.143	1457.57
444.518	1464.81
444.892	1477.46
445.267	1470.91
445.641	1479.72
446.016	1484.01
446.39	1516.33
446.764	1561.75
447.139	1523.79
447.513	1546.84
447.887	1524.24
448.262	1559.94
448.636	1572.83
449.01	1558.36
449.384	1649.21
449.758	1604.46
450.132	1621.19
450.506	1653.73
450.88	1660.51
451.254	1667.74
451.628	1657.8
452.002	1688.98
452.376	1680.17
452.75	1710.22
453.123	1718.58
453.497	1737.12
453.871	1759.49
454.244	1803.55
454.618	1811.69
454.992	1799.94
455.365	1821.86
455.739	1857.79
456.112	1849.88
456.486	1903.21
456.859	1909.77
457.232	1966.71
457.606	1973.04
457.979	1968.75
458.352	2031.57
458.725	2018.92
459.099	2046.94
459.472	2104.79
459.845	2062.76
460.218	2117.44
460.591	2107.28
460.964	2131
461.337	2163.32
461.71	2216.42
462.083	2234.5
462.456	2223.66
462.829	2252.58
463.201	2268.17
463.574	2289.87
463.947	2279.7
464.32	2369.87
464.692	2355.18
465.065	2373.26
465.438	2441.28
465.81	2452.58
466.183	2469.75
466.555	2494.61
466.928	2539.81
467.3	2511.11
467.672	2588.39
468.045	2641.72
468.417	2647.6
468.789	2640.14
469.161	2675.17
469.534	2727.82
469.906	2782.06
470.278	2773.7
470.65	2813.25
471.022	2851.44
471.394	2931.21
471.766	2898.67
472.138	2938.21
472.51	3013.24
472.882	3052.33
473.253	3069.28
473.625	3125.78
473.997	3151.32
474.369	3182.95
474.74	3226.12
475.112	3267.7
475.484	3334.81
475.855	3348.37
476.227	3382.72
476.598	3454.81
476.97	3516.5
477.341	3581.36
477.713	3585.2
478.084	3607.57
478.455	3699.78
478.827	3720.57
479.198	3796.72
479.569	3817.06
479.94	3928.02
480.311	3968.7
480.682	4037.17
481.053	4073.1
481.424	4134.11
481.795	4157.62
482.166	4252.08
482.537	4255.92
482.908	4349.25
483.279	4375.24
483.65	4447.78
484.021	4542.92
484.391	4555.12
484.762	4650.49
485.133	4662.91
485.503	4735
485.874	4796.92
486.244	4852.97
486.615	4930.93
486.985	4944.26
487.356	5009.35
487.726	5069.46
488.097	5124.82
488.467	5128.21
488.837	5256.34
489.207	5327.3
489.578	5361.65
489.948	5412.05
490.318	5454.76
490.688	5478.03
491.058	5555.09
491.428	5630.8
491.798	5639.84
492.168	5737.01
492.538	5795.54
492.908	5829.66
493.278	5890.68
493.648	5855.2
494.017	5915.76
494.387	6047.06
494.757	6023.1
495.126	6057.68
495.496	6128.64
495.866	6117.57
496.235	6171.8
496.605	6238.01
496.974	6208.86
497.344	6249.77
497.713	6316.43
498.082	6333.6
498.452	6412.92
498.821	6406.37
499.19	6456.54
499.559	6459.25
499.928	6502.87
500.298	6539.25
500.667	6574.5
501.036	6534.05
501.405	6638.91
501.774	6594.16
502.143	6722.75
502.512	6665.57
502.88	6725.01
503.249	6703.54
503.618	6778.79
503.987	6823.76
504.356	6749.41
504.724	6870.77
505.093	6871.22
505.462	6820.37
505.83	6986.69
506.199	6904.21
506.567	6991.89
506.936	7016.3
507.304	7069.18
507.672	7071.66
508.041	7052.68
508.409	7128.39
508.777	7111.66
509.145	7182.17
509.514	7153.47
509.882	7159.35
510.25	7183.3
510.618	7251.32
510.986	7198.21
511.354	7306.23
511.722	7290.87
512.09	7354.59
512.458	7361.83
512.826	7332.9
513.193	7427.59
513.561	7431.65
513.929	7465.78
514.297	7455.16
514.664	7511.88
515.032	7510.52
515.4	7541.03
515.767	7518.66
516.135	7548.04
516.502	7475.04
516.869	7631.65
517.237	7595.49
517.604	7558.43
517.972	7579.67
518.339	7667.35
518.706	7658.77
519.073	7694.7
519.44	7643.17
519.808	7677.75
520.175	7665.77
520.542	7757.52
520.909	7694.25
521.276	7670.52
521.643	7733.79
522.009	7846.56
522.376	7847.01
522.743	7809.72
523.11	7913
523.477	7898.08
523.843	7947.8
524.21	7972.21
524.577	8024.63
524.943	7952.32
525.31	8007.01
525.676	7960.68
526.043	8013.33
526.409	8009.27
526.776	8089.72
527.142	8047.91
527.508	8121.58
527.874	8125.87
528.241	8087.46
528.607	8116.38
528.973	8187.57
529.339	8070.96
529.705	8078.64
530.071	8162.94
530.437	8169.94
530.803	8157.06
531.169	8206.32
531.535	8158.42
531.901	8091.3
532.267	8196.83
532.632	8237.06
532.998	8182.82
533.364	8248.36
533.73	8200.67
534.095	8196.38
534.461	8195.93
534.826	8217.85
535.192	8208.36
535.557	8167.68
535.923	8171.52
536.288	8253.55
536.653	8223.72
537.019	8103.05
537.384	8144.18
537.749	8174.91
538.114	8092.2
538.479	8050.85
538.845	8120.68
539.21	8124.52
539.575	8147.34
539.94	8104.41
540.305	8116.38
540.67	8083.39
541.034	8080.9
541.399	8076.16
541.764	8014.92
542.129	8110.51
542.494	8010.17
542.858	8053.11
543.223	8047.01
543.587	8034.35
543.952	7966.1
544.316	7981.7
544.681	7941.92
545.045	7945.77
545.41	7982.6
545.774	7960
546.138	7894.92
546.503	7948.03
546.867	7892.66
547.231	7944.41
547.595	7870.74
547.959	7881.36
548.324	7906.22
548.688	7865.77
549.052	7886.78
549.416	7902.15
549.779	7847.24
550.143	7800.23
550.507	7820.8
550.871	7841.81
551.235	7764.08
551.599	7746.9
551.962	7768.6
552.326	7766.34
552.689	7793
553.053	7723.17
553.417	7738.54
553.78	7840.68
554.143	7796.62
554.507	7756.39
554.87	7773.79
555.234	7792.55
555.597	7743.96
555.96	7691.99
556.323	7704.42
556.686	7747.58
557.05	7778.31
557.413	7748.48
557.776	7695.15
558.139	7781.25
558.502	7755.71
558.865	7771.53
559.228	7830.74
559.59	7719.78
559.953	7784.64
560.316	7863.28
560.679	7791.42
561.041	7746.9
561.404	7776.28
561.767	7825.54
562.129	7793.45
562.492	7811.98
562.854	7829.84
563.217	7849.27
563.579	7819.22
563.941	7885.88
564.304	7836.62
564.666	7869.16
565.028	7881.81
565.39	7855.82
565.753	7908.03
566.115	7998.19
566.477	7986.22
566.839	7922.04
567.201	7980.12
567.563	8037.51
567.925	8075.71
568.287	8044.07
568.648	8074.12
569.01	8002.71
569.372	8084.07
569.734	8109.38
570.095	8175.59
570.457	8115.48
570.819	8128.81
571.18	8138.3
571.542	8194.12
571.903	8175.14
572.265	8218.98
572.626	8210.17
572.987	8242.03
573.349	8202.48
573.71	8278.64
574.071	8249.94
574.432	8243.16
574.794	8364.51
575.155	8340.56
575.516	8390.95
575.877	8424.17
576.238	8396.83
576.599	8366.77
576.96	8409.03
577.32	8380.1
577.681	8442.7
578.042	8473.21
578.403	8458.75
578.763	8459.42
579.124	8514.79
579.485	8545.75
579.845	8569.48
580.206	8574
580.566	8569.03
580.927	8538.97
581.287	8576.71
581.648	8527.9
582.008	8621
582.368	8668.23
582.728	8665.07
583.089	8597.05
583.449	8651.51
583.809	8647.44
584.169	8723.6
584.529	8672.07
584.889	8701.45
585.249	8656.03
585.609	8713.43
585.969	8804.27
586.329	8693.99
586.688	8796.59
587.048	8796.59
587.408	8720.89
587.768	8762.47
588.127	8776.25
588.487	8760.66
588.846	8861
589.206	8806.99
589.565	8857.61
589.925	8901.67
590.284	8876.36
590.643	8898.06
591.003	8907.77
591.362	8925.85
591.721	8837.72
592.08	8868.91
592.44	8884.95
592.799	8935.57
593.158	8896.25
593.517	8889.92
593.876	8918.85
594.235	8887.44
594.593	8957.04
594.952	8984.61
595.311	8931.95
595.67	8995.23
596.029	9016.25
596.387	8990.48
596.746	9073.65
597.104	8910.49
597.463	9006.98
597.822	9044.72
598.18	8992.07
598.538	9040.88
598.897	9053.53
599.255	8967.66
599.613	9082.01
599.972	8991.39
600.33	9064.83
600.688	8993.87
601.046	9050.37
601.404	9141.89
601.762	9103.48
602.12	9116.36
602.478	9121.33
602.836	9091.05
603.194	9094.66
603.552	9066.64
603.91	9053.31
604.268	9082.46
604.625	9124.04
604.983	9103.02
605.341	9150.71
605.698	9198.39
606.056	9071.16
606.413	9088.11
606.771	9172.85
607.128	9197.03
607.485	9135.56
607.843	9157.94
608.2	9270.7
608.557	9208.33
608.914	9184.6
609.272	9223.92
609.629	9193.64
609.986	9220.08
610.343	9233.87
610.7	9269.57
611.057	9224.15
611.414	9363.36
611.771	9268.22
612.127	9369.23
612.484	9297.37
612.841	9356.58
613.198	9276.58
613.554	9312.51
613.911	9338.72
614.267	9365.39
614.624	9314.32
614.98	9369.01
615.337	9387.31
615.693	9365.62
616.05	9321.32
616.406	9430.25
616.762	9393.64
617.118	9377.59
617.475	9393.86
617.831	9369.01
618.187	9426.18
618.543	9392.28
618.899	9478.61
619.255	9486.06
619.611	9509.79
619.967	9428.89
620.323	9504.37
620.678	9514.99
621.034	9465.95
621.39	9468.89
621.746	9471.6
622.101	9524.03
622.457	9397.25
622.812	9530.58
623.168	9519.06
623.523	9467.99
623.879	9531.71
624.234	9449.68
624.589	9467.31
624.945	9498.27
625.3	9496.91
625.655	9494.2
626.01	9472.05
626.365	9515.89
626.72	9469.79
627.075	9453.07
627.43	9425.73
627.785	9467.31
628.14	9400.64
628.495	9492.39
628.85	9464.14
629.205	9415.11
629.559	9513.41
629.914	9373.07
630.269	9430.02
630.623	9435.9
630.978	9348.44
631.332	9411.94
631.687	9486.06
632.041	9331.04
632.396	9377.14
632.75	9325.84
633.104	9330.14
633.459	9357.71
633.813	9309.57
634.167	9299.63
634.521	9338.95
634.875	9282.91
635.229	9303.92
635.583	9204.49
635.937	9239.06
636.291	9295.79
636.645	9227.77
636.999	9275.22
637.352	9237.03
637.706	9162
638.06	9229.57
638.413	9236.13
638.767	9219.4
639.121	9147.77
639.474	9106.19
639.828	9198.61
640.181	9141.89
640.534	9190.93
640.888	9130.14
641.241	9065.51
641.594	9103.48
641.947	9113.64
642.301	9115.9
642.654	9071.39
643.007	9058.05
643.36	9034.1
643.713	9067.77
644.066	9078.62
644.419	9045.85
644.771	9052.86
645.124	8898.28
645.477	8940.54
645.83	8830.04
646.182	8787.1
646.535	8815.57
646.888	8824.16
647.24	8729.93
647.593	8736.93
647.945	8748.23
648.298	8697.84
648.65	8746.65
649.002	8660.55
649.355	8740.32
649.707	8752.52
650.059	8806.76
650.411	8813.77
650.763	8906.42
651.115	8995.91
651.467	8901.9
651.819	8909.36
652.171	8984.16
652.523	8926.3
652.875	8835.91
653.227	8862.13
653.578	9013.99
653.93	8952.52
654.282	8867.32
654.633	8857.61
654.985	8865.97
655.337	8888.79
655.688	8877.04
656.039	8959.75
656.391	8903.48
656.742	8909.58
657.094	8910.03
657.445	8962.91
657.796	8841.56
658.147	8880.88
658.498	8892.18
658.849	8952.74
659.2	8858.96
659.551	8900.77
659.902	8940.77
660.253	8949.36
660.604	8871.84
660.955	8876.14
661.306	8891.05
661.656	8919.98
662.007	8944.61
662.358	8917.27
662.708	8945.51
663.059	8846.53
663.409	8866.19
663.76	8991.61
664.11	8844.27
664.461	8922.69
664.811	8894.67
665.161	8915.23
665.511	8906.64
665.862	8874.55
666.212	8948.23
666.562	8971.5
666.912	8955.91
667.262	8949.81
667.612	8951.39
667.962	8949.81
668.312	8888.34
668.662	8954.33
669.011	8984.61
669.361	8884.5
669.711	8874.55
670.06	8921.33
670.41	8828.91
670.76	8915.91
671.109	8903.25
671.459	8875.68
671.808	8828.68
672.157	8943.93
672.507	8853.76
672.856	8804.73
673.205	8815.8
673.554	8857.38
673.904	8844.95
674.253	8877.27
674.602	8833.2
674.951	8676.14
675.3	8640.89
675.649	8845.63
675.998	8789.81
676.346	8748.46
676.695	8792.07
677.044	8739.87
677.393	8783.26
677.741	8784.84
678.09	8805.63
678.438	8762.47
678.787	8772.64
679.135	8725.86
679.484	8670.04
679.832	8694.45
680.181	8577.61
680.529	8693.54
680.877	8609.25
681.225	8670.49
681.573	8580.55
681.922	8589.14
682.27	8576.71
682.618	8602.92
682.966	8467.11
683.314	8514.34
683.661	8535.58
684.009	8496.49
684.357	8434.79
684.705	8478.18
685.053	8458.97
685.4	8483.83
685.748	8386.43
686.095	8411.06
686.443	8301.69
686.79	8309.6
687.138	8345.76
687.485	8350.5
687.832	8312.99
688.18	8279.54
688.527	8273.89
688.874	8241.35
689.221	8228.92
689.568	8181.69
689.915	8188.47
690.262	8148.25
690.609	8113.22
690.956	8098.76
691.303	8100.11
691.65	8037.29
691.997	8077.06
692.344	8026.89
692.69	8022.37
693.037	7964.3
693.383	7939.21
693.73	7936.5
694.077	7895.82
694.423	7908.48
694.769	7860.8
695.116	7846.56
695.462	7800.68
695.808	7798.42
696.155	7758.2
696.501	7730.18
696.847	7735.38
697.193	7676.62
697.539	7662.61
697.885	7589.16
698.231	7534.93
698.577	7554.82
698.923	7574.7
699.269	7552.33
699.614	7507.59
699.96	7442.5
700.306	7475.95
700.651	7426.01
700.997	7367.02
701.342	7320.92
701.688	7353.69
702.033	7301.94
702.379	7270.53
702.724	7269.4
703.069	7271.43
703.415	7172.23
703.76	7180.14
704.105	7190.31
704.45	7201.38
704.795	7088.84
705.14	7114.15
705.485	7077.99
705.83	7085.22
706.175	7096.97
706.52	7016.75
706.865	7052.68
707.209	6938.79
707.554	6920.26
707.899	6992.8
708.243	6932.91
708.588	6952.57
708.932	6866.7
709.277	6839.58
709.621	6882.97
709.966	6832.57
710.31	6812.69
710.654	6808.17
710.998	6767.49
711.342	6797.77
711.687	6732.69
712.031	6697.89
712.375	6718.45
712.719	6725.01
713.063	6667.38
713.407	6734.27
713.75	6701.28
714.094	6649.53
714.438	6674.61
714.782	6621.73
715.125	6609.3
715.469	6635.97
715.812	6605.91
716.156	6552.81
716.499	6583.32
716.843	6562.75
717.186	6564.79
717.53	6544.22
717.873	6503.54
718.216	6543.32
718.559	6437.33
718.902	6492.02
719.246	6512.36
719.589	6498.35
719.932	6475.52
720.275	6421.96
720.617	6441.17
720.96	6406.6
721.303	6441.62
721.646	6441.17
721.989	6382.64
722.331	6360.04
722.674	6440.04
723.016	6366.6
723.359	6347.39
723.701	6339.25
724.044	6329.54
724.386	6335.86
724.729	6319.14
725.071	6317.33
725.413	6326.15
725.755	6371.57
726.097	6308.29
726.439	6297.9
726.782	6304.68
727.124	6351.91
727.465	6325.92
727.807	6245.7
728.149	6359.82
728.491	6283.44
728.833	6260.84
729.175	6242.99
729.516	6207.28
729.858	6264.45
730.199	6281.63
730.541	6306.03
730.882	6267.39
731.224	6295.87
731.565	6236.21
731.906	6245.02
732.248	6269.88
732.589	6264.23
732.93	6217
733.271	6230.33
733.612	6264.23
733.953	6261.29
734.294	6266.94
734.635	6268.97
734.976	6223.1
735.317	6226.49
735.658	6245.92
735.999	6233.95
736.339	6265.36
736.68	6326.37
737.021	6249.09
737.361	6222.65
737.702	6326.37
738.042	6281.63
738.383	6249.09
738.723	6293.38
739.063	6259.48
739.404	6305.58
739.744	6314.17
740.084	6288.63
740.424	6326.6
740.764	6361.63
741.104	6301.74
741.444	6309.42
741.784	6290.89
742.124	6382.87
742.464	6343.55
742.804	6351.23
743.143	6369.99
743.483	6403.43
743.823	6318.01
744.162	6413.83
744.502	6403.21
744.841	6430.78
745.181	6527.72
745.52	6485.69
745.86	6524.79
746.199	6518.23
746.538	6515.97
746.877	6594.61
747.216	6593.26
747.556	6582.19
747.895	6655.86
748.234	6687.72
748.573	6709.41
748.911	6752.35
749.25	6826.7
749.589	6855.62
749.928	6878.22
750.267	6922.52
750.605	7011.55
750.944	7059.46
751.283	7116.41
751.621	7138.78
751.96	7173.81
752.298	7339.68
752.636	7345.33
752.975	7386.23
753.313	7436.63
753.651	7539.22
753.989	7539.22
754.327	7661.03
754.666	7715.49
755.004	7824.64
755.342	7958.42
755.679	8058.53
756.017	8095.37
756.355	8244.97
756.693	8230.96
757.031	8438.86
757.368	8500.78
757.706	8573.77
758.044	8699.42
758.381	8770.38
758.719	8863.93
759.056	9016.47
759.394	9126.07
759.731	9222.34
760.068	9350.25
760.405	9426.63
760.743	9486.06
761.08	9643.12
761.417	9760.86
761.754	9869.33
762.091	10006.95
762.428	10022.55
762.765	10175.09
763.102	10345.93
763.438	10431.35
763.775	10502.31
764.112	10666.15
764.449	10811.45
764.785	10894.16
765.122	10914.73
765.458	11012.8
765.795	11142.97
766.131	11240.82
766.467	11322.85
766.804	11458.22
767.14	11546.8
767.476	11656.85
767.812	11627.25
768.148	11771.2
768.485	11874.93
768.821	11924.87
769.157	12018.2
769.492	12107.24
769.828	12207.12
770.164	12201.02
770.5	12226.11
770.836	12420.68
771.171	12431.3
771.507	12552.65
771.842	12500
772.178	12512.65
772.513	12617.06
772.849	12683.72
773.184	12755.13
773.519	12835.58
773.855	12885.97
774.19	12888.01
774.525	12920.78
774.86	12996.25
775.195	13094.78
775.53	13079.19
775.865	13016.82
776.2	13007.78
776.535	12940.89
776.87	13157.61
777.205	13076.93
777.539	13069.25
777.874	13218.17
778.209	13099.53
778.543	13162.8
778.878	13096.82
779.212	13167.32
779.547	13090.26
779.881	13193.09
780.215	13118.06
780.55	13176.81
780.884	13105.86
781.218	13121.22
781.552	13222.69
781.886	13152.41
782.22	13136.82
782.554	13127.1
782.888	13190.37
783.222	13122.58
783.556	13090.94
783.889	13125.52
784.223	13029.93
784.557	13026.54
784.89	13069.92
785.224	13072.64
785.557	12955.13
785.891	13021.11
786.224	12980.21
786.558	12937.5
786.891	12968.46
787.224	12881.46
787.557	12867.9
787.891	12906.99
788.224	12932.53
788.557	12904.96
788.89	12898.86
789.223	12822.25
789.556	12804.39
789.888	12837.39
790.221	12703.83
790.554	12699.99
790.887	12769.82
791.219	12709.93
791.552	12664.06
791.884	12624.51
792.217	12626.55
792.549	12595.59
792.882	12556.49
793.214	12517.62
793.546	12529.15
793.879	12381.13
794.211	12488.02
794.543	12433.33
794.875	12498.19
795.207	12560.56
795.539	12393.33
795.871	12378.87
796.203	12367.57
796.535	12201.25
796.867	12221.81
797.198	12275.82
797.53	12176.39
797.862	12160.12
798.193	12179.78
798.525	12012.55
798.856	12108.37
799.188	12031.08
799.519	11995.83
799.85	11895.49
800.182	11915.38
800.513	11932.78
800.844	11866.34
801.175	12016.85
801.506	11943.85
801.837	11873.12
802.168	11813.91
802.499	11770.3
802.83	11771.65
803.161	11772.33
803.491	11708.6
803.822	11738.43
804.153	11720.13
804.483	11667.48
804.814	11568.04
805.145	11515.84
805.475	11600.36
805.805	11486.01
806.136	11523.52
806.466	11526.91
806.796	11394.94
807.126	11366.01
807.457	11352
807.787	11336.41
808.117	11367.6
808.447	11277.66
808.777	11337.77
809.107	11176.19
809.436	11186.13
809.766	11188.84
810.096	11194.49
810.426	11148.62
810.755	11176.87
811.085	11142.07
811.414	11072.01
811.744	10984.1
812.073	10952.92
812.403	11018
812.732	10980.26
813.061	10958.12
813.39	10879.25
813.719	10910.21
814.049	10990.66
814.378	10836.99
814.707	10809.65
815.036	10824.33
815.365	10849.19
815.693	10763.32
816.022	10755.41
816.351	10761.51
816.68	10652.59
817.008	10640.38
817.337	10538.69
817.665	10615.75
817.994	10587.96
818.322	10605.81
818.651	10569.43
818.979	10559.03
819.307	10527.39
819.636	10536.43
819.964	10502.53
820.292	10498.92
820.62	10507.28
820.948	10470.67
821.276	10546.15
821.604	10470.45
821.932	10506.6
822.259	10481.52
822.587	10488.75
822.915	10409.43
823.243	10465.02
823.57	10486.04
823.898	10405.59
824.225	10380.96
824.553	10427.28
824.88	10453.72
825.207	10570.56
825.535	10488.98
825.862	10450.11
826.189	10421.41
826.516	10492.59
826.843	10519.48
827.17	10511.35
827.497	10527.17
827.824	10505.7
828.151	10537.34
828.478	10480.84
828.805	10493.95
829.131	10498.92
829.458	10450.78
829.785	10457.79
830.111	10488.75
830.438	10543.21
830.764	10484.23
831.09	10475.42
831.417	10425.93
831.743	10478.81
832.069	10394.51
832.395	10408.98
832.722	10512.93
833.048	10387.06
833.374	10519.48
833.7	10331.92
834.026	10376.89
834.351	10453.95
834.677	10410.79
835.003	10363.78
835.329	10353.39
835.654	10374.18
835.98	10355.87
836.306	10378.92
836.631	10301.41
836.956	10373.5
837.282	10300.05
837.607	10256.21
837.932	10241.75
838.258	10250.34
838.583	10247.17
838.908	10192.26
839.233	10208.98
839.558	10196.55
839.883	10186.61
840.208	10175.76
840.533	10100.74
840.858	10077.24
841.182	10167.18
841.507	10169.21
841.832	10081.3
842.156	10065.26
842.481	10032.49
842.805	9988.42
843.13	9896.9
843.454	10006.28
843.778	9976.22
844.103	9954.07
844.427	9899.61
844.751	9829.78
845.075	9823.68
845.399	9797.24
845.723	9799.95
846.047	9782.1
846.371	9740.97
846.695	9764.7
847.019	9686.28
847.343	9570.58
847.666	9521.09
847.99	9546.85
848.313	9489.45
848.637	9490.58
848.96	9383.69
849.284	9413.3
849.607	9346.41
849.931	9406.07
850.254	9276.8
850.577	9237.26
850.9	9209.69
851.223	9228.9
851.546	9127.43
851.869	9078.62
852.192	9171.95
852.515	9013.76
852.838	9011.73
853.161	9018.96
853.483	8969.92
853.806	8922.69
854.129	8960.65
854.451	8849.02
854.774	8843.14
855.096	8843.37
855.419	8776.48
855.741	8786.42
856.063	8717.5
856.385	8762.92
856.708	8723.37
857.03	8622.81
857.352	8650.15
857.674	8630.49
857.996	8576.26
858.318	8456.71
858.64	8523.15
858.961	8529.93
859.283	8454
859.605	8473.66
859.926	8472.53
860.248	8450.61
860.57	8367.22
860.891	8402.02
861.212	8356.83
861.534	8330.84
861.855	8259.66
862.176	8301.46
862.498	8299.2
862.819	8340.33
863.14	8258.98
863.461	8246.1
863.782	8147.34
864.103	8183.5
864.424	8216.94
864.745	8169.49
865.065	8147.12
865.386	8104.63
865.707	8135.59
866.027	8122.03
866.348	8110.06
866.668	8122.48
866.989	8084.29
867.309	8011.75
867.63	8044.29
867.95	8046.78
868.27	7957.52
868.59	7934.47
868.91	7977.63
869.23	7966.1
869.55	7955.03
869.87	7973.34
870.19	7932.88
870.51	7938.53
870.83	7947.8
871.15	7850.17
871.469	7887.01
871.789	7905.31
872.109	7875.71
872.428	7800.23
872.748	7872.32
873.067	7854.47
873.386	7933.79
873.706	7880.46
874.025	7717.52
874.344	7727.47
874.663	7746.22
874.982	7701.03
875.301	7758.43
875.62	7707.81
875.939	7724.53
876.258	7707.35
876.577	7646.56
876.896	7733.79
877.214	7702.16
877.533	7652.89
877.852	7646.11
878.17	7626.45
878.489	7655.83
878.807	7589.39
879.125	7584.65
879.444	7613.35
879.762	7534.7
880.08	7584.42
880.398	7560.69
880.716	7528.38
881.034	7489.96
881.352	7526.79
881.67	7522.95
881.988	7529.96
882.306	7488.38
882.624	7405.44
882.941	7414.03
883.259	7422.16
883.577	7389.4
883.894	7390.3
884.212	7338.78
884.529	7397.31
884.846	7397.76
885.164	7345.56
885.481	7334.71
885.798	7294.03
886.115	7262.85
886.432	7268.95
886.75	7194.37
887.067	7256.97
887.383	7165.67
887.7	7186.24
888.017	7183.98
888.334	7118.44
888.651	7195.73
888.967	7150.76
889.284	7094.94
889.6	7112.12
889.917	7021.95
890.233	7061.72
890.55	6996.19
890.866	7004.77
891.182	7004.77
891.498	6970.42
891.815	6911.22
892.131	6914.61
892.447	6869.64
892.763	6882.74
893.079	6847.26
893.395	6812.69
893.71	6795.06
894.026	6818.34
894.342	6790.99
894.657	6723.88
894.973	6693.82
895.289	6692.01
895.604	6695.86
895.92	6599.81
896.235	6616.31
896.55	6645.69
896.865	6611.34
897.181	6601.62
897.496	6561.4
897.811	6556.65
898.126	6523.2
898.441	6477.56
898.756	6498.35
899.071	6440.27
899.386	6430.1
899.7	6358.24
900.015	6395.75
900.33	6397.11
900.644	6300.39
900.959	6352.81
901.273	6278.24
901.588	6246.83
901.902	6254.96
902.216	6199.14
902.531	6234.4
902.845	6181.97
903.159	6176.77
903.473	6104.23
903.787	6103.55
904.101	6077.34
904.415	6026.72
904.729	6048.19
905.042	6010
905.356	5989.66
905.67	5955.08
905.984	5990.11
906.297	5983.11
906.611	5944.24
906.924	5921.41
907.237	5908.98
907.551	5848.87
907.864	5803.68
908.177	5784.24
908.491	5819.72
908.804	5759.61
909.117	5758.03
909.43	5685.49
909.743	5686.39
910.056	5644.36
910.368	5676.67
910.681	5609.56
910.994	5618.37
911.307	5577.92
911.619	5599.16
911.932	5567.3
912.244	5515.77
912.557	5492.27
912.869	5449.33
913.181	5458.15
913.494	5440.29
913.806	5405.04
914.118	5398.71
914.43	5390.13
914.742	5370.01
915.054	5348.09
915.366	5326.63
915.678	5245.27
915.99	5281.65
916.302	5248.66
916.613	5234.2
916.925	5224.93
917.236	5200.98
917.548	5134.31
917.859	5112.85
918.171	5164.82
918.482	5071.49
918.794	5098.61
919.105	5050.02
919.416	5004.83
919.727	4997.37
920.038	5020.64
920.349	4980.19
920.66	4923.25
920.971	4963.7
921.282	4913.75
921.593	4900.42
921.903	4884.83
922.214	4863.36
922.525	4847.77
922.835	4827.43
923.146	4818.16
923.456	4783.36
923.767	4795.11
924.077	4792.4
924.387	4748.34
924.697	4707.66
925.008	4739.75
925.318	4688.68
925.628	4678.05
925.938	4621.79
926.248	4604.38
926.558	4577.49
926.867	4632.18
927.177	4568.23
927.487	4583.37
927.796	4488
928.106	4536.36
928.416	4522.58
928.725	4461.11
929.034	4464.73
929.344	4454.33
929.653	4413.88
929.962	4385.86
930.271	4348.57
930.581	4369.81
930.89	4306.31
931.199	4350.38
931.508	4307.44
931.817	4336.82
932.125	4335.24
932.434	4290.72
932.743	4233.09
933.051	4249.14
933.36	4226.99
933.669	4195.58
933.977	4207.78
934.286	4137.73
934.594	4142.25
934.902	4123.04
935.21	4086.88
935.519	4076.04
935.827	4062.93
936.135	4083.04
936.443	4050.27
936.751	3981.58
937.059	3998.98
937.367	3981.12
937.674	4008.02
937.982	3954.23
938.29	3926.21
938.597	3974.34
938.905	3890.28
939.213	3882.37
939.52	3895.25
939.827	3858.19
940.135	3821.81
940.442	3849.38
940.749	3809.38
941.056	3840.11
941.363	3782.94
941.67	3780
941.977	3762.37
942.284	3712.66
942.591	3726.44
942.898	3707.23
943.205	3723.73
943.511	3710.62
943.818	3627.01
944.125	3664.52
944.431	3631.75
944.738	3616.61
945.044	3639.44
945.35	3601.02
945.657	3574.81
945.963	3549.27
946.269	3537.52
946.575	3567.35
946.881	3510.85
947.187	3492.1
947.493	3499.55
947.799	3470.4
948.105	3467.47
948.41	3472.44
948.716	3446.22
949.022	3456.39
949.327	3393.12
949.633	3411.87
949.938	3400.8
950.244	3370.74
950.549	3343.85
950.854	3338.2
951.16	3324.42
951.465	3281.71
951.77	3284.19
952.075	3313.35
952.38	3246.23
952.685	3249.39
952.99	3235.83
953.294	3224.53
953.599	3218.43
953.904	3202.84
954.209	3158.77
954.513	3194.25
954.818	3135.95
955.122	3134.82
955.426	3140.47
955.731	3107.93
956.035	3096.63
956.339	3092.33
956.643	3088.27
956.948	3083.97
957.252	3021.6
957.556	3071.32
957.86	3005.78
958.163	3011.21
958.467	2980.02
958.771	3001.26
959.075	2941.6
959.378	2935.05
959.682	2970.53
959.985	2916.07
960.289	2932.11
960.592	2922.39
960.896	2935.28
961.199	2910.42
961.502	2915.62
961.805	2831.1
962.108	2855.05
962.411	2835.62
962.714	2831.78
963.017	2830.42
963.32	2832.68
963.623	2799.91
963.926	2801.49
964.228	2769.4
964.531	2776.86
964.833	2739.35
965.136	2731.67
965.438	2709.07
965.741	2705
966.043	2720.14
966.345	2711.33
966.648	2668.62
966.95	2647.37
967.252	2647.83
967.554	2640.59
967.856	2609.63
968.158	2598.79
968.46	2632.01
968.761	2622.52
969.063	2597.88
969.365	2547.49
969.666	2601.73
969.968	2592.69
970.269	2573.25
970.571	2560.82
970.872	2507.94
971.174	2523.31
971.475	2502.29
971.776	2511.78
972.077	2499.36
972.378	2498.45
972.679	2457.1
972.98	2500.26
973.281	2473.82
973.582	2446.93
973.883	2439.92
974.183	2422.52
974.484	2418.68
974.785	2415.52
975.085	2409.87
975.386	2364.9
975.686	2387.72
975.986	2347.04
976.287	2344.78
976.587	2330.09
976.887	2353.37
977.187	2321.96
977.487	2320.15
977.787	2281.73
978.087	2310.21
978.387	2274.95
978.687	2272.47
978.987	2249.19
979.286	2274.73
979.586	2266.59
979.885	2227.95
980.185	2233.37
980.484	2189.53
980.784	2215.29
981.083	2202.19
981.382	2207.39
981.682	2190.66
981.981	2167.16
982.28	2194.5
982.579	2149.53
982.878	2173.26
983.177	2124
983.475	2140.95
983.774	2106.82
984.073	2115.64
984.372	2096.43
984.67	2086.26
984.969	2107.95
985.267	2076.09
985.566	2051.01
985.864	2069.31
986.162	2059.59
986.461	2055.53
986.759	2008.29
987.057	1999.26
987.355	2010.33
987.653	2000.39
987.951	1988.86
988.249	2001.52
988.547	2004.68
988.844	1974.4
989.142	1961.06
989.44	1953.61
989.737	1931.23
990.035	1931.69
990.332	1905.92
990.63	1921.52
990.927	1906.6
991.224	1915.19
991.521	1875.19
991.819	1887.39
992.116	1888.75
992.413	1857.34
992.71	1862.31
993.006	1858.02
993.303	1876.55
993.6	1835.64
993.897	1850.33
994.193	1814.85
994.49	1807.4
994.787	1790.9
995.083	1808.07
995.379	1784.35
995.676	1735.31
995.972	1787.96
996.268	1767.85
996.565	1768.53
996.861	1718.58
997.157	1733.05
997.453	1741.18
997.749	1736.21
998.044	1695.08
998.34	1719.94
998.636	1698.7
998.932	1683.78
999.227	1695.53
999.523	1673.61
999.818	1677.91
1000.114	1653.28
1000.409	1660.96
1000.704	1630
1001	1626.38
1001.295	1626.84
1001.59	1595.88
1001.885	1638.36
1002.18	1625.25
1002.475	1587.97
1002.77	1594.75
1003.065	1564.01
1003.359	1553.62
1003.654	1579.61
1003.949	1537.35
1004.243	1536.67
1004.538	1526.27
1004.832	1507.74
1005.127	1520.85
1005.421	1459.38
1005.715	1508.65
1006.009	1507.52
1006.304	1502.77
1006.598	1490.79
1006.892	1443.56
1007.186	1459.83
1007.48	1464.58
1007.773	1457.8
1008.067	1437.46
1008.361	1412.15
1008.655	1451.47
1008.948	1405.82
1009.242	1425.71
1009.535	1407.63
1009.829	1381.19
1010.122	1408.99
1010.415	1368.09
1010.708	1397.69
1011.001	1359.5
1011.295	1337.58
1011.588	1362.21
1011.881	1312.49
1012.173	1368.09
1012.466	1324.92
1012.759	1334.19
1013.052	1311.82
1013.344	1274.3
1013.637	1288.99
1013.93	1289.9
1014.222	1278.37
1014.514	1260.74
1014.807	1278.14
1015.099	1274.98
1015.391	1275.43
1015.683	1223.46
1015.976	1259.16
1016.268	1247.18
1016.56	1237.02
1016.851	1214.64
1017.143	1196.11
1017.435	1206.06
1017.727	1208.77
1018.018	1197.47
1018.31	1192.72
1018.602	1222.33
1018.893	1158.6
1019.185	1157.92
1019.476	1139.62
1019.767	1173.74
1020.058	1157.47
1020.35	1164.93
1020.641	1138.94
1020.932	1128.77
1021.223	1116.34
1021.514	1144.14
1021.804	1093.52
1022.095	1094.65
1022.386	1114.53
1022.677	1079.05
1022.967	1073.4
1023.258	1060.52
1023.548	1067.53
1023.839	1040.64
1024.129	1071.14
1024.419	1039.51
1024.709	1051.94
1025	1028.21
1025.29	1057.59
1025.58	1027.76
1025.87	1025.95
1026.16	990.92
1026.449	992.95
1026.739	993.86
1027.029	990.69
1027.319	982.33
1027.608	945.27
1027.898	977.81
1028.187	996.57
1028.477	974.42
1028.766	971.49
1029.055	964.93
1029.344	948.66
1029.634	937.59
1029.923	929.45
1030.212	939.4
1030.501	934.42
1030.79	924.71
1031.078	951.83
1031.367	915.67
1031.656	917.02
1031.945	910.02
1032.233	895.78
1032.522	906.4
1032.81	868.21
1033.099	879.06
1033.387	869.34
1033.675	861.21
1033.963	884.71
1034.251	881.54
1034.54	875.67
1034.828	847.65
1035.116	847.87
1035.403	832.05
1035.691	838.38
1035.979	848.78
1036.267	829.57
1036.554	845.39
1036.842	813.98
1037.129	823.69
1037.417	804.26
1037.704	800.64
1037.992	790.02
1038.279	817.37
1038.566	789.57
1038.853	789.57
1039.14	789.57
