Data from hue_290_FLMS001491_00034.txt Node
Date: Tue Feb 07 15:52:39 GMT 2017
User: dcchb
Spectrometer: FLMS00149
Trigger mode: 0
Integration Time (sec): 2.000000E-2
Scans to average: 10
Electric dark correction enabled: true
Nonlinearity correction enabled: false
Boxcar width: 0
XAxis mode: Wavelengths
Number of Pixels in Spectrum: 2048
>>>>>Begin Spectral Data<<<<<
341.393	-17.51
341.776	-17.51
342.16	-17.51
342.543	-86.21
342.927	-49.6
343.31	-88.92
343.693	-70.39
344.077	-48.7
344.46	-65.2
344.843	-55.93
345.226	-53.44
345.61	-34.91
345.993	-19.1
346.376	8.93
346.759	15.03
347.142	33.78
347.525	35.14
347.908	32.2
348.291	88.47
348.674	106.55
349.057	116.49
349.44	132.99
349.823	138.64
350.206	161.92
350.588	181.13
350.971	221.35
351.354	224.29
351.737	235.36
352.119	246.66
352.502	245.3
352.884	262.7
353.267	266.09
353.65	298.41
354.032	284.17
354.414	309.71
354.797	295.92
355.179	307.45
355.562	303.16
355.944	325.3
356.326	320.78
356.709	323.95
357.091	302.25
357.473	323.72
357.855	356.71
358.238	327.56
358.62	332.31
359.002	345.87
359.384	323.04
359.766	310.84
360.148	334.79
360.53	332.53
360.912	328.69
361.294	339.09
361.676	336.15
362.057	324.62
362.439	318.75
362.821	317.84
363.203	322.36
363.584	329.14
363.966	325.98
364.348	316.26
364.729	319.65
365.111	331.18
365.493	310.39
365.874	309.26
366.256	316.04
366.637	321.69
367.019	341.12
367.4	303.16
367.781	305.42
368.163	316.94
368.544	295.25
368.925	305.87
369.306	325.98
369.688	306.55
370.069	307.22
370.45	330.73
370.831	310.84
371.212	309.71
371.593	306.77
371.974	300.9
372.355	305.42
372.736	294.79
373.117	319.88
373.498	305.19
373.879	323.04
374.26	318.52
374.641	313.78
375.021	305.42
375.402	311.97
375.783	312.42
376.163	309.94
376.544	315.58
376.925	308.35
377.305	309.94
377.686	333.89
378.066	315.81
378.447	321.69
378.827	318.3
379.208	314.68
379.588	322.82
379.968	299.99
380.349	335.7
380.729	316.04
381.109	330.95
381.489	332.53
381.87	328.69
382.25	322.82
382.63	329.37
383.01	331.63
383.39	341.12
383.77	325.53
384.15	357.84
384.53	366.43
384.91	335.7
385.29	353.78
385.67	346.54
386.049	361.23
386.429	339.09
386.809	364.62
387.189	340.44
387.568	338.64
387.948	356.71
388.328	363.95
388.707	367.11
389.087	342.93
389.466	347.22
389.846	350.61
390.225	349.26
390.605	362.36
390.984	370.05
391.363	388.35
391.743	352.19
392.122	363.04
392.501	364.62
392.881	381.8
393.26	365.3
393.639	374.11
394.018	374.57
394.397	385.19
394.776	384.28
395.155	359.65
395.534	383.15
395.913	365.53
396.292	384.28
396.671	385.41
397.05	385.87
397.429	383.38
397.808	388.13
398.186	388.35
398.565	380.44
398.944	391.52
399.323	388.13
399.701	410.5
400.08	413.66
400.458	407.33
400.837	440.33
401.215	422.25
401.594	411.18
401.972	410.72
402.351	408.92
402.729	408.01
403.107	406.43
403.486	427.9
403.864	445.3
404.242	424.96
404.62	417.28
404.999	447.33
405.377	451.4
405.755	445.53
406.133	458.18
406.511	463.38
406.889	446.65
407.267	461.57
407.645	470.16
408.023	461.12
408.401	464.06
408.779	481.91
409.156	486.65
409.534	481.68
409.912	485.98
410.29	500.89
410.667	513.55
411.045	518.74
411.422	523.49
411.8	536.82
412.178	538.4
412.555	536.82
412.933	539.76
413.31	547.44
413.687	565.52
414.065	585.86
414.442	572.53
414.819	592.19
415.197	590.83
415.574	589.48
415.951	628.57
416.328	618.63
416.705	624.28
417.082	620.89
417.46	608.46
417.837	618.63
418.214	642.58
418.591	674.45
418.967	657.72
419.344	661.79
419.721	663.82
420.098	683.03
420.475	692.52
420.852	711.05
421.228	715.57
421.605	715.8
421.982	725.52
422.358	738.4
422.735	733.65
423.111	743.37
423.488	748.34
423.864	791.96
424.241	785.63
424.617	787.44
424.994	817.49
425.37	807.1
425.746	804.16
426.123	822.24
426.499	841.9
426.875	832.86
427.251	816.81
427.627	838.51
428.003	869.69
428.379	912.41
428.756	906.98
429.132	904.95
429.507	921.9
429.883	932.97
430.259	940.88
430.635	941.11
431.011	979.52
431.387	964.61
431.763	990.6
432.138	985.17
432.514	1014.32
432.89	996.24
433.265	1019.75
433.641	1034.66
434.016	1059.75
434.392	1062.23
434.767	1079.63
435.143	1098.39
435.518	1080.08
435.894	1092.51
436.269	1126.41
436.644	1120.99
437.02	1158.95
437.395	1137.94
437.77	1192.17
438.145	1196.92
438.52	1196.92
438.895	1209.12
439.271	1236.46
439.646	1254.32
440.021	1259.74
440.395	1273.75
440.77	1246.41
441.145	1273.3
441.52	1292.28
441.895	1297.48
442.27	1300.87
442.645	1292.06
443.019	1319.85
443.394	1325.73
443.769	1318.95
444.143	1338.38
444.518	1339.96
444.892	1332.96
445.267	1338.16
445.641	1373.64
446.016	1366.86
446.39	1384.26
446.764	1388.1
447.139	1389.45
447.513	1403.01
447.887	1402.34
448.262	1425.84
448.636	1388.55
449.01	1436.46
449.384	1427.65
449.758	1423.58
450.132	1440.75
450.506	1452.96
450.88	1474.88
451.254	1435.1
451.628	1476.91
452.002	1516.91
452.376	1499.06
452.75	1479.4
453.123	1507.19
453.497	1522.33
453.871	1503.35
454.244	1550.58
454.618	1566.4
454.992	1580.41
455.365	1585.83
455.739	1607.75
456.112	1638.49
456.486	1601.88
456.859	1615.21
457.232	1669.22
457.606	1664.93
457.979	1673.74
458.352	1706.73
458.725	1683.01
459.099	1710.35
459.472	1738.37
459.845	1709.67
460.218	1778.82
460.591	1763.23
460.964	1794.42
461.337	1792.16
461.71	1829.67
462.083	1851.59
462.456	1827.64
462.829	1823.79
463.201	1872.61
463.574	1883.23
463.947	1896.11
464.32	1891.59
464.692	1949.44
465.065	1935.43
465.438	1957.8
465.81	1954.86
466.183	1991.93
466.555	2047.29
466.928	2022.43
467.3	2019.72
467.672	2061.75
468.045	2109.21
468.417	2100.85
468.789	2117.35
469.161	2146.05
469.534	2151.02
469.906	2148.98
470.278	2164.58
470.65	2217.46
471.022	2258.36
471.394	2297.45
471.766	2299.49
472.138	2322.54
472.51	2343.33
472.882	2365.25
473.253	2368.64
473.625	2382.88
473.997	2446.38
474.369	2449.99
474.74	2459.94
475.112	2503.55
475.484	2535.19
475.855	2557.56
476.227	2595.98
476.598	2631
476.97	2660.61
477.341	2668.97
477.713	2723.43
478.084	2746.03
478.455	2789.42
478.827	2801.62
479.198	2864.9
479.569	2847.72
479.94	2917.55
480.311	2914.16
480.682	2996.64
481.053	3022.86
481.424	3052.91
481.795	3096.53
482.166	3101.05
482.537	3117.55
482.908	3174.27
483.279	3193.7
483.65	3250.65
484.021	3303.3
484.391	3344.21
484.762	3348.05
485.133	3349.86
485.503	3391.66
485.874	3450.42
486.244	3465.56
486.615	3507.82
486.985	3565.89
487.356	3571.77
487.726	3607.48
488.097	3666.91
488.467	3677.98
488.837	3726.57
489.207	3696.51
489.578	3763.86
489.948	3786.45
490.318	3839.79
490.688	3861.03
491.058	3939.22
491.428	3973.57
491.798	3980.12
492.168	4085.43
492.538	4061.7
492.908	4090.4
493.278	4144.86
493.648	4119.55
494.017	4134.69
494.387	4182.38
494.757	4212.66
495.126	4265.31
495.496	4225.31
495.866	4281.58
496.235	4310.96
496.605	4315.25
496.974	4380.56
497.344	4381.92
497.713	4363.16
498.082	4413.56
498.452	4467.57
498.821	4480.67
499.19	4457.62
499.559	4505.08
499.928	4559.54
500.298	4537.39
500.667	4607.22
501.036	4590.5
501.405	4640.89
501.774	4595.02
502.143	4616.26
502.512	4641.57
502.88	4685.87
503.249	4655.13
503.618	4675.47
503.987	4680.22
504.356	4716.6
504.724	4783.49
505.093	4739.2
505.462	4801.57
505.83	4783.49
506.199	4846.31
506.567	4878.18
506.936	4812.87
507.304	4919.31
507.672	4927.22
508.041	4883.6
508.409	4956.82
508.777	4958.85
509.145	5041.79
509.514	4944.39
509.882	5005.86
510.25	5015.8
510.618	5032.75
510.986	5030.72
511.354	5062.35
511.722	5083.6
512.09	5110.04
512.458	5108.91
512.826	5137.83
513.193	5163.82
513.561	5132.86
513.929	5230.94
514.297	5193.87
514.664	5159.75
515.032	5170.82
515.4	5213.08
515.767	5311.16
516.135	5270.03
516.502	5239.98
516.869	5263.48
517.237	5318.62
517.604	5293.53
517.972	5369.69
518.339	5361.78
518.706	5359.07
519.073	5339.86
519.44	5394.1
519.808	5429.12
520.175	5399.29
520.542	5398.16
520.909	5437.94
521.276	5478.16
521.643	5507.54
522.009	5493.53
522.376	5559.74
522.743	5526.3
523.11	5570.36
523.477	5613.52
523.843	5611.94
524.21	5730.13
524.577	5715.22
524.943	5729.23
525.31	5786.63
525.676	5729.23
526.043	5802.22
526.409	5755.44
526.776	5808.1
527.142	5852.84
527.508	5846.74
527.874	5926.51
528.241	6004.02
528.607	5936.91
528.973	5976.9
529.339	6037.02
529.705	6016.45
530.071	6044.02
530.437	6063.68
530.803	6061.87
531.169	6143.45
531.535	6115.43
531.901	6147.3
532.267	6152.27
532.632	6183.68
532.998	6154.98
533.364	6231.14
533.73	6198.14
534.095	6264.36
534.461	6321.08
534.826	6328.08
535.192	6350.91
535.557	6387.97
535.923	6380.28
536.288	6337.12
536.653	6368.76
537.019	6432.49
537.384	6404.69
537.749	6482.88
538.114	6481.75
538.479	6448.53
538.845	6496.21
539.21	6508.19
539.575	6525.14
539.94	6592.71
540.305	6571.69
540.67	6532.6
541.034	6598.13
541.399	6602.43
541.764	6632.03
542.129	6647.4
542.494	6669.54
542.858	6655.31
543.223	6774.17
543.587	6728.75
543.952	6729.88
544.316	6759.71
544.681	6744.79
545.045	6822.53
545.41	6811.69
545.774	6876.32
546.138	6852.14
546.503	6895.98
546.867	6832.48
547.231	6892.14
547.595	6893.49
547.959	6968.52
548.324	6958.57
548.688	6933.26
549.052	6952.02
549.416	6989.99
549.779	6974.62
550.143	7018.01
550.507	7040.38
550.871	7022.75
551.235	7033.15
551.599	7117.44
551.962	7086.71
552.326	7136.42
552.689	7124.9
553.053	7113.82
553.417	7150.43
553.78	7256.65
554.143	7176.87
554.507	7182.75
554.87	7169.42
555.234	7274.95
555.597	7279.02
555.96	7243.09
556.323	7281.05
556.686	7316.76
557.05	7297.55
557.413	7319.69
557.776	7368.51
558.139	7425.68
558.502	7413.25
558.865	7379.35
559.228	7438.56
559.59	7462.06
559.953	7480.59
560.316	7532.12
560.679	7506.81
561.041	7565.79
561.404	7585.22
561.767	7650.08
562.129	7580.93
562.492	7632.91
562.854	7670.19
563.217	7612.79
563.579	7650.76
563.941	7693.24
564.304	7773.47
564.666	7801.04
565.028	7725.56
565.39	7753.58
565.753	7884.2
566.115	7858.44
566.477	7882.62
566.839	7884.43
567.201	7958.32
567.563	7894.82
567.925	7981.6
568.287	7982.95
568.648	8057.08
569.01	8038.32
569.372	8154.93
569.734	8104.53
570.095	8102.5
570.457	8178.88
570.819	8204.19
571.18	8204.64
571.542	8281.03
571.903	8231.99
572.265	8298.65
572.626	8389.5
572.987	8362.38
573.349	8384.3
573.71	8476.95
574.071	8486.9
574.432	8590.17
574.794	8576.61
575.155	8564.18
575.516	8632.43
575.877	8650.06
576.238	8665.2
576.599	8756.72
576.96	8789.94
577.32	8851.86
577.681	8914
578.042	9006.66
578.403	8991.29
578.763	9078.29
579.124	9097.5
579.485	9231.73
579.845	9250.94
580.206	9276.03
580.566	9313.09
580.927	9377.04
581.287	9543.36
581.648	9555.12
582.008	9624.72
582.368	9789.69
582.728	9866.07
583.089	9915.56
583.449	9965.95
583.809	10169.79
584.169	10224.93
584.529	10319.62
584.889	10467.18
585.249	10435.32
585.609	10585.37
585.969	10755.08
586.329	10792.15
586.688	10976.1
587.048	11014.29
587.408	11164.34
587.768	11271.46
588.127	11429.19
588.487	11499.25
588.846	11645.23
589.206	11786.47
589.565	11802.29
589.925	12090.42
590.284	12224.2
590.643	12283.86
591.003	12487.02
591.362	12534.7
591.721	12711.42
592.08	12803.39
592.44	13007.23
592.799	13074.8
593.158	13224.62
593.517	13448.57
593.876	13588.68
594.235	13672.07
594.593	13832.97
594.952	14032.29
595.311	14053.53
595.67	14250.13
596.029	14463.69
596.387	14574.87
596.746	14680.63
597.104	14714.3
597.463	14921.75
597.822	15095.08
598.18	15078.13
598.538	15250.33
598.897	15526.48
599.255	15398.8
599.613	15770.32
599.972	15787.49
600.33	15903.88
600.688	16009.86
601.046	16092.57
601.404	16297.54
601.762	16373.24
602.12	16537.31
602.478	16683.52
602.836	16783.4
603.194	16852.33
603.552	16914.7
603.91	16912.21
604.268	17108.82
604.625	17050.51
604.983	17274.24
605.341	17275.59
605.698	17567.33
606.056	17572.76
606.413	17673.09
606.771	17662.47
607.128	17887.1
607.485	17858.63
607.843	17934.1
608.2	18188.11
608.557	18203.7
608.914	18291.38
609.272	18450.02
609.629	18492.06
609.986	18625.84
610.343	18552.62
610.7	18777.02
611.057	18832.84
611.414	18817.7
611.771	18959.39
612.127	19103.79
612.484	19147.18
612.841	19212.04
613.198	19234.64
613.554	19270.11
613.911	19464.91
614.267	19497.91
614.624	19473.95
614.98	19487.51
615.337	19662.42
615.693	19607.96
616.05	19689.31
616.406	19876.65
616.762	19846.82
617.118	19939.48
617.475	19873.26
617.831	20086.59
618.187	20173.37
618.543	20100.83
618.899	20277.32
619.255	20260.82
619.611	20335.85
619.967	20400.93
620.323	20362.29
620.678	20375.85
621.034	20469.63
621.39	20417.88
621.746	20504.43
622.101	20718.66
622.457	20546.69
622.812	20603.64
623.168	20767.7
623.523	20812.67
623.879	20752.56
624.234	20673.69
624.589	20770.64
624.945	20879.56
625.3	20843.86
625.655	20835.72
626.01	20805.44
626.365	20859.23
626.72	20908.72
627.075	20914.82
627.43	20911.43
627.785	20927.92
628.14	20917.53
628.495	21024.64
628.85	21018.09
629.205	20890.64
629.559	21025.55
629.914	20944.87
630.269	21000.01
630.623	20938.32
630.978	20803.63
631.332	20909.85
631.687	21040.46
632.041	20903.29
632.396	21004.08
632.75	20872.11
633.104	20926.12
633.459	20856.74
633.813	20837.31
634.167	20894.25
634.521	20841.6
634.875	20956.62
635.229	20790.53
635.583	20847.93
635.937	20849.06
636.291	20883.18
636.645	20737.65
636.999	20801.37
637.352	20933.57
637.706	20680.02
638.06	20834.59
638.413	20746.01
638.767	20687.48
639.121	20817.19
639.474	20718.44
639.828	20676.18
640.181	20772.9
640.534	20743.97
640.888	20761.15
641.241	20668.27
641.594	20642.96
641.947	20738.55
642.301	20581.27
642.654	20700.81
643.007	20597.09
643.36	20658.33
643.713	20643.86
644.066	20794.82
644.419	20578.33
644.771	20441.16
645.124	20278.9
645.477	20228.28
645.83	20199.36
646.182	20055.4
646.535	20085.91
646.888	20020.83
647.24	19904.45
647.593	20149.41
647.945	19994.84
648.298	19938.57
648.65	19932.02
649.002	19883.43
649.355	20051.56
649.707	19951.45
650.059	20076.42
650.411	20327.94
650.763	20224.44
651.115	20541.95
651.467	20450.87
651.819	20476.41
652.171	20452.23
652.523	20434.83
652.875	20389.63
653.227	20402.74
653.578	20519.57
653.93	20488.61
654.282	20397.99
654.633	20302.18
654.985	20496.98
655.337	20437.99
655.688	20568.61
656.039	20497.65
656.391	20365.45
656.742	20425.79
657.094	20454.94
657.445	20592.79
657.796	20406.58
658.147	20439.8
658.498	20413.81
658.849	20506.01
659.2	20402.51
659.551	20346.7
659.902	20470.99
660.253	20424.43
660.604	20422.85
660.955	20405.45
661.306	20438.45
661.656	20545.79
662.007	20464.21
662.358	20462.63
662.708	20563.19
663.059	20579.91
663.409	20398.22
663.76	20533.81
664.11	20483.19
664.461	20650.19
664.811	20572.23
665.161	20637.54
665.511	20438.45
665.862	20671.66
666.212	20466.24
666.562	20689.51
666.912	20503.53
667.262	20544.66
667.612	20570.42
667.962	20574.04
668.312	20593.02
668.662	20636.18
669.011	20492
669.361	20502.85
669.711	20480.25
670.06	20472.34
670.41	20476.41
670.76	20416.07
671.109	20556.41
671.459	20495.17
671.808	20355.51
672.157	20453.81
672.507	20360.03
672.856	20282.07
673.205	20427.6
673.554	20478.9
673.904	20387.6
674.253	20549.18
674.602	20332.01
674.951	20111.67
675.3	19933.15
675.649	20341.95
675.998	20388.05
676.346	20406.36
676.695	20310.99
677.044	20211.11
677.393	20248.85
677.741	20259.92
678.09	20252.24
678.438	20167.94
678.787	20153.03
679.135	20232.8
679.484	20093.82
679.832	20143.09
680.181	20029.64
680.529	20009.53
680.877	19979.47
681.225	19932.92
681.573	20132.92
681.922	19999.36
682.27	19849.31
682.618	19941.74
682.966	19872.36
683.314	19886.37
683.661	19826.03
684.009	19697.45
684.357	19710.33
684.705	19686.38
685.053	19646.6
685.4	19656.32
685.748	19476.44
686.095	19449.77
686.443	19422.43
686.79	19470.11
687.138	19484.57
687.485	19485.93
687.832	19336.55
688.18	19419.26
688.527	19267.63
688.874	19226.5
689.221	19249.1
689.568	19045.71
689.915	19001.42
690.262	19042.1
690.609	18955.32
690.956	18877.58
691.303	18863.12
691.65	18848.66
691.997	18693.86
692.344	18602.79
692.69	18601.66
693.037	18623.8
693.383	18455.22
693.73	18500.87
694.077	18440.31
694.423	18422.91
694.769	18383.13
695.116	18270.37
695.462	18233.31
695.808	18113.99
696.155	18191.05
696.501	18092.74
696.847	18128.45
697.193	17970.94
697.539	17920.77
697.885	17803.71
698.231	17804.62
698.577	17715.13
698.923	17659.54
699.269	17565.98
699.614	17537.73
699.96	17349.04
700.306	17432.87
700.651	17341.8
700.997	17335.25
701.342	17284.86
701.688	17149.72
702.033	17104.3
702.379	17030.63
702.724	17072.88
703.069	17122.83
703.415	16780.24
703.76	16813.68
704.105	16754.7
704.45	16861.82
704.795	16751.99
705.14	16715.15
705.485	16642.84
705.83	16539.57
706.175	16465.44
706.52	16534.14
706.865	16452.34
707.209	16375.28
707.554	16360.59
707.899	16359.46
708.243	16254.15
708.588	16263.19
708.932	16092.35
709.277	16158.56
709.621	16164.89
709.966	15930.99
710.31	16017.54
710.654	15922.63
710.998	15914.95
711.342	15930.54
711.687	15850.54
712.031	15709.53
712.375	15697.78
712.719	15767.83
713.063	15721.73
713.407	15713.82
713.75	15668.85
714.094	15677.89
714.438	15581.85
714.782	15605.13
715.125	15481.97
715.469	15476.32
715.812	15350.44
716.156	15295.98
716.499	15343.66
716.843	15291.01
717.186	15312.7
717.53	15345.92
717.873	15398.35
718.216	15272.25
718.559	15249.43
718.902	15222.76
719.246	15171.24
719.589	15067.74
719.932	15093.73
720.275	15114.07
720.617	15174.18
720.96	15047.4
721.303	15087.4
721.646	15027.74
721.989	14967.18
722.331	15037.23
722.674	15024.8
723.016	14988.65
723.359	14929.89
723.701	14894.18
724.044	14944.8
724.386	14919.04
724.729	14957.69
725.071	14846.05
725.413	14870.68
725.755	14752.27
726.097	14748.2
726.439	14755.88
726.782	14758.59
727.124	14780.52
727.465	14754.08
727.807	14751.36
728.149	14679.95
728.491	14750.01
728.833	14668.43
729.175	14699.61
729.516	14659.61
729.858	14609.67
730.199	14632.04
730.541	14665.04
730.882	14610.8
731.224	14672.04
731.565	14579.39
731.906	14597.02
732.248	14573.74
732.589	14484.25
732.93	14514.31
733.271	14557.02
733.612	14556.11
733.953	14531.03
734.294	14510.24
734.635	14536.68
734.976	14545.95
735.317	14502.1
735.658	14517.7
735.999	14508.88
736.339	14502.78
736.68	14542.56
737.021	14498.04
737.361	14446.96
737.702	14579.16
738.042	14458.26
738.383	14428.66
738.723	14529.45
739.063	14498.26
739.404	14614.87
739.744	14455.78
740.084	14456.68
740.424	14558.6
740.764	14564.02
741.104	14671.59
741.444	14497.13
741.784	14554.76
742.124	14637.24
742.464	14667.98
742.804	14597.02
743.143	14583.46
743.483	14638.15
743.823	14592.27
744.162	14695.09
744.502	14731.25
744.841	14660.97
745.181	14764.7
745.52	14746.62
745.86	14778.48
746.199	14829.78
746.538	14961.98
746.877	14905.26
747.216	14936.9
747.556	14923.79
747.895	15046.95
748.234	14994.97
748.573	15087.17
748.911	15167.85
749.25	15215.08
749.589	15151.13
749.928	15288.52
750.267	15336.66
750.605	15427.73
750.944	15443.1
751.283	15479.03
751.621	15660.04
751.96	15608.97
752.298	15783.88
752.636	15778
752.975	15781.62
753.313	15940.71
753.651	16073.59
753.989	16164.66
754.327	16250.99
754.666	16177.09
755.004	16415.5
755.342	16530.75
755.679	16641.03
756.017	16655.49
756.355	16943.4
756.693	16899.33
757.031	17103.84
757.368	17153.79
757.706	17117.63
758.044	17250.51
758.381	17452.08
758.719	17450.28
759.056	17660.44
759.394	17694.34
759.731	17683.26
760.068	17874.22
760.405	17895.91
760.743	17999.41
761.08	18188.34
761.417	18200.31
761.754	18368.9
762.091	18420.65
762.428	18503.36
762.765	18553.98
763.102	18777.92
763.438	18694.99
763.775	18810.69
764.112	18980.4
764.449	19024.47
764.785	18995.77
765.122	19034.41
765.458	19092.94
765.795	19198.48
766.131	19247.29
766.467	19331.36
766.804	19293.39
767.14	19316.67
767.476	19433.05
767.812	19406.38
768.148	19509.2
768.485	19517.11
768.821	19488.41
769.157	19527.74
769.492	19579.94
769.828	19706.26
770.164	19564.34
770.5	19623.1
770.836	19693.83
771.171	19666.71
771.507	19677.11
771.842	19601.18
772.178	19751.46
772.513	19635.75
772.849	19785.81
773.184	19642.99
773.519	19671.23
773.855	19708.52
774.19	19551.01
774.525	19613.61
774.86	19773.38
775.195	19636.43
775.53	19563.21
775.865	19559.6
776.2	19414.29
776.535	19419.49
776.87	19532.93
777.205	19445.7
777.539	19342.66
777.874	19522.31
778.209	19299.04
778.543	19308.98
778.878	19249.32
779.212	19231.92
779.547	19171.13
779.881	19158.93
780.215	19129.1
780.55	19287.97
780.884	19134.07
781.218	19091.81
781.552	19085.26
781.886	18960.97
782.22	18983.57
782.554	18908.32
782.888	18680.3
783.222	18703.12
783.556	18645.05
783.889	18657.48
784.223	18559.85
784.557	18622.9
784.89	18606.4
785.224	18498.61
785.557	18472.4
785.891	18419.06
786.224	18349.69
786.558	18379.29
786.891	18149.47
787.224	18135
787.557	18131.61
787.891	18101.78
788.224	18157.6
788.557	17970.26
788.89	17926.87
789.223	17939.75
789.556	17884.84
789.888	17897.95
790.221	17848.91
790.554	17629.93
790.887	17659.76
791.219	17649.37
791.552	17597.62
791.884	17519.43
792.217	17498.64
792.549	17464.96
792.882	17244.18
793.214	17243.5
793.546	17240.34
793.879	17156.05
794.211	17079.89
794.543	17098.65
794.875	17130.74
795.207	17058.2
795.539	17041.25
795.871	16921.02
796.203	16827.47
796.535	16739.33
796.867	16781.37
797.198	16657.08
797.53	16762.38
797.862	16610.98
798.193	16591.54
798.525	16510.41
798.856	16522.62
799.188	16276.75
799.519	16267.71
799.85	16265
800.182	16193.81
800.513	16198.56
800.844	16045.57
801.175	16194.72
801.506	16140.93
801.837	16040.37
802.168	16112.46
802.499	16026.13
802.83	15923.08
803.161	15875.18
803.491	15881.73
803.822	15910.88
804.153	15790.21
804.483	15663.66
804.814	15668.63
805.145	15556.09
805.475	15579.59
805.805	15543.66
806.136	15573.49
806.466	15554.51
806.796	15461.18
807.126	15392.02
807.457	15288.3
807.787	15384.34
808.117	15242.65
808.447	15199.04
808.777	15249.88
809.107	15113.84
809.436	15115.87
809.766	15144.8
810.096	15083.56
810.426	14985.71
810.755	15027.97
811.085	14997.46
811.414	14973.96
811.744	14761.31
812.073	14877.24
812.403	14781.87
812.732	14720.86
813.061	14747.3
813.39	14739.16
813.719	14591.37
814.049	14692.61
814.378	14582.78
814.707	14444.25
815.036	14564.93
815.365	14461.2
815.693	14249.23
816.022	14263.69
816.351	14324.93
816.68	14215.56
817.008	14303.47
817.337	14078.16
817.665	14146.86
817.994	14174.2
818.322	14202.23
818.651	14027.99
818.979	13990.48
819.307	14054.21
819.636	14018.05
819.964	13966.75
820.292	13961.78
820.62	13950.48
820.948	13969.46
821.276	14099.4
821.604	13948.9
821.932	14006.07
822.259	13971.72
822.587	13829.13
822.915	13867.77
823.243	13855.57
823.57	13881.78
823.898	13874.55
824.225	13907.32
824.553	13928.56
824.88	13871.61
825.207	13885.17
825.535	13845.62
825.862	13883.36
826.189	13843.82
826.516	13959.97
826.843	13909.58
827.17	13915.68
827.497	13904.83
827.824	13934.66
828.151	13981.44
828.478	13790.94
828.805	13980.31
829.131	13886.53
829.458	13889.47
829.785	13768.56
830.111	13823.7
830.438	13944.38
830.764	13846.53
831.09	13814.67
831.417	13796.81
831.743	13839.75
832.069	13789.58
832.395	13704.84
832.722	13746.19
833.048	13785.74
833.374	13854.21
833.7	13651.51
834.026	13710.26
834.351	13700.32
834.677	13671.39
835.003	13736.25
835.329	13706.42
835.654	13659.64
835.98	13644.73
836.306	13756.36
836.631	13548.46
836.956	13578.06
837.282	13631.62
837.607	13577.16
837.932	13517.05
838.258	13581
838.583	13488.57
838.908	13495.13
839.233	13494
839.558	13414
839.883	13335.13
840.208	13372.87
840.533	13327.22
840.858	13324.06
841.182	13271.4
841.507	13318.63
841.832	13277.73
842.156	13230.95
842.481	13328.12
842.805	13238.86
843.13	13066.89
843.454	13075.02
843.778	13048.58
844.103	12965.2
844.427	13034.57
844.751	12967
845.075	12972.2
845.399	12907.57
845.723	12845.65
846.047	12902.82
846.371	12675.03
846.695	12758.87
847.019	12620.57
847.343	12579.44
847.666	12498.99
847.99	12487.92
848.313	12438.66
848.637	12429.84
848.96	12371.31
849.284	12360.92
849.607	12267.14
849.931	12216.97
850.254	12189.4
850.577	12045.22
850.9	11993.24
851.223	11985.11
851.546	11970.42
851.869	11924.32
852.192	11824.43
852.515	11818.79
852.838	11802.74
853.161	11817.2
853.483	11730.43
853.806	11660.15
854.129	11623.31
854.451	11610.2
854.774	11527.72
855.096	11534.27
855.419	11465.57
855.741	11407.95
856.063	11419.7
856.385	11425.58
856.708	11378.12
857.03	11313.26
857.352	11318.23
857.674	11231.23
857.996	11209.08
858.318	11102.42
858.64	11131.57
858.961	11062.42
859.283	11110.78
859.605	11007.73
859.926	11080.27
860.248	10975.87
860.57	10914.18
860.891	10964.8
861.212	10888.64
861.534	10824.91
861.855	10872.82
862.176	10838.92
862.498	10859.71
862.819	10844.35
863.14	10756.44
863.461	10791.69
863.782	10744.92
864.103	10769.1
864.424	10677.8
864.745	10754.41
865.065	10622.66
865.386	10628.53
865.707	10567.52
866.027	10638.93
866.348	10613.62
866.668	10655.88
866.989	10513.73
867.309	10449.56
867.63	10482.78
867.95	10492.94
868.27	10467.41
868.59	10391.25
868.91	10428.31
869.23	10372.04
869.55	10372.95
869.87	10461.98
870.19	10367.75
870.51	10356.45
870.83	10313.74
871.15	10293.85
871.469	10292.05
871.789	10321.88
872.109	10232.84
872.428	10144.71
872.748	10226.28
873.067	10218.38
873.386	10307.41
873.706	10257.02
874.025	10151.94
874.344	10137.47
874.663	10135.67
874.982	10093.18
875.301	10127.76
875.62	10141.77
875.939	9992.84
876.258	9994.2
876.577	10057.7
876.896	9982.68
877.214	9934.77
877.533	10021.09
877.852	10015.89
878.17	9988.55
878.489	9981.77
878.807	9949.46
879.125	9847.31
879.444	9911.49
879.762	9890.93
880.08	9875.79
880.398	9818.84
880.716	9803.92
881.034	9800.31
881.352	9782.23
881.67	9748.11
881.988	9652.51
882.306	9765.73
882.624	9676.24
882.941	9647.99
883.259	9588.56
883.577	9616.36
883.894	9580.43
884.212	9527.55
884.529	9572.06
884.846	9519.41
885.164	9459.53
885.481	9505.63
885.798	9486.64
886.115	9434.89
886.432	9405.52
886.75	9404.16
887.067	9379.98
887.383	9320.77
887.7	9319.64
888.017	9302.69
888.334	9266.54
888.651	9277.16
888.967	9229.02
889.284	9189.48
889.6	9148.12
889.917	9149.93
890.233	9176.59
890.55	9025.41
890.866	9140.66
891.182	9012.98
891.498	9049.59
891.815	8955.13
892.131	8939.99
892.447	8928.01
892.763	8837.39
893.079	8857.28
893.395	8812.99
893.71	8859.09
894.026	8811.18
894.342	8809.82
894.657	8700.22
894.973	8668.13
895.289	8668.13
895.604	8623.39
895.92	8621.58
896.235	8530.96
896.55	8601.92
896.865	8570.96
897.181	8540.45
897.496	8526.44
897.811	8450.96
898.126	8361.7
898.441	8384.53
898.756	8357.86
899.071	8317.63
899.386	8292.55
899.7	8285.09
900.015	8231.99
900.33	8192.44
900.644	8196.73
900.959	8170.97
901.273	8104.98
901.588	8040.13
901.902	8065.44
902.216	7940.24
902.531	7966.68
902.845	7982.5
903.159	7970.98
903.473	7917.64
903.787	7888.95
904.101	7912
904.415	7815.27
904.729	7807.37
905.042	7750.42
905.356	7726.24
905.67	7715.84
905.984	7674.94
906.297	7734.15
906.611	7653.47
906.924	7597.65
907.237	7580.93
907.551	7506.36
907.864	7559.91
908.177	7485.11
908.491	7466.58
908.804	7460.71
909.117	7327.38
909.43	7377.09
909.743	7318.79
910.056	7284.67
910.368	7304.33
910.681	7214.16
910.994	7200.38
911.307	7166.48
911.619	7160.6
911.932	7047.16
912.244	7112.02
912.557	7072.92
912.869	7003.09
913.181	7008.29
913.494	7059.14
913.806	6932.13
914.118	6969.2
914.43	6883.1
914.742	6874.51
915.054	6823.66
915.366	6803.78
915.678	6770.1
915.99	6753.16
916.302	6751.8
916.613	6707.96
916.925	6730.78
917.236	6672.71
917.548	6620.05
917.859	6589.32
918.171	6540.28
918.482	6555.42
918.794	6466.61
919.105	6523.78
919.416	6419.61
919.727	6401.75
920.038	6462.32
920.349	6357.01
920.66	6351.81
920.971	6278.82
921.282	6352.49
921.593	6288.76
921.903	6233.4
922.214	6204.7
922.525	6211.7
922.835	6194.07
923.146	6096.9
923.456	6033.4
923.767	6142.32
924.077	6094.19
924.387	6041.99
924.697	6036.79
925.008	6020.07
925.318	5960.41
925.628	5895.1
925.938	5924.48
926.248	5855.33
926.558	5842.67
926.867	5831.15
927.177	5804.25
927.487	5804.71
927.796	5725.84
928.106	5696.91
928.416	5683.13
928.725	5658.72
929.034	5642.68
929.344	5674.54
929.653	5631.83
929.962	5582.79
930.271	5560.64
930.581	5567.42
930.89	5532.4
931.199	5519.74
931.508	5449.46
931.817	5489.46
932.125	5428.22
932.434	5444.49
932.743	5390.25
933.051	5352.29
933.36	5323.59
933.669	5318.39
933.977	5293.76
934.286	5258.96
934.594	5270.71
934.902	5215.34
935.21	5214.67
935.519	5220.77
935.827	5148.68
936.135	5145.06
936.443	5085.63
936.751	5063.48
937.059	5104.84
937.367	5042.69
937.674	5010.6
937.982	5035.91
938.29	5034.33
938.597	4981.9
938.905	4913.88
939.213	4922.7
939.52	4904.84
939.827	4904.16
940.135	4910.27
940.442	4820.1
940.749	4822.59
941.056	4801.12
941.363	4793.66
941.67	4728.58
941.977	4783.04
942.284	4719.54
942.591	4723.15
942.898	4700.33
943.205	4719.31
943.511	4658.97
943.818	4636.6
944.125	4558.86
944.431	4538.98
944.738	4556.83
945.044	4574.91
945.35	4498.07
945.657	4476.61
945.963	4469.83
946.269	4455.59
946.575	4504.85
946.881	4451.97
947.187	4434.35
947.493	4345.76
947.799	4398.19
948.105	4328.59
948.41	4308.47
948.716	4307.12
949.022	4300.79
949.327	4296.72
949.633	4224.86
949.938	4236.84
950.244	4220.34
950.549	4166.56
950.854	4199.55
951.16	4170.4
951.465	4115.71
951.77	4080.46
952.075	4108.48
952.38	4071.42
952.685	4076.84
952.99	4054.47
953.294	4000.46
953.599	4020.8
953.904	3981.7
954.209	3970.4
954.513	3958.65
954.818	3946
955.122	3896.96
955.426	3931.76
955.731	3888.82
956.035	3891.31
956.339	3911.65
956.643	3900.58
956.948	3824.42
957.252	3800.47
957.556	3806.57
957.86	3769.96
958.163	3802.95
958.467	3737.42
958.771	3752.56
959.075	3709.62
959.378	3663.07
959.682	3704.42
959.985	3668.49
960.289	3663.07
960.592	3626.46
960.896	3643.86
961.199	3608.61
961.502	3590.3
961.805	3569.28
962.108	3545.33
962.411	3561.15
962.714	3557.08
963.017	3525.44
963.32	3512.56
963.623	3478.21
963.926	3504.88
964.228	3489.06
964.531	3476.63
964.833	3458.55
965.136	3420.36
965.438	3363.19
965.741	3354.15
966.043	3329.29
966.345	3350.99
966.648	3353.02
966.95	3336.3
967.252	3341.95
967.554	3286.81
967.856	3295.39
968.158	3266.69
968.46	3287.48
968.761	3188.96
969.063	3258.78
969.365	3184.89
969.666	3184.89
969.968	3136.3
970.269	3190.09
970.571	3194.15
970.872	3166.36
971.174	3110.09
971.475	3121.39
971.776	3118
972.077	3077.77
972.378	3055.17
972.679	3075.74
972.98	3067.83
973.281	3050.43
973.582	3024.67
973.883	2985.12
974.183	2981.28
974.484	2969.98
974.785	2994.84
975.085	2956.87
975.386	2950.09
975.686	2924.33
975.986	2938.11
976.287	2931.34
976.587	2887.49
976.887	2897.66
977.187	2877.78
977.487	2835.29
977.787	2809.76
978.087	2811.56
978.387	2804.33
978.687	2794.62
978.987	2790.55
979.286	2741.28
979.586	2755.97
979.885	2786.03
980.185	2771.34
980.484	2744.67
980.784	2674.62
981.083	2713.04
981.382	2694.28
981.682	2693.15
981.981	2666.48
982.28	2683.66
982.579	2650.44
982.878	2665.35
983.177	2629.2
983.475	2610.21
983.774	2582.64
984.073	2569.08
984.372	2589.88
984.67	2547.84
984.969	2576.32
985.267	2547.39
985.566	2515.75
985.864	2544.68
986.162	2524.79
986.461	2484.79
986.759	2466.94
987.057	2464
987.355	2458.35
987.653	2477.56
987.951	2470.56
988.249	2421.07
988.547	2421.07
988.844	2411.35
989.142	2419.94
989.44	2392.82
989.737	2361.18
990.035	2327.96
990.332	2334.29
990.63	2332.48
990.927	2308.53
991.224	2333.84
991.521	2308.07
991.819	2282.76
992.116	2267.85
992.413	2273.27
992.71	2272.37
993.006	2260.84
993.303	2252.03
993.6	2251.35
993.897	2236.44
994.193	2188.98
994.49	2188.98
994.787	2212.48
995.083	2168.87
995.379	2176.55
995.676	2184.01
995.972	2158.7
996.268	2129.1
996.565	2151.47
996.861	2104.46
997.157	2123.9
997.453	2100.17
997.749	2112.83
998.044	2058.59
998.34	2095.2
998.636	2086.16
998.932	2052.71
999.227	2031.02
999.523	2062.43
999.818	2012.49
1000.114	2000.51
1000.409	1995.31
1000.704	1987.86
1001	1959.61
1001.295	1946.95
1001.59	1955.77
1001.885	1976.56
1002.18	1924.81
1002.475	1903.34
1002.77	1907.63
1003.065	1876.45
1003.359	1900.4
1003.654	1915.54
1003.949	1871.25
1004.243	1859.95
1004.538	1845.04
1004.832	1835.32
1005.127	1829.44
1005.421	1801.87
1005.715	1798.26
1006.009	1793.96
1006.304	1783.34
1006.598	1780.86
1006.892	1775.89
1007.186	1756
1007.48	1764.13
1007.773	1716
1008.067	1734.53
1008.361	1692.72
1008.655	1663.12
1008.948	1701.99
1009.242	1722.55
1009.535	1691.14
1009.829	1668.77
1010.122	1645.72
1010.415	1634.87
1010.708	1642.1
1011.001	1610.69
1011.295	1632.61
1011.588	1633.97
1011.881	1604.59
1012.173	1591.71
1012.466	1580.18
1012.759	1581.31
1013.052	1550.35
1013.344	1562.33
1013.637	1550.35
1013.93	1511.71
1014.222	1535.89
1014.514	1507.42
1014.807	1518.49
1015.099	1509.9
1015.391	1484.14
1015.683	1492.28
1015.976	1501.77
1016.268	1476.68
1016.56	1476.91
1016.851	1446.85
1017.143	1445.72
1017.435	1464.93
1017.727	1414.09
1018.018	1419.06
1018.31	1429.23
1018.602	1421.09
1018.893	1417.25
1019.185	1387.65
1019.476	1367.76
1019.767	1381.32
1020.058	1346.52
1020.35	1337.93
1020.641	1325.28
1020.932	1323.24
1021.223	1344.03
1021.514	1311.72
1021.804	1333.41
1022.095	1291.15
1022.386	1280.76
1022.677	1285.05
1022.967	1273.53
1023.258	1255.67
1023.548	1269.68
1023.839	1256.13
1024.129	1254.32
1024.419	1248.22
1024.709	1231.04
1025	1204.6
1025.29	1214.32
1025.58	1213.41
1025.87	1191.72
1026.16	1231.72
1026.449	1187.2
1026.739	1192.62
1027.029	1170.48
1027.319	1167.99
1027.608	1142.23
1027.898	1170.48
1028.187	1140.42
1028.477	1122.57
1028.766	1131.38
1029.055	1112.17
1029.344	1102.23
1029.634	1087.09
1029.923	1058.84
1030.212	1092.97
1030.501	1095.45
1030.79	1095.23
1031.078	1062.23
1031.367	1055.68
1031.656	1059.75
1031.945	1053.42
1032.233	1038.28
1032.522	1054.55
1032.81	1024.49
1033.099	1000.99
1033.387	1021.1
1033.675	1024.27
1033.963	987.21
1034.251	999.18
1034.54	971.61
1034.828	974.1
1035.116	978.17
1035.403	986.3
1035.691	976.58
1035.979	940.43
1036.267	970.26
1036.554	943.82
1036.842	917.6
1037.129	941.56
1037.417	940.43
1037.704	915.57
1037.992	905.85
1038.279	910.82
1038.566	899.52
1038.853	899.52
1039.14	899.52
