Data from hue_70_FLMS001491_20.txt Node
Date: Mon Feb 06 15:20:12 GMT 2017
User: dcchb
Spectrometer: FLMS00149
Trigger mode: 0
Integration Time (sec): 2.000000E-2
Scans to average: 10
Electric dark correction enabled: true
Nonlinearity correction enabled: false
Boxcar width: 0
XAxis mode: Wavelengths
Number of Pixels in Spectrum: 2048
>>>>>Begin Spectral Data<<<<<
341.393	-12.41
341.776	-12.41
342.16	-12.41
342.543	-53.32
342.927	-65.97
343.31	-66.88
343.693	-59.19
344.077	-54.67
344.46	-55.13
344.843	-74.33
345.226	-31.17
345.61	-40.66
345.993	-12.64
346.376	-0.89
346.759	11.77
347.142	29.39
347.525	60.58
347.908	51.99
348.291	70.52
348.674	70.07
349.057	101.25
349.44	142.16
349.823	140.58
350.206	138.32
350.588	196.17
350.971	197.98
351.354	228.93
351.737	229.84
352.119	257.86
352.502	250.18
352.884	260.12
353.267	274.81
353.65	300.35
354.032	275.04
354.414	286.11
354.797	300.35
355.179	313
355.562	322.49
355.944	327.01
356.326	325.66
356.709	324.3
357.091	318.42
357.473	325.66
357.855	345.77
358.238	350.97
358.62	345.54
359.002	341.25
359.384	348.25
359.766	342.6
360.148	331.3
360.53	341.25
360.912	345.54
361.294	327.46
361.676	354.36
362.057	338.76
362.439	314.81
362.821	329.27
363.203	318.42
363.584	324.3
363.966	345.32
364.348	323.4
364.729	325.66
365.111	307.12
365.493	323.4
365.874	323.85
366.256	303.73
366.637	301.25
367.019	285.43
367.4	314.36
367.781	315.71
368.163	326.79
368.544	293.11
368.925	311.87
369.306	299.67
369.688	310.97
370.069	328.37
370.45	315.71
370.831	324.75
371.212	301.48
371.593	297.63
371.974	299.44
372.355	300.57
372.736	306.22
373.117	298.09
373.498	296.05
373.879	317.52
374.26	314.36
374.641	329.05
375.021	300.35
375.402	317.97
375.783	310.06
376.163	308.93
376.544	327.69
376.925	314.36
377.305	325.43
377.686	334.24
378.066	315.03
378.447	320.46
378.827	326.79
379.208	324.98
379.588	351.19
379.968	334.24
380.349	326.56
380.729	316.16
381.109	319.33
381.489	334.69
381.87	322.94
382.25	324.75
382.63	313.45
383.01	316.62
383.39	326.11
383.77	330.63
384.15	342.38
384.53	336.05
384.91	344.86
385.29	347.12
385.67	320.91
386.049	337.63
386.429	339.89
386.809	330.17
387.189	356.61
387.568	336.5
387.948	336.5
388.328	348.03
388.707	339.44
389.087	338.08
389.466	355.03
389.846	349.16
390.225	344.19
390.605	365.88
390.984	338.31
391.363	340.12
391.743	360.46
392.122	377.18
392.501	350.51
392.881	363.62
393.26	349.38
393.639	350.74
394.018	360.68
394.397	364.07
394.776	342.83
395.155	322.27
395.534	360.91
395.913	381.47
396.292	365.88
396.671	352.32
397.05	383.73
397.429	363.85
397.808	362.04
398.186	344.86
398.565	369.27
398.944	378.54
399.323	366.33
399.701	394.81
400.08	353.23
400.458	366.78
400.837	363.62
401.215	386.22
401.594	385.54
401.972	381.47
402.351	400.46
402.729	367.91
403.107	397.74
403.486	373.11
403.864	390.74
404.242	381.02
404.62	397.74
404.999	395.26
405.377	395.26
405.755	411.3
406.133	423.51
406.511	399.33
406.889	389.83
407.267	388.7
407.645	417.63
408.023	407.24
408.401	414.24
408.779	407.46
409.156	411.08
409.534	417.86
409.912	387.35
410.29	426.67
410.667	409.49
411.045	412.43
411.422	433.68
411.8	428.93
412.178	401.36
412.555	449.04
412.933	429.38
413.31	428.7
413.687	433
414.065	439.55
414.442	436.61
414.819	440.91
415.197	450.62
415.574	436.84
415.951	465.09
416.328	456.05
416.705	457.4
417.082	443.39
417.46	456.5
417.837	460.79
418.214	469.15
418.591	450.62
418.967	464.63
419.344	479.1
419.721	464.63
420.098	479.78
420.475	463.73
420.852	472.54
421.228	490.17
421.605	486.33
421.982	492.2
422.358	503.96
422.735	490.85
423.111	501.24
423.488	500.79
423.864	493.56
424.241	528.81
424.617	490.17
424.994	494.92
425.37	510.96
425.746	510.06
426.123	514.8
426.499	502.37
426.875	510.51
427.251	507.12
427.627	529.49
428.003	536.72
428.379	521.58
428.756	552.09
429.132	555.48
429.507	548.02
429.883	541.69
430.259	553.67
430.635	557.29
431.011	562.94
431.387	563.39
431.763	560.23
432.138	571.52
432.514	567.91
432.89	574.01
433.265	597.29
433.641	588.02
434.016	595.93
434.392	600
434.767	620.34
435.143	612.65
435.518	619.43
435.894	638.87
436.269	620.34
436.644	628.47
437.02	589.6
437.395	611.52
437.77	651.75
438.145	640.68
438.52	656.95
438.895	636.83
439.271	662.82
439.646	651.3
440.021	661.24
440.395	650.17
440.77	667.34
441.145	660.34
441.52	674.57
441.895	654.46
442.27	695.59
442.645	680.45
443.019	678.41
443.394	708.47
443.769	689.49
444.143	707.11
444.518	719.77
444.892	695.82
445.267	700.79
445.641	711.41
446.016	713.22
446.39	719.77
446.764	709.6
447.139	728.81
447.513	703.5
447.887	741.69
448.262	736.49
448.636	750.5
449.01	743.95
449.384	755.47
449.758	744.63
450.132	729.03
450.506	779.43
450.88	752.76
451.254	777.62
451.628	787.34
452.002	786.21
452.376	789.6
452.75	797.51
453.123	797.96
453.497	807
453.871	811.74
454.244	846.09
454.618	828.24
454.992	844.96
455.365	810.84
455.739	853.55
456.112	840.9
456.486	864.85
456.859	873.44
457.232	892.87
457.606	872.08
457.979	876.15
458.352	904.17
458.725	920.89
459.099	938.07
459.472	929.26
459.845	964.51
460.218	948.01
460.591	962.7
460.964	943.72
461.337	973.32
461.71	984.85
462.083	1010.16
462.456	1007.45
462.829	1014.45
463.201	1053.09
463.574	1053.77
463.947	1039.76
464.32	1080.44
464.692	1083.38
465.065	1104.39
465.438	1112.08
465.81	1131.06
466.183	1135.13
466.555	1166.31
466.928	1180.32
467.3	1198.85
467.672	1214.45
468.045	1217.61
468.417	1253.09
468.789	1255.8
469.161	1286.53
469.534	1249.47
469.906	1326.31
470.278	1359.75
470.65	1358.17
471.022	1388.45
471.394	1429.81
471.766	1458.05
472.138	1477.26
472.51	1489.24
472.882	1554.78
473.253	1548.67
473.625	1581.22
473.997	1629.35
474.369	1637.26
474.74	1672.06
475.112	1713.19
475.484	1757.03
475.855	1820.08
476.227	1820.08
476.598	1903.92
476.97	1918.16
477.341	1992.73
477.713	2041.32
478.084	2085.16
478.455	2160.64
478.827	2210.13
479.198	2271.14
479.569	2319.28
479.94	2409.67
480.311	2455.99
480.682	2551.36
481.053	2591.81
481.424	2665.03
481.795	2735.31
482.166	2811.01
482.537	2881.52
482.908	3027.96
483.279	3075.19
483.65	3154.51
484.021	3274.5
484.391	3384.78
484.762	3423.88
485.133	3529.19
485.503	3594.27
485.874	3747.49
486.244	3822.29
486.615	3956.07
486.985	4012.56
487.356	4158.1
487.726	4268.6
488.097	4422.95
488.467	4527.13
488.837	4654.81
489.207	4774.35
489.578	4900.22
489.948	5004.4
490.318	5136.83
490.688	5248.01
491.058	5336.37
491.428	5486.88
491.798	5628.57
492.168	5782.91
492.538	5933.19
492.908	6053.41
493.278	6214.99
493.648	6268.78
494.017	6438.94
494.387	6577.02
494.757	6686.39
495.126	6834.18
495.496	6946.5
495.866	7046.61
496.235	7174.74
496.605	7391.01
496.974	7461.06
497.344	7620.15
497.713	7749.87
498.082	7861.05
498.452	8052.01
498.821	8121.38
499.19	8243.41
499.559	8407.02
499.928	8527.47
500.298	8635.95
500.667	8838.2
501.036	8891.76
501.405	9011.53
501.774	9071.41
502.143	9241.13
502.512	9354.57
502.88	9465.3
503.249	9527.9
503.618	9722.24
503.987	9788.46
504.356	9878.17
504.724	10014.21
505.093	10057.83
505.462	10179.63
505.83	10304.6
506.199	10395
506.567	10606.74
506.936	10689.22
507.304	10803.12
507.672	10951.14
508.041	10998.59
508.409	11090.34
508.777	11245.59
509.145	11384.35
509.514	11459.83
509.882	11557
510.25	11584.12
510.618	11734.17
510.986	11767.39
511.354	11943.65
511.722	12086.02
512.09	12203.76
512.458	12165.34
512.826	12442.4
513.193	12397.65
513.561	12482.62
513.929	12615.28
514.297	12814.37
514.664	12822.95
515.032	12909.73
515.4	13018.65
515.767	13108.6
516.135	13215.94
516.502	13155.83
516.869	13422.49
517.237	13384.07
517.604	13388.14
517.972	13527.57
518.339	13741.8
518.706	13713.33
519.073	13797.62
519.44	13929.14
519.808	14036.26
520.175	14061.11
520.542	14164.16
520.909	14329.58
521.276	14387.66
521.643	14487.99
522.009	14598.05
522.376	14658.84
522.743	14801.66
523.11	14814.54
523.477	14973.86
523.843	15036.23
524.21	15159.39
524.577	15242.55
524.943	15365.49
525.31	15403.22
525.676	15500.85
526.043	15614.97
526.409	15703.1
526.776	15751.92
527.142	15887.96
527.508	15910.1
527.874	16009.54
528.241	15980.38
528.607	16185.13
528.973	16230.32
529.339	16228.29
529.705	16330.88
530.071	16487.94
530.437	16485.68
530.803	16572.46
531.169	16675.51
531.535	16562.97
531.901	16659.69
532.267	16699.01
532.632	16793.24
532.998	16852.45
533.364	16899
533.73	16971.77
534.095	17012.67
534.461	17078.89
534.826	17106.01
535.192	17192.1
535.557	17258.54
535.923	17177.19
536.288	17275.04
536.653	17295.38
537.019	17264.19
537.384	17314.36
537.749	17404.75
538.114	17460.12
538.479	17458.09
538.845	17477.97
539.21	17483.62
539.575	17400.01
539.94	17591.64
540.305	17603.39
540.67	17563.39
541.034	17572.89
541.399	17569.27
541.764	17705.54
542.129	17756.38
542.494	17662.6
542.858	17752.99
543.223	17725.42
543.587	17709.38
543.952	17804.74
544.316	17797.51
544.681	17765.87
545.045	17798.87
545.41	17911.63
545.774	17977.17
546.138	17878.41
546.503	17858.75
546.867	17893.1
547.231	17978.07
547.595	18009.48
547.959	18071.86
548.324	17979.43
548.688	18030.73
549.052	18145.07
549.416	18084.96
549.779	18122.48
550.143	18105.07
550.507	18106.2
550.871	18207.22
551.235	18115.24
551.599	18254.45
551.962	18192.08
552.326	18276.14
552.689	18448.57
553.053	18303.49
553.417	18385.52
553.78	18500.32
554.143	18463.48
554.507	18523.14
554.87	18447.21
555.234	18591.62
555.597	18524.27
555.96	18517.95
556.323	18615.34
556.686	18584.16
557.05	18746.87
557.413	18688.79
557.776	18631.61
558.139	18766.98
558.502	18892.4
558.865	18879.97
559.228	19051.26
559.59	18904.15
559.953	18967.2
560.316	19179.4
560.679	19059.85
561.041	19133.52
561.404	19232.73
561.767	19424.14
562.129	19346.62
562.492	19474.3
562.854	19481.99
563.217	19453.06
563.579	19504.13
563.941	19642.44
564.304	19541.65
564.666	19754.97
565.028	19689.44
565.39	19816.89
565.753	19866.38
566.115	19807.4
566.477	19965.14
566.839	19956.1
567.201	20091.01
567.563	20077
567.925	20241.52
568.287	20224.57
568.648	20199.26
569.01	20360.83
569.372	20485.13
569.734	20398.35
570.095	20439.25
570.457	20513.37
570.819	20576.42
571.18	20601.05
571.542	20646.02
571.903	20648.74
572.265	20711.56
572.626	20825.46
572.987	20784.33
573.349	20898.22
573.71	20968.5
574.071	20964.66
574.432	20968.28
574.794	21124.88
575.155	21122.62
575.516	21116.3
575.877	21197.65
576.238	21164.66
576.599	21235.16
576.96	21247.14
577.32	21283.97
577.681	21201.26
578.042	21362.62
578.403	21278.1
578.763	21322.17
579.124	21308.61
579.485	21497.75
579.845	21470.86
580.206	21428.15
580.566	21446.91
580.927	21443.74
581.287	21570.29
581.648	21412.78
582.008	21564.42
582.368	21603.29
582.728	21625.89
583.089	21499.56
583.449	21636.06
583.809	21401.71
584.169	21549.05
584.529	21512.44
584.889	21657.75
585.249	21582.5
585.609	21574.81
585.969	21615.26
586.329	21532.78
586.688	21632.44
587.048	21682.61
587.408	21586.11
587.768	21568.03
588.127	21599.9
588.487	21609.84
588.846	21682.83
589.206	21633.34
589.565	21635.6
589.925	21657.52
590.284	21612.33
590.643	21654.59
591.003	21691.2
591.362	21721.93
591.721	21722.61
592.08	21624.3
592.44	21752.66
592.799	21706.56
593.158	21605.55
593.517	21670.18
593.876	21694.13
594.235	21577.07
594.593	21625.66
594.952	21698.2
595.311	21683.29
595.67	21680.8
596.029	21831.98
596.387	21732.78
596.746	21737.07
597.104	21680.57
597.463	21759.67
597.822	21730.74
598.18	21709.27
598.538	21680.12
598.897	21829.04
599.255	21692.55
599.613	21882.83
599.972	21792.66
600.33	21847.8
600.688	21742.72
601.046	21952.88
601.404	21852.55
601.762	21952.43
602.12	21899.33
602.478	21921.25
602.836	21890.29
603.194	21840.57
603.552	22041.69
603.91	21742.04
604.268	21962.37
604.625	21980
604.983	22002.83
605.341	21917.18
605.698	22076.5
606.056	22031.53
606.413	21954.01
606.771	22173.44
607.128	22103.16
607.485	22069.49
607.843	22078.53
608.2	22234.01
608.557	22254.12
608.914	22165.76
609.272	22287.34
609.629	22246.89
609.986	22338.86
610.343	22288.02
610.7	22419.76
611.057	22424.96
611.414	22413.44
611.771	22375.25
612.127	22434.68
612.484	22452.76
612.841	22633.77
613.198	22521.68
613.554	22535.92
613.911	22635.8
614.267	22717.61
614.624	22596.93
614.98	22689.14
615.337	22755.57
615.693	22721.45
616.05	22665.18
616.406	22891.62
616.762	22768.91
617.118	22845.74
617.475	22789.25
617.831	22935.68
618.187	22964.83
618.543	22896.14
618.899	23043.02
619.255	23002.35
619.611	23063.81
619.967	23107.2
620.323	23178.39
620.678	23121.89
621.034	23021.33
621.39	23087.09
621.746	22985.17
622.101	23274.88
622.457	22938.85
622.812	23089.35
623.168	23279.63
623.523	23219.29
623.879	23323.47
624.234	23111.5
624.589	23227.65
624.945	23251.83
625.3	23271.27
625.655	23191.04
626.01	23210.7
626.365	23292.51
626.72	23279.85
627.075	23287.31
627.43	23242.11
627.785	23185.17
628.14	23279.4
628.495	23233.75
628.85	23233.08
629.205	23243.47
629.559	23441.66
629.914	23266.52
630.269	23216.35
630.623	23165.05
630.978	23193.08
631.332	23240.08
631.687	23292.74
632.041	23149.01
632.396	23259.97
632.75	23075.57
633.104	23170.48
633.459	23034.66
633.813	23102.91
634.167	23037.37
634.521	23034.44
634.875	23025.4
635.229	23035.34
635.583	22844.61
635.937	22883.48
636.291	22897.94
636.645	22907.21
636.999	22793.99
637.352	23040.99
637.706	22879.19
638.06	22929.81
638.413	22893.65
638.767	22807.1
639.121	22927.32
639.474	22670.15
639.828	22785.86
640.181	22819.08
640.534	22767.33
640.888	22643.94
641.241	22676.48
641.594	22659.76
641.947	22703.6
642.301	22605.07
642.654	22557.61
643.007	22748.79
643.36	22586.76
643.713	22492.3
644.066	22632.87
644.419	22486.2
644.771	22379.31
645.124	22225.42
645.477	22125.76
645.83	22045.08
646.182	21953.56
646.535	21941.58
646.888	21960.57
647.24	21796.5
647.593	22003.73
647.945	21908.59
648.298	21733.45
648.65	21813.9
649.002	21657.3
649.355	21801.7
649.707	21772.77
650.059	21846.9
650.411	22104.52
650.763	22090.96
651.115	22389.48
651.467	22338.86
651.819	22286.43
652.171	22342.48
652.523	22203.05
652.875	22278.3
653.227	22230.39
653.578	22267
653.93	22228.13
654.282	22207.34
654.633	22135.25
654.985	22201.92
655.337	22185.65
655.688	22218.41
656.039	22234.46
656.391	22170.96
656.742	22249.15
657.094	22255.02
657.445	22227.45
657.796	22170.73
658.147	22229.71
658.498	22205.31
658.849	22194.68
659.2	22187
659.551	22186.1
659.902	22292.99
660.253	22233.55
660.604	22249.15
660.955	22112.65
661.306	22224.51
661.656	22101.35
662.007	22062.48
662.358	22193.33
662.708	22145.65
663.059	22155.59
663.409	22061.58
663.76	22354.91
664.11	22177.96
664.461	22266.32
664.811	22192.42
665.161	22165.98
665.511	22187.45
665.862	22239.2
666.212	22232.88
666.562	22251.86
666.912	22168.47
667.262	22175.25
667.612	22146.78
667.962	22212.54
668.312	22136.83
668.662	22185.87
669.011	22099.55
669.361	22134.8
669.711	22039.89
670.06	22029.94
670.41	22024.52
670.76	21977.06
671.109	22196.04
671.459	22135.7
671.808	22027.91
672.157	22150.17
672.507	21984.97
672.856	22004.41
673.205	22012.99
673.554	22174.8
673.904	21949.49
674.253	22022.49
674.602	21977.29
674.951	21651.87
675.3	21622.04
675.649	21932.54
675.998	21881.7
676.346	21972.32
676.695	21909.72
677.044	21831.76
677.393	21813.9
677.741	21856.84
678.09	21879.89
678.438	21867.24
678.787	21788.82
679.135	21768.26
679.484	21651.87
679.832	21688.03
680.181	21580.01
680.529	21689.61
680.877	21653.23
681.225	21591.99
681.573	21767.13
681.922	21510.18
682.27	21552.22
682.618	21384.76
682.966	21306.35
683.314	21462.27
683.661	21392.45
684.009	21228.16
684.357	21268.61
684.705	21162.85
685.053	21149.29
685.4	21138.67
685.748	21060.7
686.095	20989.97
686.443	20943.19
686.79	20989.52
687.138	20966.24
687.485	20921.27
687.832	20903.87
688.18	20954.04
688.527	20658.23
688.874	20765.57
689.221	20642.64
689.568	20623.65
689.915	20569.19
690.262	20556.08
690.609	20480.15
690.956	20435.41
691.303	20405.13
691.65	20326.49
691.997	20299.14
692.344	20195.42
692.69	20214.62
693.037	20192.03
693.383	19974.86
693.73	20028.41
694.077	19957.91
694.423	19980.96
694.769	19845.82
695.116	19909.55
695.462	19696.22
695.808	19651.7
696.155	19728.99
696.501	19550.91
696.847	19536.45
697.193	19340.07
697.539	19479.28
697.885	19443.57
698.231	19215.78
698.577	19308.66
698.923	19155.89
699.269	19159.51
699.614	19063.02
699.96	18971.94
700.306	18866.86
700.651	18808.79
700.997	18816.92
701.342	18697.6
701.688	18674.55
702.033	18663.48
702.379	18665.96
702.724	18583.71
703.069	18591.39
703.415	18241.79
703.76	18385.97
704.105	18385.52
704.45	18308.91
704.795	18157.28
705.14	18056.94
705.485	18087.22
705.83	18019.65
706.175	18009.94
706.52	17945.3
706.865	17891.97
707.209	17823.27
707.554	17708.7
707.899	17883.39
708.243	17683.16
708.588	17665.31
708.932	17583.28
709.277	17607.91
709.621	17525.88
709.966	17422.15
710.31	17531.53
710.654	17359.56
710.998	17332.89
711.342	17353.68
711.687	17317.52
712.031	17214.02
712.375	17268.03
712.719	17222.84
713.063	17207.7
713.407	17136.74
713.75	17084.99
714.094	17114.82
714.438	16982.17
714.782	17049.28
715.125	17002.5
715.469	16970.64
715.812	16783.98
716.156	16752.79
716.499	16760.48
716.843	16829.4
717.186	16760.7
717.53	16750.76
717.873	16679.58
718.216	16728.39
718.559	16602.06
718.902	16595.28
719.246	16612.68
719.589	16445.01
719.932	16518.45
720.275	16419.92
720.617	16487.04
720.96	16434.84
721.303	16403.42
721.646	16400.94
721.989	16371.79
722.331	16430.09
722.674	16287.04
723.016	16351.67
723.359	16233.49
723.701	16240.04
724.044	16191
724.386	16134.28
724.729	16266.25
725.071	16166.82
725.413	16132.92
725.755	16202.53
726.097	16097.9
726.439	15991.91
726.782	15994.85
727.124	16044.79
727.465	15951.01
727.807	15995.98
728.149	15913.49
728.491	15902.19
728.833	16105.35
729.175	15939.93
729.516	15860.84
729.858	15867.85
730.199	15818.13
730.541	15893.83
730.882	15867.85
731.224	15871.01
731.565	15775.42
731.906	15790.79
732.248	15770.67
732.589	15744.23
732.93	15682.54
733.271	15767.96
733.612	15681.86
733.953	15855.64
734.294	15656.1
734.635	15618.13
734.976	15708.98
735.317	15579.72
735.658	15679.6
735.999	15635.08
736.339	15616.55
736.68	15711.69
737.021	15612.71
737.361	15673.27
737.702	15699.49
738.042	15621.52
738.383	15619.72
738.723	15649.09
739.063	15590.79
739.404	15626.72
739.744	15622.88
740.084	15548.76
740.424	15671.01
740.764	15562.77
741.104	15607.97
741.444	15605.71
741.784	15559.38
742.124	15720.5
742.464	15651.13
742.804	15650
743.143	15569.55
743.483	15561.64
743.823	15546.72
744.162	15586.72
744.502	15668.3
744.841	15640.73
745.181	15646.38
745.52	15657
745.86	15706.72
746.199	15732.93
746.538	15657.23
746.877	15821.97
747.216	15826.72
747.556	15825.81
747.895	15843.44
748.234	15758.47
748.573	15946.49
748.911	15974.28
749.25	15972.48
749.589	15919.82
749.928	16072.81
750.267	16169.08
750.605	16118.23
750.944	16109.2
751.283	16129.76
751.621	16204.11
751.96	16204.11
752.298	16342.86
752.636	16409.75
752.975	16346.03
753.313	16405.68
753.651	16461.95
753.989	16509.86
754.327	16506.47
754.666	16626.02
755.004	16694.94
755.342	16810.42
755.679	16914.6
756.017	16868.05
756.355	16905.78
756.693	16986.23
757.031	17142.84
757.368	17085.89
757.706	17206.57
758.044	17317.75
758.381	17247.02
758.719	17344.87
759.056	17475.49
759.394	17451.08
759.731	17513.23
760.068	17618.76
760.405	17638.65
760.743	17764.29
761.08	17762.71
761.417	17699.89
761.754	17796.83
762.091	17894.01
762.428	17911.41
762.765	17913.22
763.102	18042.48
763.438	18026.43
763.775	18025.53
764.112	18189.82
764.449	18180.55
764.785	18128.8
765.122	18151.4
765.458	18196.82
765.795	18263.04
766.131	18289.48
766.467	18246.09
766.804	18319.08
767.14	18277.5
767.476	18364.05
767.812	18292.19
768.148	18372.41
768.485	18322.7
768.821	18254.45
769.157	18319.31
769.492	18309.59
769.828	18375.8
770.164	18256.71
770.5	18171.74
770.836	18329.93
771.171	18222.81
771.507	18229.82
771.842	18150.27
772.178	18286.99
772.513	18236.14
772.849	18176.94
773.184	18146.2
773.519	18183.94
773.855	18119.54
774.19	18156.15
774.525	18052.87
774.86	18011.07
775.195	18169.93
775.53	18009.71
775.865	17951.63
776.2	17855.36
776.535	17811.98
776.87	17810.39
777.205	17751.86
777.539	17697.63
777.874	17800.9
778.209	17601.81
778.543	17537.86
778.878	17529.95
779.212	17510.51
779.547	17513.45
779.881	17497.18
780.215	17351.2
780.55	17404.3
780.884	17350.52
781.218	17234.59
781.552	17353
781.886	17240.46
782.22	17189.84
782.554	17095.16
782.888	16951.43
783.222	17054.48
783.556	16873.02
783.889	16967.7
784.223	16733.13
784.557	16777.65
784.89	16796.63
785.224	16743.75
785.557	16668.73
785.891	16668.95
786.224	16639.58
786.558	16549.41
786.891	16353.26
787.224	16339.47
787.557	16321.39
787.891	16282.98
788.224	16213.37
788.557	16257.89
788.89	16202.07
789.223	16140.61
789.556	16095.18
789.888	16017.22
790.221	15986.49
790.554	15917.79
790.887	15895.19
791.219	15832.14
791.552	15708.75
791.884	15796.89
792.217	15655.65
792.549	15579.72
792.882	15481.87
793.214	15439.16
793.546	15492.49
793.879	15408.2
794.211	15326.16
794.543	15358.93
794.875	15276
795.207	15385.37
795.539	15313.74
795.871	15239.39
796.203	15042.1
796.535	15036.23
796.867	14985.16
797.198	14967.53
797.53	14924.14
797.862	14826.29
798.193	14944.48
798.525	14767.99
798.856	14782
799.188	14600.76
799.519	14647.31
799.85	14657.26
800.182	14578.39
800.513	14579.29
800.844	14405.29
801.175	14533.19
801.506	14509.69
801.837	14383.36
802.168	14332.74
802.499	14342.01
802.83	14309.92
803.161	14139.98
803.491	14208.45
803.822	14182.92
804.153	14061.57
804.483	14015.69
804.814	13979.53
805.145	14000.1
805.475	13955.13
805.805	13906.09
806.136	13881.01
806.466	13901.57
806.796	13798.3
807.126	13757.17
807.457	13681.01
807.787	13699.99
808.117	13638.53
808.447	13637.4
808.777	13626.55
809.107	13553.56
809.436	13576.61
809.766	13508.59
810.096	13415.25
810.426	13379.55
810.755	13425.65
811.085	13378.42
811.414	13329.83
811.744	13253
812.073	13219.78
812.403	13189.05
812.732	13128.93
813.061	13060.46
813.39	13017.07
813.719	13003.97
814.049	13117.41
814.378	12991.54
814.707	12906.12
815.036	12924.42
815.365	12835.83
815.693	12777.98
816.022	12843.52
816.351	12682.84
816.68	12641.04
817.008	12694.14
817.337	12664.77
817.665	12595.62
817.994	12595.84
818.322	12524.88
818.651	12548.16
818.979	12474.49
819.307	12528.27
819.636	12524.43
819.964	12462.51
820.292	12508.16
820.62	12431.33
820.948	12444.88
821.276	12426.58
821.604	12382.06
821.932	12448.95
822.259	12427.48
822.587	12398.78
822.915	12395.17
823.243	12430.65
823.57	12348.62
823.898	12435.17
824.225	12250.54
824.553	12351.55
824.88	12354.49
825.207	12381.16
825.535	12300.71
825.862	12386.36
826.189	12285.34
826.516	12403.76
826.843	12385.68
827.17	12410.54
827.497	12387.94
827.824	12402.17
828.151	12412.12
828.478	12315.17
828.805	12399.01
829.131	12295.06
829.458	12287.37
829.785	12266.13
830.111	12311.33
830.438	12267.04
830.764	12283.31
831.09	12334.15
831.417	12297.54
831.743	12368.95
832.069	12294.83
832.395	12226.81
832.722	12264.55
833.048	12281.73
833.374	12248.96
833.7	12155.4
834.026	12225.23
834.351	12210.09
834.677	12179.35
835.003	12247.38
835.329	12209.41
835.654	12197.89
835.98	12119.24
836.306	12127.83
836.631	12148.85
836.956	12201.5
837.282	12179.35
837.607	11989.08
837.932	12024.78
838.258	11961.28
838.583	11973.94
838.908	11922.86
839.233	11997.66
839.558	11939.59
839.883	11933.49
840.208	11878.8
840.533	11815.07
840.858	11916.54
841.182	11861.62
841.507	11801.51
841.832	11730.1
842.156	11770.78
842.481	11755.19
842.805	11648.3
843.13	11639.93
843.454	11667.96
843.778	11672.48
844.103	11542.54
844.427	11553.38
844.751	11603.32
845.075	11514.97
845.399	11495.76
845.723	11361.98
846.047	11475.42
846.371	11387.74
846.695	11375.31
847.019	11210.57
847.343	11183.22
847.666	11220.06
847.99	11045.6
848.313	11080.63
848.637	11065.71
848.96	10981.87
849.284	10984.81
849.607	10944.36
849.931	10829.79
850.254	10761.77
850.577	10679.28
850.9	10669.56
851.223	10670.47
851.546	10609.45
851.869	10587.53
852.192	10579.85
852.515	10497.37
852.838	10520.19
853.161	10449.91
853.483	10339.86
853.806	10353.19
854.129	10355.22
854.451	10338.73
854.774	10183.7
855.096	10237.71
855.419	10182.57
855.741	10130.37
856.063	10056.02
856.385	10072.74
856.708	10075.23
857.03	10048.56
857.352	10052.18
857.674	10002.46
857.996	10006.08
858.318	9917.72
858.64	9968.57
858.961	9899.87
859.283	9846.53
859.605	9740.1
859.926	9839.53
860.248	9765.63
860.57	9757.5
860.891	9740.77
861.212	9666.2
861.534	9742.58
861.855	9685.41
862.176	9681.79
862.498	9636.37
862.819	9670.49
863.14	9648.8
863.461	9564.28
863.782	9500.56
864.103	9572.19
864.424	9445.64
864.745	9519.54
865.065	9493.78
865.386	9445.64
865.707	9466.66
866.027	9513.66
866.348	9426.21
866.668	9361.58
866.989	9355.25
867.309	9313.44
867.63	9316.38
867.95	9282.93
868.27	9323.84
868.59	9274.57
868.91	9244.52
869.23	9226.44
869.55	9204.07
869.87	9242.03
870.19	9237.96
870.51	9188.93
870.83	9291.3
871.15	9150.51
871.469	9112.09
871.789	9200.45
872.109	9177.63
872.428	9087.01
872.748	9144.86
873.067	9119.1
873.386	9073.9
873.706	9066.44
874.025	9001.36
874.344	9050.62
874.663	9026.9
874.982	8955.48
875.301	8999.78
875.62	8925.88
875.939	8925.66
876.258	8993.68
876.577	8914.81
876.896	8859.89
877.214	8884.3
877.533	8895.6
877.852	8826.67
878.17	8887.01
878.489	8868.26
878.807	8833
879.125	8849.72
879.444	8742.38
879.762	8783.29
880.08	8821.03
880.398	8767.92
880.716	8719.78
881.034	8703.06
881.352	8717.53
881.67	8611.31
881.988	8689.5
882.306	8599.11
882.624	8641.14
882.941	8625.55
883.259	8637.08
883.577	8556.17
883.894	8497.42
884.212	8519.34
884.529	8513.69
884.846	8412
885.164	8456.06
885.481	8431.88
885.798	8409.51
886.115	8427.82
886.432	8362.73
886.75	8335.39
887.067	8375.39
887.383	8275.5
887.7	8317.54
888.017	8267.14
888.334	8286.35
888.651	8254.03
888.967	8251.77
889.284	8146.47
889.6	8152.34
889.917	8099.24
890.233	8109.86
890.55	8104.43
890.866	8083.42
891.182	8078.9
891.498	7985.57
891.815	8023.98
892.131	7928.17
892.447	7972.01
892.763	7957.77
893.079	7940.14
893.395	7827.83
893.71	7846.81
894.026	7868.96
894.342	7837.32
894.657	7742.18
894.973	7739.92
895.289	7750.54
895.604	7712.81
895.92	7670.55
896.235	7654.5
896.55	7675.52
896.865	7600.27
897.181	7586.03
897.496	7591
897.811	7528.18
898.126	7450.21
898.441	7502.87
898.756	7483.21
899.071	7414.96
899.386	7382.19
899.7	7357.11
900.015	7351.69
900.33	7253.38
900.644	7254.51
900.959	7312.36
901.273	7295.42
901.588	7219.71
901.902	7179.03
902.216	7161.63
902.531	7145.81
902.845	7106.27
903.159	7040.73
903.473	7078.7
903.787	7020.39
904.101	7014.07
904.415	7041.86
904.729	7011.36
905.042	6940.4
905.356	6890
905.67	6870.34
905.984	6919.38
906.297	6834.86
906.611	6880.96
906.924	6844.35
907.237	6777.01
907.551	6679.39
907.864	6694.75
908.177	6667.64
908.491	6703.34
908.804	6664.02
909.117	6613.4
909.43	6585.6
909.743	6582.67
910.056	6530.46
910.368	6487.08
910.681	6503.12
910.994	6443.01
911.307	6407.98
911.619	6405.04
911.932	6409.11
912.244	6312.84
912.557	6348.1
912.869	6318.49
913.181	6207.99
913.494	6277.82
913.806	6176.35
914.118	6205.73
914.43	6132.96
914.742	6090.48
915.054	6081.89
915.366	6079.18
915.678	6052.51
915.99	6045.73
916.302	5977.26
916.613	5984.26
916.925	5974.55
917.236	5981.55
917.548	5937.26
917.859	5946.98
918.171	5855
918.482	5832.4
918.794	5827.43
919.105	5843.02
919.416	5780.43
919.727	5746.3
920.038	5743.82
920.349	5697.49
920.66	5685.29
920.971	5624.05
921.282	5637.38
921.593	5613.2
921.903	5549.02
922.214	5582.01
922.525	5473.99
922.835	5511.06
923.146	5490.94
923.456	5492.98
923.767	5442.58
924.077	5455.69
924.387	5387.22
924.697	5350.16
925.008	5373.66
925.318	5327.56
925.628	5335.47
925.938	5322.36
926.248	5243.49
926.558	5235.58
926.867	5216.15
927.177	5199.43
927.487	5184.74
927.796	5072.2
928.106	5107
928.416	5123.5
928.725	5174.79
929.034	5058.41
929.344	4990.39
929.653	5060.45
929.962	5011.86
930.271	4974.12
930.581	4982.93
930.89	4989.94
931.199	4947
931.508	4938.64
931.817	4908.81
932.125	4855.25
932.434	4874.46
932.743	4813.45
933.051	4766.67
933.36	4805.09
933.669	4749.04
933.977	4756.05
934.286	4747.46
934.594	4717.63
934.902	4690.51
935.21	4641.7
935.519	4643.73
935.827	4652.55
936.135	4610.51
936.443	4565.54
936.751	4612.1
937.059	4525.77
937.367	4506.56
937.674	4514.7
937.982	4564.19
938.29	4512.21
938.597	4510.63
938.905	4387.92
939.213	4403.74
939.52	4346.79
939.827	4415.94
940.135	4371.88
940.442	4380.01
940.749	4361.48
941.056	4325.78
941.363	4294.14
941.67	4306.12
941.977	4247.81
942.284	4224.08
942.591	4273.12
942.898	4203.07
943.205	4193.58
943.511	4175.72
943.818	4197.42
944.125	4139.57
944.431	4120.58
944.738	4100.92
945.044	4067.25
945.35	4065.67
945.657	4023.19
945.963	4022.73
946.269	4027.48
946.575	3986.58
946.881	3951.1
947.187	3958.33
947.493	3918.1
947.799	3943.19
948.105	3903.41
948.41	3905
948.716	3873.36
949.022	3874.04
949.327	3849.18
949.633	3813.02
949.938	3812.8
950.244	3795.17
950.549	3747.26
950.854	3766.24
951.16	3743.42
951.465	3755.4
951.77	3691.89
952.075	3675.4
952.38	3713.59
952.685	3668.17
952.99	3663.19
953.294	3634.49
953.599	3602.63
953.904	3597.43
954.209	3596.3
954.513	3577.32
954.818	3543.88
955.122	3527.38
955.426	3552.46
955.731	3534.61
956.035	3512.24
956.339	3503.65
956.643	3495.97
956.948	3429.98
957.252	3439.47
957.556	3428.85
957.86	3420.49
958.163	3422.07
958.467	3405.57
958.771	3346.82
959.075	3346.37
959.378	3323.77
959.682	3329.87
959.985	3280.15
960.289	3297.78
960.592	3271.79
960.896	3284.45
961.199	3270.21
961.502	3288.97
961.805	3240.15
962.108	3211.46
962.411	3212.59
962.714	3211.23
963.017	3202.87
963.32	3167.39
963.623	3135.07
963.926	3102.08
964.228	3117.67
964.531	3116.99
964.833	3112.7
965.136	3046.26
965.438	3056.88
965.741	3049.43
966.043	3033.83
966.345	3029.99
966.648	2988.41
966.95	3024.57
967.252	2988.86
967.554	2971.69
967.856	2941.63
968.158	2967.39
968.46	2942.08
968.761	2934.4
969.063	2928.07
969.365	2925.81
969.666	2861.18
969.968	2857.57
970.269	2852.82
970.571	2864.35
970.872	2808.3
971.174	2811.47
971.475	2817.57
971.776	2801.97
972.077	2781.18
972.378	2801.52
972.679	2752.03
972.98	2780.05
973.281	2727.85
973.582	2691.47
973.883	2737.34
974.183	2697.57
974.484	2701.41
974.785	2709.1
975.085	2702.32
975.386	2683.11
975.686	2659.61
975.986	2638.36
976.287	2644.69
976.587	2617.57
976.887	2602.88
977.187	2594.97
977.487	2554.3
977.787	2564.01
978.087	2564.92
978.387	2547.97
978.687	2528.54
978.987	2513.85
979.286	2514.75
979.586	2522.43
979.885	2492.38
980.185	2478.37
980.484	2469.1
980.784	2456.67
981.083	2400.18
981.382	2384.13
981.682	2433.85
981.981	2421.65
982.28	2406.28
982.579	2420.29
982.878	2389.78
983.177	2385.26
983.475	2363.34
983.774	2357.69
984.073	2342.78
984.372	2303.46
984.67	2361.53
984.969	2319.28
985.267	2310.91
985.566	2314.3
985.864	2277.02
986.162	2299.16
986.461	2211.48
986.759	2239.05
987.057	2248.32
987.355	2251.48
987.653	2211.71
987.951	2256.45
988.249	2190.24
988.547	2183.46
988.844	2194.98
989.142	2201.31
989.44	2172.61
989.737	2171.71
990.035	2176
990.332	2134.42
990.63	2139.39
990.927	2154.08
991.224	2113.4
991.521	2088.77
991.819	2074.08
992.116	2080.41
992.413	2084.48
992.71	2050.36
993.006	2030.24
993.303	2015.1
993.6	2056.91
993.897	2024.37
994.193	2014.42
994.49	2017.81
994.787	1990.02
995.083	2020.75
995.379	1975.78
995.676	1957.93
995.972	2002.45
996.268	1966.06
996.565	1969.91
996.861	1948.89
997.157	1914.99
997.453	1920.87
997.749	1919.06
998.044	1887.2
998.34	1878.61
998.636	1888.1
998.932	1878.38
999.227	1844.49
999.523	1839.29
999.818	1806.52
1000.114	1839.97
1000.409	1799.97
1000.704	1784.37
1001	1806.97
1001.295	1757.93
1001.59	1765.17
1001.885	1764.71
1002.18	1741.21
1002.475	1783.47
1002.77	1747.76
1003.065	1739.18
1003.359	1743.7
1003.654	1725.39
1003.949	1693.08
1004.243	1673.87
1004.538	1694.43
1004.832	1697.14
1005.127	1660.54
1005.421	1684.94
1005.715	1646.07
1006.009	1651.27
1006.304	1632.74
1006.598	1632.29
1006.892	1635
1007.186	1611.95
1007.48	1625.51
1007.773	1605.17
1008.067	1579.18
1008.361	1576.47
1008.655	1579.41
1008.948	1587.77
1009.242	1588.22
1009.535	1540.76
1009.829	1542.8
1010.122	1554.78
1010.415	1499.86
1010.708	1520.43
1011.001	1538.5
1011.295	1479.98
1011.588	1468
1011.881	1467.32
1012.173	1476.36
1012.466	1449.47
1012.759	1425.97
1013.052	1443.14
1013.344	1434.33
1013.637	1417.6
1013.93	1440.65
1014.222	1397.27
1014.514	1407.43
1014.807	1391.62
1015.099	1383.71
1015.391	1395.01
1015.683	1387.32
1015.976	1365.4
1016.268	1349.13
1016.56	1333.54
1016.851	1345.52
1017.143	1332.41
1017.435	1328.57
1017.727	1339.41
1018.018	1321.34
1018.31	1300.77
1018.602	1311.39
1018.893	1290.6
1019.185	1271.85
1019.476	1266.42
1019.767	1283.6
1020.058	1288.57
1020.35	1251.51
1020.641	1211.51
1020.932	1213.54
1021.223	1192.75
1021.514	1250.83
1021.804	1224.39
1022.095	1195.01
1022.386	1190.04
1022.677	1156.59
1022.967	1168.12
1023.258	1180.32
1023.548	1143.71
1023.839	1171.73
1024.129	1141.23
1024.419	1163.37
1024.709	1151.62
1025	1128.8
1025.29	1112.08
1025.58	1116.14
1025.87	1111.4
1026.16	1098.29
1026.449	1105.3
1026.739	1092.64
1027.029	1091.51
1027.319	1069.59
1027.608	1045.64
1027.898	1067.78
1028.187	1060.55
1028.477	1066.43
1028.766	1041.79
1029.055	1036.6
1029.344	1024.17
1029.634	1002.47
1029.923	1031.4
1030.212	1009.93
1030.501	985.3
1030.79	1005.19
1031.078	982.14
1031.367	999.31
1031.656	953.21
1031.945	985.3
1032.233	954.57
1032.522	955.47
1032.81	967.9
1033.099	950.5
1033.387	934.9
1033.675	924.51
1033.963	960.21
1034.251	931.97
1034.54	910.95
1034.828	929.48
1035.116	904.4
1035.403	903.72
1035.691	890.84
1035.979	893.78
1036.267	892.65
1036.554	884.06
1036.842	880.22
1037.129	895.58
1037.417	883.15
1037.704	880.22
1037.992	863.04
1038.279	863.49
1038.566	854.45
1038.853	854.45
1039.14	854.45
