Data from hue_110_FLMS001491_00086.txt Node
Date: Tue Feb 07 17:01:56 GMT 2017
User: dcchb
Spectrometer: FLMS00149
Trigger mode: 0
Integration Time (sec): 2.000000E-2
Scans to average: 10
Electric dark correction enabled: true
Nonlinearity correction enabled: false
Boxcar width: 0
XAxis mode: Wavelengths
Number of Pixels in Spectrum: 2048
>>>>>Begin Spectral Data<<<<<
341.393	-21.19
341.776	-21.19
342.16	-21.19
342.543	-62.31
342.927	-67.51
343.31	-63.67
343.693	-66.16
344.077	-64.35
344.46	-67.29
344.843	-66.61
345.226	-43.56
345.61	-47.85
345.993	-31.58
346.376	8.64
346.759	34.86
347.142	24.91
347.525	35.76
347.908	47.51
348.291	100.84
348.674	92.71
349.057	105.82
349.44	126.83
349.823	131.35
350.206	182.88
350.588	192.59
350.971	210.45
351.354	233.5
351.737	220.62
352.119	250.9
352.502	232.14
352.884	306.26
353.267	285.02
353.65	290.44
354.032	295.87
354.414	311.46
354.797	321.4
355.179	319.37
355.562	310.78
355.944	317.56
356.326	340.16
356.709	322.53
357.091	346.94
357.473	359.6
357.855	349.88
358.238	334.06
358.62	346.71
359.002	336.32
359.384	319.82
359.766	357.79
360.148	334.74
360.53	332.7
360.912	316.21
361.294	326.83
361.676	337.67
362.057	322.08
362.439	312.14
362.821	324.57
363.203	314.62
363.584	313.95
363.966	329.54
364.348	309.65
364.729	287.28
365.111	293.61
365.493	319.82
365.874	324.79
366.256	329.99
366.637	323.21
367.019	314.17
367.4	317.11
367.781	326.38
368.163	308.3
368.544	303.78
368.925	329.09
369.306	315.3
369.688	309.65
370.069	317.56
370.45	296.77
370.831	315.53
371.212	337.9
371.593	314.62
371.974	333.38
372.355	323.44
372.736	305.36
373.117	323.89
373.498	324.12
373.879	302.87
374.26	313.95
374.641	303.33
375.021	312.82
375.402	312.82
375.783	299.71
376.163	327.51
376.544	321.18
376.925	323.66
377.305	312.59
377.686	323.21
378.066	319.37
378.447	317.34
378.827	308.07
379.208	337.45
379.588	319.82
379.968	334.51
380.349	346.71
380.729	322.08
381.109	328.18
381.489	323.44
381.87	347.17
382.25	348.97
382.63	341.97
383.01	322.53
383.39	322.08
383.77	344.45
384.15	340.16
384.53	342.65
384.91	354.85
385.29	334.74
385.67	352.82
386.049	373.83
386.429	352.14
386.809	325.02
387.189	359.82
387.568	372.7
387.948	357.11
388.328	356.66
388.707	362.08
389.087	369.09
389.466	359.14
389.846	360.27
390.225	375.19
390.605	362.31
390.984	379.03
391.363	367.05
391.743	351.69
392.122	367.96
392.501	369.09
392.881	377.45
393.26	356.43
393.639	374.51
394.018	374.28
394.397	380.84
394.776	394.17
395.155	371.12
395.534	383.55
395.913	374.74
396.292	366.37
396.671	373.61
397.05	374.74
397.429	384.23
397.808	382.42
398.186	391.23
398.565	395.98
398.944	368.18
399.323	396.88
399.701	395.3
400.08	386.49
400.458	391.46
400.837	404.11
401.215	395.3
401.594	430.33
401.972	393.04
402.351	407.96
402.729	416.54
403.107	407.73
403.486	400.72
403.864	426.49
404.242	421.97
404.62	413.15
404.999	437.33
405.377	431.01
405.755	432.59
406.133	431.23
406.511	427.16
406.889	417.9
407.267	421.74
407.645	428.07
408.023	430.33
408.401	451.12
408.779	437.33
409.156	441.63
409.534	447.05
409.912	439.59
410.29	421.29
410.667	449.08
411.045	462.87
411.422	446.6
411.8	446.82
412.178	460.84
412.555	482.76
412.933	480.95
413.31	478.91
413.687	481.17
414.065	497.44
414.442	471.91
414.819	484.11
415.197	518.46
415.574	498.35
415.951	473.49
416.328	485.92
416.705	492.92
417.082	494.51
417.46	484.79
417.837	515.52
418.214	496.54
418.591	515.98
418.967	481.85
419.344	511.68
419.721	534.96
420.098	519.14
420.475	538.35
420.852	508.29
421.228	530.66
421.605	526.82
421.982	536.54
422.358	539.7
422.735	551.45
423.111	559.59
423.488	542.87
423.864	552.81
424.241	553.26
424.617	559.36
424.994	585.58
425.37	580.38
425.746	583.09
426.123	562.08
426.499	586.26
426.875	570.66
427.251	596.2
427.627	573.15
428.003	582.87
428.379	585.35
428.756	605.01
429.132	629.42
429.507	629.19
429.883	621.51
430.259	610.66
430.635	639.81
431.011	614.28
431.387	642.07
431.763	651.56
432.138	664.22
432.514	662.41
432.89	673.49
433.265	661.73
433.641	693.6
434.016	681.62
434.392	689.53
434.767	687.27
435.143	711.45
435.518	697.89
435.894	742.41
436.269	725.24
436.644	743.31
437.02	721.85
437.395	725.24
437.77	745.57
438.145	732.24
438.52	753.48
438.895	768.85
439.271	762.3
439.646	782.86
440.021	798.45
440.395	796.42
440.77	775.4
441.145	808.17
441.52	796.42
441.895	799.36
442.27	788.06
442.645	811.33
443.019	805.23
443.394	821.96
443.769	822.63
444.143	812.01
444.518	847.04
444.892	835.74
445.267	847.49
445.641	832.35
446.016	851.33
446.39	844.1
446.764	866.02
447.139	835.29
447.513	868.73
447.887	858.56
448.262	870.09
448.636	882.29
449.01	893.59
449.384	884.1
449.758	901.05
450.132	912.8
450.506	935.63
450.88	912.35
451.254	921.84
451.628	928.17
452.002	949.41
452.376	949.86
452.75	975.4
453.123	975.17
453.497	984.89
453.871	1000.71
454.244	994.38
454.618	998
454.992	997.09
455.365	1020.59
455.739	1061.72
456.112	1054.04
456.486	1063.76
456.859	1063.31
457.232	1096.07
457.606	1056.53
457.979	1120.93
458.352	1123.64
458.725	1134.26
459.099	1138.33
459.472	1155.05
459.845	1157.99
460.218	1177.65
460.591	1204.77
460.964	1222.62
461.337	1249.97
461.71	1239.35
462.083	1244.54
462.456	1271.89
462.829	1272.57
463.201	1318.67
463.574	1318.67
463.947	1315.05
464.32	1338.55
464.692	1336.07
465.065	1378.55
465.438	1409.06
465.81	1435.27
466.183	1409.74
466.555	1452.45
466.928	1470.98
467.3	1493.8
467.672	1538.1
468.045	1584.2
468.417	1564.08
468.789	1573.57
469.161	1630.07
469.534	1654.93
469.906	1684.98
470.278	1703.06
470.65	1731.99
471.022	1756.85
471.394	1766.11
471.766	1802.49
472.138	1827.58
472.51	1931.08
472.882	1910.97
473.253	1993.68
473.625	2020.12
473.997	2092.66
474.369	2098.31
474.74	2157.97
475.112	2191.41
475.484	2235.7
475.855	2285.19
476.227	2334.01
476.598	2373.78
476.97	2431.63
477.341	2476.83
477.713	2562.02
478.084	2653.55
478.455	2725.86
478.827	2762.47
479.198	2898.74
479.569	2906.65
479.94	3028.9
480.311	3068.45
480.682	3167.2
481.053	3287.88
481.424	3364.04
481.795	3449.68
482.166	3512.51
482.537	3566.97
482.908	3738.94
483.279	3826.4
483.65	3907.52
484.021	4062.77
484.391	4138.7
484.762	4227.29
485.133	4274.07
485.503	4405.14
485.874	4555.87
486.244	4663.66
486.615	4758.12
486.985	4920.61
487.356	5031.34
487.726	5151.33
488.097	5311.56
488.467	5398.33
488.837	5597.65
489.207	5664.31
489.578	5858.66
489.948	5951.31
490.318	6079.22
490.688	6219.78
491.058	6327.8
491.428	6468.14
491.798	6621.8
492.168	6776.83
492.538	6871.51
492.908	7062.02
493.278	7148.8
493.648	7276.25
494.017	7457.26
494.387	7497.49
494.757	7710.81
495.126	7825.61
495.496	7940.19
495.866	8077.36
496.235	8138.37
496.605	8372.94
496.974	8405.26
497.344	8589.66
497.713	8644.8
498.082	8786.27
498.452	8955.08
498.821	9044.11
499.19	9092.92
499.559	9194.39
499.928	9334.95
500.298	9464.67
500.667	9572.69
501.036	9626.7
501.405	9710.31
501.774	9805
502.143	9927.03
502.512	10023.75
502.88	10166.57
503.249	10221.48
503.618	10333.34
503.987	10400.91
504.356	10419.9
504.724	10518.65
505.093	10644.3
505.462	10661.02
505.83	10882.48
506.199	10859.66
506.567	10970.16
506.936	11066.43
507.304	11175.36
507.672	11186.66
508.041	11352.53
508.409	11403.15
508.777	11528.57
509.145	11593.88
509.514	11549.58
509.882	11697.6
510.25	11696.02
510.618	11767.88
510.986	11812.4
511.354	11828.45
511.722	12021.66
512.09	12030.93
512.458	12057.82
512.826	12211.03
513.193	12233.86
513.561	12235.67
513.929	12289.22
514.297	12370.8
514.664	12519.28
515.032	12479.5
515.4	12547.52
515.767	12719.5
516.135	12620.97
516.502	12592.04
516.869	12868.87
517.237	12837.91
517.604	12760.17
517.972	12846.95
518.339	12994.74
518.706	12943.22
519.073	13053.05
519.44	13079.26
519.808	13102.54
520.175	13059.6
520.542	13161.74
520.909	13311.12
521.276	13218.01
521.643	13361.97
522.009	13418.69
522.376	13414.17
522.743	13427.95
523.11	13449.87
523.477	13550.66
523.843	13621.17
524.21	13694.39
524.577	13743.42
524.943	13739.81
525.31	13764.44
525.676	13765.34
526.043	13861.84
526.409	13921.72
526.776	13993.59
527.142	13966.47
527.508	13947.94
527.874	14069.29
528.241	14048.95
528.607	14070.2
528.973	14161.04
529.339	14020.93
529.705	14181.6
530.071	14130.53
530.437	14140.48
530.803	14160.36
531.169	14237.65
531.535	14146.35
531.901	14161.49
532.267	14153.13
532.632	14141.15
532.998	14166.01
533.364	14194.26
533.73	14111.78
534.095	14237.65
534.461	14304.09
534.826	14242.62
535.192	14276.74
535.557	14252.56
535.923	14169.18
536.288	14228.83
536.653	14138.89
537.019	14066.35
537.384	14090.31
537.749	14081.49
538.114	14183.64
538.479	14068.39
538.845	14103.87
539.21	13872.46
539.575	13993.59
539.94	13914.72
540.305	13994.04
540.67	13845.12
541.034	13953.81
541.399	13886.92
541.764	13955.62
542.129	13832.46
542.494	13806.47
542.858	13799.92
543.223	13791.78
543.587	13760.37
543.952	13643.99
544.316	13689.87
544.681	13628.62
545.045	13666.59
545.41	13678.79
545.774	13649.19
546.138	13532.81
546.503	13542.3
546.867	13493.94
547.231	13555.86
547.595	13487.61
547.959	13507.05
548.324	13389.31
548.688	13384.56
549.052	13272.48
549.416	13357.22
549.779	13319.03
550.143	13295.07
550.507	13322.42
550.871	13316.77
551.235	13252.36
551.599	13180.05
551.962	13132.59
552.326	13212.36
552.689	13272.93
553.053	13106.38
553.417	13136.89
553.78	13178.47
554.143	13105.93
554.507	13119.49
554.87	13162.65
555.234	13169.65
555.597	13068.87
555.96	13091.01
556.323	13120.16
556.686	12996.55
557.05	13042.2
557.413	13018.25
557.776	13035.87
558.139	13123.1
558.502	12997.91
558.865	12961.75
559.228	13040.62
559.59	13020.51
559.953	12988.64
560.316	13069.09
560.679	13042.43
561.041	13086.94
561.404	13096.44
561.767	13085.14
562.129	13145.7
562.492	13095.31
562.854	13088.3
563.217	12965.82
563.579	13059.83
563.941	13135.53
564.304	13046.49
564.666	13161.52
565.028	13175.98
565.39	13140.95
565.753	13241.06
566.115	13267.28
566.477	13233.38
566.839	13277.67
567.201	13308.63
567.563	13246.04
567.925	13346.6
568.287	13347.73
568.648	13235.87
569.01	13416.65
569.372	13419.36
569.734	13239.48
570.095	13309.76
570.457	13321.74
570.819	13383.89
571.18	13326.49
571.542	13410.33
571.903	13428.86
572.265	13441.51
572.626	13502.3
572.987	13449.19
573.349	13498.23
573.71	13493.26
574.071	13519.02
574.432	13517.89
574.794	13575.97
575.155	13557.21
575.516	13436.77
575.877	13537.33
576.238	13531.9
576.599	13614.16
576.96	13552.47
577.32	13525.12
577.681	13538.01
578.042	13678.34
578.403	13577.78
578.763	13573.03
579.124	13641.51
579.485	13648.29
579.845	13652.58
580.206	13583.43
580.566	13634.5
580.927	13629.3
581.287	13646.25
581.648	13636.53
582.008	13752.92
582.368	13646.25
582.728	13600.38
583.089	13605.57
583.449	13627.27
583.809	13632.69
584.169	13606.7
584.529	13601.51
584.889	13672.01
585.249	13558.34
585.609	13514.73
585.969	13588.4
586.329	13521.51
586.688	13574.84
587.048	13516.99
587.408	13482.87
587.768	13524.45
588.127	13376.88
588.487	13451.45
588.846	13578.91
589.206	13367.61
589.565	13448.74
589.925	13498.01
590.284	13401.06
590.643	13509.53
591.003	13521.73
591.362	13482.41
591.721	13459.59
592.08	13443.77
592.44	13484.22
592.799	13441.74
593.158	13335.98
593.517	13475.18
593.876	13421.4
594.235	13315.86
594.593	13352.25
594.952	13407.39
595.311	13264.79
595.67	13304.11
596.029	13467.95
596.387	13343.89
596.746	13445.13
597.104	13394.05
597.463	13363.55
597.822	13349.54
598.18	13309.31
598.538	13278.8
598.897	13404.45
599.255	13279.48
599.613	13442.87
599.972	13298.69
600.33	13436.77
600.688	13400.83
601.046	13378.24
601.404	13372.59
601.762	13390.66
602.12	13433.38
602.478	13432.25
602.836	13386.15
603.194	13314.73
603.552	13322.19
603.91	13348.18
604.268	13316.09
604.625	13324.68
604.983	13411.23
605.341	13275.19
605.698	13373.26
606.056	13460.95
606.413	13335.3
606.771	13399.03
607.128	13440.83
607.485	13355.86
607.843	13333.72
608.2	13386.15
608.557	13472.47
608.914	13466.6
609.272	13481.06
609.629	13480.83
609.986	13496.42
610.343	13439.93
610.7	13421.4
611.057	13502.98
611.414	13433.38
611.771	13529.42
612.127	13497.78
612.484	13474.5
612.841	13591.11
613.198	13520.6
613.554	13553.6
613.911	13631.11
614.267	13676.76
614.624	13589.08
614.98	13587.04
615.337	13648.96
615.693	13607.38
616.05	13569.19
616.406	13691.22
616.762	13675.86
617.118	13646.03
617.475	13673.37
617.831	13672.69
618.187	13735.06
618.543	13759.24
618.899	13772.35
619.255	13750.2
619.611	13773.03
619.967	13767.83
620.323	13845.34
620.678	13813.48
621.034	13740.71
621.39	13707.49
621.746	13749.75
622.101	13907.49
622.457	13816.64
622.812	13774.61
623.168	13884.89
623.523	13839.69
623.879	13860.03
624.234	13708.62
624.589	13818
624.945	13789.75
625.3	13853.25
625.655	13878.34
626.01	13774.84
626.365	13857.55
626.72	13807.6
627.075	13789.07
627.43	13704.1
627.785	13698.45
628.14	13738.9
628.495	13707.72
628.85	13793.82
629.205	13674.5
629.559	13797.43
629.914	13688.96
630.269	13747.94
630.623	13651.45
630.978	13678.57
631.332	13683.54
631.687	13693.48
632.041	13584.56
632.396	13706.14
632.75	13540.04
633.104	13627.95
633.459	13628.17
633.813	13584.56
634.167	13593.37
634.521	13590.21
634.875	13552.24
635.229	13614.61
635.583	13474.5
635.937	13518.12
636.291	13496.42
636.645	13547.95
636.999	13402.19
637.352	13532.36
637.706	13343.66
638.06	13427.05
638.413	13468.85
638.767	13354.06
639.121	13422.08
639.474	13280.39
639.828	13271.8
640.181	13313.38
640.534	13370.55
640.888	13298.92
641.241	13170.78
641.594	13244
641.947	13268.86
642.301	13266.83
642.654	13316.77
643.007	13317.9
643.36	13202.2
643.713	13258.92
644.066	13244.45
644.419	13180.73
644.771	13128.3
645.124	13025.7
645.477	12973.05
645.83	12846.05
646.182	12896.44
646.535	12755.65
646.888	12841.07
647.24	12705.03
647.593	12863.67
647.945	12824.13
648.298	12770.34
648.65	12638.59
649.002	12674.07
649.355	12764.24
649.707	12759.04
650.059	12757.24
650.411	12965.37
650.763	12895.08
651.115	13105.02
651.467	12992.94
651.819	13009.43
652.171	13042.88
652.523	12920.17
652.875	13031.8
653.227	12951.13
653.578	13004.46
653.93	13020.51
654.282	12925.14
654.633	12965.37
654.985	13004.91
655.337	13053.5
655.688	12962.43
656.039	13075.42
656.391	13000.62
656.742	13001.07
657.094	13009.43
657.445	13085.36
657.796	13050.33
658.147	13116.77
658.498	13055.76
658.849	13074.51
659.2	13057.11
659.551	13016.44
659.902	13118.81
660.253	13084.23
660.604	13036.1
660.955	13031.35
661.306	13126.04
661.656	13080.16
662.007	13089.43
662.358	13084.46
662.708	13035.65
663.059	13103.21
663.409	13039.26
663.76	13104.57
664.11	13117.68
664.461	13115.19
664.811	13146.15
665.161	13071.8
665.511	13024.57
665.862	13156.32
666.212	13156.32
666.562	13092.14
666.912	13116.32
667.262	13127.62
667.612	13174.17
667.962	13095.53
668.312	13142.31
668.662	13208.75
669.011	13059.15
669.361	13097.11
669.711	13139.15
670.06	13056.21
670.41	13022.54
670.76	13092.14
671.109	13100.95
671.459	12988.19
671.808	12950.45
672.157	13122.2
672.507	13020.96
672.856	12971.92
673.205	13014.4
673.554	13077.23
673.904	12943.22
674.253	13060.05
674.602	12933.95
674.951	12804.24
675.3	12754.07
675.649	12929.66
675.998	12928.98
676.346	12929.43
676.695	12922.65
677.044	12849.21
677.393	12824.35
677.741	12869.77
678.09	12882.66
678.438	12791.36
678.787	12846.5
679.135	12810.79
679.484	12712.49
679.832	12711.81
680.181	12744.58
680.529	12769.89
680.877	12810.12
681.225	12735.09
681.573	12854.41
681.922	12658.03
682.27	12682.89
682.618	12545.72
682.966	12628.65
683.314	12626.62
683.661	12576.67
684.009	12541.42
684.357	12422.78
684.705	12439.5
685.053	12445.38
685.4	12481.76
685.748	12333.07
686.095	12418.94
686.443	12353.63
686.79	12321.31
687.138	12299.39
687.485	12376
687.832	12182.34
688.18	12223.69
688.527	12133.52
688.874	12127.87
689.221	12164.03
689.568	12084.26
689.915	12060.3
690.262	11959.29
690.609	11988.67
690.956	11960.42
691.303	11952.28
691.65	11933.98
691.997	11818.73
692.344	11782.8
692.69	11769.24
693.037	11800.88
693.383	11649.92
693.73	11660.31
694.077	11552.75
694.423	11529.47
694.769	11511.62
695.116	11545.06
695.462	11439.3
695.808	11416.71
696.155	11493.99
696.501	11291.51
696.847	11420.55
697.193	11249.25
697.539	11333.09
697.885	11157.5
698.231	11152.31
698.577	11147.56
698.923	11110.27
699.269	11076.15
699.614	10990.95
699.96	10973.1
700.306	11043.83
700.651	10947.11
700.997	10894.01
701.342	10842.03
701.688	10787.34
702.033	10768.13
702.379	10767.01
702.724	10611.08
703.069	10670.51
703.415	10607.91
703.76	10532.89
704.105	10566.33
704.45	10562.04
704.795	10418.77
705.14	10462.83
705.485	10375.15
705.83	10373.12
706.175	10301.25
706.52	10317.07
706.865	10293.57
707.209	10315.72
707.554	10255.61
707.899	10259.67
708.243	10140.58
708.588	10141.03
708.932	10065.33
709.277	10085.67
709.621	10088.38
709.966	10003.64
710.31	10021.26
710.654	9972.45
710.998	9941.26
711.342	9941.26
711.687	9947.37
712.031	9915.73
712.375	9822.17
712.719	9799.8
713.063	9852.9
713.407	9826.01
713.75	9734.94
714.094	9798.67
714.438	9775.39
714.782	9731.55
715.125	9666.02
715.469	9764.09
715.812	9645
716.156	9590.76
716.499	9607.26
716.843	9705.56
717.186	9543.31
717.53	9619.69
717.873	9582.18
718.216	9576.3
718.559	9487.04
718.902	9501.95
719.246	9474.61
719.589	9444.33
719.932	9465.57
720.275	9425.35
720.617	9449.07
720.96	9467.83
721.303	9425.35
721.646	9446.36
721.989	9323.43
722.331	9381.5
722.674	9318.23
723.016	9375.86
723.359	9314.16
723.701	9365.23
724.044	9305.8
724.386	9277.78
724.729	9285.01
725.071	9306.48
725.413	9294.05
725.755	9322.52
726.097	9229.64
726.439	9160.95
726.782	9234.39
727.124	9306.48
727.465	9211.11
727.807	9242.98
728.149	9160.49
728.491	9172.47
728.833	9233.03
729.175	9216.76
729.516	9206.14
729.858	9139.48
730.199	9168.18
730.541	9201.85
730.882	9192.81
731.224	9216.31
731.565	9120.04
731.906	9144.67
732.248	9200.27
732.589	9147.84
732.93	9103.32
733.271	9153.49
733.612	9172.02
733.953	9094.05
734.294	9078.46
734.635	9108.29
734.976	9172.92
735.317	9119.14
735.658	9158.46
735.999	9138.35
736.339	9062.19
736.68	9097.67
737.021	9133.83
737.361	9139.93
737.702	9112.13
738.042	9142.87
738.383	9101.06
738.723	9142.41
739.063	9194.62
739.404	9254.05
739.744	9213.37
740.084	9241.85
740.424	9176.76
740.764	9259.02
741.104	9263.99
741.444	9223.32
741.784	9211.34
742.124	9261.51
742.464	9277.55
742.804	9301.28
743.143	9275.97
743.483	9377.44
743.823	9329.3
744.162	9327.72
744.502	9452.24
744.841	9395.29
745.181	9499.24
745.52	9523.2
745.86	9505.57
746.199	9561.16
746.538	9529.75
746.877	9643.64
747.216	9654.27
747.556	9742.63
747.895	9787.6
748.234	9769.52
748.573	9810.65
748.911	9830.53
749.25	9931.09
749.589	9955.95
749.928	10040.7
750.267	10187.13
750.605	10216.06
750.944	10267.58
751.283	10342.16
751.621	10453.57
751.96	10482.04
752.298	10562.72
752.636	10682.26
752.975	10769.72
753.313	10850.62
753.651	11030.5
753.989	10978.75
754.327	11150.05
754.666	11175.58
755.004	11469.36
755.342	11439.76
755.679	11642.46
756.017	11759.3
756.355	11900.08
756.693	11998.39
757.031	12140.75
757.368	12227.76
757.706	12383.91
758.044	12499.16
758.381	12624.13
758.719	12775.09
759.056	12971.47
759.394	13104.34
759.731	13171.01
760.068	13317.45
760.405	13582.52
760.743	13619.36
761.08	13838.34
761.417	13829.75
761.754	14069.29
762.091	14267.03
762.428	14416.85
762.765	14536.4
763.102	14705.43
763.438	14822.27
763.775	14897.29
764.112	15097.51
764.449	15333.21
764.785	15332.76
765.122	15515.81
765.458	15615.69
765.795	15741.79
766.131	15977.49
766.467	16070.82
766.804	16163.7
767.14	16250.7
767.476	16375.67
767.812	16442.79
768.148	16628.09
768.485	16753.51
768.821	16765.49
769.157	16934.75
769.492	17114.18
769.828	17149.66
770.164	17310.34
770.5	17312.82
770.836	17373.38
771.171	17458.58
771.507	17454.51
771.842	17571.12
772.178	17592.81
772.513	17756.88
772.849	17804.56
773.184	17849.3
773.519	17918.68
773.855	17997.1
774.19	18018.11
774.525	18148.73
774.86	18081.39
775.195	18207.94
775.53	18248.39
775.865	18230.31
776.2	18222.63
776.535	18157.32
776.87	18314.38
777.205	18282.74
777.539	18184.66
777.874	18376.07
778.209	18254.27
778.543	18356.41
778.878	18318.22
779.212	18426.24
779.547	18294.94
779.881	18450.42
780.215	18390.53
780.55	18498.55
780.884	18471.21
781.218	18356.41
781.552	18448.84
781.886	18424.66
782.22	18419.46
782.554	18491.55
782.888	18324.09
783.222	18281.16
783.556	18251.78
783.889	18242.74
784.223	18183.31
784.557	18171.56
784.89	18204.32
785.224	18156.42
785.557	18138.56
785.891	18125.91
786.224	18154.38
786.558	18110.31
786.891	18040.03
787.224	18066.02
787.557	18035.97
787.891	17964.33
788.224	18007.94
788.557	18042.52
788.89	18039.58
789.223	17901.73
789.556	17784.9
789.888	17849.98
790.221	17802.98
790.554	17768.85
790.887	17631.68
791.219	17607.05
791.552	17690.89
791.884	17635.75
792.217	17606.15
792.549	17565.24
792.882	17452.93
793.214	17411.58
793.546	17472.14
793.879	17331.58
794.211	17231.47
794.543	17364.57
794.875	17231.24
795.207	17314.4
795.539	17115.54
795.871	17251.58
796.203	17135.88
796.535	17058.82
796.867	16971.59
797.198	16947.41
797.53	16981.3
797.862	16946.05
798.193	16912.38
798.525	16717.36
798.856	16931.14
799.188	16591.94
799.519	16592.84
799.85	16577.47
800.182	16602.11
800.513	16640.52
800.844	16425.61
801.175	16612.95
801.506	16531.6
801.837	16447.76
802.168	16373.64
802.499	16326.86
802.83	16288.67
803.161	16275.11
803.491	16271.95
803.822	16157.82
804.153	16200.76
804.483	16078.5
804.814	16121.21
805.145	16060.2
805.475	16034.44
805.805	16007.09
806.136	15988.11
806.466	15948.79
806.796	16031.27
807.126	15800.32
807.457	15825.18
807.787	15752.86
808.117	15741.79
808.447	15647.33
808.777	15769.36
809.107	15668.57
809.436	15556.71
809.766	15509.93
810.096	15504.96
810.426	15482.36
810.755	15464.96
811.085	15444.62
811.414	15438.29
811.744	15241.46
812.073	15242.37
812.403	15264.51
812.732	15210.5
813.061	15304.51
813.39	15129.6
813.719	15158.53
814.049	15233.55
814.378	15099.77
814.707	15004.41
815.036	15105.87
815.365	15036.95
815.693	14865.65
816.022	14963.73
816.351	14827.46
816.68	14791.08
817.008	14869.04
817.337	14729.39
817.665	14678.99
817.994	14751.31
818.322	14631.54
818.651	14642.84
818.979	14531.65
819.307	14569.16
819.636	14605.32
819.964	14550.18
820.292	14605.77
820.62	14583.18
820.948	14468.15
821.276	14565.32
821.604	14528.26
821.932	14513.8
822.259	14508.15
822.587	14517.41
822.915	14405.33
823.243	14483.74
823.57	14541.14
823.898	14508.38
824.225	14392.9
824.553	14465.89
824.88	14412.11
825.207	14496.85
825.535	14408.72
825.862	14537.3
826.189	14495.72
826.516	14532.78
826.843	14449.17
827.17	14548.15
827.497	14506.57
827.824	14495.27
828.151	14517.64
828.478	14498.21
828.805	14599.9
829.131	14482.16
829.458	14492.78
829.785	14422.95
830.111	14374.59
830.438	14532.33
830.764	14483.74
831.09	14603.29
831.417	14394.48
831.743	14481.03
832.069	14502.5
832.395	14413.01
832.722	14458.43
833.048	14410.75
833.374	14450.3
833.7	14322.39
834.026	14352
834.351	14442.39
834.677	14359.23
835.003	14353.35
835.329	14321.04
835.654	14390.64
835.98	14352.22
836.306	14295.27
836.631	14211.89
836.956	14310.64
837.282	14368.72
837.607	14187.71
837.932	14204.88
838.258	14136.86
838.583	14163.98
838.908	14038.33
839.233	14134.6
839.558	14020.25
839.883	13981.38
840.208	13947.49
840.533	13914.27
840.858	14007.15
841.182	13975.96
841.507	13952.23
841.832	13862.74
842.156	13829.98
842.481	13828.39
842.805	13809.41
843.13	13789.98
843.454	13736.87
843.778	13823.87
844.103	13693.03
844.427	13676.53
844.751	13747.04
845.075	13606.7
845.399	13612.58
845.723	13448.29
846.047	13483.54
846.371	13425.01
846.695	13425.01
847.019	13346.37
847.343	13270.89
847.666	13103.89
847.99	13145.7
848.313	13153.83
848.637	13088.3
848.96	13100.73
849.284	13018.7
849.607	12963.11
849.931	12848.76
850.254	12825.48
850.577	12742.32
850.9	12673.85
851.223	12678.59
851.546	12520.41
851.869	12478.6
852.192	12545.94
852.515	12420.97
852.838	12338.94
853.161	12367.64
853.483	12272.95
853.806	12206.29
854.129	12294.42
854.451	12191.6
854.774	12122.22
855.096	12146.4
855.419	12014.88
855.741	12048.1
856.063	11987.54
856.385	11891.04
856.708	11906.86
857.03	11865.51
857.352	11950.02
857.674	11811.72
857.996	11836.81
858.318	11757.26
858.64	11782.57
858.961	11635.68
859.283	11582.58
859.605	11657.83
859.926	11529.92
860.248	11557.27
860.57	11543.71
860.891	11551.39
861.212	11475.69
861.534	11391.17
861.855	11376.71
862.176	11398.63
862.498	11365.41
862.819	11324.28
863.14	11324.5
863.461	11332.87
863.782	11278.86
864.103	11289.03
864.424	11183.94
864.745	11240.89
865.065	11184.85
865.386	11201.57
865.707	11216.48
866.027	11190.5
866.348	11210.61
866.668	11067.11
866.989	11114.57
867.309	11042.25
867.63	11056.49
867.95	11027.56
868.27	10962.93
868.59	10935.81
868.91	10976.04
869.23	10908.7
869.55	10869.15
869.87	10912.09
870.19	10859.66
870.51	10854.23
870.83	10910.05
871.15	10825.53
871.469	10793.45
871.789	10807.68
872.109	10807.91
872.428	10664.41
872.748	10786.89
873.067	10736.05
873.386	10733.11
873.706	10771.75
874.025	10579.44
874.344	10616.73
874.663	10653.34
874.982	10596.84
875.301	10598.65
875.62	10584.86
875.939	10501.7
876.258	10560.91
876.577	10569.72
876.896	10525.88
877.214	10495.6
877.533	10485.43
877.852	10479.78
878.17	10416.05
878.489	10390.74
878.807	10431.42
879.125	10329.5
879.444	10380.35
879.762	10337.64
880.08	10377.41
880.398	10339.45
880.716	10332.89
881.034	10256.51
881.352	10309.39
881.67	10312.33
881.988	10251.54
882.306	10165.44
882.624	10228.04
882.941	10156.17
883.259	10063.97
883.577	10133.12
883.894	10089.28
884.212	10080.24
884.529	10058.1
884.846	10049.74
885.164	9970.64
885.481	9987.14
885.798	10029.85
886.115	9898.1
886.432	9922.73
886.75	9872.79
887.067	9878.89
887.383	9837.54
887.7	9830.76
888.017	9774.71
888.334	9813.13
888.651	9715.06
888.967	9684.55
889.284	9666.24
889.6	9670.31
889.917	9562.97
890.233	9596.64
890.55	9535.4
890.866	9557.55
891.182	9508.28
891.498	9467.15
891.815	9483.65
892.131	9409.53
892.447	9346.93
892.763	9329.75
893.079	9321.85
893.395	9301.05
893.71	9270.77
894.026	9268.51
894.342	9226.93
894.657	9182.87
894.973	9220.15
895.289	9138.12
895.604	9134.51
895.92	9085.47
896.235	9062.19
896.55	9022.42
896.865	9045.02
897.181	8995.75
897.496	8962.98
897.811	8925.25
898.126	8863.55
898.441	8819.03
898.756	8828.75
899.071	8740.62
899.386	8797.79
899.7	8685.03
900.015	8655.42
900.33	8561.64
900.644	8602.32
900.959	8502.21
901.273	8512.6
901.588	8501.08
901.902	8554.63
902.216	8485.26
902.531	8432.6
902.845	8373.4
903.159	8312.38
903.473	8278.48
903.787	8304.02
904.101	8229.67
904.415	8202.33
904.729	8194.42
905.042	8178.82
905.356	8075.78
905.67	8094.31
905.984	8160.52
906.297	8060.18
906.611	7988.77
906.924	8015.66
907.237	8002.11
907.551	7961.2
907.864	7957.59
908.177	7918.04
908.491	7840.98
908.804	7839.17
909.117	7805.5
909.43	7756.69
909.743	7685.05
910.056	7680.31
910.368	7656.13
910.681	7585.85
910.994	7557.15
911.307	7535.68
911.619	7523.93
911.932	7499.52
912.244	7455.91
912.557	7448
912.869	7381.56
913.181	7391.95
913.494	7337.72
913.806	7252.75
914.118	7335.91
914.43	7258.85
914.742	7230.15
915.054	7196.03
915.366	7162.58
915.678	7135.01
915.99	7065.86
916.302	7035.8
916.613	7039.65
916.925	6999.42
917.236	7040.32
917.548	6977.95
917.859	6979.76
918.171	6923.72
918.482	6873.32
918.794	6899.76
919.105	6839.65
919.416	6764.4
919.727	6780.67
920.038	6765.98
920.349	6732.31
920.66	6632.42
920.971	6640.11
921.282	6681.46
921.593	6591.3
921.903	6530.51
922.214	6509.49
922.525	6526.44
922.835	6447.12
923.146	6463.62
923.456	6401.92
923.767	6426.33
924.077	6388.82
924.387	6383.17
924.697	6259.78
925.008	6287.12
925.318	6249.38
925.628	6284.86
925.938	6201.25
926.248	6175.49
926.558	6122.38
926.867	6108.14
927.177	6170.97
927.487	6100.01
927.796	6019.33
928.106	6060.91
928.416	6030.86
928.725	6006.23
929.034	5969.17
929.344	6001.25
929.653	5975.04
929.962	5846.23
930.271	5870.64
930.581	5857.76
930.89	5760.36
931.199	5782.5
931.508	5748.61
931.817	5736.63
932.125	5747.02
932.434	5709.74
932.743	5648.95
933.051	5620.7
933.36	5583.19
933.669	5650.3
933.977	5576.18
934.286	5579.12
934.594	5521.72
934.902	5473.36
935.21	5500.25
935.519	5496.64
935.827	5452.79
936.135	5457.54
936.443	5368.28
936.751	5395.39
937.059	5376.41
937.367	5349.07
937.674	5307.26
937.982	5316.3
938.29	5287.6
938.597	5301.61
938.905	5183.2
939.213	5180.71
939.52	5177.55
939.827	5172.35
940.135	5110.66
940.442	5109.3
940.749	5108.62
941.056	5109.75
941.363	5025.91
941.67	5043.99
941.977	4938.23
942.284	4935.07
942.591	4990.21
942.898	4921.96
943.205	4923.99
943.511	4928.97
943.818	4888.06
944.125	4859.59
944.431	4850.32
944.738	4799.7
945.044	4807.84
945.35	4748.41
945.657	4737.11
945.963	4741.17
946.269	4681.97
946.575	4690.78
946.881	4669.09
947.187	4661.85
947.493	4633.38
947.799	4610.33
948.105	4590.67
948.41	4572.82
948.716	4568.52
949.022	4558.35
949.327	4554.74
949.633	4493.72
949.938	4498.02
950.244	4489.88
950.549	4450.33
950.854	4442.88
951.16	4391.13
951.465	4350.22
951.77	4377.34
952.075	4333.05
952.38	4330.34
952.685	4305.93
952.99	4265.48
953.294	4267.06
953.599	4267.06
953.904	4256.67
954.209	4204.47
954.513	4189.55
954.818	4187.07
955.122	4187.29
955.426	4143.22
955.731	4156.78
956.035	4115.88
956.339	4067.75
956.643	4074.53
956.948	4102.1
957.252	4029.56
957.556	3999.27
957.86	3989.1
958.163	3960.63
958.467	4011.48
958.771	3976.45
959.075	3958.14
959.378	3902.55
959.682	3927.18
959.985	3884.02
960.289	3887.64
960.592	3826.85
960.896	3824.14
961.199	3843.57
961.502	3852.84
961.805	3780.97
962.108	3799.28
962.411	3743.01
962.714	3750.24
963.017	3724.93
963.32	3711.37
963.623	3712.95
963.926	3674.08
964.228	3662.79
964.531	3654.88
964.833	3661.88
965.136	3605.61
965.438	3561.77
965.741	3566.97
966.043	3560.87
966.345	3528.33
966.648	3567.19
966.95	3540.08
967.252	3529.68
967.554	3511.83
967.856	3460.3
968.158	3465.73
968.46	3449.46
968.761	3442.9
969.063	3436.58
969.365	3397.71
969.666	3359.52
969.968	3349.8
970.269	3355
970.571	3367.2
970.872	3301.21
971.174	3325.62
971.475	3338.95
971.776	3273.64
972.077	3252.17
972.378	3276.13
972.679	3263.02
972.98	3248.11
973.281	3223.93
973.582	3182.12
973.883	3203.81
974.183	3176.02
974.484	3160.2
974.785	3167.43
975.085	3109.81
975.386	3132.63
975.686	3105.51
975.986	3081.56
976.287	3065.74
976.587	3070.48
976.887	3029.58
977.187	3063.7
977.487	3048.56
977.787	3000.43
978.087	2989.36
978.387	3013.08
978.687	2964.95
978.987	2976.48
979.286	2941.45
979.586	2908.23
979.885	2932.86
980.185	2930.37
980.484	2885.63
980.784	2882.47
981.083	2870.04
981.382	2868.23
981.682	2872.75
981.981	2848.12
982.28	2792.53
982.579	2805.41
982.878	2806.99
983.177	2801.34
983.475	2784.84
983.774	2718.18
984.073	2714.11
984.372	2709.59
984.67	2720.89
984.969	2719.53
985.267	2719.53
985.566	2715.92
985.864	2651.29
986.162	2636.82
986.461	2668.91
986.759	2632.3
987.057	2634.79
987.355	2570.38
987.653	2627.78
987.951	2589.37
988.249	2562.25
988.547	2584.4
988.844	2587.56
989.142	2550.72
989.44	2549.82
989.737	2480.9
990.035	2470.5
990.332	2457.84
990.63	2497.39
990.927	2464.17
991.224	2457.17
991.521	2435.92
991.819	2464.4
992.116	2461.23
992.413	2409.26
992.71	2432.76
993.006	2402.93
993.303	2350.05
993.6	2381.91
993.897	2371.29
994.193	2350.05
994.49	2330.39
994.787	2355.47
995.083	2287.68
995.379	2309.83
995.676	2281.58
995.972	2264.86
996.268	2259.66
996.565	2281.13
996.861	2265.76
997.157	2249.04
997.453	2226.21
997.749	2219.66
998.044	2204.07
998.34	2202.03
998.636	2176.04
998.932	2170.17
999.227	2159.77
999.523	2144.41
999.818	2151.19
1000.114	2113.45
1000.409	2074.35
1000.704	2126.33
1001	2089.27
1001.295	2068.02
1001.59	2088.82
1001.885	2059.21
1002.18	2051.08
1002.475	2029.38
1002.77	2030.06
1003.065	2020.12
1003.359	1975.37
1003.654	2009.5
1003.949	2006.78
1004.243	1960
1004.538	1946.67
1004.832	1948.93
1005.127	1929.05
1005.421	1932.89
1005.715	1924.98
1006.009	1909.38
1006.304	1914.36
1006.598	1851.76
1006.892	1870.06
1007.186	1860.12
1007.48	1855.83
1007.773	1837.07
1008.067	1841.59
1008.361	1841.82
1008.655	1790.29
1008.948	1782.61
1009.242	1824.64
1009.535	1768.15
1009.829	1765.43
1010.122	1766.79
1010.415	1741.48
1010.708	1732.21
1011.001	1717.75
1011.295	1721.82
1011.588	1708.03
1011.881	1665.55
1012.173	1659
1012.466	1673.23
1012.759	1652.67
1013.052	1648.6
1013.344	1651.31
1013.637	1645.44
1013.93	1636.85
1014.222	1614.25
1014.514	1610.64
1014.807	1611.54
1015.099	1602.27
1015.391	1592.33
1015.683	1551.88
1015.976	1586.68
1016.268	1534.25
1016.56	1522.95
1016.851	1527.02
1017.143	1525.44
1017.435	1520.92
1017.727	1501.03
1018.018	1467.59
1018.31	1482.5
1018.602	1465.55
1018.893	1467.36
1019.185	1467.14
1019.476	1445.22
1019.767	1451.32
1020.058	1436.63
1020.35	1420.81
1020.641	1423.97
1020.932	1390.98
1021.223	1406.8
1021.514	1385.78
1021.804	1349.17
1022.095	1363.41
1022.386	1361.38
1022.677	1342.85
1022.967	1349.4
1023.258	1333.58
1023.548	1303.98
1023.839	1338.33
1024.129	1309.85
1024.419	1302.85
1024.709	1296.07
1025	1294.49
1025.29	1271.89
1025.58	1259.91
1025.87	1235.96
1026.16	1263.3
1026.449	1272.79
1026.739	1226.01
1027.029	1225.79
1027.319	1230.53
1027.608	1220.14
1027.898	1192.79
1028.187	1203.64
1028.477	1202.51
1028.766	1184.43
1029.055	1172.68
1029.344	1201.15
1029.634	1148.95
1029.923	1157.31
1030.212	1155.73
1030.501	1124.55
1030.79	1134.94
1031.078	1121.83
1031.367	1112.57
1031.656	1091.1
1031.945	1103.08
1032.233	1093.36
1032.522	1082.74
1032.81	1039.13
1033.099	1063.31
1033.387	1065.57
1033.675	1053.59
1033.963	1037.54
1034.251	1025.34
1034.54	1026.92
1034.828	1036.64
1035.116	1030.99
1035.403	1004.32
1035.691	1030.31
1035.979	1025.11
1036.267	997.77
1036.554	996.64
1036.842	968.84
1037.129	977.21
1037.417	974.72
1037.704	960.03
1037.992	976.08
1038.279	972.69
1038.566	950.99
1038.853	950.99
1039.14	950.99
