Data from hue_200_FLMS001491_00026.txt Node
Date: Tue Feb 07 16:43:03 GMT 2017
User: dcchb
Spectrometer: FLMS00149
Trigger mode: 0
Integration Time (sec): 2.000000E-2
Scans to average: 10
Electric dark correction enabled: true
Nonlinearity correction enabled: false
Boxcar width: 0
XAxis mode: Wavelengths
Number of Pixels in Spectrum: 2048
>>>>>Begin Spectral Data<<<<<
341.393	-18.05
341.776	-18.05
342.16	-18.05
342.543	-54.89
342.927	-45.39
343.31	-75.22
343.693	-71.61
344.077	-63.47
344.46	-57.6
344.843	-53.76
345.226	-33.87
345.61	-32.29
345.993	-15.56
346.376	-25.28
346.759	30.08
347.142	21.95
347.525	35.51
347.908	59.46
348.291	66.92
348.674	88.39
349.057	126.35
349.44	142.4
349.823	150.31
350.206	148.05
350.588	200.25
350.971	194.15
351.354	207.48
351.737	214.03
352.119	252.23
352.502	263.07
352.884	266.69
353.267	284.54
353.65	301.26
354.032	301.49
354.414	291.32
354.797	306.91
355.179	324.09
355.562	322.28
355.944	321.15
356.326	324.09
356.709	300.36
357.091	315.05
357.473	337.19
357.855	326.35
358.238	348.04
358.62	337.65
359.002	361.6
359.384	355.27
359.766	340.58
360.148	348.72
360.53	331.09
360.912	330.87
361.294	337.42
361.676	342.84
362.057	327.03
362.439	321.38
362.821	316.86
363.203	319.79
363.584	310.98
363.966	343.3
364.348	302.62
364.729	329.51
365.111	310.75
365.493	321.6
365.874	314.14
366.256	317.53
366.637	317.76
367.019	321.83
367.4	294.26
367.781	319.57
368.163	310.75
368.544	312.11
368.925	295.84
369.306	315.73
369.688	302.39
370.069	312.79
370.45	300.36
370.831	308.49
371.212	320.25
371.593	309.62
371.974	301.49
372.355	318.44
372.736	305.56
373.117	330.87
373.498	327.7
373.879	322.28
374.26	313.24
374.641	298.78
375.021	316.63
375.402	334.93
375.783	312.11
376.163	310.08
376.544	325.22
376.925	301.72
377.305	290.42
377.686	323.18
378.066	323.86
378.447	331.09
378.827	326.8
379.208	332.9
379.588	316.18
379.968	337.87
380.349	323.86
380.729	324.09
381.109	348.95
381.489	329.51
381.87	334.71
382.25	337.65
382.63	354.82
383.01	330.87
383.39	344.2
383.77	342.17
384.15	331.54
384.53	325.22
384.91	341.94
385.29	333.13
385.67	342.39
386.049	327.93
386.429	334.48
386.809	344.88
387.189	348.95
387.568	339.45
387.948	352.11
388.328	369.06
388.707	366.57
389.087	352.79
389.466	352.34
389.846	346.01
390.225	368.15
390.605	376.52
390.984	383.75
391.363	366.8
391.743	367.7
392.122	388.72
392.501	364.99
392.881	348.04
393.26	392.11
393.639	384.42
394.018	376.06
394.397	379.23
394.776	396.4
395.155	378.1
395.534	383.97
395.913	381.49
396.292	405.44
396.671	386.68
397.05	399.11
397.429	395.72
397.808	390.07
398.186	410.19
398.565	395.5
398.944	414.25
399.323	386.68
399.701	393.69
400.08	428.72
400.458	407.7
400.837	412.67
401.215	410.19
401.594	411.99
401.972	430.75
402.351	425.78
402.729	429.62
403.107	423.75
403.486	444.08
403.864	444.99
404.242	440.69
404.62	439.56
404.999	448.83
405.377	426.68
405.755	451.77
406.133	475.72
406.511	468.04
406.889	474.37
407.267	475.27
407.645	478.21
408.023	491.31
408.401	488.6
408.779	492.44
409.156	501.71
409.534	483.63
409.912	526.34
410.29	533.8
410.667	546.68
411.045	551.43
411.422	564.31
411.8	552.1
412.178	586.68
412.555	567.02
412.933	588.94
413.31	603.63
413.687	617.41
414.065	608.37
414.442	581.93
414.819	642.05
415.197	649.05
415.574	657.64
415.951	651.99
416.328	674.13
416.705	699.9
417.082	676.39
417.46	695.6
417.837	708.71
418.214	692.44
418.591	709.61
418.967	728.37
419.344	735.15
419.721	745.09
420.098	777.86
420.475	780.12
420.852	764.3
421.228	802.04
421.605	822.38
421.982	824.64
422.358	847.01
422.735	845.66
423.111	877.52
423.488	896.73
423.864	898.76
424.241	901.7
424.617	947.12
424.994	929.5
425.37	952.77
425.746	969.27
426.123	987.8
426.499	990.96
426.875	1011.53
427.251	1043.84
427.627	1077.74
428.003	1058.31
428.379	1074.12
428.756	1086.78
429.132	1107.57
429.507	1090.85
429.883	1112.09
430.259	1132.88
430.635	1124.29
431.011	1158.19
431.387	1198.64
431.763	1201.8
432.138	1208.36
432.514	1230.5
432.89	1245.42
433.265	1286.77
433.641	1303.95
434.016	1297.17
434.392	1371.74
434.767	1372.87
435.143	1420.33
435.518	1420.1
435.894	1440.44
436.269	1492.19
436.644	1511.4
437.02	1521.8
437.395	1540.78
437.77	1593.66
438.145	1589.59
438.52	1613.55
438.895	1675.92
439.271	1682.7
439.646	1754.78
440.021	1753.88
440.395	1734.67
440.77	1776.48
441.145	1777.38
441.52	1884.05
441.895	1866.42
442.27	1878.17
442.645	1889.24
443.019	1954.1
443.394	1912.97
443.769	1931.28
444.143	1968.11
444.518	1983.25
444.892	1975.12
445.267	2058.28
445.641	2064.38
446.016	2098.05
446.39	2088.11
446.764	2129.24
447.139	2090.82
447.513	2146.41
447.887	2124.49
448.262	2168.78
448.636	2175.79
449.01	2198.84
449.384	2230.03
449.758	2252.85
450.132	2289.69
450.506	2292.85
450.88	2333.3
451.254	2300.98
451.628	2363.81
452.002	2374.66
452.376	2406.74
452.75	2416.01
453.123	2404.03
453.497	2467.53
453.871	2461.66
454.244	2555.44
454.618	2572.16
454.992	2546.63
455.365	2595.21
455.739	2667.53
456.112	2672.73
456.486	2678.6
456.859	2722.22
457.232	2776.23
457.606	2763.57
457.979	2783.46
458.352	2898.03
458.725	2870.91
459.099	2891.7
459.472	2917.92
459.845	2983.45
460.218	2994.07
460.591	3040.4
460.964	3046.05
461.337	3137.57
461.71	3174.41
462.083	3241.07
462.456	3205.37
462.829	3211.92
463.201	3282.2
463.574	3304.35
463.947	3347.28
464.32	3412.82
464.692	3458.24
465.065	3454.4
465.438	3508.64
465.81	3552.48
466.183	3615.53
466.555	3686.03
466.928	3733.04
467.3	3706.37
467.672	3779.36
468.045	3853.49
468.417	3839.7
468.789	3921.28
469.161	3959.47
469.534	3978
469.906	4044.44
470.278	4109.98
470.65	4159.47
471.022	4192.46
471.394	4280.14
471.766	4312.23
472.138	4382.06
472.51	4483.53
472.882	4470.19
473.253	4521.94
473.625	4627.25
473.997	4696.63
474.369	4745.44
474.74	4753.12
475.112	4844.87
475.484	4938.2
475.855	4999.9
476.227	5091.65
476.598	5220.23
476.97	5230.17
477.341	5290.51
477.713	5382.49
478.084	5426.55
478.455	5585.87
478.827	5572.54
479.198	5682.82
479.569	5764.17
479.94	5852.53
480.311	5933.21
480.682	6012.53
481.053	6162.35
481.424	6296.13
481.795	6266.08
482.166	6313.99
482.537	6415.45
482.908	6572.28
483.279	6625.84
483.65	6692.06
484.021	6837.36
484.391	6913.74
484.762	6948.09
485.133	7013.86
485.503	7039.39
485.874	7225.6
486.244	7288.2
486.615	7387.63
486.985	7470.79
487.356	7624.69
487.726	7648.87
488.097	7789.88
488.467	7756.21
488.837	7871.69
489.207	8063.77
489.578	8111
489.948	8235.29
490.318	8275.74
490.688	8289.53
491.058	8405.46
491.428	8552.57
491.798	8582.85
492.168	8728.16
492.538	8714.83
492.908	8823.98
493.278	8916.63
493.648	8854.48
494.017	9035.27
494.387	9091.31
494.757	9135.38
495.126	9209.5
495.496	9170.63
495.866	9193.91
496.235	9354.81
496.605	9431.19
496.974	9381.93
497.344	9476.84
497.713	9553.68
498.082	9547.12
498.452	9665.76
498.821	9686.1
499.19	9637.06
499.559	9735.59
499.928	9811.3
500.298	9750.28
500.667	9880.45
501.036	9831.41
501.405	9920.22
501.774	9936.94
502.143	10012.19
502.512	10009.48
502.88	10103.94
503.249	10045.64
503.618	10118.86
503.987	10059.65
504.356	10146.88
504.724	10172.64
505.093	10186.43
505.462	10258.29
505.83	10244.73
506.199	10288.35
506.567	10454.44
506.936	10380.32
507.304	10395.69
507.672	10445.63
508.041	10516.81
508.409	10484.95
508.777	10545.97
509.145	10648.56
509.514	10542.12
509.882	10582.8
510.25	10622.57
510.618	10641.78
510.986	10634.1
511.354	10675.45
511.722	10715.68
512.09	10784.38
512.458	10699.41
512.826	10676.36
513.193	10789.12
513.561	10786.86
513.929	10823.92
514.297	10900.76
514.664	10844.49
515.032	10816.02
515.4	10842
515.767	10894.88
516.135	11030.25
516.502	10942.34
516.869	10997.25
517.237	10979.85
517.604	10901.66
517.972	10964.03
518.339	10986.18
518.706	10917.03
519.073	10992.06
519.44	10922.23
519.808	11033.64
520.175	10985.73
520.542	11059.62
520.909	11066.86
521.276	10991.15
521.643	11031.83
522.009	11027.76
522.376	11096.69
522.743	11133.07
523.11	11180.07
523.477	11202.9
523.843	11164.25
524.21	11180.3
524.577	11226.85
524.943	11239.28
525.31	11190.47
525.676	11190.24
526.043	11318.37
526.409	11201.99
526.776	11253.97
527.142	11172.62
527.508	11276.34
527.874	11224.59
528.241	11145.95
528.607	11189.79
528.973	11242.44
529.339	11147.31
529.705	11192.28
530.071	11180.53
530.437	11157.02
530.803	11183.91
531.169	11222.33
531.535	11131.49
531.901	11107.53
532.267	11096.01
532.632	11074.99
532.998	11070.92
533.364	11034.09
533.73	11004.03
534.095	11056.46
534.461	11031.38
534.826	10910.48
535.192	10921.55
535.557	10927.88
535.923	10883.81
536.288	10803.36
536.653	10846.52
537.019	10729.01
537.384	10642.46
537.749	10704.61
538.114	10651.95
538.479	10573.99
538.845	10635.45
539.21	10468.23
539.575	10484.5
539.94	10539.41
540.305	10476.36
540.67	10373.09
541.034	10330.15
541.399	10267.33
541.764	10291.28
542.129	10285.41
542.494	10112.3
542.858	10204.05
543.223	10077.28
543.587	10159.31
543.952	10072.53
544.316	9980.56
544.681	9943.72
545.045	9920.9
545.41	9920.67
545.774	9942.82
546.138	9878.86
546.503	9736.04
546.867	9715.03
547.231	9713.45
547.595	9706.44
547.959	9693.56
548.324	9585.31
548.688	9571.08
549.052	9590.28
549.416	9472.55
549.779	9437.52
550.143	9421.25
550.507	9422.15
550.871	9343.06
551.235	9327.47
551.599	9301.48
551.962	9174.48
552.326	9240.46
552.689	9174.93
553.053	9041.37
553.417	9062.61
553.78	9133.35
554.143	9045.21
554.507	9066.68
554.87	9019
555.234	9056.97
555.597	8993.01
555.96	8904.88
556.323	8933.8
556.686	8913.47
557.05	8854.26
557.413	8833.02
557.776	8851.09
558.139	8794.83
558.502	8753.92
558.865	8747.37
559.228	8835.28
559.59	8752.34
559.953	8724.77
560.316	8777.88
560.679	8797.09
561.041	8720.02
561.404	8721.83
561.767	8756.41
562.129	8699.69
562.492	8734.71
562.854	8635.73
563.217	8648.84
563.579	8707.14
563.941	8703.75
564.304	8707.82
564.666	8703.08
565.028	8712.57
565.39	8702.17
565.753	8652
566.115	8710.53
566.477	8699.91
566.839	8665.34
567.201	8710.08
567.563	8648.61
567.925	8653.36
568.287	8718.9
568.648	8653.81
569.01	8738.1
569.372	8698.56
569.734	8739.23
570.095	8711.21
570.457	8737.2
570.819	8726.13
571.18	8720.93
571.542	8721.61
571.903	8737.65
572.265	8749.4
572.626	8764.09
572.987	8766.13
573.349	8745.34
573.71	8803.41
574.071	8746.24
574.432	8767.26
574.794	8866.01
575.155	8781.72
575.516	8720.02
575.877	8725
576.238	8745.34
576.599	8795.05
576.96	8792.79
577.32	8757.76
577.681	8819.23
578.042	8839.8
578.403	8781.49
578.763	8732
579.124	8882.28
579.485	8803.64
579.845	8818.1
580.206	8806.58
580.566	8807.48
580.927	8807.03
581.287	8844.09
581.648	8790.31
582.008	8816.52
582.368	8786.92
582.728	8770.19
583.089	8825.78
583.449	8788.72
583.809	8839.57
584.169	8913.47
584.529	8705.34
584.889	8821.49
585.249	8795.05
585.609	8757.99
585.969	8743.3
586.329	8740.82
586.688	8741.95
587.048	8791.21
587.408	8768.16
587.768	8713.25
588.127	8689.74
588.487	8654.94
588.846	8778.33
589.206	8666.02
589.565	8724.77
589.925	8731.1
590.284	8710.53
590.643	8738.56
591.003	8764.32
591.362	8800.25
591.721	8689.74
592.08	8728.39
592.44	8662.17
592.799	8720.7
593.158	8688.16
593.517	8672.12
593.876	8717.54
594.235	8691.78
594.593	8643.64
594.952	8702.62
595.311	8608.84
595.67	8701.04
596.029	8691.55
596.387	8742.62
596.746	8687.71
597.104	8613.81
597.463	8602.97
597.822	8745.34
598.18	8643.64
598.538	8634.6
598.897	8653.13
599.255	8553.7
599.613	8699.01
599.972	8578.56
600.33	8646.35
600.688	8665.79
601.046	8628.95
601.404	8613.59
601.762	8657.88
602.12	8683.19
602.478	8637.99
602.836	8650.65
603.194	8612.01
603.552	8603.19
603.91	8567.71
604.268	8666.02
604.625	8606.13
604.983	8647.03
605.341	8600.93
605.698	8697.43
606.056	8668.27
606.413	8615.39
606.771	8717.54
607.128	8634.38
607.485	8575.85
607.843	8602.29
608.2	8692.23
608.557	8698.33
608.914	8642.74
609.272	8687.94
609.629	8702.85
609.986	8636.19
610.343	8633.02
610.7	8754.15
611.057	8715.51
611.414	8639.35
611.771	8705.56
612.127	8706.01
612.484	8692.46
612.841	8742.62
613.198	8681.38
613.554	8696.3
613.911	8768.16
614.267	8691.78
614.624	8752.11
614.98	8797.09
615.337	8784.66
615.693	8794.37
616.05	8707.14
616.406	8843.64
616.762	8769.29
617.118	8760.7
617.475	8739.69
617.831	8820.36
618.187	8839.34
618.543	8840.25
618.899	8848.38
619.255	8816.97
619.611	8815.84
619.967	8799.34
620.323	8832.56
620.678	8840.93
621.034	8837.99
621.39	8781.94
621.746	8804.99
622.101	8885.22
622.457	8829.4
622.812	8796.63
623.168	8800.02
623.523	8856.07
623.879	8873.02
624.234	8816.29
624.589	8825.33
624.945	8874.15
625.3	8920.92
625.655	8846.8
626.01	8763.19
626.365	8819.01
626.72	8795.28
627.075	8809.06
627.43	8791.66
627.785	8790.53
628.14	8807.71
628.495	8812.23
628.85	8766.13
629.205	8801.15
629.559	8834.82
629.914	8744.43
630.269	8794.37
630.623	8766.58
630.978	8796.86
631.332	8766.35
631.687	8734.71
632.041	8783.53
632.396	8717.99
632.75	8709.63
633.104	8680.7
633.459	8610.2
633.813	8673.92
634.167	8636.41
634.521	8641.16
634.875	8638.67
635.229	8617.43
635.583	8564.1
635.937	8605
636.291	8543.76
636.645	8603.64
636.999	8498.56
637.352	8579.69
637.706	8535.4
638.06	8560.26
638.413	8529.52
638.767	8508.73
639.121	8535.4
639.474	8495.4
639.828	8471.9
640.181	8541.27
640.534	8483.65
640.888	8456.98
641.241	8438
641.594	8465.34
641.947	8467.6
642.301	8442.07
642.654	8434.16
643.007	8467.15
643.36	8409.07
643.713	8386.02
644.066	8404.33
644.419	8398.23
644.771	8323.65
645.124	8269.87
645.477	8249.75
645.83	8241.39
646.182	8166.14
646.535	8186.48
646.888	8203.65
647.24	8181.73
647.593	8132.47
647.945	8153.49
648.298	8167.95
648.65	8074.84
649.002	8105.8
649.355	8076.43
649.707	8057.9
650.059	8194.62
650.411	8259.25
650.763	8267.38
651.115	8341.05
651.467	8321.39
651.819	8244.33
652.171	8336.08
652.523	8317.1
652.875	8288.4
653.227	8283.43
653.578	8302.18
653.93	8306.93
654.282	8290.43
654.633	8305.12
654.985	8323.65
655.337	8209.3
655.688	8236.65
656.039	8251.34
656.391	8292.01
656.742	8353.48
657.094	8273.03
657.445	8344.89
657.796	8337.66
658.147	8331.79
658.498	8268.51
658.849	8336.08
659.2	8316.87
659.551	8294.05
659.902	8299.02
660.253	8324.1
660.604	8353.48
660.955	8353.93
661.306	8294.05
661.656	8360.03
662.007	8329.53
662.358	8334.5
662.708	8337.44
663.059	8364.33
663.409	8329.98
663.76	8365.01
664.11	8343.76
664.461	8381.05
664.811	8362.75
665.161	8375.85
665.511	8319.36
665.862	8386.7
666.212	8379.92
666.562	8386.47
666.912	8333.37
667.262	8321.84
667.612	8335.63
667.962	8421.95
668.312	8373.37
668.662	8369.3
669.011	8375.18
669.361	8347.61
669.711	8333.37
670.06	8341.28
670.41	8340.15
670.76	8205.01
671.109	8378.11
671.459	8313.93
671.808	8353.48
672.157	8346.48
672.507	8237.1
672.856	8305.35
673.205	8301.96
673.554	8285.46
673.904	8282.3
674.253	8278
674.602	8294.05
674.951	8179.47
675.3	8116.65
675.649	8213.15
675.998	8261.51
676.346	8272.58
676.695	8251.79
677.044	8199.59
677.393	8215.18
677.741	8242.07
678.09	8103.09
678.438	8161.17
678.787	8161.4
679.135	8220.38
679.484	8104.45
679.832	8161.62
680.181	8108.74
680.529	8063.32
680.877	8074.17
681.225	8069.87
681.573	8120.04
681.922	8062.19
682.27	8010.21
682.618	8010.89
682.966	8002.53
683.314	7965.92
683.661	8033.94
684.009	7973.15
684.357	7938.12
684.705	7904
685.053	7899.03
685.4	7883.44
685.748	7893.83
686.095	7903.32
686.443	7766.83
686.79	7850.9
687.138	7810.22
687.485	7766.83
687.832	7769.77
688.18	7735.42
688.527	7735.19
688.874	7702.42
689.221	7694.06
689.568	7675.98
689.915	7659.94
690.262	7628.53
690.609	7620.17
690.956	7606.61
691.303	7577.68
691.65	7488.64
691.997	7468.08
692.344	7468.98
692.69	7454.3
693.037	7395.54
693.383	7386.27
693.73	7435.54
694.077	7417.23
694.423	7410.91
694.769	7302.89
695.116	7256.79
695.462	7355.99
695.808	7237.58
696.155	7233.74
696.501	7218.82
696.847	7152.61
697.193	7120.29
697.539	7094.53
697.885	7130.69
698.231	7022.89
698.577	7104.02
698.923	7034.19
699.269	7024.93
699.614	6930.24
699.96	6934.76
700.306	6901.54
700.651	6841.66
700.997	6876.68
701.342	6893.18
701.688	6828.78
702.033	6768.44
702.379	6767.99
702.724	6747.87
703.069	6808.66
703.415	6684.82
703.76	6699.51
704.105	6617.93
704.45	6634.43
704.795	6596.01
705.14	6633.98
705.485	6613.41
705.83	6517.6
706.175	6568.9
706.52	6555.56
706.865	6477.82
707.209	6493.19
707.554	6462.68
707.899	6474.89
708.243	6437.37
708.588	6413.64
708.932	6413.19
709.277	6365.74
709.621	6377.04
709.966	6335.23
710.31	6349.69
710.654	6257.49
710.998	6257.49
711.342	6349.24
711.687	6276.02
712.031	6200.77
712.375	6222.24
712.719	6265.85
713.063	6265.85
713.407	6237.83
713.75	6149.92
714.094	6172.52
714.438	6143.6
714.782	6123.94
715.125	6098.17
715.469	6165.06
715.812	6115.8
716.156	6021.79
716.499	6073.31
716.843	6118.06
717.186	6060.89
717.53	6104.95
717.873	6113.99
718.216	6084.61
718.559	6036.48
718.902	5985.41
719.246	5994.9
719.589	6039.42
719.932	5977.72
720.275	5984.73
720.617	5964.62
720.96	6013.2
721.303	5954
721.646	6005.97
721.989	5954.45
722.331	5990.15
722.674	5916.93
723.016	5977.5
723.359	5925.3
723.701	5984.5
724.044	5945.63
724.386	5922.13
724.729	5919.19
725.071	5910.38
725.413	5898.63
725.755	5901.12
726.097	5808.92
726.439	5883.49
726.782	5839.2
727.124	5891.62
727.465	5884.62
727.807	5871.29
728.149	5867.67
728.491	5843.26
728.833	5901.34
729.175	5794.9
729.516	5815.47
729.858	5866.54
730.199	5829.48
730.541	5777.96
730.882	5908.8
731.224	5856.82
731.565	5831.06
731.906	5903.6
732.248	5812.98
732.589	5821.8
732.93	5866.99
733.271	5847.11
733.612	5814.79
733.953	5789.48
734.294	5815.47
734.635	5848.46
734.976	5848.24
735.317	5866.09
735.658	5775.24
735.999	5812.53
736.339	5853.21
736.68	5872.87
737.021	5881.68
737.361	5819.54
737.702	5890.72
738.042	5857.95
738.383	5888.91
738.723	5881.23
739.063	5912.87
739.404	5882.13
739.744	5917.61
740.084	5881.68
740.424	5919.42
740.764	5917.39
741.104	5994.22
741.444	5954
741.784	5936.6
742.124	6006.42
742.464	6029.25
742.804	5978.63
743.143	6029.25
743.483	6091.17
743.823	6029.93
744.162	6049.13
744.502	6134.1
744.841	6104.5
745.181	6219.75
745.52	6189.47
745.86	6182.69
746.199	6266.98
746.538	6232.86
746.877	6334.78
747.216	6338.17
747.556	6425.17
747.895	6411.84
748.234	6448.45
748.573	6484.83
748.911	6569.57
749.25	6629.68
749.589	6682.34
749.928	6738.61
750.267	6798.95
750.605	6847.98
750.944	6920.07
751.283	6917.59
751.621	7079.62
751.96	7096.34
752.298	7211.59
752.636	7335.65
752.975	7398.48
753.313	7429.89
753.651	7645.25
753.989	7652.71
754.327	7713.95
754.666	7928.18
755.004	8009.08
755.342	8134.28
755.679	8228.51
756.017	8338.79
756.355	8555.28
756.693	8635.28
757.031	8761.38
757.368	8908.72
757.706	9054.03
758.044	9138.55
758.381	9288.6
758.719	9512.77
759.056	9613.11
759.394	9771.97
759.731	9921.35
760.068	10075.02
760.405	10244.5
760.743	10323.82
761.08	10626.19
761.417	10739.86
761.754	10926.97
762.091	11076.35
762.428	11223.01
762.765	11440.18
763.102	11599.5
763.438	11765.82
763.775	11822.32
764.112	12155.19
764.449	12384.79
764.785	12482.41
765.122	12611.9
765.458	12722.18
765.795	13069.74
766.131	13067.71
766.467	13305.44
766.804	13393.8
767.14	13486.68
767.476	13794.92
767.812	13894.13
768.148	14099.77
768.485	14172.08
768.821	14281.23
769.157	14435.58
769.492	14590.38
769.828	14801.45
770.164	14840.09
770.5	14924.61
770.836	15111.95
771.171	15244.15
771.507	15296.58
771.842	15434.88
772.178	15497.7
772.513	15539.28
772.849	15670.35
773.184	15836.67
773.519	15916.67
773.855	15951.93
774.19	16152.37
774.525	16110.34
774.86	16251.8
775.195	16358.47
775.53	16352.82
775.865	16386.26
776.2	16388.98
776.535	16519.37
776.87	16529.99
777.205	16585.81
777.539	16593.49
777.874	16765.92
778.209	16723.2
778.543	16803.65
778.878	16810.43
779.212	16891.56
779.547	16956.87
779.881	16942.41
780.215	16935.63
780.55	17105.57
780.884	17025.12
781.218	17106.02
781.552	17091.78
781.886	17103.53
782.22	17159.58
782.554	17071.67
782.888	17044.78
783.222	17020.82
783.556	17050.65
783.889	17113.93
784.223	17027.38
784.557	17017.66
784.89	17128.62
785.224	17118.67
785.557	17074.83
785.891	17088.39
786.224	17075.51
786.558	17154.15
786.891	17008.85
787.224	16918.45
787.557	16981.5
787.891	17053.14
788.224	17002.52
788.557	17034.61
788.89	17081.39
789.223	16990.99
789.556	16920.04
789.888	16888.4
790.221	16920.26
790.554	16826.25
790.887	16817.44
791.219	16837.55
791.552	16800.26
791.884	16719.59
792.217	16769.53
792.549	16787.38
792.882	16710.78
793.214	16632.81
793.546	16686.37
793.879	16628.07
794.211	16428.97
794.543	16573.83
794.875	16580.38
795.207	16624.22
795.539	16484.57
795.871	16572.47
796.203	16473.49
796.535	16429.2
796.867	16387.17
797.198	16347.62
797.53	16343.78
797.862	16322.08
798.193	16255.42
798.525	16154.63
798.856	16244.8
799.188	16068.98
799.519	16021.98
799.85	15875.99
800.182	15943.79
800.513	15999.83
800.844	15855.66
801.175	15933.17
801.506	15961.19
801.837	15963.45
802.168	15806.39
802.499	15845.04
802.83	15747.64
803.161	15711.03
803.491	15738.6
803.822	15769.78
804.153	15591.93
804.483	15529.79
804.814	15544.48
805.145	15502.9
805.475	15547.19
805.805	15313.75
806.136	15448.21
806.466	15441.66
806.796	15429.45
807.126	15332.51
807.457	15292.28
807.787	15267.88
808.117	15237.14
808.447	15151.95
808.777	15232.85
809.107	15106.3
809.436	15074.66
809.766	15139.52
810.096	15006.41
810.426	15037.37
810.755	15108.11
811.085	15019.75
811.414	14956.25
811.744	14842.58
812.073	14827.89
812.403	14932.52
812.732	14842.8
813.061	14839.19
813.39	14780.2
813.719	14685.97
814.049	14818.62
814.378	14647.78
814.707	14598.29
815.036	14628.12
815.365	14562.36
815.693	14564.84
816.022	14530.49
816.351	14468.12
816.68	14464.73
817.008	14447.33
817.337	14320.1
817.665	14217.28
817.994	14323.04
818.322	14351.97
818.651	14230.84
818.979	14219.54
819.307	14269.26
819.636	14251.18
819.964	14157.17
820.292	14264.96
820.62	14184.51
820.948	14168.24
821.276	14223.61
821.604	14114.46
821.932	14226.09
822.259	14237.17
822.587	14196.27
822.915	14122.59
823.243	14243.27
823.57	14082.14
823.898	14201.91
824.225	14114.46
824.553	14121.92
824.88	14204.63
825.207	14305.19
825.535	14131.86
825.862	14189.94
826.189	14152.88
826.516	14319.2
826.843	14189.94
827.17	14227.9
827.497	14223.61
827.824	14208.24
828.151	14168.47
828.478	14197.85
828.805	14379.31
829.131	14160.56
829.458	14210.73
829.785	14163.27
830.111	14170.05
830.438	14242.14
830.764	14202.82
831.09	14253.89
831.417	14236.49
831.743	14264.06
832.069	14223.84
832.395	14168.7
832.722	14177.73
833.048	14170.28
833.374	14163.27
833.7	14113.33
834.026	14146.55
834.351	14159.66
834.677	14140
835.003	14151.29
835.329	14168.02
835.654	14106.32
835.98	14022.03
836.306	14069.04
836.631	13988.59
836.956	14097.28
837.282	13987.01
837.607	13984.07
837.932	13948.81
838.258	14047.34
838.583	13952.88
838.908	13975.48
839.233	13885.09
839.558	13817.97
839.883	13732.55
840.208	13798.31
840.533	13845.54
840.858	13735.03
841.182	13696.17
841.507	13710.85
841.832	13628.14
842.156	13749.95
842.481	13627.01
842.805	13555.6
843.13	13523.29
843.454	13532.33
843.778	13508.6
844.103	13468.37
844.427	13404.65
844.751	13464.53
845.075	13349.96
845.399	13326.46
845.723	13227.7
846.047	13285.55
846.371	13159.91
846.695	13157.87
847.019	13142.96
847.343	13078.55
847.666	12913.14
847.99	12973.02
848.313	12896.86
848.637	12776.64
848.96	12790.88
849.284	12764.44
849.607	12714.04
849.931	12677.89
850.254	12574.84
850.577	12464.11
850.9	12440.83
851.223	12440.61
851.546	12372.36
851.869	12296.88
852.192	12441.28
852.515	12171.01
852.838	12201.29
853.161	12168.07
853.483	12141.86
853.806	12071.35
854.129	12079.03
854.451	11998.81
854.774	12013.5
855.096	11905.7
855.419	11873.16
855.741	11814.41
856.063	11833.84
856.385	11771.92
856.708	11721.08
857.03	11656.67
857.352	11667.74
857.674	11647.63
857.996	11609.89
858.318	11503.91
858.64	11563.11
858.961	11479.73
859.283	11498.71
859.605	11414.64
859.926	11462.55
860.248	11355.89
860.57	11321.09
860.891	11385.72
861.212	11307.3
861.534	11209
861.855	11250.35
862.176	11243.8
862.498	11195.67
862.819	11218.04
863.14	11112.05
863.461	11223.69
863.782	11110.92
864.103	11210.58
864.424	11124.48
864.745	11080.19
865.065	11090.13
865.386	11025.95
865.707	11076.35
866.027	11027.53
866.348	10931.04
866.668	10931.94
866.989	11009
867.309	10880.19
867.63	10896.01
867.95	10848.56
868.27	10859.18
868.59	10831.83
868.91	10745.73
869.23	10786.41
869.55	10710.93
869.87	10780.54
870.19	10694.21
870.51	10787.54
870.83	10799.74
871.15	10718.84
871.469	10659.86
871.789	10717.03
872.109	10663.02
872.428	10590.03
872.748	10628.68
873.067	10600.65
873.386	10616.7
873.706	10589.35
874.025	10504.16
874.344	10526.98
874.663	10560.88
874.982	10500.54
875.301	10502.12
875.62	10512.29
875.939	10491.73
876.258	10548.9
876.577	10410.83
876.896	10436.36
877.214	10397.04
877.533	10383.71
877.852	10399.98
878.17	10339.87
878.489	10251.28
878.807	10340.55
879.125	10283.37
879.444	10277.05
879.762	10204.73
880.08	10254.67
880.398	10165.64
880.716	10265.07
881.034	10176.26
881.352	10164.51
881.67	10212.19
881.988	10157.5
882.306	10048.58
882.624	10106.66
882.941	9976.49
883.259	10000.9
883.577	9957.05
883.894	9969.71
884.212	9936.94
884.529	9972.65
884.846	9927.22
885.164	9882.03
885.481	9848.81
885.798	9837.74
886.115	9806.32
886.432	9762.48
886.75	9743.73
887.067	9731.52
887.383	9688.14
887.7	9759.09
888.017	9689.04
888.334	9670.51
888.651	9642.71
888.967	9602.71
889.284	9562.49
889.6	9529.95
889.917	9538.99
890.233	9513.68
890.55	9407.69
890.866	9467.8
891.182	9467.58
891.498	9399.78
891.815	9338.99
892.131	9291.31
892.447	9253.57
892.763	9261.25
893.079	9215.83
893.395	9221.93
893.71	9182.16
894.026	9218.99
894.342	9145.78
894.657	9102.61
894.973	9037.98
895.289	9038.43
895.604	9000.7
895.92	8961.6
896.235	8939.45
896.55	8954.14
896.865	8915.95
897.181	8776.75
897.496	8919.79
897.811	8778.78
898.126	8802.51
898.441	8718.67
898.756	8704.88
899.071	8660.59
899.386	8635.06
899.7	8534.49
900.015	8580.14
900.33	8499.69
900.644	8469.41
900.959	8499.69
901.273	8456.08
901.588	8405.23
901.902	8434.38
902.216	8327.72
902.531	8331.33
902.845	8346.02
903.159	8250.66
903.473	8253.37
903.787	8194.16
904.101	8161.17
904.415	8192.36
904.729	8140.61
905.042	8056.77
905.356	8039.59
905.67	8058.35
905.984	8015.18
906.297	7936.54
906.611	7945.58
906.924	7934.73
907.237	7876.66
907.551	7793.27
907.864	7846.6
908.177	7780.84
908.491	7787.85
908.804	7664.23
909.117	7615.2
909.43	7615.87
909.743	7595.53
910.056	7582.88
910.368	7497.91
910.681	7513.05
910.994	7427.18
911.307	7450.68
911.619	7384.47
911.932	7388.31
912.244	7322.77
912.557	7366.16
912.869	7285.26
913.181	7251.81
913.494	7239.84
913.806	7122.55
914.118	7182.44
914.43	7170.46
914.742	7124.36
915.054	7024.93
915.366	7052.95
915.678	7000.75
915.99	6993.06
916.302	6947.87
916.613	6905.16
916.925	6936.12
917.236	6902.9
917.548	6825.84
917.859	6842.56
918.171	6776.57
918.482	6784.71
918.794	6733.41
919.105	6788.1
919.416	6702.45
919.727	6711.72
920.038	6634.88
920.349	6594.88
920.66	6561.21
920.971	6593.98
921.282	6560.53
921.593	6525.51
921.903	6470.59
922.214	6444.6
922.525	6430.37
922.835	6384.27
923.146	6370.71
923.456	6286.19
923.767	6321.22
924.077	6297.04
924.387	6243.71
924.697	6230.37
925.008	6235.12
925.318	6235.34
925.628	6198.96
925.938	6200.77
926.248	6124.61
926.558	6078.51
926.867	6093.88
927.177	6071.73
927.487	6064.95
927.796	6006.42
928.106	5975.92
928.416	5923.94
928.725	5909.48
929.034	5899.31
929.344	5869.48
929.653	5904.05
929.962	5824.28
930.271	5791.06
930.581	5761.01
930.89	5736.83
931.199	5714.68
931.508	5715.58
931.817	5689.82
932.125	5676.49
932.434	5680.56
932.743	5599.43
933.051	5613.89
933.36	5549.94
933.669	5540.9
933.977	5523.95
934.286	5534.8
934.594	5460
934.902	5482.37
935.21	5407.34
935.519	5461.81
935.827	5428.36
936.135	5345.65
936.443	5346.78
936.751	5303.39
937.059	5328.93
937.367	5246.67
937.674	5281.92
937.982	5256.84
938.29	5213.68
938.597	5259.1
938.905	5158.54
939.213	5163.96
939.52	5113.11
939.827	5121.02
940.135	5039.9
940.442	5083.06
940.749	5102.72
941.056	5028.37
941.363	5017.3
941.67	5042.16
941.977	4974.36
942.284	4882.16
942.591	4867.02
942.898	4857.98
943.205	4890.97
943.511	4863.86
943.818	4887.58
944.125	4780.69
944.431	4797.87
944.738	4812.78
945.044	4753.35
945.35	4730.98
945.657	4711.54
945.963	4684.2
946.269	4672
946.575	4643.52
946.881	4622.05
947.187	4637.87
947.493	4600.81
947.799	4601.26
948.105	4562.39
948.41	4535.95
948.716	4546.58
949.022	4498.44
949.327	4486.46
949.633	4445.79
949.938	4457.54
950.244	4438.33
950.549	4368.5
950.854	4387.71
951.16	4372.34
951.465	4342.74
951.77	4307.94
952.075	4292.34
952.38	4307.26
952.685	4292.8
952.99	4271.78
953.294	4283.08
953.599	4206.7
953.904	4197.66
954.209	4186.36
954.513	4170.77
954.818	4146.81
955.122	4117.66
955.426	4110.65
955.731	4091.45
956.035	4068.85
956.339	4082.63
956.643	4060.26
956.948	4009.19
957.252	4020.26
957.556	4018.68
957.86	3985.01
958.163	3970.55
958.467	3941.85
958.771	3974.16
959.075	3913.37
959.378	3866.37
959.682	3886.25
959.985	3858.68
960.289	3828.4
960.592	3837.67
960.896	3805.13
961.199	3818.91
961.502	3818.91
961.805	3778.91
962.108	3795.18
962.411	3720.83
962.714	3669.54
963.017	3687.16
963.32	3662.3
963.623	3676.32
963.926	3699.82
964.228	3640.16
964.531	3592.48
964.833	3597.67
965.136	3627.5
965.438	3582.31
965.741	3560.84
966.043	3533.04
966.345	3522.42
966.648	3515.87
966.95	3491.91
967.252	3445.14
967.554	3473.61
967.856	3457.56
968.158	3422.99
968.46	3408.3
968.761	3407.17
969.063	3398.81
969.365	3394.29
969.666	3332.37
969.968	3296.89
970.269	3324.69
970.571	3350.45
970.872	3294.4
971.174	3305.48
971.475	3269.09
971.776	3241.07
972.077	3220.06
972.378	3218.7
972.679	3241.07
972.98	3202.43
973.281	3175.31
973.582	3147.52
973.883	3155.65
974.183	3165.82
974.484	3129.89
974.785	3121.3
975.085	3146.39
975.386	3119.27
975.686	3063.68
975.986	3063
976.287	3033.39
976.587	3020.29
976.887	3025.49
977.187	3015.99
977.487	2982.32
977.787	2974.19
978.087	2916.56
978.387	2965.37
978.687	2969.89
978.987	2925.83
979.286	2931.93
979.586	2894.42
979.885	2904.81
980.185	2880.86
980.484	2854.42
980.784	2847.86
981.083	2843.8
981.382	2840.63
981.682	2784.59
981.981	2800.63
982.28	2796.56
982.579	2765.83
982.878	2779.62
983.177	2782.33
983.475	2722.22
983.774	2725.61
984.073	2728.09
984.372	2699.39
984.67	2706.4
984.969	2702.56
985.267	2693.97
985.566	2661.88
985.864	2680.18
986.162	2652.61
986.461	2630.24
986.759	2601.99
987.057	2598.15
987.355	2554.99
987.653	2565.38
987.951	2558.38
988.249	2552.28
988.547	2554.76
988.844	2540.75
989.142	2513.63
989.44	2481.54
989.737	2504.14
990.035	2505.5
990.332	2465.27
990.63	2452.85
990.927	2463.47
991.224	2435.44
991.521	2437.25
991.819	2436.57
992.116	2404.71
992.413	2397.03
992.71	2366.29
993.006	2333.07
993.303	2316.35
993.6	2337.82
993.897	2304.37
994.193	2336.69
994.49	2305.05
994.787	2310.48
995.083	2294.43
995.379	2255.79
995.676	2293.08
995.972	2266.64
996.268	2252.62
996.565	2227.77
996.861	2218.73
997.157	2190.48
997.453	2200.65
997.749	2192.96
998.044	2197.71
998.34	2124.94
998.636	2147.77
998.932	2147.32
999.227	2103.7
999.523	2141.21
999.818	2106.41
1000.114	2108.45
1000.409	2097.83
1000.704	2072.74
1001	2056.7
1001.295	2058.51
1001.59	2025.51
1001.885	2037.49
1002.18	2033.65
1002.475	2004.72
1002.77	2028
1003.065	1991.16
1003.359	1964.72
1003.654	1982.12
1003.949	1954.33
1004.243	1937.6
1004.538	1916.81
1004.832	1946.42
1005.127	1922.24
1005.421	1907.1
1005.715	1914.1
1006.009	1889.92
1006.304	1865.06
1006.598	1842.01
1006.892	1853.54
1007.186	1791.39
1007.48	1828.91
1007.773	1815.12
1008.067	1851.05
1008.361	1807.21
1008.655	1767.21
1008.948	1809.7
1009.242	1771.28
1009.535	1757.27
1009.829	1778.29
1010.122	1740.32
1010.415	1747.55
1010.708	1713.43
1011.001	1733.99
1011.295	1732.19
1011.588	1689.48
1011.881	1686.09
1012.173	1665.3
1012.466	1668.01
1012.759	1648.8
1013.052	1644.5
1013.344	1624.62
1013.637	1612.19
1013.93	1607.22
1014.222	1576.48
1014.514	1596.37
1014.807	1571.96
1015.099	1561.57
1015.391	1574
1015.683	1563.6
1015.976	1551.17
1016.268	1563.15
1016.56	1550.5
1016.851	1490.38
1017.143	1521.12
1017.435	1512.3
1017.727	1482.02
1018.018	1482.48
1018.31	1446.77
1018.602	1496.94
1018.893	1449.26
1019.185	1438.41
1019.476	1424.17
1019.767	1435.92
1020.058	1429.6
1020.35	1405.42
1020.641	1397.28
1020.932	1395.25
1021.223	1361.35
1021.514	1359.54
1021.804	1329.03
1022.095	1369.71
1022.386	1341.46
1022.677	1330.16
1022.967	1336.49
1023.258	1312.31
1023.548	1307.56
1023.839	1293.33
1024.129	1322.71
1024.419	1292.88
1024.709	1278.19
1025	1283.61
1025.29	1261.69
1025.58	1250.84
1025.87	1250.16
1026.16	1239.54
1026.449	1247.23
1026.739	1220.11
1027.029	1230.5
1027.319	1194.57
1027.608	1192.09
1027.898	1196.15
1028.187	1208.81
1028.477	1167.23
1028.766	1168.81
1029.055	1167.23
1029.344	1145.99
1029.634	1146.89
1029.923	1141.24
1030.212	1145.99
1030.501	1131.75
1030.79	1130.62
1031.078	1108.47
1031.367	1114.35
1031.656	1090.62
1031.945	1099.89
1032.233	1080.23
1032.522	1084.29
1032.81	1077.97
1033.099	1056.5
1033.387	1060.79
1033.675	1047.01
1033.963	1045.88
1034.251	1037.29
1034.54	1030.28
1034.828	1036.39
1035.116	1021.24
1035.403	1007.46
1035.691	1016.95
1035.979	996.39
1036.267	968.82
1036.554	985.77
1036.842	983.28
1037.129	983.28
1037.417	978.53
1037.704	955.26
1037.992	943.51
1038.279	938.76
1038.566	927.69
1038.853	927.69
1039.14	927.69
