Data from hue_300_FLMS001491_00047.txt Node
Date: Tue Feb 07 15:50:47 GMT 2017
User: dcchb
Spectrometer: FLMS00149
Trigger mode: 0
Integration Time (sec): 2.000000E-2
Scans to average: 10
Electric dark correction enabled: true
Nonlinearity correction enabled: false
Boxcar width: 0
XAxis mode: Wavelengths
Number of Pixels in Spectrum: 2048
>>>>>Begin Spectral Data<<<<<
341.393	1.72
341.776	1.72
342.16	1.72
342.543	-35.79
342.927	-91.16
343.31	-76.24
343.693	-69.69
344.077	-56.81
344.46	-78.5
344.843	-48.45
345.226	-55.22
345.61	-17.49
345.993	-5.06
346.376	5.34
346.759	30.2
347.142	17.77
347.525	41.5
347.908	48.5
348.291	81.27
348.674	78.56
349.057	104.32
349.44	125.11
349.823	143.64
350.206	144.09
350.588	171.66
350.971	203.53
351.354	199.46
351.737	231.32
352.119	239.68
352.502	241.04
352.884	263.19
353.267	277.2
353.65	286.01
354.032	273.13
354.414	312
354.797	302.96
355.179	299.12
355.562	306.8
355.944	324.65
356.326	332.11
356.709	319.91
357.091	334.14
357.473	340.25
357.855	342.28
358.238	332.79
358.62	326.01
359.002	333.24
359.384	352.9
359.766	350.64
360.148	321.04
360.53	320.13
360.912	314.71
361.294	331.21
361.676	338.21
362.057	346.12
362.439	326.01
362.821	317.42
363.203	328.04
363.584	342.51
363.966	307.7
364.348	330.08
364.729	334.14
365.111	307.48
365.493	319.68
365.874	307.03
366.256	317.65
366.637	302.96
367.019	318.1
367.4	298.89
367.781	317.2
368.163	314.94
368.544	299.34
368.925	328.49
369.306	301.38
369.688	324.43
370.069	309.29
370.45	305.44
370.831	303.18
371.212	308.83
371.593	295.73
371.974	317.2
372.355	307.7
372.736	331.21
373.117	326.23
373.498	327.59
373.879	314.71
374.26	293.47
374.641	313.58
375.021	321.94
375.402	317.65
375.783	319.91
376.163	332.56
376.544	324.2
376.925	318.78
377.305	309.74
377.686	329.62
378.066	333.01
378.447	323.52
378.827	319.23
379.208	356.29
379.588	335.5
379.968	316.74
380.349	321.94
380.729	356.52
381.109	337.99
381.489	349.51
381.87	350.41
382.25	333.01
382.63	336.18
383.01	340.02
383.39	344.99
383.77	335.73
384.15	343.18
384.53	322.62
384.91	355.16
385.29	356.06
385.67	375.5
386.049	348.61
386.429	328.95
386.809	358.78
387.189	352.22
387.568	365.1
387.948	355.16
388.328	362.39
388.707	354.48
389.087	381.83
389.466	370.3
389.846	370.75
390.225	383.18
390.605	380.7
390.984	363.3
391.363	392.45
391.743	376.4
392.122	379.79
392.501	379.34
392.881	412.11
393.26	381.15
393.639	379.57
394.018	405.1
394.397	391.77
394.776	387.48
395.155	413.24
395.534	393.35
395.913	406.91
396.292	391.09
396.671	398.55
397.05	407.59
397.429	416.4
397.808	406.23
398.186	404.2
398.565	438.1
398.944	394.26
399.323	412.56
399.701	437.42
400.08	450.98
400.458	428.83
400.837	409.17
401.215	422.28
401.594	413.69
401.972	430.19
402.351	447.36
402.729	435.61
403.107	448.72
403.486	427.7
403.864	441.03
404.242	448.94
404.62	455.72
404.999	473.58
405.377	479
405.755	471.09
406.133	467.93
406.511	487.13
406.889	491.43
407.267	494.82
407.645	493.01
408.023	490.3
408.401	486.68
408.779	515.38
409.156	530.97
409.534	516.51
409.912	527.81
410.29	562.61
410.667	553.12
411.045	553.57
411.422	570.07
411.8	544.08
412.178	585.44
412.555	597.87
412.933	598.54
413.31	589.05
413.687	600.13
414.065	623.4
414.442	648.03
414.819	629.73
415.197	641.93
415.574	644.42
415.951	662.72
416.328	686
416.705	667.69
417.082	695.49
417.46	685.32
417.837	697.52
418.214	723.51
418.591	700.69
418.967	717.86
419.344	747.24
419.721	785.88
420.098	752.66
420.475	763.29
420.852	772.78
421.228	807.58
421.605	765.32
421.982	794.24
422.358	807.8
422.735	840.12
423.111	830.18
423.488	849.84
423.864	852.1
424.241	885.99
424.617	864.98
424.994	864.98
425.37	882.15
425.746	909.72
426.123	914.47
426.499	913.11
426.875	896.39
427.251	933.9
427.627	943.62
428.003	941.81
428.379	980.91
428.756	1011.87
429.132	996.73
429.507	1018.65
429.883	1019.1
430.259	1025.43
430.635	1043.5
431.011	1067.91
431.387	1092.32
431.763	1100.23
432.138	1106.33
432.514	1098.64
432.89	1114.46
433.265	1137.96
433.641	1168.7
434.016	1167.12
434.392	1186.32
434.767	1217.06
435.143	1188.58
435.518	1234.91
435.894	1229.26
436.269	1240.11
436.644	1264.29
437.02	1260.22
437.395	1287.57
437.77	1310.62
438.145	1308.13
438.52	1304.29
438.895	1317.17
439.271	1343.38
439.646	1356.04
440.021	1366.66
440.395	1361.91
440.77	1378.18
441.145	1395.13
441.52	1378.18
441.895	1392.65
442.27	1425.41
442.645	1424.74
443.019	1436.94
443.394	1434
443.769	1426.32
444.143	1427.9
444.518	1479.88
444.892	1421.57
445.267	1466.09
445.641	1452.31
446.016	1450.72
446.39	1485.75
446.764	1514.23
447.139	1487.79
447.513	1514.68
447.887	1498.63
448.262	1523.94
448.636	1520.1
449.01	1518.75
449.384	1532.76
449.758	1554.9
450.132	1539.99
450.506	1587.44
450.88	1542.7
451.254	1582.02
451.628	1572.08
452.002	1572.3
452.376	1613.66
452.75	1614.79
453.123	1602.13
453.497	1625.18
453.871	1613.21
454.244	1659.08
454.618	1694.33
454.992	1720.32
455.365	1692.3
455.739	1748.34
456.112	1741.34
456.486	1688.68
456.859	1788.12
457.232	1771.62
457.606	1780.21
457.979	1798.06
458.352	1836.03
458.725	1836.03
459.099	1842.35
459.472	1870.83
459.845	1875.8
460.218	1881
460.591	1893.42
460.964	1915.35
461.337	1944.04
461.71	1970.48
462.083	1973.2
462.456	1963.93
462.829	1975.23
463.201	1990.6
463.574	2002.57
463.947	2020.65
464.32	2026.98
464.692	2088.22
465.065	2069.24
465.438	2104.94
465.81	2106.07
466.183	2161.44
466.555	2157.15
466.928	2146.3
467.3	2168.22
467.672	2188.11
468.045	2250.93
468.417	2232.62
468.789	2275.34
469.161	2323.92
469.534	2283.25
469.906	2363.24
470.278	2338.16
470.65	2346.75
471.022	2420.19
471.394	2439.63
471.766	2441.43
472.138	2464.94
472.51	2507.87
472.882	2537.25
473.253	2578.83
473.625	2587.42
473.997	2605.95
474.369	2587.19
474.74	2616.8
475.112	2664.48
475.484	2707.41
475.855	2764.59
476.227	2760.97
476.598	2793.51
476.97	2838.48
477.341	2898.82
477.713	2905.38
478.084	2906.05
478.455	2997.35
478.827	2993.28
479.198	3031.02
479.569	3027.18
479.94	3124.8
480.311	3152.15
480.682	3133.62
481.053	3203.22
481.424	3246.61
481.795	3253.39
482.166	3304.46
482.537	3297.91
482.908	3376.78
483.279	3426.27
483.65	3432.82
484.021	3510.11
484.391	3559.6
484.762	3586.26
485.133	3558.69
485.503	3586.94
485.874	3704.22
486.244	3706.94
486.615	3764.11
486.985	3755.3
487.356	3847.95
487.726	3851.34
488.097	3901.96
488.467	3888.4
488.837	3974.05
489.207	4004.78
489.578	4033.93
489.948	4045.68
490.318	4127.49
490.688	4120.03
491.058	4160.94
491.428	4203.65
491.798	4210.88
492.168	4296.53
492.538	4301.5
492.908	4367.26
493.278	4411.55
493.648	4391.66
494.017	4432.57
494.387	4438.89
494.757	4513.47
495.126	4528.84
495.496	4545.11
495.866	4568.16
496.235	4611.32
496.605	4636.18
496.974	4624.88
497.344	4701.26
497.713	4706.46
498.082	4727.93
498.452	4746.01
498.821	4787.59
499.19	4793.69
499.559	4783.52
499.928	4845.21
500.298	4897.64
500.667	4916.85
501.036	4933.8
501.405	4923.63
501.774	4940.35
502.143	4981.93
502.512	4949.84
502.88	4981.48
503.249	5026.45
503.618	5052.66
503.987	5049.95
504.356	5086.34
504.724	5107.13
505.093	5072.32
505.462	5163.85
505.83	5178.54
506.199	5210.85
506.567	5233.45
506.936	5235.94
507.304	5219.67
507.672	5283.62
508.041	5325.88
508.409	5281.81
508.777	5366.33
509.145	5395.25
509.514	5344.41
509.882	5435.03
510.25	5429.38
510.618	5402.49
510.986	5472.54
511.354	5479.55
511.722	5525.65
512.09	5567.23
512.458	5585.76
512.826	5599.77
513.193	5601.58
513.561	5553.22
513.929	5629.37
514.297	5689.71
514.664	5670.95
515.032	5677.73
515.4	5691.07
515.767	5739.2
516.135	5755.02
516.502	5719.09
516.869	5779.42
517.237	5771.97
517.604	5815.36
517.972	5822.36
518.339	5853.77
518.706	5890.38
519.073	5877.5
519.44	5876.14
519.808	5921.57
520.175	5868.24
520.542	5942.58
520.909	5998.63
521.276	5940.78
521.643	6049.7
522.009	6000.21
522.376	6103.48
522.743	6091.05
523.11	6225.06
523.477	6213.76
523.843	6216.93
524.21	6235.91
524.577	6300.99
524.943	6307.32
525.31	6377.6
525.676	6421.22
526.043	6384.61
526.409	6472.74
526.776	6484.49
527.142	6526.52
527.508	6576.01
527.874	6597.03
528.241	6611.27
528.607	6594.77
528.973	6666.41
529.339	6666.86
529.705	6742.56
530.071	6797.93
530.437	6813.97
530.803	6802
531.169	6841.32
531.535	6872.73
531.901	6909.56
532.267	6924.25
532.632	6979.39
532.998	6957.25
533.364	6978.26
533.73	7052.16
534.095	7093.29
534.461	7132.38
534.826	7145.26
535.192	7195.88
535.557	7214.64
535.923	7198.6
536.288	7200.63
536.653	7262.1
537.019	7256.67
537.384	7207.64
537.749	7347.74
538.114	7335.99
538.479	7408.53
538.845	7376.9
539.21	7387.07
539.575	7470.68
539.94	7480.62
540.305	7587.51
540.67	7553.84
541.034	7641.75
541.399	7622.31
541.764	7621.18
542.129	7721.97
542.494	7747.73
542.858	7791.12
543.223	7791.12
543.587	7778.92
543.952	7815.53
544.316	7867.28
544.681	7895.07
545.045	7895.3
545.41	7956.77
545.774	8029.08
546.138	8044.45
546.503	7976.65
546.867	7986.15
547.231	8109.76
547.595	8138.91
547.959	8129.42
548.324	8132.58
548.688	8156.31
549.052	8239.7
549.416	8177.1
549.779	8347.04
550.143	8278.12
550.507	8293.93
550.871	8323.09
551.235	8393.59
551.599	8408.51
551.962	8401.73
552.326	8454.38
552.689	8485.79
553.053	8409.19
553.417	8449.18
553.78	8530.31
554.143	8569.41
554.507	8623.19
554.87	8526.02
555.234	8712
555.597	8638.11
555.96	8623.19
556.323	8710.65
556.686	8712.91
557.05	8768.72
557.413	8795.16
557.776	8770.98
558.139	8926.46
558.502	8833.13
558.865	8894.82
559.228	8865.22
559.59	8968.72
559.953	9048.04
560.316	8981.37
560.679	9024.99
561.041	9093.91
561.404	9102.5
561.767	9201.48
562.129	9180.69
562.492	9198.54
562.854	9197.41
563.217	9236.28
563.579	9274.47
563.941	9312.89
564.304	9386.56
564.666	9363.74
565.028	9486.9
565.39	9429.5
565.753	9505.2
566.115	9541.13
566.477	9544.75
566.839	9580.45
567.201	9657.06
567.563	9599.44
567.925	9616.61
568.287	9671.75
568.648	9711.75
569.01	9785.42
569.372	9811.86
569.734	9820.67
570.095	9876.04
570.457	9883.05
570.819	9918.98
571.18	9940.22
571.542	9984.96
571.903	10103.6
572.265	10072.87
572.626	10205.3
572.987	10180.21
573.349	10271.51
573.71	10326.65
574.071	10412.52
574.432	10477.15
574.794	10605.29
575.155	10566.42
575.516	10621.33
575.877	10704.94
576.238	10785.62
576.599	10895
576.96	10941.1
577.32	10983.81
577.681	11085.5
578.042	11221.77
578.403	11348.32
578.763	11403.91
579.124	11560.97
579.485	11673.73
579.845	11827.85
580.206	11897.46
580.566	12010.45
580.927	12068.75
581.287	12350.78
581.648	12438.91
582.008	12668.28
582.368	12704.89
582.728	12917.09
583.089	13056.3
583.449	13207.93
583.809	13411.99
584.169	13594.36
584.529	13736.96
584.889	14093.56
585.249	14212.42
585.609	14348.92
585.969	14665.07
586.329	14812.63
586.688	15089.69
587.048	15298.95
587.408	15523.35
587.768	15800.86
588.127	15971.92
588.487	16323.33
588.846	16716.99
589.206	16806.93
589.565	17046.47
589.925	17447.59
590.284	17592.22
590.643	17978.43
591.003	18210.51
591.362	18570.05
591.721	18884.16
592.08	19223.82
592.44	19380.65
592.799	19694.09
593.158	20066.73
593.517	20237.35
593.876	20648.41
594.235	20886.82
594.593	21208.17
594.952	21555.51
595.311	21778.33
595.67	22120.01
596.029	22597.97
596.387	22848.35
596.746	23176.03
597.104	23395.46
597.463	23703.02
597.822	24056.23
598.18	24315.21
598.538	24503
598.897	25011.01
599.255	25111.57
599.613	25646.92
599.972	25809.18
600.33	26152.45
600.688	26356.96
601.046	26802.15
601.404	27097.51
601.762	27371.85
602.12	27728
602.478	27956.47
602.836	28230.81
603.194	28350.36
603.552	28660.4
603.91	28899.95
604.268	29174.29
604.625	29374.96
604.983	29832.35
605.341	29924.78
605.698	30271.21
606.056	30595.95
606.413	30811.53
606.771	31094.24
607.128	31270.73
607.485	31362.03
607.843	31614.68
608.2	31945.97
608.557	32366.75
608.914	32281.78
609.272	32720.64
609.629	32930.57
609.986	33244.69
610.343	33258.25
610.7	33669.99
611.057	33945.92
611.414	33889.65
611.771	34252.57
612.127	34484.21
612.484	34519.91
612.841	34891.88
613.198	35001.03
613.554	35064.98
613.911	35470.62
614.267	35545.42
614.624	35591.07
614.98	35859.54
615.337	36187.21
615.693	36210.04
616.05	36373.87
616.406	36754.43
616.762	36770.25
617.118	36824.48
617.475	37029.45
617.831	37223.34
618.187	37400.06
618.543	37505.14
618.899	37717.79
619.255	37762.76
619.611	37893.83
619.967	38188.52
620.323	38319.36
620.678	38211.79
621.034	38277.33
621.39	38381.5
621.746	38519.13
622.101	39014.48
622.457	38780.59
622.812	38956.63
623.168	39109.17
623.523	39099.9
623.879	39350.97
624.234	39219.9
624.589	39423.51
624.945	39436.84
625.3	39547.35
625.655	39559.55
626.01	39827.12
626.365	39767.46
626.72	39736.5
627.075	39784.63
627.43	40028.47
627.785	39893.56
628.14	40139.88
628.495	40214.9
628.85	40057.62
629.205	40233.43
629.559	40454.22
629.914	40206.09
630.269	40326.31
630.623	40406.31
630.978	40291.74
631.332	40461.68
631.687	40560.66
632.041	40339.87
632.396	40493.99
632.75	40442.47
633.104	40613.08
633.459	40393.2
633.813	40508.68
634.167	40488.57
634.521	40505.06
634.875	40691.5
635.229	40441.34
635.583	40398.4
635.937	40505.74
636.291	40419.19
636.645	40517.95
636.999	40486.76
637.352	40712.52
637.706	40305.75
638.06	40609.47
638.413	40547.32
638.767	40414.67
639.121	40556.14
639.474	40348.23
639.828	40449.93
640.181	40621.22
640.534	40557.94
640.888	40246.54
641.241	40216.03
641.594	40384.39
641.947	40372.64
642.301	40378.51
642.654	40378.97
643.007	40341.45
643.36	40292.42
643.713	40272.98
644.066	40408.57
644.419	40246.54
644.771	39962.93
645.124	39757.29
645.477	39607.46
645.83	39453.79
646.182	39302.84
646.535	39244.76
646.888	39240.69
647.24	39003.18
647.593	39294.48
647.945	39250.63
648.298	39135.38
648.65	38966.8
649.002	39032.11
649.355	39298.99
649.707	39162.95
650.059	39446.11
650.411	39655.14
650.763	39785.31
651.115	40210.84
651.467	40011.97
651.819	39976.27
652.171	39952.76
652.523	39999.09
652.875	39949.37
653.227	39758.19
653.578	39997.96
653.93	39947.34
654.282	39762.03
654.633	39662.15
654.985	39825.99
655.337	39921.35
655.688	39780.79
656.039	40081.12
656.391	39630.74
656.742	39676.61
657.094	39718.42
657.445	39825.08
657.796	39739.66
658.147	39644.3
658.498	39749.15
658.849	39778.98
659.2	39635.94
659.551	39710.96
659.902	39796.16
660.253	39654.01
660.604	39862.82
660.955	39594.35
661.306	39763.84
661.656	39628.7
662.007	39743.5
662.358	39599.55
662.708	39610.63
663.059	39607.46
663.409	39499.44
663.76	39781.92
664.11	39529.95
664.461	39688.82
664.811	39619.66
665.161	39608.59
665.511	39580.8
665.862	39627.57
666.212	39829.6
666.562	39767.23
666.912	39643.17
667.262	39722.71
667.612	39635.26
667.962	39624.41
668.312	39543.96
668.662	39713.67
669.011	39488.37
669.361	39533.11
669.711	39527.69
670.06	39579.44
670.41	39376.28
670.76	39433.68
671.109	39597.52
671.459	39461.7
671.808	39389.16
672.157	39428.26
672.507	39200.92
672.856	39205.89
673.205	39324.76
673.554	39433.45
673.904	39194.14
674.253	39416.73
674.602	39235.49
674.951	38796.64
675.3	38698.33
675.649	39219.67
675.998	39146.91
676.346	39096.29
676.695	39138.55
677.044	38863.3
677.393	39116.63
677.741	39099
678.09	38968.61
678.438	39038.66
678.787	39055.84
679.135	38871.89
679.484	38793.02
679.832	38861.27
680.181	38465.57
680.529	38762.74
680.877	38572.23
681.225	38610.88
681.573	38881.83
681.922	38700.82
682.27	38472.8
682.618	38458.57
682.966	38499.69
683.314	38487.26
683.661	38368.4
684.009	38174.73
684.357	38269.64
684.705	37978.13
685.053	38126.6
685.4	38062.19
685.748	38029.42
686.095	37835.3
686.443	37759.83
686.79	37650.22
687.138	37907.62
687.485	37799.15
687.832	37672.82
688.18	37534.07
688.527	37468.76
688.874	37466.05
689.221	37415.88
689.568	37348.54
689.915	37269.44
690.262	37170.46
690.609	37077.58
690.956	36995.78
691.303	37016.8
691.65	36845.73
691.997	36759.17
692.344	36540.88
692.69	36577.94
693.037	36676.69
693.383	36127.33
693.73	36449.13
694.077	36155.12
694.423	36199.42
694.769	36081
695.116	35966.2
695.462	35939.99
695.808	35864.28
696.155	35909.71
696.501	35625.19
696.847	35636.49
697.193	35440.57
697.539	35445.54
697.885	35286.45
698.231	35188.14
698.577	35216.62
698.923	35011.2
699.269	35011.2
699.614	34784.99
699.96	34751.32
700.306	34856.85
700.651	34537.31
700.997	34519.46
701.342	34396.98
701.688	34365.34
702.033	34321.27
702.379	34299.58
702.724	34044.9
703.069	34282.63
703.415	33894.17
703.76	33755.19
704.105	33811.46
704.45	33707.28
704.795	33566.72
705.14	33556.1
705.485	33487.85
705.83	33290.34
706.175	33377.12
706.52	33286.5
706.865	33185.03
707.209	33148.65
707.554	32905.49
707.899	33143.9
708.243	32941.65
708.588	32914.98
708.932	32570.36
709.277	32589.34
709.621	32557.25
709.966	32412.17
710.31	32453.53
710.654	32197.03
710.998	32239.29
711.342	32337.82
711.687	32147.77
712.031	31990.49
712.375	31905.74
712.719	31917.95
713.063	31918.62
713.407	32020.77
713.75	31713.21
714.094	31809.25
714.438	31734.9
714.782	31782.13
715.125	31531.06
715.469	31588.92
715.812	31494
716.156	31214.69
716.499	31268.92
716.843	31292.2
717.186	31182.82
717.53	31221.02
717.873	31266.44
718.216	31232.77
718.559	30958.2
718.902	30938.54
719.246	30901.02
719.589	30790.52
719.932	30657.87
720.275	30875.94
720.617	30723.4
720.96	30690.63
721.303	30597.75
721.646	30602.73
721.989	30389.17
722.331	30619.22
722.674	30462.84
723.016	30453.58
723.359	30323.19
723.701	30360.02
724.044	30071.21
724.386	30042.97
724.729	30195.73
725.071	30025.11
725.413	30011.56
725.755	29876.64
726.097	29969.75
726.439	29762.75
726.782	29765.69
727.124	29954.16
727.465	29701.06
727.807	29722.98
728.149	29626.71
728.491	29544.45
728.833	29571.12
729.175	29514.39
729.516	29455.19
729.858	29342.42
730.199	29397.56
730.541	29406.15
730.882	29231.01
731.224	29409.76
731.565	29180.84
731.906	29093.16
732.248	29161.18
732.589	29013.62
732.93	28849.78
733.271	29033.05
733.612	28932.49
733.953	29116.89
734.294	28870.12
734.635	28825.82
734.976	28869.66
735.317	28652.72
735.658	28830.34
735.999	28752.15
736.339	28696.79
736.68	28733.62
737.021	28648.65
737.361	28427.87
737.702	28692.04
738.042	28556
738.383	28493.63
738.723	28603.68
739.063	28377.93
739.404	28450.01
739.744	28337.48
740.084	28297.25
740.424	28247.31
740.764	28203.92
741.104	28333.18
741.444	28229.46
741.784	28159.63
742.124	28173.41
742.464	28084.37
742.804	28046.86
743.143	27995.79
743.483	28020.2
743.823	27801.22
744.162	27736.36
744.502	27831.73
744.841	27693.88
745.181	27895.45
745.52	27607.1
745.86	27742.01
746.199	27713.08
746.538	27664.95
746.877	27707.21
747.216	27740.88
747.556	27513.32
747.895	27590.15
748.234	27432.87
748.573	27529.13
748.911	27475.8
749.25	27514.45
749.589	27325.3
749.928	27437.61
750.267	27360.1
750.605	27357.16
750.944	27212.53
751.283	27224.96
751.621	27311.97
751.96	27070.62
752.298	27063.16
752.636	27156.04
752.975	26970.73
753.313	26807.35
753.651	27010.73
753.989	26909.26
754.327	26938.64
754.666	26863.84
755.004	26948.36
755.342	26874.01
755.679	26784.3
756.017	26677.41
756.355	26703.17
756.693	26570.52
757.031	26665.65
757.368	26500.46
757.706	26500.91
758.044	26477.41
758.381	26347.47
758.719	26251.65
759.056	26382.72
759.394	26263.86
759.731	26036.97
760.068	26060.47
760.405	26033.81
760.743	25826.81
761.08	26033.58
761.417	25839.46
761.754	25852.34
762.091	25764.89
762.428	25677.43
762.765	25567.83
763.102	25697.54
763.438	25374.16
763.775	25389.3
764.112	25377.1
764.449	25370.77
764.785	25282.87
765.122	25100.95
765.458	25039.71
765.795	25045.58
766.131	25006.26
766.467	24884.68
766.804	24832.03
767.14	24728.53
767.476	24690.11
767.812	24575.77
768.148	24555.43
768.485	24487.86
768.821	24326.73
769.157	24267.3
769.492	24194.53
769.828	24245.61
770.164	24030.47
770.5	23937.59
770.836	23996.35
771.171	23815.56
771.507	23815.11
771.842	23704.15
772.178	23511.61
772.513	23577.83
772.849	23411.73
773.184	23259.64
773.519	23372.41
773.855	23221.23
774.19	23126.54
774.525	22938.52
774.86	23136.48
775.195	23102.81
775.53	22834.34
775.865	22832.31
776.2	22573.11
776.535	22541.24
776.87	22552.77
777.205	22435.03
777.539	22302.83
777.874	22382.15
778.209	22097.41
778.543	22126.79
778.878	21995.5
779.212	22085.21
779.547	21904.88
779.881	21974.25
780.215	21760.47
780.55	21777.87
780.884	21648.16
781.218	21588.95
781.552	21552.79
781.886	21453.59
782.22	21331.33
782.554	21233.71
782.888	20975.63
783.222	20830.33
783.556	20920.27
783.889	20855.86
784.223	20772.25
784.557	20789.43
784.89	20661.07
785.224	20695.42
785.557	20598.47
785.891	20428.3
786.224	20298.14
786.558	20406.38
786.891	20240.51
787.224	20124.36
787.557	20025.15
787.891	20088.2
788.224	20004.81
788.557	19960.97
788.89	19912.39
789.223	19880.52
789.556	19702.22
789.888	19746.97
790.221	19582.68
790.554	19451.16
790.887	19443.47
791.219	19457.71
791.552	19370.25
791.884	19274.44
792.217	19242.12
792.549	19171.61
792.882	18932.3
793.214	18909.02
793.546	18885.07
793.879	18796.48
794.211	18757.39
794.543	18757.84
794.875	18719.42
795.207	18694.79
795.539	18582.03
795.871	18613.89
796.203	18550.16
796.535	18333.22
796.867	18321.24
797.198	18271.75
797.53	18326.44
797.862	18093.9
798.193	18125.54
798.525	17969.16
798.856	18046.67
799.188	17863.63
799.519	17762.39
799.85	17763.06
800.182	17714.93
800.513	17676.96
800.844	17470.42
801.175	17582.73
801.506	17547.48
801.837	17364.43
802.168	17431.32
802.499	17372.11
802.83	17313.13
803.161	17250.08
803.491	17290.99
803.822	17138.9
804.153	16991.56
804.483	17005.34
804.814	16948.85
805.145	16923.54
805.475	16801.73
805.805	16812.58
806.136	16895.29
806.466	16725.35
806.796	16675.18
807.126	16581.63
807.457	16544.79
807.787	16559.71
808.117	16441.52
808.447	16428.86
808.777	16420.73
809.107	16284.68
809.436	16307.06
809.766	16260.96
810.096	16200.17
810.426	16263.22
810.755	16213.73
811.085	16173.5
811.414	16094.63
811.744	15884.47
812.073	15946.16
812.403	16000.85
812.732	15773.51
813.061	15816
813.39	15773.96
813.719	15722.67
814.049	15831.14
814.378	15692.84
814.707	15614.87
815.036	15575.55
815.365	15526.06
815.693	15358.61
816.022	15450.36
816.351	15427.53
816.68	15413.3
817.008	15406.06
817.337	15247.2
817.665	15186.63
817.994	15192.74
818.322	15186.63
818.651	15085.85
818.979	15097.37
819.307	15096.24
819.636	15020.54
819.964	15024.6
820.292	14994.55
820.62	14946.19
820.948	14876.81
821.276	14935.57
821.604	14889.92
821.932	14907.55
822.259	14868.68
822.587	14862.58
822.915	14870.26
823.243	14763.59
823.57	14834.55
823.898	14827.77
824.225	14821.45
824.553	14731.05
824.88	14806.31
825.207	14896.02
825.535	14856.25
825.862	14896.92
826.189	14859.86
826.516	14882.46
826.843	14837.49
827.17	14844.04
827.497	14897.38
827.824	14837.04
828.151	14893.76
828.478	14819.41
828.805	14969.47
829.131	14805.18
829.458	14802.01
829.785	14790.94
830.111	14775.12
830.438	14816.7
830.764	14895.57
831.09	14806.08
831.417	14764.95
831.743	14839.07
832.069	14879.52
832.395	14744.16
832.722	14758.17
833.048	14746.65
833.374	14675.01
833.7	14559.76
834.026	14657.16
834.351	14726.99
834.677	14693.99
835.003	14609.93
835.329	14661.9
835.654	14618.29
835.98	14632.98
836.306	14566.99
836.631	14494
836.956	14465.3
837.282	14562.24
837.607	14524.73
837.932	14437.95
838.258	14464.17
838.583	14448.35
838.908	14290.84
839.233	14385.07
839.558	14268.24
839.883	14335.13
840.208	14269.6
840.533	14345.53
840.858	14302.59
841.182	14275.47
841.507	14148.02
841.832	14167.9
842.156	14123.39
842.481	14193.67
842.805	14106.66
843.13	14039.09
843.454	13998.42
843.778	13914.35
844.103	13906.67
844.427	13809.27
844.751	13867.8
845.075	13830.96
845.399	13725.43
845.723	13771.98
846.047	13742.83
846.371	13540.12
846.695	13559.78
847.019	13449.73
847.343	13409.28
847.666	13290.19
847.99	13356.63
848.313	13271.2
848.637	13209.29
848.96	13141.49
849.284	13099.23
849.607	13054.26
849.931	13072.57
850.254	12900.37
850.577	12845.45
850.9	12859.69
851.223	12818.79
851.546	12665.8
851.869	12702.18
852.192	12691.11
852.515	12550.55
852.838	12499.25
853.161	12511.45
853.483	12434.16
853.806	12384.22
854.129	12339.48
854.451	12354.84
854.774	12290.21
855.096	12298.12
855.419	12202.53
855.741	12170.67
856.063	12073.04
856.385	12130.22
856.708	12076.21
857.03	11954.86
857.352	12017
857.674	11981.75
857.996	11867.4
858.318	11825.59
858.64	11887.96
858.961	11766.84
859.283	11776.78
859.605	11769.32
859.926	11737.23
860.248	11716.22
860.57	11651.59
860.891	11586.96
861.212	11584.24
861.534	11546.73
861.855	11538.82
862.176	11508.77
862.498	11508.54
862.819	11475.77
863.14	11527.97
863.461	11460.63
863.782	11375.66
864.103	11368.66
864.424	11391.71
864.745	11330.01
865.065	11265.16
865.386	11265.16
865.707	11262.9
866.027	11247.08
866.348	11262.22
866.668	11291.37
866.989	11194.2
867.309	11071.49
867.63	11095.67
867.95	11115.56
868.27	11060.19
868.59	11068.32
868.91	10983.13
869.23	11010.93
869.55	10946.07
869.87	11053.64
870.19	11032.85
870.51	11005.05
870.83	10945.62
871.15	10959.18
871.469	10934.32
871.789	10929.57
872.109	10929.12
872.428	10838.73
872.748	10884.15
873.067	10890.25
873.386	10902.23
873.706	10854.55
874.025	10756.02
874.344	10697.26
874.663	10791.27
874.982	10798.05
875.301	10755.11
875.62	10725.96
875.939	10709.46
876.258	10716.7
876.577	10611.16
876.896	10696.36
877.214	10664.95
877.533	10589.02
877.852	10596.92
878.17	10607.32
878.489	10554.21
878.807	10523.03
879.125	10589.47
879.444	10455.69
879.762	10455.69
880.08	10488
880.398	10449.81
880.716	10377.5
881.034	10341.56
881.352	10357.16
881.67	10320.77
881.988	10328.01
882.306	10282.81
882.624	10263.6
882.941	10254.79
883.259	10200.55
883.577	10139.54
883.894	10149.03
884.212	10164.17
884.529	10172.08
884.846	10165.75
885.164	10067.45
885.481	9999.43
885.798	10090.05
886.115	10034.45
886.432	9977.73
886.75	9997.62
887.067	9958.98
887.383	9907.23
887.7	9923.95
888.017	9843.5
888.334	9884.18
888.651	9813.89
888.967	9778.42
889.284	9743.39
889.6	9787.68
889.917	9652.32
890.233	9748.13
890.55	9625.42
890.866	9664.07
891.182	9591.98
891.498	9574.13
891.815	9551.08
892.131	9499.55
892.447	9394.24
892.763	9430.18
893.079	9438.09
893.395	9376.62
893.71	9328.03
894.026	9277.19
894.342	9349.95
894.657	9329.61
894.973	9275.15
895.289	9220.24
895.604	9251.2
895.92	9145.66
896.235	9138.66
896.55	9109.05
896.865	9108.15
897.181	9004.42
897.496	9058.89
897.811	8917.87
898.126	8981.83
898.441	8919
898.756	8910.19
899.071	8864.31
899.386	8791.77
899.7	8782.51
900.015	8753.36
900.33	8687.82
900.644	8767.37
900.959	8752.45
901.273	8591.55
901.588	8582.29
901.902	8571.44
902.216	8500.26
902.531	8569.63
902.845	8494.16
903.159	8481.95
903.473	8371.67
903.787	8395.4
904.101	8269.75
904.415	8312.24
904.729	8269.75
905.042	8295.52
905.356	8248.74
905.67	8199.25
905.984	8128.74
906.297	8141.62
906.611	8033.15
906.924	8104.56
907.237	8081.74
907.551	8017.78
907.864	7988.63
908.177	7999.93
908.491	7911.57
908.804	7928.75
909.117	7831.8
909.43	7814.63
909.743	7698.02
910.056	7793.16
910.368	7748.19
910.681	7697.79
910.994	7638.58
911.307	7684.68
911.619	7636.1
911.932	7619.38
912.244	7530.11
912.557	7568.76
912.869	7574.63
913.181	7465.26
913.494	7440.17
913.806	7381.87
914.118	7298.71
914.43	7361.3
914.742	7322.66
915.054	7213.51
915.366	7218.03
915.678	7188.88
915.99	7140.29
916.302	7142.78
916.613	7100.75
916.925	7083.57
917.236	7106.85
917.548	7032.95
917.859	7006.06
918.171	6986.85
918.482	6911.82
918.794	6902.33
919.105	6905.72
919.416	6831.6
919.727	6859.62
920.038	6824.59
920.349	6766.74
920.66	6732.85
920.971	6687.65
921.282	6690.81
921.593	6675.67
921.903	6704.82
922.214	6609.68
922.525	6574.88
922.835	6569.91
923.146	6467.54
923.456	6531.49
923.767	6465.73
924.077	6463.93
924.387	6446.07
924.697	6351.84
925.008	6387.09
925.318	6276.59
925.628	6326.08
925.938	6274.1
926.248	6260.09
926.558	6203.59
926.867	6193.2
927.177	6158.85
927.487	6152.07
927.796	6096.7
928.106	6044.73
928.416	6048.12
928.725	6003.15
929.034	6008.34
929.344	6043.82
929.653	5977.16
929.962	5939.19
930.271	5911.4
930.581	5944.62
930.89	5899.65
931.199	5845.41
931.508	5772.64
931.817	5778.07
932.125	5744.62
932.434	5722.93
932.743	5698.52
933.051	5654.46
933.36	5684.51
933.669	5626.66
933.977	5556.61
934.286	5564.74
934.594	5541.46
934.902	5517.51
935.21	5562.93
935.519	5491.52
935.827	5519.32
936.135	5450.62
936.443	5452.43
936.751	5393.9
937.059	5387.57
937.367	5381.69
937.674	5363.84
937.982	5376.72
938.29	5265.31
938.597	5255.14
938.905	5214.92
939.213	5198.2
939.52	5155.71
939.827	5184.41
940.135	5169.72
940.442	5083.4
940.749	5076.84
941.056	5053.57
941.363	5036.17
941.67	5014.02
941.977	5000.24
942.284	4971.54
942.591	4986.68
942.898	4971.08
943.205	4948.49
943.511	4914.14
943.818	4886.11
944.125	4870.3
944.431	4883.4
944.738	4808.6
945.044	4788.49
945.35	4769.51
945.657	4726.34
945.963	4722.05
946.269	4671.2
946.575	4677.76
946.881	4645.89
947.187	4652.67
947.493	4589.85
947.799	4589.85
948.105	4568.38
948.41	4540.13
948.716	4541.49
949.022	4521.6
949.327	4466.24
949.633	4461.72
949.938	4462.85
950.244	4420.14
950.549	4423.98
950.854	4376.52
951.16	4406.35
951.465	4356.86
951.77	4364.77
952.075	4320.03
952.38	4283.42
952.685	4262.63
952.99	4217.21
953.294	4235.28
953.599	4222.63
953.904	4210.2
954.209	4130.88
954.513	4224.66
954.818	4189.18
955.122	4165.46
955.426	4142.86
955.731	4128.62
956.035	4067.6
956.339	4058.11
956.643	4051.11
956.948	4001.84
957.252	4007.95
957.556	3990.54
957.86	4012.47
958.163	3976.31
958.467	3978.79
958.771	3990.09
959.075	3923.43
959.378	3919.13
959.682	3861.96
959.985	3905.35
960.289	3849.31
960.592	3828.97
960.896	3772.7
961.199	3817.67
961.502	3807.72
961.805	3805.46
962.108	3766.37
962.411	3750.1
962.714	3684.79
963.017	3700.61
963.32	3708.74
963.623	3725.47
963.926	3625.81
964.228	3631.68
964.531	3638.24
964.833	3595.98
965.136	3598.24
965.438	3569.99
965.741	3560.27
966.043	3554.85
966.345	3535.64
966.648	3531.8
966.95	3510.33
967.252	3512.82
967.554	3466.49
967.856	3445.47
968.158	3433.72
968.46	3410.45
968.761	3453.38
969.063	3382.88
969.365	3355.08
969.666	3385.14
969.968	3339.04
970.269	3321.64
970.571	3298.36
970.872	3311.47
971.174	3277.34
971.475	3260.17
971.776	3284.57
972.077	3248.42
972.378	3219.94
972.679	3233.5
972.98	3221.75
973.281	3186.5
973.582	3163.22
973.883	3172.71
974.183	3094.07
974.484	3145.6
974.785	3099.27
975.085	3105.6
975.386	3092.72
975.686	3098.59
975.986	3070.57
976.287	3034.19
976.587	3037.8
976.887	3015.66
977.187	3044.13
977.487	3000.74
977.787	2998.93
978.087	2971.59
978.387	2977.92
978.687	2940.63
978.987	2916.67
979.286	2890.91
979.586	2882.33
979.885	2901.31
980.185	2870.8
980.484	2857.24
980.784	2854.53
981.083	2834.42
981.382	2827.86
981.682	2809.33
981.981	2797.36
982.28	2798.03
982.579	2759.16
982.878	2793.97
983.177	2758.26
983.475	2768.2
983.774	2728.21
984.073	2716.91
984.372	2723.23
984.67	2736.11
984.969	2694.08
985.267	2666.74
985.566	2676
985.864	2600.98
986.162	2642.78
986.461	2617.02
986.759	2617.25
987.057	2591.49
987.355	2582.45
987.653	2548.1
987.951	2588.1
988.249	2537.02
988.547	2561.43
988.844	2539.74
989.142	2510.36
989.44	2473.07
989.737	2490.47
990.035	2482.34
990.332	2474.43
990.63	2476.69
990.927	2423.81
991.224	2437.37
991.521	2426.52
991.819	2403.24
992.116	2399.63
992.413	2417.25
992.71	2397.37
993.006	2372.28
993.303	2365.28
993.6	2309.46
993.897	2337.48
994.193	2320.08
994.49	2322.11
994.787	2307.65
995.083	2248.9
995.379	2275.34
995.676	2265.84
995.972	2279.63
996.268	2239.18
996.565	2218.39
996.861	2209.8
997.157	2200.08
997.453	2207.77
997.749	2185.39
998.044	2164.6
998.34	2155.79
998.636	2167.09
998.932	2141.78
999.227	2106.3
999.523	2133.64
999.818	2120.76
1000.114	2122.8
1000.409	2094.1
1000.704	2071.95
1001	2068.34
1001.295	2047.09
1001.59	2055.91
1001.885	2017.04
1002.18	2034.21
1002.475	2008.68
1002.77	1987.89
1003.065	2011.84
1003.359	1955.57
1003.654	1965.97
1003.949	1955.57
1004.243	1928.68
1004.538	1943.37
1004.832	1916.02
1005.127	1936.59
1005.421	1864.27
1005.715	1899.98
1006.009	1914.22
1006.304	1895.91
1006.598	1880.54
1006.892	1847.1
1007.186	1834.67
1007.48	1820.43
1007.773	1795.8
1008.067	1792.41
1008.361	1790.15
1008.655	1784.28
1008.948	1789.25
1009.242	1774.33
1009.535	1758.97
1009.829	1755.35
1010.122	1733.2
1010.415	1728.23
1010.708	1699.31
1011.001	1714.9
1011.295	1694.33
1011.588	1714.67
1011.881	1669.7
1012.173	1677.16
1012.466	1667.22
1012.759	1637.16
1013.052	1638.52
1013.344	1655.46
1013.637	1625.64
1013.93	1649.82
1014.222	1605.3
1014.514	1598.07
1014.807	1596.94
1015.099	1591.29
1015.391	1571.17
1015.683	1566.65
1015.976	1531.4
1016.268	1527.78
1016.56	1523.27
1016.851	1533.21
1017.143	1513.32
1017.435	1486.88
1017.727	1486.2
1018.018	1472.64
1018.31	1483.04
1018.602	1455.92
1018.893	1449.59
1019.185	1417.51
1019.476	1451.63
1019.767	1436.04
1020.058	1429.93
1020.35	1401.69
1020.641	1369.14
1020.932	1389.94
1021.223	1390.84
1021.514	1391.74
1021.804	1353.55
1022.095	1353.78
1022.386	1334.57
1022.677	1332.54
1022.967	1301.35
1023.258	1308.13
1023.548	1282.37
1023.839	1262.25
1024.129	1302.71
1024.419	1283.27
1024.709	1298.86
1025	1271.07
1025.29	1270.16
1025.58	1254.8
1025.87	1249.15
1026.16	1236.72
1026.449	1213.89
1026.739	1216.15
1027.029	1207.34
1027.319	1219.32
1027.608	1192.43
1027.898	1205.08
1028.187	1180.9
1028.477	1198.3
1028.766	1163.73
1029.055	1160.56
1029.344	1164.86
1029.634	1125.31
1029.923	1159.88
1030.212	1109.94
1030.501	1117.4
1030.79	1129.6
1031.078	1110.62
1031.367	1097.51
1031.656	1081.24
1031.945	1093.67
1032.233	1076.95
1032.522	1080.34
1032.81	1090.51
1033.099	1052.32
1033.387	1051.41
1033.675	1012.54
1033.963	1026.33
1034.251	1022.94
1034.54	1029.27
1034.828	1009.38
1035.116	998.76
1035.403	1020.68
1035.691	1012.09
1035.979	994.47
1036.267	1012.32
1036.554	987.91
1036.842	1010.96
1037.129	1000.79
1037.417	975.71
1037.704	945.65
1037.992	943.85
1038.279	940.91
1038.566	945.88
1038.853	945.88
1039.14	945.88
