Data from hue_100_FLMS001491_00078.txt Node
Date: Tue Feb 07 17:03:38 GMT 2017
User: dcchb
Spectrometer: FLMS00149
Trigger mode: 0
Integration Time (sec): 2.000000E-2
Scans to average: 10
Electric dark correction enabled: true
Nonlinearity correction enabled: false
Boxcar width: 0
XAxis mode: Wavelengths
Number of Pixels in Spectrum: 2048
>>>>>Begin Spectral Data<<<<<
341.393	-15.44
341.776	-15.44
342.16	-15.44
342.543	-73.29
342.927	-63.57
343.31	-60.41
343.693	-65.38
344.077	-63.8
344.46	-67.19
344.843	-55.89
345.226	-38.26
345.61	-40.75
345.993	-26.51
346.376	-0.75
346.759	1.74
347.142	30.66
347.525	53.04
347.908	58.01
348.291	95.52
348.674	76.31
349.057	103.66
349.44	142.98
349.823	149.08
350.206	170.77
350.588	187.04
350.971	219.36
351.354	215.06
351.737	228.4
352.119	248.06
352.502	256.19
352.884	265.01
353.267	277.66
353.65	278.34
354.032	308.62
354.414	298
354.797	318.79
355.179	323.31
355.562	326.7
355.944	308.85
356.326	348.39
356.709	343.42
357.091	334.38
357.473	329.64
357.855	326.47
358.238	358.11
358.62	349.75
359.002	328.96
359.384	333.48
359.766	347.26
360.148	353.82
360.53	318.57
360.912	328.28
361.294	312.92
361.676	337.55
362.057	340.94
362.439	332.12
362.821	321.95
363.203	311.79
363.584	314.95
363.966	311.33
364.348	338.23
364.729	324.89
365.111	312.01
365.493	319.02
365.874	309.53
366.256	323.99
366.637	305.91
367.019	321.73
367.4	314.05
367.781	317.66
368.163	304.1
368.544	312.92
368.925	308.4
369.306	338.68
369.688	323.99
370.069	321.5
370.45	296.64
370.831	305.46
371.212	326.7
371.593	333.03
371.974	332.8
372.355	335.74
372.736	319.47
373.117	321.95
373.498	316.31
373.879	320.82
374.26	315.18
374.641	325.34
375.021	320.6
375.402	315.18
375.783	311.56
376.163	336.42
376.544	336.87
376.925	317.21
377.305	327.15
377.686	333.48
378.066	336.64
378.447	340.49
378.827	321.5
379.208	332.8
379.588	348.85
379.968	335.29
380.349	344.78
380.729	344.1
381.109	344.55
381.489	342.29
381.87	337.32
382.25	363.08
382.63	359.02
383.01	348.17
383.39	338
383.77	352.69
384.15	362.86
384.53	353.14
384.91	347.72
385.29	352.01
385.67	354.72
386.049	354.72
386.429	359.02
386.809	371.9
387.189	357.43
387.568	357.89
387.948	371.9
388.328	366.93
388.707	369.64
389.087	370.09
389.466	386.81
389.846	367.38
390.225	381.16
390.605	382.52
390.984	395.63
391.363	369.41
391.743	403.53
392.122	379.35
392.501	408.51
392.881	389.98
393.26	356.76
393.639	388.39
394.018	389.52
394.397	392.69
394.776	398.11
395.155	405.12
395.534	387.49
395.913	394.95
396.292	378.9
396.671	415.06
397.05	410.54
397.429	404.66
397.808	413.25
398.186	412.8
398.565	419.35
398.944	431.56
399.323	421.61
399.701	422.74
400.08	398.11
400.458	415.06
400.837	435.17
401.215	414.16
401.594	415.96
401.972	436.98
402.351	405.57
402.729	414.83
403.107	445.57
403.486	445.57
403.864	447.38
404.242	433.14
404.62	451.22
404.999	447.15
405.377	420.71
405.755	448.51
406.133	462.52
406.511	460.26
406.889	470.88
407.267	466.81
407.645	462.74
408.023	490.31
408.401	466.13
408.779	511.1
409.156	482.63
409.534	487.15
409.912	486.47
410.29	490.09
410.667	477.43
411.045	502.97
411.422	501.39
411.8	505.68
412.178	509.07
412.555	518.79
412.933	520.14
413.31	542.74
413.687	527.37
414.065	548.39
414.442	524.89
414.819	541.38
415.197	543.19
415.574	561.72
415.951	557.2
416.328	541.61
416.705	555.85
417.082	545.68
417.46	567.37
417.837	558.56
418.214	567.6
418.591	563.98
418.967	590.65
419.344	566.69
419.721	608.5
420.098	556.3
420.475	581.16
420.852	582.06
421.228	582.74
421.605	615.51
421.982	606.24
422.358	601.5
422.735	622.29
423.111	614.83
423.488	623.19
423.864	625.45
424.241	636.07
424.617	632.68
424.994	643.3
425.37	630.42
425.746	644.21
426.123	646.01
426.499	661.61
426.875	667.48
427.251	669.52
427.627	688.5
428.003	686.92
428.379	693.47
428.756	693.02
429.132	706.8
429.507	707.71
429.883	712.9
430.259	696.86
430.635	728.05
431.011	709.29
431.387	737.76
431.763	737.76
432.138	753.13
432.514	777.54
432.89	744.54
433.265	781.38
433.641	789.97
434.016	756.52
434.392	777.99
434.767	804.65
435.143	792.22
435.518	826.8
435.894	815.28
436.269	852.56
436.644	824.09
437.02	856.63
437.395	854.37
437.77	848.27
438.145	869.74
438.52	880.13
438.895	878.32
439.271	872.9
439.646	916.06
440.021	926.01
440.395	907.25
440.77	889.17
441.145	915.84
441.52	912
441.895	928.72
442.27	948.15
442.645	918.78
443.019	952.67
443.394	952.45
443.769	944.76
444.143	949.96
444.518	955.38
444.892	979.56
445.267	969.4
445.641	1016.17
446.016	971.66
446.39	984.99
446.764	1004.87
447.139	1010.07
447.513	1022.05
447.887	1050.3
448.262	1038.09
448.636	1035.16
449.01	1043.97
449.384	1060.24
449.758	1047.13
450.132	1056.62
450.506	1081.93
450.88	1075.83
451.254	1082.16
451.628	1122.61
452.002	1114.93
452.376	1126.91
452.75	1146.57
453.123	1157.64
453.497	1159.9
453.871	1133.91
454.244	1194.93
454.618	1213.91
454.992	1230.86
455.365	1225.89
455.739	1251.2
456.112	1269.5
456.486	1284.19
456.859	1279.22
457.232	1316.73
457.606	1309.95
457.979	1338.2
458.352	1345.66
458.725	1365.54
459.099	1377.52
459.472	1392.89
459.845	1415.71
460.218	1436.28
460.591	1425.65
460.964	1437.86
461.337	1482.38
461.71	1495.26
462.083	1516.5
462.456	1550.62
462.829	1539.32
463.201	1573.22
463.574	1598.08
463.947	1592.2
464.32	1655.48
464.692	1624.52
465.065	1662.03
465.438	1725.08
465.81	1722.14
466.183	1732.31
466.555	1766.44
466.928	1784.06
467.3	1791.29
467.672	1850.28
468.045	1882.14
468.417	1907
468.789	1927.11
469.161	1936.83
469.534	2010.05
469.906	2046.2
470.278	2058.41
470.65	2104.05
471.022	2134.11
471.394	2172.08
471.766	2202.13
472.138	2213.43
472.51	2301.56
472.882	2346.53
473.253	2370.94
473.625	2429.92
473.997	2511.73
474.369	2530.48
474.74	2576.58
475.112	2645.51
475.484	2697.71
475.855	2762.34
476.227	2784.71
476.598	2901.77
476.97	2935.22
477.341	3011.15
477.713	3106.97
478.084	3179.51
478.455	3302.67
478.827	3311.25
479.198	3459.27
479.569	3511.7
479.94	3617.24
480.311	3699.27
480.682	3780.62
481.053	3899.94
481.424	4000.73
481.795	4094.06
482.166	4166.6
482.537	4269.42
482.908	4451.79
483.279	4526.14
483.65	4613.82
484.021	4783.31
484.391	4920.7
484.762	5015.84
485.133	5116.63
485.503	5238.89
485.874	5382.16
486.244	5482.27
486.615	5665.54
486.985	5757.29
487.356	5957.96
487.726	6075.25
488.097	6240.44
488.467	6319.09
488.837	6525.63
489.207	6671.39
489.578	6850.6
489.948	6911.39
490.318	7120.87
490.688	7210.14
491.058	7407.64
491.428	7545.49
491.798	7691.7
492.168	7960.4
492.538	8088.08
492.908	8175.99
493.278	8358.58
493.648	8412.59
494.017	8626.6
494.387	8763.31
494.757	8898.45
495.126	9019.13
495.496	9126.47
495.866	9290.53
496.235	9418.66
496.605	9566.91
496.974	9667.02
497.344	9825.21
497.713	9991.76
498.082	10064.75
498.452	10247.34
498.821	10414.57
499.19	10394.46
499.559	10609.37
499.928	10716.48
500.298	10830.61
500.667	10998.06
501.036	11076.7
501.405	11250.48
501.774	11251.84
502.143	11423.13
502.512	11468.55
502.88	11576.35
503.249	11638.04
503.618	11726.17
503.987	11775.89
504.356	12025.6
504.724	12069.22
505.093	12233.05
505.462	12250.45
505.83	12352.82
506.199	12439.6
506.567	12661.97
506.936	12596.21
507.304	12824.9
507.672	12845.92
508.041	13015.86
508.409	13036.2
508.777	13185.8
509.145	13172.24
509.514	13262.18
509.882	13405.23
510.25	13417.43
510.618	13420.14
510.986	13461.95
511.354	13658.78
511.722	13767.03
512.09	13822.84
512.458	13814.26
512.826	13927.92
513.193	14069.62
513.561	14066.9
513.929	14192.1
514.297	14213.11
514.664	14334.02
515.032	14357.52
515.4	14474.13
515.767	14491.53
516.135	14561.35
516.502	14492.2
516.869	14721.12
517.237	14735.14
517.604	14639.77
517.972	14756.6
518.339	14890.39
518.706	14857.39
519.073	14908.46
519.44	14977.84
519.808	15064.84
520.175	14972.64
520.542	15159.53
520.909	15188.91
521.276	15230.49
521.643	15295.57
522.009	15396.13
522.376	15432.74
522.743	15431.16
523.11	15588.9
523.477	15672.74
523.843	15791.15
524.21	15776.46
524.577	15845.16
524.943	15941.88
525.31	15971.49
525.676	16037.47
526.043	16127.87
526.409	16061.43
526.776	16208.32
527.142	16171.48
527.508	16140.07
527.874	16265.49
528.241	16304.81
528.607	16298.03
528.973	16333.51
529.339	16346.17
529.705	16500.06
530.071	16475.43
530.437	16507.97
530.803	16577.8
531.169	16553.62
531.535	16432.72
531.901	16440.63
532.267	16450.34
532.632	16570.34
532.998	16585.26
533.364	16606.05
533.73	16493.51
534.095	16595.2
534.461	16635.65
534.826	16618.02
535.192	16675.65
535.557	16663.67
535.923	16594.75
536.288	16698.93
536.653	16584.35
537.019	16554.07
537.384	16571.7
537.749	16599.49
538.114	16556.1
538.479	16434.07
538.845	16606.72
539.21	16493.28
539.575	16477.69
539.94	16387.3
540.305	16592.04
540.67	16404.02
541.034	16427.29
541.399	16494.41
541.764	16420.51
542.129	16398.37
542.494	16313.17
542.858	16398.14
543.223	16318.82
543.587	16256.9
543.952	16247.19
544.316	16179.39
544.681	16223.23
545.045	16248.77
545.41	16219.16
545.774	16238.15
546.138	16072.73
546.503	16168.54
546.867	16106.4
547.231	16182.78
547.595	16066.85
547.959	16151.37
548.324	15989.11
548.688	16029.56
549.052	15987.31
549.416	15856.01
549.779	15892.39
550.143	15896.69
550.507	15898.04
550.871	15882
551.235	15775.56
551.599	15921.77
551.962	15766.97
552.326	15774.43
552.689	15873.86
553.053	15744.6
553.417	15726.75
553.78	15845.16
554.143	15720.65
554.507	15813.98
554.87	15729.23
555.234	15782.11
555.597	15709.12
555.96	15802.45
556.323	15694.43
556.686	15713.87
557.05	15754.77
557.413	15713.87
557.776	15705.28
558.139	15723.81
558.502	15837.48
558.865	15715
559.228	15791.83
559.59	15752.28
559.953	15777.59
560.316	15944.37
560.679	15739.4
561.041	15859.85
561.404	15897.36
561.767	15955.22
562.129	15851.04
562.492	15952.73
562.854	15850.81
563.217	15890.81
563.579	15846.52
563.941	15938.72
564.304	15973.97
564.666	16026.63
565.028	16019.4
565.39	16005.16
565.753	16090.13
566.115	16134.19
566.477	16179.84
566.839	16161.76
567.201	16143.69
567.563	16194.76
567.925	16282.44
568.287	16270.24
568.648	16178.94
569.01	16232.95
569.372	16267.75
569.734	16170.35
570.095	16272.04
570.457	16388.65
570.819	16397.46
571.18	16316.11
571.542	16506.39
571.903	16410.35
572.265	16446.28
572.626	16479.95
572.987	16509.33
573.349	16522.66
573.71	16565.37
574.071	16565.14
574.432	16520.62
574.794	16641.3
575.155	16620.28
575.516	16571.92
575.877	16670.45
576.238	16649.66
576.599	16631.13
576.96	16627.29
577.32	16649.44
577.681	16717.46
578.042	16721.3
578.403	16646.72
578.763	16615.54
579.124	16661.19
579.485	16761.07
579.845	16747.51
580.206	16768.53
580.566	16659.38
580.927	16643.33
581.287	16740.05
581.648	16692.6
582.008	16727.17
582.368	16728.08
582.728	16754.52
583.089	16726.04
583.449	16731.69
583.809	16663.45
584.169	16693.95
584.529	16670.45
584.889	16821.63
585.249	16583.9
585.609	16539.38
585.969	16709.77
586.329	16561.53
586.688	16634.52
587.048	16609.44
587.408	16507.74
587.768	16496.44
588.127	16566.27
588.487	16569.66
588.846	16664.35
589.206	16453.51
589.565	16623.67
589.925	16595.2
590.284	16527.86
590.643	16528.99
591.003	16563.11
591.362	16530.34
591.721	16472.72
592.08	16451.25
592.44	16574.86
592.799	16466.62
593.158	16476.78
593.517	16543.9
593.876	16470.46
594.235	16429.33
594.593	16404.47
594.952	16457.12
595.311	16322.44
595.67	16436.11
596.029	16527.4
596.387	16594.97
596.746	16510.23
597.104	16450.12
597.463	16455.54
597.822	16531.7
598.18	16413.51
598.538	16445.15
598.897	16549.78
599.255	16332.16
599.613	16544.58
599.972	16425.71
600.33	16519.72
600.688	16458.71
601.046	16522.88
601.404	16553.62
601.762	16451.93
602.12	16557.01
602.478	16468.2
602.836	16487.18
603.194	16484.92
603.552	16446.28
603.91	16459.61
604.268	16570.57
604.625	16488.76
604.983	16562.43
605.341	16372.83
605.698	16448.76
606.056	16579.61
606.413	16402.89
606.771	16440.85
607.128	16557.01
607.485	16542.09
607.843	16537.35
608.2	16587.29
608.557	16669.55
608.914	16505.03
609.272	16674.07
609.629	16670.9
609.986	16743.44
610.343	16605.37
610.7	16671.81
611.057	16696.44
611.414	16631.36
611.771	16806.95
612.127	16771.92
612.484	16793.39
612.841	16761.07
613.198	16797.68
613.554	16708.19
613.911	16768.98
614.267	16735.31
614.624	16750.22
614.98	16841.29
615.337	16919.03
615.693	16836.1
616.05	16780.73
616.406	16936.21
616.762	16943.66
617.118	16836.32
617.475	16844.01
617.831	16912.48
618.187	16909.09
618.543	16860.73
618.899	16950.22
619.255	16936.89
619.611	16973.72
619.967	17056.43
620.323	17077.45
620.678	16925.59
621.034	16971.01
621.39	17086.49
621.746	16942.31
622.101	17093.49
622.457	17018.92
622.812	17103.43
623.168	17013.72
623.523	17022.53
623.879	17111.57
624.234	17018.92
624.589	17067.28
624.945	17011.69
625.3	17074.06
625.655	17105.69
626.01	16982.31
626.365	16938.47
626.72	16957.68
627.075	17034.06
627.43	16878.81
627.785	16942.08
628.14	16986.83
628.495	17000.16
628.85	16931.69
629.205	16953.83
629.559	17011.69
629.914	16924
630.269	16923.33
630.623	16910.22
630.978	16824.35
631.332	16954.29
631.687	16865.25
632.041	16823.44
632.396	16854.85
632.75	16722.88
633.104	16818.7
633.459	16714.29
633.813	16691.69
634.167	16697.57
634.521	16799.94
634.875	16705.48
635.229	16769.88
635.583	16647.18
635.937	16603.33
636.291	16609.66
636.645	16618.48
636.999	16547.52
637.352	16555.88
637.706	16486.05
638.06	16547.74
638.413	16499.38
638.767	16378.26
639.121	16542.77
639.474	16408.09
639.828	16426.84
640.181	16375.32
640.534	16334.19
640.888	16266.17
641.241	16336.45
641.594	16392.94
641.947	16388.88
642.301	16319.5
642.654	16323.12
643.007	16308.88
643.36	16331.48
643.713	16213.06
644.066	16226.85
644.419	16222.78
644.771	16121.09
645.124	16016.46
645.477	15945.5
645.83	15853.98
646.182	15822.56
646.535	15858.04
646.888	15791.38
647.24	15643.13
647.593	15709.35
647.945	15744.6
648.298	15676.35
648.65	15661.44
649.002	15553.19
649.355	15712.28
649.707	15668.67
650.059	15792.06
650.411	15984.14
650.763	16040.86
651.115	16067.76
651.467	15986.4
651.819	16052.39
652.171	16026.63
652.523	16014.88
652.875	16005.38
653.227	16034.76
653.578	16061.65
653.93	16055.33
654.282	15985.5
654.633	15942.56
654.985	15988.44
655.337	15962.22
655.688	16047.87
656.039	16087.64
656.391	15919.74
656.742	15917.7
657.094	16006.29
657.445	16086.96
657.796	16023.01
658.147	15933.07
658.498	15940.3
658.849	16096
659.2	16054.42
659.551	15990.92
659.902	16035.89
660.253	16061.65
660.604	16110.92
660.955	16023.24
661.306	16060.98
661.656	16122.44
662.007	16041.77
662.358	16086.74
662.708	15969
663.059	16035.67
663.409	15891.71
663.76	16098.94
664.11	16046.29
664.461	16066.63
664.811	16110.01
665.161	16015.55
665.511	16037.7
665.862	16137.13
666.212	16107.08
666.562	16027.98
666.912	16054.2
667.262	16082.9
667.612	16143.91
667.962	16081.99
668.312	15990.02
668.662	16054.87
669.011	16015.33
669.361	16039.28
669.711	16073.86
670.06	15997.47
670.41	15935.78
670.76	15974.65
671.109	15998.15
671.459	16041.99
671.808	16004.03
672.157	15971.26
672.507	15886.52
672.856	15936.01
673.205	15931.04
673.554	15975.33
673.904	15869.34
674.253	16013.52
674.602	15863.47
674.951	15706.18
675.3	15609.01
675.649	15857.59
675.998	15793.86
676.346	15828.89
676.695	15881.55
677.044	15738.95
677.393	15804.94
677.741	15767.2
678.09	15730.82
678.438	15717.93
678.787	15788.44
679.135	15772.85
679.484	15653.08
679.832	15634.77
680.181	15619.18
680.529	15658.27
680.877	15507.54
681.225	15527.66
681.573	15572.85
681.922	15451.73
682.27	15354.55
682.618	15391.84
682.966	15440.65
683.314	15337.15
683.661	15272.52
684.009	15258.74
684.357	15218.29
684.705	15210.83
685.053	15216.48
685.4	15163.6
685.748	15191.17
686.095	15186.87
686.443	15081.79
686.79	15021.23
687.138	15019.2
687.485	15032.98
687.832	15023.49
688.18	15024.62
688.527	14956.82
688.874	14943.27
689.221	14867.11
689.568	14809.48
689.915	14728.36
690.262	14803.16
690.609	14662.14
690.956	14716.38
691.303	14588.25
691.65	14539.21
691.997	14533.56
692.344	14486.78
692.69	14342.15
693.037	14412.88
693.383	14278.42
693.73	14268.48
694.077	14162.49
694.423	14195.94
694.769	14159.33
695.116	14133.57
695.462	14071.2
695.808	14067.13
696.155	14014.48
696.501	13896.97
696.847	13902.84
697.193	13791.88
697.539	13858.55
697.885	13747.36
698.231	13618.78
698.577	13642.51
698.923	13630.76
699.269	13552.34
699.614	13469.86
699.96	13453.13
700.306	13346.25
700.651	13292.01
700.997	13383.31
701.342	13253.59
701.688	13310.99
702.033	13206.36
702.379	13170.2
702.724	13154.16
703.069	13108.06
703.415	13004.11
703.76	13031.9
704.105	12944.67
704.45	12883.66
704.795	12836.65
705.14	12819.71
705.485	12715.3
705.83	12768.18
706.175	12714.4
706.52	12695.87
706.865	12591.46
707.209	12634.85
707.554	12567.51
707.899	12548.07
708.243	12443.9
708.588	12428.08
708.932	12360.06
709.277	12343.33
709.621	12321.41
709.966	12297.46
710.31	12311.24
710.654	12187.18
710.998	12206.61
711.342	12085.04
711.687	12205.26
712.031	12045.71
712.375	12015.66
712.719	12099.5
713.063	12059.27
713.407	12024.47
713.75	11898.6
714.094	11899.96
714.438	11954.19
714.782	11856.57
715.125	11779.28
715.469	11861.99
715.812	11843.69
716.156	11685.5
716.499	11779.28
716.843	11741.09
717.186	11687.53
717.53	11737.93
717.873	11772.5
718.216	11689.79
718.559	11637.36
718.902	11544.03
719.246	11609.34
719.589	11602.11
719.932	11479.4
720.275	11597.59
720.617	11499.51
720.96	11502.45
721.303	11553.07
721.646	11551.26
721.989	11436.46
722.331	11506.29
722.674	11414.54
723.016	11519.85
723.359	11445.5
723.701	11481.21
724.044	11362.12
724.386	11260.88
724.729	11395.79
725.071	11285.96
725.413	11370.93
725.755	11330.03
726.097	11281.44
726.439	11215
726.782	11296.13
727.124	11282.12
727.465	11268.11
727.807	11195.79
728.149	11202.12
728.491	11191.73
728.833	11237.6
729.175	11148.11
729.516	11179.52
729.858	11158.51
730.199	11150.37
730.541	11166.64
730.882	11136.36
731.224	11177.94
731.565	11142.01
731.906	11164.38
732.248	11190.82
732.589	11048.23
732.93	11064.5
733.271	11140.43
733.612	11126.64
733.953	11093.65
734.294	11077.38
734.635	11122.8
734.976	11026.53
735.317	11073.31
735.658	11097.26
735.999	11148.34
736.339	11055.01
736.68	11210.48
737.021	11132.97
737.361	11070.6
737.702	11194.44
738.042	11053.2
738.383	11125.29
738.723	11189.92
739.063	11117.83
739.404	11138.39
739.744	11159.86
740.084	11168
740.424	11222.01
740.764	11226.3
741.104	11130.03
741.444	11181.56
741.784	11275.57
742.124	11238.96
742.464	11230.37
742.804	11312.4
743.143	11232.63
743.483	11312.17
743.823	11191.95
744.162	11272.85
744.502	11320.54
744.841	11351.95
745.181	11350.59
745.52	11408.89
745.86	11388.33
746.199	11485.5
746.538	11504.94
746.877	11693.86
747.216	11678.27
747.556	11704.71
747.895	11793.29
748.234	11762.11
748.573	11764.82
748.911	11885.72
749.25	11868.77
749.589	11891.37
749.928	12055.43
750.267	12174.52
750.605	12174.3
750.944	12286.39
751.283	12342.66
751.621	12393.95
751.96	12456.55
752.298	12604.12
752.636	12737
752.975	12792.81
753.313	12829.87
753.651	13025.58
753.989	13038.23
754.327	13110.32
754.666	13225.34
755.004	13367.04
755.342	13509.86
755.679	13731.09
756.017	13687.48
756.355	13936.29
756.693	14007.02
757.031	14209.95
757.368	14316.84
757.706	14511.64
758.044	14616.27
758.381	14769.03
758.719	14914.11
759.056	15119.76
759.394	15269.13
759.731	15261.45
760.068	15469.13
760.405	15667.54
760.743	15685.39
761.08	15916.35
761.417	16028.66
761.754	16267.07
762.091	16441.76
762.428	16500.29
762.765	16749.55
763.102	16892.37
763.438	17000.84
763.775	17062.98
764.112	17239.25
764.449	17481.28
764.785	17580.71
765.122	17704.77
765.458	17792.23
765.795	18027.03
766.131	18134.59
766.467	18296.62
766.804	18313.57
767.14	18363.74
767.476	18656.39
767.812	18732.09
768.148	18887.79
768.485	18938.64
768.821	19058.19
769.157	19121.46
769.492	19241.01
769.828	19395.58
770.164	19333.66
770.5	19412.98
770.836	19657.72
771.171	19700.2
771.507	19725.06
771.842	19711.73
772.178	19954.66
772.513	19924.6
772.849	20076.01
773.184	20025.17
773.519	20185.39
773.855	20129.8
774.19	20172.73
774.525	20215.22
774.86	20430.8
775.195	20404.14
775.53	20324.82
775.865	20467.64
776.2	20423.8
776.535	20329.56
776.87	20458.83
777.205	20456.79
777.539	20548.54
777.874	20589.22
778.209	20482.33
778.543	20439.84
778.878	20456.79
779.212	20471.26
779.547	20488.66
779.881	20665.6
780.215	20537.47
780.55	20634.64
780.884	20504.47
781.218	20482.78
781.552	20587.86
781.886	20638.26
782.22	20476.91
782.554	20556
782.888	20374.53
783.222	20458.15
783.556	20395.78
783.889	20260.19
784.223	20307.64
784.557	20233.3
784.89	20374.08
785.224	20242.56
785.557	20261.09
785.891	20203.69
786.224	20135.22
786.558	20210.02
786.891	20115.78
787.224	20031.72
787.557	20033.75
787.891	19986.97
788.224	20055.9
788.557	20092.28
788.89	19945.62
789.223	19962.57
789.556	19753.76
789.888	19860.65
790.221	19782.01
790.554	19614.78
790.887	19702.01
791.219	19619.98
791.552	19630.83
791.884	19512.18
792.217	19535.01
792.549	19510.15
792.882	19411.4
793.214	19260.21
793.546	19347.67
793.879	19295.92
794.211	19145.64
794.543	19216.37
794.875	19178.86
795.207	19284.17
795.539	19174.11
795.871	19027.23
796.203	19029.03
796.535	18966.21
796.867	18916.72
797.198	18867.46
797.53	18830.62
797.862	18721.7
798.193	18836.27
798.525	18700
798.856	18648.93
799.188	18557.41
799.519	18448.94
799.85	18288.49
800.182	18445.32
800.513	18299.79
800.844	18326.68
801.175	18468.14
801.506	18280.58
801.837	18255.72
802.168	18165.55
802.499	18159
802.83	18074.93
803.161	18014.37
803.491	18053.24
803.822	17985.67
804.153	17973.24
804.483	17838.56
804.814	17854.6
805.145	17820.48
805.475	17750.65
805.805	17615.06
806.136	17673.36
806.466	17695.51
806.796	17657.32
807.126	17523.99
807.457	17450.54
807.787	17399.47
808.117	17422.3
808.447	17387.04
808.777	17411
809.107	17286.03
809.436	17248.29
809.766	17296.42
810.096	17069.99
810.426	17126.26
810.755	17141.4
811.085	17112.7
811.414	17135.07
811.744	16939.37
812.073	16933.04
812.403	16984.12
812.732	16837.45
813.061	16831.35
813.39	16662.09
813.719	16702.09
814.049	16847.85
814.378	16678.36
814.707	16658.25
815.036	16647.63
815.365	16627.51
815.693	16406.73
816.022	16492.15
816.351	16370.12
816.68	16360.4
817.008	16411.7
817.337	16257.36
817.665	16163.35
817.994	16227.53
818.322	16318.6
818.651	16226.4
818.979	16086.06
819.307	16140.97
819.636	16147.98
819.964	15999.96
820.292	16058.04
820.62	16087.64
820.948	15994.09
821.276	16145.49
821.604	16006.06
821.932	16093.74
822.259	16097.36
822.587	16033.86
822.915	16034.31
823.243	16004.25
823.57	16042.9
823.898	15982.79
824.225	15959.06
824.553	15931.71
824.88	15985.72
825.207	15966.97
825.535	16024.37
825.862	16013.07
826.189	15880.42
826.516	16020.98
826.843	16102.1
827.17	16013.97
827.497	16042.9
827.824	16089.45
828.151	16128.09
828.478	15992.73
828.805	16103.46
829.131	16029.34
829.458	15987.76
829.785	15987.76
830.111	16063.24
830.438	16017.81
830.764	15978.49
831.09	16049
831.417	15909.34
831.743	16016.46
832.069	15999.51
832.395	15946.63
832.722	15920.64
833.048	15890.59
833.374	16033.41
833.7	15800.64
834.026	15914.77
834.351	15947.53
834.677	15870.7
835.003	15905.73
835.329	15827.31
835.654	15729.01
835.98	15718.61
836.306	15741.44
836.631	15688.78
836.956	15712.74
837.282	15695.56
837.607	15681.32
837.932	15692.62
838.258	15624.83
838.583	15657.6
838.908	15536.02
839.233	15483.36
839.558	15533.98
839.883	15447.88
840.208	15387.77
840.533	15395.91
840.858	15521.33
841.182	15377.15
841.507	15435.23
841.832	15301.9
842.156	15272.52
842.481	15268.45
842.805	15269.58
843.13	15190.72
843.454	15183.03
843.778	15084.5
844.103	15137.38
844.427	15094.67
844.751	15087.44
845.075	14983.94
845.399	14908.46
845.723	14870.5
846.047	14872.31
846.371	14917.28
846.695	14797.28
847.019	14765.87
847.343	14611.07
847.666	14516.16
847.99	14526.55
848.313	14412.21
848.637	14307.12
848.96	14347.12
849.284	14279.33
849.607	14162.49
849.931	14134.25
850.254	14081.14
850.577	14059.45
850.9	13910.52
851.223	13995.27
851.546	13803.86
851.869	13726.12
852.192	13859.45
852.515	13685.67
852.838	13672.11
853.161	13637.31
853.483	13576.52
853.806	13491.78
854.129	13523.64
854.451	13456.3
854.774	13395.96
855.096	13341.05
855.419	13281.61
855.741	13289.52
856.063	13210.2
856.385	13242.29
856.708	13064.67
857.03	13061.05
857.352	13115.97
857.674	13007.72
857.996	13025.35
858.318	12908.29
858.64	12922.08
858.961	12830.55
859.283	12866.94
859.605	12798.69
859.926	12814.06
860.248	12736.77
860.57	12725.47
860.891	12674.62
861.212	12716.88
861.534	12643.44
861.855	12615.87
862.176	12649.31
862.498	12635.53
862.819	12578.58
863.14	12500.39
863.461	12474.86
863.782	12392.82
864.103	12453.61
864.424	12538.81
864.745	12451.81
865.065	12309.89
865.386	12339.04
865.707	12265.37
866.027	12294.97
866.348	12260.85
866.668	12247.97
866.989	12256.78
867.309	12180.63
867.63	12117.8
867.95	12196.22
868.27	12059.95
868.59	12090.46
868.91	12087.52
869.23	12005.04
869.55	11981.54
869.87	12032.16
870.19	12047.97
870.51	12088.2
870.83	11934.76
871.15	11992.83
871.469	11930.92
871.789	11928.2
872.109	11893.63
872.428	11892.72
872.748	11900.18
873.067	11887.3
873.386	11840.3
873.706	11819.28
874.025	11661.09
874.344	11731.6
874.663	11762.56
874.982	11769.79
875.301	11784.7
875.62	11679.17
875.939	11683.24
876.258	11659.28
876.577	11601.66
876.896	11622.22
877.214	11530.7
877.533	11579.96
877.852	11519.63
878.17	11502.68
878.489	11504.94
878.807	11522.34
879.125	11424.26
879.444	11416.58
879.762	11452.51
880.08	11433.53
880.398	11360.31
880.716	11368.44
881.034	11308.11
881.352	11340.2
881.67	11276.47
881.988	11262.46
882.306	11243.02
882.624	11188.34
882.941	11128.68
883.259	11086.19
883.577	11104.27
883.894	11100.88
884.212	11066.31
884.529	11092.75
884.846	11005.97
885.164	10980.66
885.481	11007.78
885.798	11016.81
886.115	10859.3
886.432	10890.94
886.75	10867.44
887.067	10911.73
887.383	10851.62
887.7	10874.9
888.017	10786.09
888.334	10801.91
888.651	10711.51
888.967	10706.77
889.284	10666.54
889.6	10614.57
889.917	10638.07
890.233	10538.18
890.55	10534.12
890.866	10537.05
891.182	10557.62
891.498	10446.66
891.815	10487.56
892.131	10331.41
892.447	10354.69
892.763	10277.85
893.079	10353.56
893.395	10312.88
893.71	10194.01
894.026	10260.68
894.342	10220.9
894.657	10161.92
894.973	10113.34
895.289	10093
895.604	10101.81
895.92	9973
896.235	9918.76
896.55	9884.42
896.865	9897.3
897.181	9868.82
897.496	9931.19
897.811	9783.17
898.126	9772.1
898.441	9746.11
898.756	9706.34
899.071	9667.47
899.386	9687.36
899.7	9558.32
900.015	9474.26
900.33	9415.28
900.644	9532.33
900.959	9495.27
901.273	9462.73
901.588	9405.56
901.902	9275.39
902.216	9342.28
902.531	9271.32
902.845	9285.56
903.159	9183.42
903.473	9137.99
903.787	9107.03
904.101	9060.93
904.415	9047.38
904.729	9050.09
905.042	8940.03
905.356	8961.95
905.67	8992.46
905.984	8956.98
906.297	8880.83
906.611	8816.87
906.924	8808.29
907.237	8814.84
907.551	8747.72
907.864	8787.04
908.177	8688.29
908.491	8630.66
908.804	8609.42
909.117	8559.7
909.43	8526.03
909.743	8480.61
910.056	8443.55
910.368	8426.6
910.681	8342.08
910.994	8365.13
911.307	8360.84
911.619	8306.83
911.932	8334.17
912.244	8163.1
912.557	8163.33
912.869	8143.9
913.181	8127.17
913.494	8121.75
913.806	8063.22
914.118	8066.84
914.43	8012.6
914.742	7949.32
915.054	7916.33
915.366	7862.55
915.678	7891.47
915.99	7793.17
916.302	7752.04
916.613	7711.59
916.925	7737.35
917.236	7686.28
917.548	7626.4
917.859	7674.3
918.171	7603.8
918.482	7549.79
918.794	7514.76
919.105	7489
919.416	7475.44
919.727	7439.06
920.038	7384.59
920.349	7366.29
920.66	7408.1
920.971	7340.3
921.282	7349.34
921.593	7239.29
921.903	7193.19
922.214	7112.28
922.525	7201.32
922.835	7142.34
923.146	7081.33
923.456	7109.57
923.767	7039.29
924.077	6966.07
924.387	6994.55
924.697	6969.69
925.008	6976.47
925.318	6908.22
925.628	6867.77
925.938	6879.07
926.248	6746.87
926.558	6761.79
926.867	6765.18
927.177	6717.04
927.487	6735.12
927.796	6673.43
928.106	6622.13
928.416	6618.51
928.725	6590.94
929.034	6537.16
929.344	6543.71
929.653	6551.17
929.962	6478.86
930.271	6450.61
930.581	6490.83
930.89	6321.35
931.199	6350.95
931.508	6343.94
931.817	6324.51
932.125	6246.77
932.434	6326.54
932.743	6213.55
933.051	6177.62
933.36	6181.91
933.669	6133.78
933.977	6083.61
934.286	6081.35
934.594	6087.68
934.902	6050.62
935.21	6004.52
935.519	5999.77
935.827	6023.95
936.135	5941.02
936.443	5910.51
936.751	5913.67
937.059	5902.83
937.367	5863.28
937.674	5815.37
937.982	5854.69
938.29	5778.53
938.597	5744.19
938.905	5755.71
939.213	5703.28
939.52	5701.47
939.827	5727.46
940.135	5615.83
940.442	5622.83
940.749	5553.91
941.056	5574.02
941.363	5498.32
941.67	5540.35
941.977	5483.85
942.284	5431.65
942.591	5486.11
942.898	5505.77
943.205	5412.22
943.511	5393.46
943.818	5325.44
944.125	5365.66
944.431	5309.62
944.738	5332.22
945.044	5290.19
945.35	5235.95
945.657	5219.91
945.963	5170.87
946.269	5224.65
946.575	5161.83
946.881	5133.81
947.187	5108.72
947.493	5071.21
947.799	5142.85
948.105	5099.46
948.41	5064.43
948.716	5033.47
949.022	5001.38
949.327	4982.62
949.633	4896.98
949.938	4918.44
950.244	4929.74
950.549	4854.72
950.854	4843.42
951.16	4814.72
951.465	4828.95
951.77	4753.93
952.075	4808.62
952.38	4746.02
952.685	4742.63
952.99	4698.34
953.294	4651.11
953.599	4706.02
953.904	4594.61
954.209	4619.02
954.513	4602.07
954.818	4615.4
955.122	4561.39
955.426	4521.17
955.731	4500.83
956.035	4505.8
956.339	4472.35
956.643	4430.1
956.948	4399.14
957.252	4369.08
957.556	4404.11
957.86	4382.19
958.163	4371.11
958.467	4343.09
958.771	4346.03
959.075	4335.63
959.378	4321.85
959.682	4289.76
959.985	4240.5
960.289	4249.08
960.592	4197.79
960.896	4203.89
961.199	4187.16
961.502	4131.57
961.805	4153.04
962.108	4145.58
962.411	4125.02
962.714	4065.13
963.017	4123.89
963.32	4075.75
963.623	4012.25
963.926	4049.99
964.228	4021.97
964.531	3969.99
964.833	3974.06
965.136	3953.05
965.438	3935.87
965.741	3926.61
966.043	3882.99
966.345	3886.83
966.648	3869.66
966.95	3829.66
967.252	3799.15
967.554	3819.72
967.856	3801.64
968.158	3750.34
968.46	3735.88
968.761	3764.12
969.063	3769.77
969.365	3719.15
969.666	3674.64
969.968	3621.76
970.269	3679.15
970.571	3649.1
970.872	3633.51
971.174	3626.5
971.475	3623.11
971.776	3592.15
972.077	3542.89
972.378	3535.43
972.679	3544.47
972.98	3531.14
973.281	3519.16
973.582	3492.49
973.883	3492.94
974.183	3434.42
974.484	3459.95
974.785	3464.02
975.085	3424.92
975.386	3401.2
975.686	3412.5
975.986	3324.81
976.287	3383.57
976.587	3362.55
976.887	3324.59
977.187	3339.95
977.487	3273.74
977.787	3251.82
978.087	3241.43
978.387	3216.57
978.687	3212.73
978.987	3229
979.286	3207.08
979.586	3209.56
979.885	3196.91
980.185	3169.79
980.484	3141.54
980.784	3170.92
981.083	3131.82
981.382	3099.28
981.682	3087.08
981.981	3068.55
982.28	3094.31
982.579	3014.54
982.878	3083.46
983.177	3007.31
983.475	3010.92
983.774	2965.28
984.073	2973.41
984.372	2967.31
984.67	2947.42
984.969	2954.43
985.267	2935.45
985.566	2960.76
985.864	2905.84
986.162	2883.7
986.461	2922.56
986.759	2932.73
987.057	2847.31
987.355	2855
987.653	2830.36
987.951	2805.73
988.249	2796.24
988.547	2801.44
988.844	2781.55
989.142	2775.45
989.44	2758.5
989.737	2727.09
990.035	2690.25
990.332	2712.17
990.63	2720.08
990.927	2688.22
991.224	2680.54
991.521	2680.76
991.819	2640.76
992.116	2651.61
992.413	2622.69
992.71	2596.92
993.006	2559.86
993.303	2605.96
993.6	2591.5
993.897	2566.19
994.193	2556.25
994.49	2558.73
994.787	2534.78
995.083	2518.51
995.379	2492.07
995.676	2490.03
995.972	2492.75
996.268	2485.74
996.565	2467.21
996.861	2455.01
997.157	2426.08
997.453	2428.34
997.749	2402.8
998.044	2378.85
998.34	2389.7
998.636	2378.4
998.932	2375.01
999.227	2330.04
999.523	2313.77
999.818	2336.37
1000.114	2303.82
1000.409	2291.17
1000.704	2291.17
1001	2256.59
1001.295	2254.79
1001.59	2249.81
1001.885	2236.71
1002.18	2210.27
1002.475	2216.59
1002.77	2171.4
1003.065	2184.28
1003.359	2182.92
1003.654	2178.63
1003.949	2112.64
1004.243	2119.65
1004.538	2129.14
1004.832	2117.39
1005.127	2123.04
1005.421	2088.91
1005.715	2075.58
1006.009	2068.35
1006.304	2093.43
1006.598	2036.26
1006.892	2034
1007.186	2028.58
1007.48	1988.13
1007.773	1994
1008.067	2017.5
1008.361	1945.87
1008.655	1946.54
1008.948	1947
1009.242	1943.38
1009.535	1939.77
1009.829	1921.69
1010.122	1913.78
1010.415	1864.74
1010.708	1879.43
1011.001	1891.86
1011.295	1863.84
1011.588	1854.34
1011.881	1828.36
1012.173	1837.62
1012.466	1825.19
1012.759	1791.29
1013.052	1833.78
1013.344	1803.95
1013.637	1768.92
1013.93	1762.14
1014.222	1754.91
1014.514	1746.78
1014.807	1754.46
1015.099	1750.17
1015.391	1734.8
1015.683	1703.39
1015.976	1694.57
1016.268	1648.02
1016.56	1655.93
1016.851	1652.09
1017.143	1656.83
1017.435	1618.87
1017.727	1660.68
1018.018	1591.3
1018.31	1635.14
1018.602	1598.76
1018.893	1619.77
1019.185	1592.88
1019.476	1550.62
1019.767	1549.95
1020.058	1579.55
1020.35	1537.52
1020.641	1523.05
1020.932	1518.31
1021.223	1516.95
1021.514	1500.91
1021.804	1479.66
1022.095	1491.19
1022.386	1478.53
1022.677	1452.77
1022.967	1452.32
1023.258	1455.48
1023.548	1445.32
1023.839	1412.1
1024.129	1448.25
1024.419	1418.88
1024.709	1396.28
1025	1354.24
1025.29	1378.2
1025.58	1344.98
1025.87	1349.95
1026.16	1320.12
1026.449	1351.31
1026.739	1312.21
1027.029	1315.15
1027.319	1290.29
1027.608	1317.41
1027.898	1317.63
1028.187	1297.97
1028.477	1253.91
1028.766	1276.28
1029.055	1253.23
1029.344	1265.21
1029.634	1261.14
1029.923	1234.7
1030.212	1220.46
1030.501	1221.82
1030.79	1193.57
1031.078	1200.12
1031.367	1216.85
1031.656	1189.73
1031.945	1168.71
1032.233	1182.27
1032.522	1174.59
1032.81	1156.74
1033.099	1151.99
1033.387	1123.74
1033.675	1154.02
1033.963	1109.5
1034.251	1128.04
1034.54	1124.19
1034.828	1126.23
1035.116	1094.59
1035.403	1078.09
1035.691	1085.32
1035.979	1090.07
1036.267	1059.56
1036.554	1069.05
1036.842	1041.03
1037.129	1052.33
1037.417	1068.15
1037.704	1036.51
1037.992	1058.43
1038.279	1014.14
1038.566	1000.58
1038.853	1000.58
1039.14	1000.58
