Data from hue_22_FLMS001491_00100.txt Node
Date: Tue Feb 07 17:10:58 GMT 2017
User: dcchb
Spectrometer: FLMS00149
Trigger mode: 0
Integration Time (sec): 2.000000E-2
Scans to average: 10
Electric dark correction enabled: true
Nonlinearity correction enabled: false
Boxcar width: 0
XAxis mode: Wavelengths
Number of Pixels in Spectrum: 2048
>>>>>Begin Spectral Data<<<<<
341.393	-15.69
341.776	-15.69
342.16	-15.69
342.543	-61.57
342.927	-51.17
343.31	-85.29
343.693	-67.44
344.077	-76.26
344.46	-58.63
344.843	-62.02
345.226	-37.84
345.61	-27.22
345.993	-11.85
346.376	-24.28
346.759	27.47
347.142	22.95
347.525	41.71
347.908	75.15
348.291	82.38
348.674	78.77
349.057	122.38
349.44	126
349.823	154.47
350.206	173
350.588	184.08
350.971	216.62
351.354	239.22
351.737	252.32
352.119	268.37
352.502	260.91
352.884	271.98
353.267	284.64
353.65	301.36
354.032	296.62
354.414	305.88
354.797	307.24
355.179	323.06
355.562	307.69
355.944	346.56
356.326	325.54
356.709	343.62
357.091	350.17
357.473	336.39
357.855	342.27
358.238	354.02
358.62	359.21
359.002	350.4
359.384	333.68
359.766	354.92
360.148	335.71
360.53	326.45
360.912	340.68
361.294	327.35
361.676	331.19
362.057	356.28
362.439	343.62
362.821	337.97
363.203	321.7
363.584	322.83
363.966	317.18
364.348	347.91
364.729	342.27
365.111	344.98
365.493	320.34
365.874	330.74
366.256	304.53
366.637	319.67
367.019	313.34
367.4	316.28
367.781	319.44
368.163	328.71
368.544	324.19
368.925	312.21
369.306	341.36
369.688	315.15
370.069	318.76
370.45	330.97
370.831	312.66
371.212	309.95
371.593	311.08
371.974	299.1
372.355	306.33
372.736	328.48
373.117	299.1
373.498	304.75
373.879	322.6
374.26	318.31
374.641	310.63
375.021	315.6
375.402	332.32
375.783	318.99
376.163	354.92
376.544	323.96
376.925	338.65
377.305	331.64
377.686	316.73
378.066	325.32
378.447	332.32
378.827	327.12
379.208	327.35
379.588	335.94
379.968	336.16
380.349	337.07
380.729	347.91
381.109	321.93
381.489	325.32
381.87	342.72
382.25	323.96
382.63	341.81
383.01	342.49
383.39	355.82
383.77	353.34
384.15	336.39
384.53	342.04
384.91	358.54
385.29	358.54
385.67	342.72
386.049	343.85
386.429	366.67
386.809	348.14
387.189	357.86
387.568	358.08
387.948	362.83
388.328	378.2
388.707	342.72
389.087	357.18
389.466	368.93
389.846	351.98
390.225	361.7
390.605	376.16
390.984	374.35
391.363	389.72
391.743	367.58
392.122	388.82
392.501	377.07
392.881	352.66
393.26	374.81
393.639	390.4
394.018	388.37
394.397	400.57
394.776	380.91
395.155	365.54
395.534	386.78
395.913	389.04
396.292	423.62
396.671	382.26
397.05	399.89
397.429	384.75
397.808	376.61
398.186	384.75
398.565	378.2
398.944	397.18
399.323	374.35
399.701	391.3
400.08	394.02
400.458	401.25
400.837	399.89
401.215	414.35
401.594	400.34
401.972	403.73
402.351	407.12
402.729	405.77
403.107	408.93
403.486	396.95
403.864	412.32
404.242	411.19
404.62	414.58
404.999	417.97
405.377	404.41
405.755	431.53
406.133	418.2
406.511	418.2
406.889	422.26
407.267	399.21
407.645	414.81
408.023	441.92
408.401	431.08
408.779	424.52
409.156	460
409.534	419.33
409.912	438.76
410.29	438.53
410.667	443.28
411.045	456.84
411.422	479.66
411.8	452.09
412.178	459.32
412.555	439.21
412.933	466.78
413.31	472.43
413.687	464.07
414.065	475.14
414.442	475.59
414.819	462.04
415.197	476.5
415.574	494.35
415.951	484.18
416.328	480.57
416.705	483.73
417.082	485.54
417.46	482.15
417.837	491.64
418.214	479.21
418.591	483.28
418.967	485.76
419.344	499.77
419.721	509.27
420.098	506.78
420.475	504.97
420.852	516.27
421.228	518.08
421.605	523.28
421.982	526.89
422.358	534.8
422.735	518.76
423.111	533.45
423.488	527.34
423.864	532.99
424.241	544.52
424.617	544.97
424.994	544.75
425.37	536.38
425.746	546.55
426.123	547.91
426.499	542.26
426.875	538.42
427.251	554.46
427.627	550.17
428.003	585.87
428.379	576.38
428.756	570.96
429.132	572.32
429.507	598.76
429.883	572.32
430.259	604.41
430.635	572.54
431.011	591.07
431.387	606.66
431.763	622.48
432.138	615.25
432.514	607.12
432.89	622.71
433.265	640.79
433.641	633.56
434.016	629.72
434.392	635.36
434.767	634.91
435.143	677.4
435.518	651.86
435.894	655.03
436.269	653.44
436.644	667.68
437.02	677.85
437.395	656.61
437.77	663.61
438.145	701.8
438.52	683.27
438.895	687.79
439.271	713.78
439.646	716.27
440.021	713.78
440.395	710.16
440.77	717.62
441.145	703.84
441.52	710.62
441.895	716.49
442.27	741.8
442.645	742.48
443.019	739.77
443.394	755.36
443.769	735.02
444.143	754.01
444.518	752.88
444.892	763.72
445.267	783.38
445.641	751.97
446.016	780.45
446.39	768.69
446.764	770.5
447.139	779.77
447.513	787.9
447.887	759.2
448.262	779.32
448.636	806.66
449.01	829.26
449.384	793.55
449.758	806.21
450.132	806.43
450.506	818.86
450.88	820.9
451.254	822.25
451.628	808.92
452.002	813.21
452.376	838.07
452.75	838.98
453.123	832.65
453.497	836.04
453.871	885.3
454.244	872.19
454.618	881.01
454.992	914.68
455.365	878.3
455.739	941.12
456.112	925.98
456.486	906.54
456.859	916.71
457.232	942.25
457.606	925.3
457.979	975.24
458.352	969.14
458.725	963.49
459.099	958.75
459.472	996.94
459.845	997.84
460.218	1024.96
460.591	1006.43
460.964	1051.85
461.337	1027.67
461.71	1050.49
462.083	1059.08
462.456	1074.45
462.829	1066.31
463.201	1098.18
463.574	1102.02
463.947	1100.89
464.32	1119.42
464.692	1152.19
465.065	1148.35
465.438	1171.85
465.81	1179.31
466.183	1183.37
466.555	1212.75
466.928	1180.21
467.3	1224.05
467.672	1226.76
468.045	1248.68
468.417	1252.98
468.789	1283.94
469.161	1292.75
469.534	1283.48
469.906	1304.5
470.278	1372.52
470.65	1346.53
471.022	1380.66
471.394	1403.03
471.766	1452.07
472.138	1419.75
472.51	1466.53
472.882	1491.39
473.253	1516.25
473.625	1510.82
473.997	1542.46
474.369	1563.93
474.74	1557.6
475.112	1617.49
475.484	1609.35
475.855	1693.42
476.227	1679.18
476.598	1734.54
476.97	1733.87
477.341	1784.49
477.713	1808.44
478.084	1803.47
478.455	1902.45
478.827	1895.22
479.198	1961.66
479.569	1943.13
479.94	2033.07
480.311	2068.32
480.682	2056.57
481.053	2151.26
481.424	2197.13
481.795	2211.82
482.166	2235.32
482.537	2276.23
482.908	2323.23
483.279	2354.64
483.65	2408.65
484.021	2480.06
484.391	2507.63
484.762	2508.76
485.133	2555.99
485.503	2625.82
485.874	2645.48
486.244	2722.99
486.615	2761.41
486.985	2798.02
487.356	2837.34
487.726	2843.67
488.097	2919.15
488.467	3019.48
488.837	3022.65
489.207	3097.9
489.578	3118.92
489.948	3162.08
490.318	3194.39
490.688	3255.41
491.058	3312.13
491.428	3347.61
491.798	3389.19
492.168	3494.05
492.538	3496.53
492.908	3544.44
493.278	3550.99
493.648	3596.87
494.017	3664.66
494.387	3698.56
494.757	3730.42
495.126	3793.47
495.496	3803.64
495.866	3838.44
496.235	3894.04
496.605	3950.53
496.974	3953.7
497.344	3984.2
497.713	4002.96
498.082	4033.02
498.452	4109.85
498.821	4125.89
499.19	4163.41
499.559	4170.19
499.928	4186.01
500.298	4253.57
500.667	4259.9
501.036	4220.13
501.405	4331.54
501.774	4318.43
502.143	4379.9
502.512	4398.2
502.88	4435.72
503.249	4469.84
503.618	4474.13
503.987	4533.12
504.356	4539.22
504.724	4548.93
505.093	4601.36
505.462	4575.37
505.83	4643.39
506.199	4710.06
506.567	4717.52
506.936	4698.99
507.304	4792.77
507.672	4770.62
508.041	4804.29
508.409	4857.4
508.777	4873.22
509.145	4922.94
509.514	4899.43
509.882	4936.95
510.25	4904.86
510.618	4993.44
510.986	4955.48
511.354	5015.81
511.722	5027.11
512.09	5046.77
512.458	5035.93
512.826	5166.54
513.193	5155.92
513.561	5157.28
513.929	5189.37
514.297	5193.66
514.664	5245.19
515.032	5256.26
515.4	5285.19
515.767	5314.79
516.135	5394.56
516.502	5297.84
516.869	5327.67
517.237	5374.45
517.604	5320.44
517.972	5397.27
518.339	5421.23
518.706	5423.04
519.073	5454.67
519.44	5537.61
519.808	5519.08
520.175	5502.13
520.542	5642.46
520.909	5602.24
521.276	5565.63
521.643	5645.18
522.009	5720.65
522.376	5673.65
522.743	5762.69
523.11	5768.34
523.477	5826.87
523.843	5871.39
524.21	5845.17
524.577	5919.29
524.943	5931.27
525.31	5940.76
525.676	5956.81
526.043	5973.53
526.409	6023.92
526.776	6047.2
527.142	6091.04
527.508	6140.08
527.874	6123.36
528.241	6176.01
528.607	6241.54
528.973	6280.87
529.339	6278.38
529.705	6337.36
530.071	6363.58
530.437	6339.62
530.803	6400.18
531.169	6473.18
531.535	6395.67
531.901	6531.48
532.267	6517.24
532.632	6572.16
532.998	6576.23
533.364	6602.44
533.73	6584.13
534.095	6671.14
534.461	6717.01
534.826	6758.14
535.192	6769.89
535.557	6788.42
535.923	6770.12
536.288	6856.67
536.653	6876.78
537.019	6861.87
537.384	6871.81
537.749	6917.69
538.114	6997.68
538.479	6943.67
538.845	7006.27
539.21	7000.17
539.575	7041.98
539.94	6987.51
540.305	7158.36
540.67	7050.79
541.034	7146.38
541.399	7223.44
541.764	7216.21
542.129	7231.35
542.494	7222.54
542.858	7332.14
543.223	7269.09
543.587	7356.09
543.952	7366.26
544.316	7363.78
544.681	7349.09
545.045	7494.85
545.41	7470.21
545.774	7562.87
546.138	7513.15
546.503	7596.99
546.867	7574.84
547.231	7627.5
547.595	7662.75
547.959	7729.64
548.324	7697.78
548.688	7719.25
549.052	7835.4
549.416	7806.7
549.779	7777.78
550.143	7787.72
550.507	7849.19
550.871	7872.91
551.235	7876.98
551.599	7938.9
551.962	7914.5
552.326	7972.8
552.689	8074.04
553.053	7980.48
553.417	8021.61
553.78	8091.89
554.143	8160.36
554.507	8146.81
554.87	8183.87
555.234	8226.13
555.597	8212.34
555.96	8232.68
556.323	8248.95
556.686	8321.04
557.05	8339.57
557.413	8431.77
557.776	8423.41
558.139	8427.02
558.502	8459.79
558.865	8434.71
559.228	8519.23
559.59	8513.8
559.953	8523.97
560.316	8614.82
560.679	8631.99
561.041	8623.4
561.404	8675.83
561.767	8669.73
562.129	8723.29
562.492	8674.02
562.854	8757.41
563.217	8788.6
563.579	8847.58
563.941	8884.64
564.304	8881.25
564.666	8964.86
565.028	8965.32
565.39	8962.6
565.753	9081.02
566.115	9098.19
566.477	9167.12
566.839	9135.93
567.201	9228.13
567.563	9203.05
567.925	9274.46
568.287	9279.43
568.648	9295.25
569.01	9360.56
569.372	9436.04
569.734	9396.49
570.095	9514.68
570.457	9466.32
570.819	9524.62
571.18	9577.73
571.542	9649.36
571.903	9599.87
572.265	9661.12
572.626	9763.49
572.987	9767.55
573.349	9830.15
573.71	9926.42
574.071	9920.54
574.432	10046.42
574.794	10090.26
575.155	10108.34
575.516	10119.64
575.877	10175.68
576.238	10232.17
576.599	10391.49
576.96	10419.74
577.32	10536.35
577.681	10627.87
578.042	10697.92
578.403	10710.13
578.763	10958.48
579.124	10956.68
579.485	11065.82
579.845	11241.87
580.206	11391.92
580.566	11367.96
580.927	11605.92
581.287	11722.08
581.648	11826.26
582.008	12016.53
582.368	12080.71
582.728	12276.87
583.089	12410.2
583.449	12616.07
583.809	12814.03
584.169	12995.27
584.529	13157.3
584.889	13426.89
585.249	13513.22
585.609	13717.96
585.969	13956.82
586.329	14227.55
586.688	14393.42
587.048	14671.38
587.408	14982.11
587.768	15194.98
588.127	15450.79
588.487	15643.56
588.846	16034.06
589.206	16171
589.565	16499.81
589.925	16885.56
590.284	17085.33
590.643	17496.39
591.003	17678.98
591.362	18218.86
591.721	18344.5
592.08	18686.19
592.44	18932.96
592.799	19361.65
593.158	19643.68
593.517	19960.73
593.876	20284.79
594.235	20621.96
594.593	20960.48
594.952	21278.44
595.311	21526.79
595.67	21924.07
596.029	22429.82
596.387	22812.18
596.746	23143.93
597.104	23375.78
597.463	23754.08
597.822	24082.43
598.18	24446.72
598.538	24795.63
598.897	25330.53
599.255	25308.16
599.613	26053.68
599.972	26309.49
600.33	26708.35
600.688	26763.72
601.046	27299.75
601.404	27798.49
601.762	27967.3
602.12	28360.96
602.478	28675.31
602.836	28978.35
603.194	29191.9
603.552	29602.29
603.91	29765.67
604.268	30290.18
604.625	30435.71
604.983	30944.17
605.341	31119.53
605.698	31504.84
606.056	31792.29
606.413	32034.09
606.771	32429.1
607.128	32810.34
607.485	32962.88
607.843	33207.62
608.2	33599.92
608.557	33898.22
608.914	34021.15
609.272	34474.93
609.629	34686.9
609.986	35026.78
610.343	35141.58
610.7	35602.58
611.057	35658.4
611.414	36021.1
611.771	36135
612.127	36628.99
612.484	36861.3
612.841	37030.57
613.198	37098.59
613.554	37400.27
613.911	37689.08
614.267	37887.94
614.624	37976.76
614.98	38273.92
615.337	38527.7
615.693	38659
616.05	38881.59
616.406	39176.95
616.762	39268.02
617.118	39360.22
617.475	39695.13
617.831	39904.39
618.187	39975.35
618.543	40264.15
618.899	40453.75
619.255	40556.12
619.611	40682.22
619.967	40992.5
620.323	41051.93
620.678	41152.49
621.034	41135.09
621.39	41354.52
621.746	41477.23
622.101	41974.16
622.457	41614.4
622.812	41839.25
623.168	42247.6
623.523	42315.85
623.879	42380.48
624.234	42203.31
624.589	42419.35
624.945	42599.01
625.3	42686.01
625.655	42708.38
626.01	42830.41
626.365	42975.49
626.72	43020.01
627.075	43016.62
627.43	42953.35
627.785	43061.82
628.14	43183.85
628.495	43347.24
628.85	43516.72
629.205	43173.23
629.559	43545.2
629.914	43416.84
630.269	43499.32
630.623	43475.82
630.978	43492.99
631.332	43718.98
631.687	43814.57
632.041	43647.57
632.396	43800.33
632.75	43624.74
633.104	43881.69
633.459	43712.42
633.813	43723.5
634.167	43695.7
634.521	43770.28
634.875	43928.69
635.229	43922.36
635.583	43804.17
635.937	43842.36
636.291	43731.86
636.645	43936.6
636.999	43720.56
637.352	43911.06
637.706	43699.09
638.06	43904.06
638.413	43782.48
638.767	43596.72
639.121	43797.17
639.474	43582.26
639.828	43572.99
640.181	43852.31
640.534	43805.75
640.888	43599.66
641.241	43561.02
641.594	43644.18
641.947	43733.21
642.301	43655.7
642.654	43625.87
643.007	43648.7
643.36	43739.32
643.713	43588.36
644.066	43762.14
644.419	43444.63
644.771	43229.27
645.124	42986.12
645.477	42824.76
645.83	42623.87
646.182	42503.87
646.535	42443.76
646.888	42478.56
647.24	42362.63
647.593	42527.82
647.945	42515.85
648.298	42336.64
648.65	42341.39
649.002	42219.58
649.355	42375.06
649.707	42275.17
650.059	42585.67
650.411	42994.7
650.763	43042.84
651.115	43340.23
651.467	43307.69
651.819	43238.99
652.171	43202.38
652.523	43081.93
652.875	43095.72
653.227	42807.14
653.578	43248.71
653.93	43128.26
654.282	42966.45
654.633	42949.96
654.985	42901.15
655.337	43059.56
655.688	43143.85
656.039	43039.9
656.391	42801.71
656.742	42945.89
657.094	42912.67
657.445	43151.53
657.796	42904.54
658.147	42947.92
658.498	42836.97
658.849	42921.94
659.2	42821.15
659.551	42792.9
659.902	42929.39
660.253	42877.19
660.604	42980.92
660.955	42728.04
661.306	42834.03
661.656	42805.1
662.007	42742.05
662.358	42824.09
662.708	42727.59
663.059	42815.95
663.409	42541.16
663.76	42906.34
664.11	42839.23
664.461	42870.64
664.811	42691.43
665.161	42739.57
665.511	42627.25
665.862	42729.63
666.212	42864.31
666.562	42867.25
666.912	42750.19
667.262	42691.89
667.612	42741.15
667.962	42757.19
668.312	42705.67
668.662	42832.45
669.011	42746.12
669.361	42732.79
669.711	42656.41
670.06	42461.61
670.41	42697.76
670.76	42468.16
671.109	42635.62
671.459	42556.3
671.808	42526.01
672.157	42583.19
672.507	42323.53
672.856	42380.03
673.205	42391.33
673.554	42476.3
673.904	42335.51
674.253	42630.64
674.602	42416.19
674.951	41866.14
675.3	41652.59
675.649	42333.03
675.998	42343.87
676.346	42307.94
676.695	42433.36
677.044	42021.85
677.393	42204.67
677.741	42324.89
678.09	42201.05
678.438	42112.92
678.787	42109.98
679.135	42158.34
679.484	41861.4
679.832	42058.46
680.181	41676.09
680.529	41975.29
680.877	41796.99
681.225	41646.72
681.573	41872.02
681.922	41555.19
682.27	41555.87
682.618	41453.5
682.966	41340.28
683.314	41594.74
683.661	41375.99
684.009	41186.61
684.357	41219.16
684.705	41082.44
685.053	41211.25
685.4	41089.89
685.748	41027.75
686.095	40906.85
686.443	40820.75
686.79	40792.27
687.138	40993.85
687.485	40851.26
687.832	40727.87
688.18	40764.03
688.527	40558.16
688.874	40464.83
689.221	40391.83
689.568	40422.79
689.915	40123.14
690.262	40306.64
690.609	40101.67
690.956	39955.01
691.303	40046.98
691.65	39660.33
691.997	39939.64
692.344	39673.66
692.69	39555.7
693.037	39530.61
693.383	39200.23
693.73	39493.33
694.077	39146.67
694.423	39180.79
694.769	38979.89
695.116	38936.96
695.462	38743.52
695.808	38625.1
696.155	38858.77
696.501	38534.93
696.847	38508.95
697.193	38290.65
697.539	38551.66
697.885	38108.05
698.231	38020.37
698.577	38075.28
698.923	38103.98
699.269	37815.18
699.614	37655.41
699.96	37529.76
700.306	37488.41
700.651	37475.98
700.997	37338.35
701.342	37297.9
701.688	37272.82
702.033	36998.7
702.379	37131.13
702.724	36967.52
703.069	37092.49
703.415	36622.67
703.76	36750.12
704.105	36622.89
704.45	36658.37
704.795	36379.06
705.14	36375.44
705.485	36255.22
705.83	36204.15
706.175	36082.57
706.52	36034.21
706.865	35979.52
707.209	35921.22
707.554	35791.28
707.899	35810.03
708.243	35503.6
708.588	35450.95
708.932	35300.44
709.277	35372.3
709.621	35209.14
709.966	35050.28
710.31	35342.47
710.654	34919.89
710.998	34953.56
711.342	35001.47
711.687	34879.89
712.031	34846.44
712.375	34548.6
712.719	34715.6
713.063	34765.09
713.407	34684.19
713.75	34538.2
714.094	34404.87
714.438	34248.94
714.782	34326.68
715.125	34215.27
715.469	34263.41
715.812	34076.75
716.156	33813.7
716.499	33922.4
716.843	33909.74
717.186	33716.08
717.53	33815.74
717.873	33782.97
718.216	33732.35
718.559	33649.64
718.902	33413.03
719.246	33486.7
719.589	33265.92
719.932	33176.43
720.275	33225.47
720.617	33153.38
720.96	33132.14
721.303	33088.97
721.646	33119.03
721.989	32931.92
722.331	33058.47
722.674	32900.5
723.016	32862.77
723.359	32801.75
723.701	32808.76
724.044	32618.03
724.386	32517.69
724.729	32699.61
725.071	32719.94
725.413	32577.35
725.755	32507.52
726.097	32362.67
726.439	32218.49
726.782	32191.82
727.124	32349.33
727.465	32105.5
727.807	32198.83
728.149	32129.68
728.491	31889.68
728.833	31990.02
729.175	31922.68
729.516	31878.38
729.858	31887.2
730.199	31862.34
730.541	31675.9
730.882	31649.69
731.224	31774.88
731.565	31576.25
731.906	31641.78
732.248	31606.08
732.589	31330.83
732.93	31316.14
733.271	31403.37
733.612	31404.05
733.953	31404.73
734.294	31131.06
734.635	31190.27
734.976	31189.14
735.317	31037.96
735.658	30988.92
735.999	30922.7
736.339	31018.75
736.68	30962.7
737.021	30942.36
737.361	30785.31
737.702	30905.53
738.042	30870.5
738.383	30675.93
738.723	30703.05
739.063	30602.71
739.404	30527.23
739.744	30708.02
740.084	30482.72
740.424	30503.28
740.764	30500.12
741.104	30576.72
741.444	30255.83
741.784	30322.95
742.124	30370.18
742.464	30330.4
742.804	30316.84
743.143	30174.7
743.483	30222.61
743.823	29883.64
744.162	29954.37
744.502	30010.19
744.841	29910.3
745.181	30153.01
745.52	29848.61
745.86	30034.82
746.199	29913.24
746.538	29710.98
746.877	29770.87
747.216	29842.73
747.556	29718.22
747.895	29702.17
748.234	29539.01
748.573	29511.89
748.911	29520.25
749.25	29489.75
749.589	29366.36
749.928	29482.97
750.267	29383.31
750.605	29196.2
750.944	29141.51
751.283	29156.87
751.621	29168.17
751.96	29035.52
752.298	29080.27
752.636	29039.82
752.975	28802.99
753.313	28669.2
753.651	28809.77
753.989	28795.3
754.327	28700.62
754.666	28470.56
755.004	28422.66
755.342	28565.93
755.679	28525.7
756.017	28318.48
756.355	28353.73
756.693	28253.62
757.031	28315.54
757.368	28153.51
757.706	28208.2
758.044	27998.94
758.381	28051.37
758.719	28040.29
759.056	27851.37
759.394	27806.85
759.731	27713.75
760.068	27623.13
760.405	27559.18
760.743	27360.76
761.08	27614.09
761.417	27345.17
761.754	27406.86
762.091	27332.74
762.428	27199.86
762.765	26985.41
763.102	27041
763.438	26936.37
763.775	26849.59
764.112	26885.52
764.449	26883.94
764.785	26680.33
765.122	26557.62
765.458	26480.79
765.795	26448.02
766.131	26347.46
766.467	26291.87
766.804	26200.79
767.14	26057.75
767.476	25944.98
767.812	25860.92
768.148	25914.7
768.485	25768.72
768.821	25624.31
769.157	25503.41
769.492	25472.45
769.828	25393.36
770.164	25258.67
770.5	25322.4
770.836	25208.28
771.171	25077.89
771.507	24969.19
771.842	24812.81
772.178	24842.86
772.513	24753.37
772.849	24692.59
773.184	24537.56
773.519	24534.85
773.855	24433.16
774.19	24380.73
774.525	24224.35
774.86	24265.7
775.195	24160.62
775.53	24093.5
775.865	23947.75
776.2	23743.23
776.535	23639.96
776.87	23710.69
777.205	23573.52
777.539	23447.65
777.874	23529.68
778.209	23293.53
778.543	23250.82
778.878	23005.62
779.212	23110.71
779.547	22916.36
779.881	22972.63
780.215	22793.88
780.55	22883.59
780.884	22662.13
781.218	22546.2
781.552	22580.55
781.886	22516.82
782.22	22338.07
782.554	22215.81
782.888	22214.68
783.222	22076.38
783.556	22033.9
783.889	21837.29
784.223	21708.93
784.557	21791.64
784.89	21830.97
785.224	21644.3
785.557	21447.25
785.891	21431.88
786.224	21352.79
786.558	21319.34
786.891	21163.19
787.224	21044.77
787.557	21080.02
787.891	20998.45
788.224	20985.56
788.557	20900.59
788.89	20812.69
789.223	20846.58
789.556	20747.6
789.888	20661.5
790.221	20582.18
790.554	20416.99
790.887	20386.48
791.219	20385.35
791.552	20289.99
791.884	20086.6
792.217	20081.63
792.549	20009.77
792.882	19869.21
793.214	19818.14
793.546	19838.93
793.879	19713.73
794.211	19676.45
794.543	19608.2
794.875	19602.78
795.207	19662.43
795.539	19494.08
795.871	19547.41
796.203	19297.02
796.535	19176.12
796.867	19177.02
797.198	19143.13
797.53	19127.08
797.862	18919.86
798.193	18979.97
798.525	18838.05
798.856	18900.2
799.188	18712.4
799.519	18671.05
799.85	18576.59
800.182	18690.48
800.513	18560.32
800.844	18341.57
801.175	18563.48
801.506	18444.39
801.837	18403.26
802.168	18215.24
802.499	18151.74
802.83	18142.02
803.161	17981.58
803.491	18076.04
803.822	18026.32
804.153	17958.52
804.483	17754.24
804.814	17739.77
805.145	17754.91
805.475	17750.39
805.805	17659.32
806.136	17612.77
806.466	17541.13
806.796	17622.71
807.126	17380.24
807.457	17387.69
807.787	17313.8
808.117	17271.76
808.447	17301.59
808.777	17311.31
809.107	17137.3
809.436	17107.93
809.766	17142.73
810.096	16995.61
810.426	16928.27
810.755	16984.09
811.085	16954.03
811.414	16937.76
811.744	16822.51
812.073	16711.78
812.403	16676.75
812.732	16723.76
813.061	16610.54
813.39	16479.24
813.719	16540.03
814.049	16585.23
814.378	16446.7
814.707	16434.5
815.036	16313.82
815.365	16268.85
815.693	16151.11
816.022	16185.01
816.351	16112.25
816.68	15950.89
817.008	16115.64
817.337	15884
817.665	15892.59
817.994	15868.86
818.322	15892.82
818.651	15806.04
818.979	15793.61
819.307	15759.03
819.636	15874.96
819.964	15721.75
820.292	15735.53
820.62	15754.97
820.948	15649.89
821.276	15728.3
821.604	15601.3
821.932	15633.61
822.259	15668.42
822.587	15587.97
822.915	15457.12
823.243	15622.99
823.57	15545.48
823.898	15561.53
824.225	15528.31
824.553	15554.29
824.88	15561.07
825.207	15563.33
825.535	15574.41
825.862	15597.46
826.189	15537.35
826.516	15641.52
826.843	15628.19
827.17	15677.68
827.497	15587.29
827.824	15695.53
828.151	15613.95
828.478	15581.41
828.805	15623.9
829.131	15578.25
829.458	15572.6
829.785	15495.76
830.111	15460.96
830.438	15565.82
830.764	15586.38
831.09	15542.54
831.417	15489.89
831.743	15624.58
832.069	15569.21
832.395	15469.55
832.722	15498.48
833.048	15406.28
833.374	15511.58
833.7	15366.05
834.026	15405.6
834.351	15389.55
834.677	15379.84
835.003	15342.32
835.329	15265.04
835.654	15373.96
835.98	15277.47
836.306	15253.74
836.631	15141.88
836.956	15294.64
837.282	15235.43
837.607	15128.54
837.932	15138.71
838.258	15220.07
838.583	15135.77
838.908	15013.52
839.233	15030.01
839.558	15049.9
839.883	15026.85
840.208	14903.69
840.533	14921.09
840.858	14980.3
841.182	14843.58
841.507	14825.73
841.832	14775.33
842.156	14844.26
842.481	14735.11
842.805	14713.64
843.13	14726.52
843.454	14677.48
843.778	14557.48
844.103	14580.76
844.427	14593.19
844.751	14524.04
845.075	14532.85
845.399	14453.76
845.723	14435.23
846.047	14431.16
846.371	14228.45
846.695	14283.37
847.019	14207.66
847.343	14073.43
847.666	14033.43
847.99	13963.38
848.313	13876.6
848.637	13776.26
848.96	13786.43
849.284	13837.05
849.607	13673.44
849.931	13644.51
850.254	13587.11
850.577	13548.25
850.9	13430.28
851.223	13469.15
851.546	13352.54
851.869	13296.73
852.192	13300.34
852.515	13267.12
852.838	13096.28
853.161	13142.61
853.483	13049.73
853.806	13048.6
854.129	12971.99
854.451	12966.34
854.774	12905.32
855.096	12754.59
855.419	12767.7
855.741	12821.71
856.063	12719.79
856.385	12750.98
856.708	12689.06
857.03	12595.28
857.352	12571.32
857.674	12590.76
857.996	12505.34
858.318	12407.71
858.64	12483.19
858.961	12422.85
859.283	12346.02
859.605	12265.79
859.926	12331.55
860.248	12198.45
860.57	12234.16
860.891	12266.47
861.212	12111.45
861.534	12143.08
861.855	12105.8
862.176	12115.29
862.498	12060.83
862.819	12046.14
863.14	11967.04
863.461	12000.49
863.782	12036.42
864.103	11932.02
864.424	11937.44
864.745	11901.28
865.065	11880.27
865.386	11829.19
865.707	11876.65
866.027	11852.92
866.348	11751.68
866.668	11789.42
866.989	11738.35
867.309	11628.3
867.63	11700.38
867.95	11668.29
868.27	11626.94
868.59	11656.32
868.91	11579.48
869.23	11523.89
869.55	11522.31
869.87	11603.66
870.19	11519.6
870.51	11574.96
870.83	11577.22
871.15	11466.94
871.469	11409.54
871.789	11491.58
872.109	11390.56
872.428	11319.6
872.748	11425.82
873.067	11342.65
873.386	11377.46
873.706	11355.53
874.025	11267.18
874.344	11211.36
874.663	11256.55
874.982	11278.25
875.301	11238.93
875.62	11194.41
875.939	11241.41
876.258	11144.01
876.577	11170
876.896	11163.68
877.214	11094.52
877.533	11099.5
877.852	11087.75
878.17	11067.41
878.489	11071.7
878.807	11024.92
879.125	10970.91
879.444	10964.13
879.762	10970.23
880.08	10984.92
880.398	10874.64
880.716	10916.9
881.034	10922.1
881.352	10897.02
881.67	10812.27
881.988	10872.16
882.306	10789.22
882.624	10798.94
882.941	10698.15
883.259	10632.84
883.577	10682.56
883.894	10715.55
884.212	10635.33
884.529	10610.7
884.846	10582.67
885.164	10657.25
885.481	10560.75
885.798	10587.65
886.115	10469
886.432	10507.65
886.75	10427.2
887.067	10478.72
887.383	10377.48
887.7	10370.7
888.017	10387.42
888.334	10364.6
888.651	10262.91
888.967	10261.55
889.284	10240.31
889.6	10217.26
889.917	10163.25
890.233	10155.11
890.55	10071.73
890.866	10042.8
891.182	10017.94
891.498	10029.47
891.815	10045.74
892.131	9986.31
892.447	9966.42
892.763	9929.58
893.079	9864.73
893.395	9859.75
893.71	9801.23
894.026	9812.3
894.342	9762.36
894.657	9689.59
894.973	9710.38
895.289	9712.87
895.604	9650.04
895.92	9609.37
896.235	9570.72
896.55	9586.99
896.865	9488.69
897.181	9438.07
897.496	9514.68
897.811	9429.48
898.126	9417.28
898.441	9340.9
898.756	9355.36
899.071	9270.62
899.386	9270.84
899.7	9216.83
900.015	9164.41
900.33	9107.91
900.644	9114.24
900.959	9101.13
901.273	9040.79
901.588	9003.51
901.902	8971.19
902.216	8938.2
902.531	8993.79
902.845	8896.16
903.159	8925.09
903.473	8834.7
903.787	8819.56
904.101	8771.42
904.415	8770.74
904.729	8654.59
905.042	8649.62
905.356	8609.62
905.67	8664.08
905.984	8642.61
906.297	8578.21
906.611	8538.21
906.924	8503.18
907.237	8459.57
907.551	8464.76
907.864	8362.62
908.177	8434.26
908.491	8367.14
908.804	8272.9
909.117	8263.19
909.43	8231.78
909.743	8187.26
910.056	8159.23
910.368	8096.86
910.681	8087.15
910.994	8094.15
911.307	8044.66
911.619	7985.23
911.932	8010.76
912.244	7991.33
912.557	7965.79
912.869	7871.56
913.181	7804.67
913.494	7831.79
913.806	7789.75
914.118	7767.15
914.43	7663.2
914.742	7659.81
915.054	7665.69
915.366	7656.65
915.678	7594.05
915.99	7585.01
916.302	7504.56
916.613	7436.32
916.925	7451
917.236	7466.6
917.548	7396.99
917.859	7347.5
918.171	7329.2
918.482	7297.56
918.794	7270.9
919.105	7265.25
919.416	7137.34
919.727	7154.06
920.038	7148.64
920.349	7119.49
920.66	7084.91
920.971	7083.56
921.282	7023.45
921.593	6977.57
921.903	6982.54
922.214	6952.26
922.525	6894.41
922.835	6891.25
923.146	6814.86
923.456	6870.23
923.767	6743.9
924.077	6735.09
924.387	6736.45
924.697	6650.12
925.008	6692.61
925.318	6603.12
925.628	6568.99
925.938	6582.1
926.248	6543.23
926.558	6515.21
926.867	6514.98
927.177	6465.04
927.487	6425.49
927.796	6420.07
928.106	6391.37
928.416	6360.64
928.725	6369.68
929.034	6333.97
929.344	6320.64
929.653	6306.18
929.962	6185.95
930.271	6191.15
930.581	6171.49
930.89	6180.76
931.199	6148.89
931.508	6076.35
931.817	6077.93
932.125	6113.19
932.434	6065.5
932.743	6027.09
933.051	5971.5
933.36	5984.83
933.669	5888.33
933.977	5917.94
934.286	5891.05
934.594	5848.33
934.902	5812.63
935.21	5767.21
935.519	5823.25
935.827	5752.97
936.135	5717.49
936.443	5681.33
936.751	5630.71
937.059	5677.72
937.367	5625.06
937.674	5640.66
937.982	5642.92
938.29	5574.67
938.597	5538.51
938.905	5505.29
939.213	5511.17
939.52	5432.75
939.827	5526.76
940.135	5387.1
940.442	5396.82
940.749	5367.22
941.056	5392.53
941.363	5292.19
941.67	5296.49
941.977	5272.98
942.284	5246.99
942.591	5240.44
942.898	5149.6
943.205	5208.35
943.511	5135.81
943.818	5155.02
944.125	5124.51
944.431	5082.71
944.738	5033.89
945.044	5063.95
945.35	5004.06
945.657	4969.04
945.963	5030.96
946.269	4962.48
946.575	4962.26
946.881	4912.54
947.187	4905.76
947.493	4854.01
947.799	4849.04
948.105	4848.81
948.41	4810.85
948.716	4767.91
949.022	4767.69
949.327	4765.88
949.633	4683.62
949.938	4674.35
950.244	4716.39
950.549	4652.89
950.854	4645.88
951.16	4648.59
951.465	4556.17
951.77	4618.99
952.075	4539.89
952.38	4513
952.685	4527.69
952.99	4511.42
953.294	4462.61
953.599	4442.27
953.904	4442.95
954.209	4403.63
954.513	4420.8
954.818	4369.05
955.122	4368.37
955.426	4326.79
955.731	4365.66
956.035	4299.68
956.339	4293.35
956.643	4274.82
956.948	4255.38
957.252	4212.67
957.556	4230.3
957.86	4180.13
958.163	4196.85
958.467	4139.68
958.771	4150.98
959.075	4139.23
959.378	4129.96
959.682	4109.17
959.985	4090.42
960.289	4058.1
960.592	4081.38
960.896	4013.58
961.199	3984.2
961.502	3982.4
961.805	3975.39
962.108	3972.23
962.411	3947.14
962.714	3897.65
963.017	3913.92
963.32	3929.74
963.623	3854.72
963.926	3854.49
964.228	3797.09
964.531	3776.75
964.833	3795.06
965.136	3768.16
965.438	3733.81
965.741	3736.07
966.043	3725.68
966.345	3738.33
966.648	3679.8
966.95	3653.14
967.252	3638.45
967.554	3649.97
967.856	3650.2
968.158	3607.49
968.46	3586.47
968.761	3581.05
969.063	3565.46
969.365	3550.54
969.666	3588.96
969.968	3542.18
970.269	3517.1
970.571	3520.03
970.872	3520.49
971.174	3482.52
971.475	3457.21
971.776	3448.85
972.077	3372.92
972.378	3423.31
972.679	3429.42
972.98	3373.82
973.281	3363.65
973.582	3314.84
973.883	3343.09
974.183	3301.51
974.484	3316.65
974.785	3265.13
975.085	3314.39
975.386	3311.45
975.686	3248.63
975.986	3251.57
976.287	3238.01
976.587	3204.56
976.887	3222.42
977.187	3191.46
977.487	3194.85
977.787	3132.7
978.087	3108.97
978.387	3133.6
978.687	3118.69
978.987	3086.83
979.286	3047.05
979.586	3051.57
979.885	3051.57
980.185	3037.79
980.484	3017.67
980.784	3073.49
981.083	2968.86
981.382	2956.43
981.682	2964.12
981.981	2981.29
982.28	2951.91
982.579	2938.13
982.878	2908.98
983.177	2895.87
983.475	2903.55
983.774	2897.45
984.073	2868.75
984.372	2851.13
984.67	2827.17
984.969	2809.09
985.267	2804.8
985.566	2786.72
985.864	2806.83
986.162	2805.03
986.461	2737.46
986.759	2766.16
987.057	2715.31
987.355	2745.82
987.653	2716.44
987.951	2711.47
988.249	2706.27
988.547	2666.72
988.844	2675.54
989.142	2637.35
989.44	2643
989.737	2621.75
990.035	2612.04
990.332	2593.51
990.63	2590.12
990.927	2601.41
991.224	2569.1
991.521	2583.34
991.819	2567.74
992.116	2527.07
992.413	2539.5
992.71	2521.19
993.006	2498.82
993.303	2476.67
993.6	2490.46
993.897	2461.53
994.193	2487.07
994.49	2438.93
994.787	2428.09
995.083	2432.83
995.379	2394.64
995.676	2408.2
995.972	2365.71
996.268	2358.71
996.565	2347.41
996.861	2337.24
997.157	2301.76
997.453	2295.66
997.749	2324.36
998.044	2318.03
998.34	2311.93
998.636	2282.78
998.932	2280.97
999.227	2214.98
999.523	2231.03
999.818	2229
1000.114	2217.7
1000.409	2192.61
1000.704	2187.41
1001	2149.9
1001.295	2166.17
1001.59	2181.54
1001.885	2175.66
1002.18	2117.81
1002.475	2124.37
1002.77	2090.92
1003.065	2068.77
1003.359	2082.11
1003.654	2082.56
1003.949	2081.88
1004.243	2099.05
1004.538	2053.18
1004.832	2054.54
1005.127	2001.66
1005.421	2027.87
1005.715	2006.4
1006.009	2000.98
1006.304	1960.53
1006.598	1942
1006.892	1943.8
1007.186	1948.32
1007.48	1916.23
1007.773	1920.53
1008.067	1904.94
1008.361	1899.06
1008.655	1898.16
1008.948	1870.81
1009.242	1873.52
1009.535	1865.39
1009.829	1856.35
1010.122	1853.19
1010.415	1835.79
1010.708	1816.12
1011.001	1804.15
1011.295	1773.19
1011.588	1781.78
1011.881	1764.37
1012.173	1785.84
1012.466	1796.69
1012.759	1751.27
1013.052	1727.99
1013.344	1725.28
1013.637	1717.82
1013.93	1697.03
1014.222	1686.86
1014.514	1706.07
1014.807	1708.33
1015.099	1641.21
1015.391	1680.08
1015.683	1638.5
1015.976	1630.37
1016.268	1638.73
1016.56	1644.15
1016.851	1609.58
1017.143	1622.91
1017.435	1606.86
1017.727	1580.2
1018.018	1546.98
1018.31	1543.36
1018.602	1570.48
1018.893	1545.62
1019.185	1537.49
1019.476	1500.43
1019.767	1510.37
1020.058	1512.18
1020.35	1530.03
1020.641	1487.77
1020.932	1491.39
1021.223	1454.78
1021.514	1456.13
1021.804	1437.83
1022.095	1434.21
1022.386	1407.77
1022.677	1421.56
1022.967	1382.69
1023.258	1402.8
1023.548	1396.02
1023.839	1373.65
1024.129	1360.77
1024.419	1356.7
1024.709	1339.75
1025	1319.41
1025.29	1311.51
1025.58	1315.12
1025.87	1323.26
1026.16	1320.54
1026.449	1279.87
1026.739	1276.48
1027.029	1304.73
1027.319	1278.51
1027.608	1286.87
1027.898	1255.01
1028.187	1256.14
1028.477	1245.74
1028.766	1225.63
1029.055	1199.42
1029.344	1212.52
1029.634	1221.11
1029.923	1189.7
1030.212	1197.16
1030.501	1184.05
1030.79	1183.6
1031.078	1166.42
1031.367	1142.24
1031.656	1163.71
1031.945	1150.38
1032.233	1139.98
1032.522	1111.28
1032.81	1145.63
1033.099	1126.43
1033.387	1109.02
1033.675	1094.56
1033.963	1110.83
1034.251	1095.01
1034.54	1074.9
1034.828	1078.29
1035.116	1055.69
1035.403	1045.07
1035.691	1042.81
1035.979	1042.13
1036.267	1039.2
1036.554	1011.85
1036.842	1021.34
1037.129	1003.94
1037.417	1017.73
1037.704	1010.72
1037.992	1017.28
1038.279	992.19
1038.566	982.47
1038.853	982.47
1039.14	982.47
