Data from hue_50_FLMS001491_5.txt Node
Date: Mon Feb 06 15:09:30 GMT 2017
User: dcchb
Spectrometer: FLMS00149
Trigger mode: 0
Integration Time (sec): 2.000000E-2
Scans to average: 10
Electric dark correction enabled: true
Nonlinearity correction enabled: false
Boxcar width: 0
XAxis mode: Wavelengths
Number of Pixels in Spectrum: 2048
>>>>>Begin Spectral Data<<<<<
341.393	-7.49
341.776	-7.49
342.16	-7.49
342.543	-54.94
342.927	-56.75
343.31	-56.07
343.693	-59.01
344.077	-44.55
344.46	-67.82
344.843	-54.72
345.226	-43.42
345.61	-42.51
345.993	-35.06
346.376	-10.88
346.759	4.72
347.142	32.97
347.525	44.94
347.908	55.34
348.291	93.3
348.674	85.39
349.057	97.37
349.44	129.91
349.823	126.75
350.206	160.65
350.588	177.14
350.971	204.26
351.354	221.66
351.737	255.11
352.119	259.85
352.502	269.8
352.884	284.26
353.267	286.74
353.65	282.68
354.032	294.2
354.414	306.63
354.797	327.19
355.179	313.86
355.562	324.71
355.944	318.83
356.326	348.44
356.709	323.81
357.091	343.24
357.473	338.95
357.855	341.66
358.238	349.12
358.62	333.07
359.002	322.9
359.384	325.16
359.766	343.47
360.148	313.86
360.53	354.76
360.912	321.09
361.294	334.2
361.676	340.98
362.057	342.79
362.439	349.79
362.821	327.19
363.203	308.89
363.584	322
363.966	307.76
364.348	332.84
364.729	319.29
365.111	303.69
365.493	325.39
365.874	324.03
366.256	316.57
366.637	316.35
367.019	308.66
367.4	324.26
367.781	326.29
368.163	319.06
368.544	321.32
368.925	319.29
369.306	321.09
369.688	302.79
370.069	294.43
370.45	313.64
370.831	300.75
371.212	312.96
371.593	299.17
371.974	323.35
372.355	296.01
372.736	319.06
373.117	312.28
373.498	311.38
373.879	322.9
374.26	319.29
374.641	338.72
375.021	301.43
375.402	329.91
375.783	333.97
376.163	335.33
376.544	321.77
376.925	330.13
377.305	325.16
377.686	317.93
378.066	310.92
378.447	326.29
378.827	321.09
379.208	329.23
379.588	318.16
379.968	332.17
380.349	341.66
380.729	321.55
381.109	333.07
381.489	345.05
381.87	315.9
382.25	333.3
382.63	347.31
383.01	335.1
383.39	333.3
383.77	335.1
384.15	331.04
384.53	344.37
384.91	332.62
385.29	345.05
385.67	359.06
386.049	352.73
386.429	338.27
386.809	331.49
387.189	356.57
387.568	334.65
387.948	333.07
388.328	350.47
388.707	367.65
389.087	349.57
389.466	353.41
389.846	334.65
390.225	350.92
390.605	347.76
390.984	361.09
391.363	365.39
391.743	343.01
392.122	342.11
392.501	363.35
392.881	358.15
393.26	364.93
393.639	362.45
394.018	366.74
394.397	373.52
394.776	355.67
395.155	364.71
395.534	362.22
395.913	383.24
396.292	349.57
396.671	356.35
397.05	363.8
397.429	348.66
397.808	373.97
398.186	387.31
398.565	394.09
398.944	385.72
399.323	368.55
399.701	379.17
400.08	369.45
400.458	402.22
400.837	376.69
401.215	375.78
401.594	373.97
401.972	396.35
402.351	376.01
402.729	384.14
403.107	381.88
403.486	389.34
403.864	397.25
404.242	392.28
404.62	406.51
404.999	412.16
405.377	402.67
405.755	406.29
406.133	409
406.511	398.61
406.889	402.45
407.267	415.33
407.645	416.46
408.023	404.93
408.401	405.84
408.779	426.4
409.156	403.8
409.534	423.92
409.912	412.39
410.29	429.56
410.667	428.66
411.045	417.36
411.422	431.6
411.8	439.96
412.178	461.43
412.555	414.88
412.933	445.61
413.31	446.97
413.687	446.51
414.065	465.72
414.442	432.95
414.819	439.28
415.197	448.1
415.574	463.24
415.951	459.39
416.328	472.5
416.705	447.87
417.082	444.71
417.46	457.13
417.837	476.8
418.214	469.56
418.591	468.21
418.967	484.25
419.344	478.6
419.721	478.83
420.098	460.52
420.475	500.52
420.852	474.99
421.228	459.39
421.605	501.65
421.982	503.01
422.358	491.03
422.735	494.87
423.111	504.82
423.488	493.97
423.864	512.05
424.241	521.77
424.617	529.68
424.994	497.13
425.37	492.39
425.746	504.37
426.123	530.13
426.499	520.64
426.875	531.71
427.251	533.52
427.627	540.07
428.003	547.53
428.379	540.3
428.756	551.14
429.132	530.81
429.507	557.02
429.883	579.17
430.259	553.18
430.635	564.93
431.011	571.71
431.387	570.8
431.763	593.18
432.138	580.3
432.514	591.37
432.89	589.79
433.265	583.91
433.641	573.06
434.016	587.98
434.392	607.87
434.767	618.94
435.143	623.01
435.518	623.91
435.894	608.32
436.269	620.07
436.644	628.2
437.02	636.57
437.395	640.41
437.77	643.12
438.145	651.25
438.52	657.81
438.895	656
439.271	658.26
439.646	678.82
440.021	673.63
440.395	705.94
440.77	669.56
441.145	682.67
441.52	682.89
441.895	681.76
442.27	694.19
442.645	676.11
443.019	696.22
443.394	696.22
443.769	668.2
444.143	710.24
444.518	714.3
444.892	706.62
445.267	699.39
445.641	720.4
446.016	725.38
446.39	726.51
446.764	743.68
447.139	741.87
447.513	747.3
447.887	720.63
448.262	745.71
448.636	760.86
449.01	760.4
449.384	758.37
449.758	774.64
450.132	775.09
450.506	787.97
450.88	775.09
451.254	766.96
451.628	775.77
452.002	783.45
452.376	782.32
452.75	790.91
453.123	796.79
453.497	839.27
453.871	831.81
454.244	822.77
454.618	842.89
454.992	847.63
455.365	833.17
455.739	863.23
456.112	851.02
456.486	907.29
456.859	882.66
457.232	889.89
457.606	891.7
457.979	904.58
458.352	910
458.725	929.44
459.099	950.46
459.472	950.91
459.845	959.04
460.218	959.72
460.591	965.82
460.964	969.66
461.337	993.17
461.71	1003.79
462.083	1013.5
462.456	1033.39
462.829	1018.25
463.201	1037.68
463.574	1050.79
463.947	1083.79
464.32	1084.46
464.692	1116.78
465.065	1124.46
465.438	1119.94
465.81	1124.69
466.183	1176.66
466.555	1184.35
466.928	1184.8
467.3	1190.22
467.672	1234.52
468.045	1243.55
468.417	1249.88
468.789	1263.67
469.161	1293.27
469.534	1312.03
469.906	1343.67
470.278	1351.35
470.65	1368.07
471.022	1385.7
471.394	1421.18
471.766	1444.68
472.138	1441.29
472.51	1498.46
472.882	1510.44
473.253	1540.72
473.625	1632.25
473.997	1653.94
474.369	1662.07
474.74	1707.72
475.112	1728.74
475.484	1761.28
475.855	1826.82
476.227	1838.57
476.598	1928.96
476.97	1952.24
477.341	2019.81
477.713	2035.85
478.084	2097.54
478.455	2175.51
478.827	2178.9
479.198	2295.96
479.569	2274.94
479.94	2371.21
480.311	2430.64
480.682	2530.98
481.053	2610.3
481.424	2678.77
481.795	2723.52
482.166	2797.41
482.537	2871.99
482.908	2936.39
483.279	3019.78
483.65	3129.61
484.021	3204.18
484.391	3291.64
484.762	3354.91
485.133	3432.88
485.503	3559.2
485.874	3670.16
486.244	3765.97
486.615	3878.97
486.985	3995.57
487.356	4118.28
487.726	4149.92
488.097	4316.92
488.467	4376.81
488.837	4513.98
489.207	4649.34
489.578	4804.82
489.948	4864.02
490.318	5007.3
490.688	5094.3
491.058	5247.74
491.428	5330.45
491.798	5427.63
492.168	5631.69
492.538	5732.48
492.908	5885.24
493.278	5989.42
493.648	6122.3
494.017	6202.52
494.387	6328.84
494.757	6498.56
495.126	6579.69
495.496	6712.79
495.866	6857.87
496.235	6928.6
496.605	7061.48
496.974	7138.99
497.344	7335.6
497.713	7456.95
498.082	7634.35
498.452	7713.22
498.821	7796.15
499.19	7909.82
499.559	8040.89
499.928	8185.29
500.298	8286.99
500.667	8311.84
501.036	8468.22
501.405	8608.33
501.774	8673.87
502.143	8850.36
502.512	8913.64
502.88	9039.51
503.249	9129
503.618	9288.99
503.987	9330.8
504.356	9514.75
504.724	9561.08
505.093	9705.93
505.462	9778.02
505.83	9846.04
506.199	10004.23
506.567	10117.45
506.936	10203.32
507.304	10425.69
507.672	10471.11
508.041	10560.15
508.409	10763.76
508.777	10812.12
509.145	10808.73
509.514	10970.98
509.882	11105.22
510.25	11157.42
510.618	11298.88
510.986	11317.64
511.354	11502.27
511.722	11594.02
512.09	11695.26
512.458	11807.34
512.826	11930.96
513.193	12007.79
513.561	12063.61
513.929	12236.71
514.297	12350.83
514.664	12424.05
515.032	12446.42
515.4	12622.69
515.767	12737.49
516.135	12826.08
516.502	12745.85
516.869	13081.89
517.237	13083.02
517.604	13074.2
517.972	13222.45
518.339	13370.24
518.706	13348.1
519.073	13515.1
519.44	13676.9
519.808	13803.45
520.175	13679.39
520.542	14016.33
520.909	14112.82
521.276	14102.88
521.643	14173.61
522.009	14320.27
522.376	14433.94
522.743	14576.54
523.11	14635.97
523.477	14863.99
523.843	14924.1
524.21	15102.4
524.577	15188.95
524.943	15244.32
525.31	15427.14
525.676	15456.06
526.043	15693.57
526.409	15715.49
526.776	15874.81
527.142	15894.02
527.508	16059.89
527.874	16191.86
528.241	16181.02
528.607	16274.35
528.973	16472.98
529.339	16448.8
529.705	16685.18
530.071	16759.31
530.437	16872.07
530.803	17007.21
531.169	17072.29
531.535	17056.02
531.901	17096.47
532.267	17155.68
532.632	17391.15
532.998	17331.72
533.364	17558.15
533.73	17572.84
534.095	17860.75
534.461	17830.46
534.826	17916.56
535.192	17937.81
535.557	18037.46
535.923	18086.5
536.288	18137.35
536.653	18160.62
537.019	18223.67
537.384	18416.44
537.749	18480.39
538.114	18453.95
538.479	18532.14
538.845	18627.5
539.21	18668.63
539.575	18669.31
539.94	18846.26
540.305	18897.33
540.67	18967.38
541.034	19035.18
541.399	19104.78
541.764	19185
542.129	19212.8
542.494	19295.51
542.858	19386.81
543.223	19352.01
543.587	19458.9
543.952	19545.22
544.316	19677.87
544.681	19713.58
545.045	19804.42
545.41	19930.52
545.774	19832.9
546.138	19959.45
546.503	20022.04
546.867	20000.12
547.231	20199.67
547.595	20217.97
547.959	20278.31
548.324	20379.55
548.688	20406.89
549.052	20484.86
549.416	20544.06
549.779	20628.36
550.143	20548.13
550.507	20742.03
550.871	20743.61
551.235	20890.72
551.599	20957.84
551.962	21073.54
552.326	21109.02
552.689	21136.82
553.053	21129.59
553.417	21193.09
553.78	21504.04
554.143	21316.02
554.507	21550.37
554.87	21705.16
555.234	21786.74
555.597	21715.78
555.96	21882.11
556.323	21891.37
556.686	21884.59
557.05	22093.4
557.413	22185.6
557.776	22219.95
558.139	22397.12
558.502	22433.28
558.865	22422.43
559.228	22563.9
559.59	22622.43
559.953	22786.72
560.316	22957.11
560.679	22999.59
561.041	23161.4
561.404	23203.88
561.767	23357.78
562.129	23325.69
562.492	23511.9
562.854	23425.34
563.217	23554.38
563.579	23608.39
563.941	23831.89
564.304	23901.94
564.666	23904.65
565.028	24003.18
565.39	24073.01
565.753	24223.52
566.115	24336.51
566.477	24414.7
566.839	24477.97
567.201	24699.89
567.563	24640.91
567.925	24811.07
568.287	24863.95
568.648	24932.42
569.01	25062.82
569.372	25256.71
569.734	25238.86
570.095	25345.07
570.457	25512.3
570.819	25452.18
571.18	25613.31
571.542	25642.01
571.903	25805.62
572.265	25894.43
572.626	26020.76
572.987	26158.83
573.349	26247.64
573.71	26298.72
574.071	26298.26
574.432	26413.74
574.794	26562.44
575.155	26610.35
575.516	26615.09
575.877	26733.73
576.238	26659.16
576.599	26907.29
576.96	26966.95
577.32	27028.87
577.681	27169.88
578.042	27307.95
578.403	27369.87
578.763	27425.69
579.124	27506.82
579.485	27708.17
579.845	27709.53
580.206	27746.13
580.566	27873.14
580.927	27985.9
581.287	28249.4
581.648	28088.72
582.008	28284.65
582.368	28278.32
582.728	28443.29
583.089	28459.11
583.449	28691.42
583.809	28840.34
584.169	28905.88
584.529	28788.14
584.889	29272.87
585.249	28920.79
585.609	29175.7
585.969	29378.41
586.329	29411.85
586.688	29477.61
587.048	29522.81
587.408	29683.03
587.768	29692.3
588.127	29751.73
588.487	29857.27
588.846	30171.61
589.206	29947.88
589.565	30210.25
589.925	30382
590.284	30378.83
590.643	30557.13
591.003	30665.38
591.362	30819.5
591.721	30807.52
592.08	31038.03
592.44	31146.27
592.799	31201.86
593.158	31261.07
593.517	31381.52
593.876	31444.79
594.235	31450.67
594.593	31618.58
594.952	31788.29
595.311	31711.68
595.67	31811.56
596.029	32133.14
596.387	32218.56
596.746	32352.79
597.104	32227.82
597.463	32169.07
597.822	32418.33
598.18	32326.13
598.538	32656.97
598.897	32775.61
599.255	32503.98
599.613	33113.23
599.972	32882.05
600.33	33094.69
600.688	33027.58
601.046	33197.97
601.404	33244.97
601.762	33354.8
602.12	33546.43
602.478	33609.26
602.836	33702.59
603.194	33549.15
603.552	33648.35
603.91	33604.51
604.268	33879.08
604.625	33928.35
604.983	34003.82
605.341	33990.72
605.698	34137.83
606.056	34207.21
606.413	34296.7
606.771	34482.91
607.128	34414.66
607.485	34356.36
607.843	34515.45
608.2	34693.75
608.557	34955.21
608.914	34849.22
609.272	35047.41
609.629	35045.83
609.986	35291.25
610.343	35149.33
610.7	35441.07
611.057	35446.72
611.414	35400.4
611.771	35488.76
612.127	35689.43
612.484	35662.08
612.841	35801.74
613.198	35858.46
613.554	35839.26
613.911	36148.17
614.267	36021.17
614.624	36143.43
614.98	36094.84
615.337	36403.99
615.693	36352.01
616.05	36163.77
616.406	36474.49
616.762	36412.8
617.118	36526.69
617.475	36500.03
617.831	36700.48
618.187	36622.51
618.543	36794.26
618.899	36922.84
619.255	36910.41
619.611	36996.74
619.967	37075.61
620.323	37161.93
620.678	37166.68
621.034	37082.39
621.39	37161.48
621.746	37181.14
622.101	37636.04
622.457	37175.49
622.812	37447.57
623.168	37555.14
623.523	37478.53
623.879	37555.37
624.234	37324.19
624.589	37498.42
624.945	37603.05
625.3	37654.35
625.655	37602.82
626.01	37721.01
626.365	37709.71
626.72	37772.09
627.075	37844.4
627.43	37622.94
627.785	37634.69
628.14	37712.2
628.495	37792.88
628.85	37684.4
629.205	37589.94
629.559	37797.85
629.914	37689.38
630.269	37827.68
630.623	37781.35
630.978	37588.59
631.332	37692.77
631.687	37944.51
632.041	37622.03
632.396	37773.44
632.75	37632.2
633.104	37662.48
633.459	37547.46
633.813	37637.4
634.167	37595.59
634.521	37473.56
634.875	37631.98
635.229	37639.66
635.583	37473.34
635.937	37416.62
636.291	37365.32
636.645	37465.65
636.999	37411.64
637.352	37591.3
637.706	37336.39
638.06	37445.77
638.413	37419.78
638.767	37357.63
639.121	37420.68
639.474	37074.25
639.828	37267.24
640.181	37426.11
640.534	37330.06
640.888	37163.51
641.241	37059.79
641.594	37079.9
641.947	37314.24
642.301	37135.04
642.654	37180.92
643.007	37064.53
643.36	37131.42
643.713	36973.24
644.066	37132.1
644.419	36985.21
644.771	36651.21
645.124	36412.57
645.477	36230.88
645.83	36180.04
646.182	35935.52
646.535	35929.87
646.888	35869.09
647.24	35700.5
647.593	36036.09
647.945	35898.69
648.298	35668.64
648.65	35633.16
649.002	35543.22
649.355	35764.68
649.707	35775.53
650.059	35849.65
650.411	36180.49
650.763	36309.75
651.115	36591.1
651.467	36520.82
651.819	36490.54
652.171	36363.54
652.523	36328.73
652.875	36334.38
653.227	36182.52
653.578	36461.61
653.93	36442.63
654.282	36216.42
654.633	36135.07
654.985	36267.04
655.337	36349.75
655.688	36340.49
656.039	36339.58
656.391	36147.5
656.742	36233.37
657.094	36126.71
657.445	36202.86
657.796	36176.65
658.147	36050.55
658.498	36029.76
658.849	36091.9
659.2	36128.29
659.551	35996.77
659.902	36086.93
660.253	36086.71
660.604	36274.95
660.955	35956.31
661.306	36065.01
661.656	35999.25
662.007	35898.24
662.358	35964.45
662.708	36024.11
663.059	35874.28
663.409	35695.53
663.76	36112.69
664.11	36041.74
664.461	36040.15
664.811	35907.73
665.161	35854.62
665.511	35915.19
665.862	35900.72
666.212	36018.01
666.562	35973.94
666.912	35902.76
667.262	35832.7
667.612	35738.24
667.962	35937.56
668.312	35887.62
668.662	35949.31
669.011	35734.63
669.361	35820.95
669.711	35789.99
670.06	35790.9
670.41	35624.35
670.76	35677.23
671.109	35726.49
671.459	35715.19
671.808	35535.08
672.157	35599.26
672.507	35500.73
672.856	35575.99
673.205	35492.15
673.554	35715.42
673.904	35409.89
674.253	35734.17
674.602	35572.6
674.951	35091.03
675.3	34956.11
675.649	35495.99
675.998	35476.78
676.346	35472.03
676.695	35575.99
677.044	35246.73
677.393	35346.16
677.741	35408.08
678.09	35311.13
678.438	35093.51
678.787	35466.84
679.135	35301.64
679.484	35052.84
679.832	35246.28
680.181	35016.68
680.529	35231.81
680.877	35063.91
681.225	34960.86
681.573	35267.07
681.922	34980.07
682.27	34860.52
682.618	34745.05
682.966	34776.23
683.314	34836.8
683.661	34759.06
684.009	34604.03
684.357	34599.74
684.705	34471.38
685.053	34491.49
685.4	34566.52
685.748	34279.52
686.095	34260.31
686.443	34085.86
686.79	34199.75
687.138	34259.86
687.485	34183.93
687.832	34041.79
688.18	34042.01
688.527	33840.66
688.874	33964.95
689.221	33843.6
689.568	33665.75
689.915	33804.73
690.262	33640.67
690.609	33635.7
690.956	33445.19
691.303	33369.04
691.65	33284.97
691.997	33269.83
692.344	32950.74
692.69	33025.09
693.037	33078.65
693.383	32829.17
693.73	32995.94
694.077	32705.33
694.423	32679.56
694.769	32653.12
695.116	32568.15
695.462	32556.18
695.808	32405.9
696.155	32509.63
696.501	32263.08
696.847	32283.42
697.193	32000.03
697.539	32073.03
697.885	31992.35
698.231	31711.91
698.577	31900.38
698.923	31769.98
699.269	31647.05
699.614	31454.51
699.96	31455.19
700.306	31353.72
700.651	31235.31
700.997	31174.75
701.342	31129.77
701.688	31031.02
702.033	30980.4
702.379	30987.41
702.724	30819.27
703.069	30895.43
703.415	30633.29
703.76	30670.58
704.105	30640.3
704.45	30565.04
704.795	30434.2
705.14	30244.37
705.485	30344.94
705.83	30167.99
706.175	30288.44
706.52	30129.8
706.865	30014.78
707.209	29857.04
707.554	29843.03
707.899	29934.55
708.243	29727.1
708.588	29796.48
708.932	29517.61
709.277	29377.28
709.621	29580.21
709.966	29297.28
710.31	29354.91
710.654	29266.09
710.998	29197.62
711.342	29123.73
711.687	29119.88
712.031	28977.29
712.375	28901.81
712.719	28931.64
713.063	28872.43
713.407	28922.6
713.75	28679.67
714.094	28818.2
714.438	28676.73
714.782	28617.75
715.125	28668.37
715.469	28519.22
715.812	28403.52
716.156	28175.05
716.499	28205.11
716.843	28385.21
717.186	28067.26
717.53	28329.85
717.873	28150.87
718.216	28072
718.559	27966.02
718.902	27776.19
719.246	27928.5
719.589	27745
719.932	27728.51
720.275	27745.46
720.617	27800.37
720.96	27561.73
721.303	27601.73
721.646	27627.27
721.989	27512.92
722.331	27479.02
722.674	27387.05
723.016	27543.88
723.359	27358.35
723.701	27436.76
724.044	27230.44
724.386	27109.54
724.729	27228.41
725.071	27018.92
725.413	27047.17
725.755	27088.75
726.097	26921.75
726.439	26710.68
726.782	26827.97
727.124	26997.23
727.465	26650.34
727.807	26679.5
728.149	26680.17
728.491	26720.17
728.833	26671.81
729.175	26593.17
729.516	26500.52
729.858	26473.17
730.199	26513.85
730.541	26454.64
730.882	26406.96
731.224	26426.85
731.565	26259.39
731.906	26345.72
732.248	26232.05
732.589	26184.59
732.93	26111.38
733.271	26181.43
733.612	26038.16
733.953	26127.87
734.294	26041.77
734.635	26004.26
734.976	26019.85
735.317	25889.69
735.658	25830.48
735.999	25816.92
736.339	25764.72
736.68	25767.66
737.021	25716.81
737.361	25616.25
737.702	25797.49
738.042	25660.54
738.383	25570.6
738.723	25592.29
739.063	25496.7
739.404	25542.58
739.744	25412.18
740.084	25375.35
740.424	25353.66
740.764	25296.48
741.104	25350.72
741.444	25170.16
741.784	25045.64
742.124	25278.4
742.464	25108.46
742.804	25082.02
743.143	25091.52
743.483	25202.02
743.823	25004.29
744.162	24962.03
744.502	24983.04
744.841	24857.4
745.181	24958.41
745.52	24896.27
745.86	24833.67
746.199	24787.12
746.538	24725.88
746.877	24787.12
747.216	24701.47
747.556	24710.51
747.895	24671.87
748.234	24553.45
748.573	24483.17
748.911	24463.51
749.25	24555.71
749.589	24346
749.928	24322.72
750.267	24446.56
750.605	24261.25
750.944	24256.96
751.283	24237.98
751.621	24294.25
751.96	24139.68
752.298	23992.11
752.636	24172.44
752.975	24003.86
753.313	23843.19
753.651	23979
753.989	23879.12
754.327	23864.65
754.666	23772.23
755.004	23660.82
755.342	23701.95
755.679	23732
756.017	23448.85
756.355	23620.14
756.693	23493.14
757.031	23496.08
757.368	23306.7
757.706	23289.53
758.044	23229.87
758.381	23301.28
758.719	23139.48
759.056	23107.61
759.394	22973.15
759.731	22854.51
760.068	22886.38
760.405	22803.67
760.743	22694.29
761.08	22781.29
761.417	22604.12
761.754	22567.74
762.091	22441.64
762.428	22386.73
762.765	22273.28
763.102	22255.66
763.438	22226.73
763.775	22142.21
764.112	22212.04
764.449	22072.84
764.785	22010.47
765.122	21935.44
765.458	21769.79
765.795	21819.06
766.131	21858.83
766.467	21632.62
766.804	21611.15
767.14	21464.94
767.476	21448.22
767.812	21328.68
768.148	21405.74
768.485	21267.44
768.821	21109.25
769.157	21178.17
769.492	21074.9
769.828	21076.93
770.164	20802.81
770.5	20879.65
770.836	20870.84
771.171	20724.85
771.507	20689.82
771.842	20536.61
772.178	20546.55
772.513	20474.46
772.849	20380.68
773.184	20306.56
773.519	20264.07
773.855	20134.81
774.19	20080.35
774.525	20029.05
774.86	19990.41
775.195	19953.35
775.53	19932.55
775.865	19696.63
776.2	19641.72
776.535	19533.24
776.87	19503.19
777.205	19407.15
777.539	19417.99
777.874	19339.58
778.209	19230.65
778.543	19167.6
778.878	19067.49
779.212	19003.54
779.547	18884.22
779.881	19041.05
780.215	18802.19
780.55	18870.44
780.884	18721.97
781.218	18715.86
781.552	18725.13
781.886	18589.77
782.22	18361.3
782.554	18433.39
782.888	18252.37
783.222	18201.53
783.556	18046.73
783.889	18093.73
784.223	17952.49
784.557	17940.29
784.89	17935.32
785.224	17924.92
785.557	17701.88
785.891	17670.02
786.224	17625.27
786.558	17604.25
786.891	17444.03
787.224	17401.32
787.557	17343.47
787.891	17347.09
788.224	17299.4
788.557	17323.36
788.89	17206.07
789.223	17122.46
789.556	17087.66
789.888	17036.59
790.221	16912.75
790.554	16747.78
790.887	16851.73
791.219	16681.12
791.552	16602.93
791.884	16580.55
792.217	16628.01
792.549	16560.44
792.882	16320.22
793.214	16393.21
793.546	16333.55
793.879	16258.53
794.211	16126.55
794.543	16208.13
794.875	16142.37
795.207	16171.07
795.539	16044.97
795.871	15993.45
796.203	15883.85
796.535	15790.07
796.867	15805.88
797.198	15691.31
797.53	15667.81
797.862	15630.75
798.193	15570.64
798.525	15469.17
798.856	15617.41
799.188	15316.63
799.519	15298.33
799.85	15203.64
800.182	15268.72
800.513	15309.63
800.844	15109.18
801.175	15160.48
801.506	15183.3
801.837	15090.87
802.168	15064.89
802.499	14977.88
802.83	14924.78
803.161	14871.22
803.491	14796.64
803.822	14861.5
804.153	14744.89
804.483	14706.93
804.814	14524.56
805.145	14570.21
805.475	14583.54
805.805	14526.37
806.136	14509.19
806.466	14540.15
806.796	14489.99
807.126	14375.86
807.457	14255.42
807.787	14335.87
808.117	14138.36
808.447	14127.28
808.777	14172.03
809.107	14162.09
809.436	14072.14
809.766	14056.78
810.096	13984.91
810.426	13930.23
810.755	14018.13
811.085	13968.87
811.414	13897.69
811.744	13750.8
812.073	13770.68
812.403	13752.6
812.732	13693.62
813.061	13606.85
813.39	13595.09
813.719	13519.62
814.049	13591.25
814.378	13522.78
814.707	13418.83
815.036	13470.8
815.365	13380.18
815.693	13271.26
816.022	13299.74
816.351	13240.98
816.68	13204.14
817.008	13174.77
817.337	13141.77
817.665	13123.24
817.994	13144.71
818.322	13146.07
818.651	13049.12
818.979	13062
819.307	13071.49
819.636	13031.95
819.964	12925.06
820.292	12961.21
820.62	12945.39
820.948	12915.79
821.276	12965.73
821.604	12798.73
821.932	12868.33
822.259	12950.37
822.587	12864.49
822.915	12879.41
823.243	12841.44
823.57	12852.06
823.898	12822.46
824.225	12794.44
824.553	12789.01
824.88	12777.49
825.207	12894.32
825.535	12746.53
825.862	12782.46
826.189	12785.17
826.516	12837.15
826.843	12882.34
827.17	12828.11
827.497	12842.57
827.824	12850.03
828.151	12853.65
828.478	12825.85
828.805	12880.76
829.131	12819.07
829.458	12748.56
829.785	12718.51
830.111	12747.43
830.438	12852.06
830.764	12778.62
831.09	12816.81
831.417	12749.92
831.743	12768.68
832.069	12784.04
832.395	12642.8
832.722	12739.07
833.048	12696.14
833.374	12721.22
833.7	12670.6
834.026	12711.95
834.351	12629.7
834.677	12668.57
835.003	12619.07
835.329	12629.47
835.654	12638.28
835.98	12495.91
836.306	12597.83
836.631	12472.41
836.956	12620.2
837.282	12529.13
837.607	12425.86
837.932	12409.14
838.258	12431.96
838.583	12443.03
838.908	12387.89
839.233	12426.99
839.558	12386.99
839.883	12376.82
840.208	12253.43
840.533	12302.25
840.858	12266.99
841.182	12198.97
841.507	12209.14
841.832	12186.09
842.156	12133.21
842.481	12105.64
842.805	12075.59
843.13	12069.48
843.454	12070.16
843.778	12048.47
844.103	12015.48
844.427	12029.49
844.751	11955.36
845.075	11987.45
845.399	11892.99
845.723	11822.03
846.047	11820.68
846.371	11775.03
846.695	11761.02
847.019	11574.13
847.343	11576.62
847.666	11524.41
847.99	11511.53
848.313	11459.33
848.637	11389.5
848.96	11332.1
849.284	11380.69
849.607	11254.37
849.931	11185.89
850.254	11140.47
850.577	11081.04
850.9	11035.16
851.223	11048.95
851.546	10989.51
851.869	10879.23
852.192	10975.5
852.515	10895.96
852.838	10820.48
853.161	10797.88
853.483	10705.23
853.806	10750.42
854.129	10721.72
854.451	10636.98
854.774	10565.34
855.096	10606.02
855.419	10554.5
855.741	10512.92
856.063	10510.88
856.385	10444.89
856.708	10396.99
857.03	10375.07
857.352	10382.75
857.674	10346.14
857.996	10292.36
858.318	10241.74
858.64	10276.09
858.961	10227.05
859.283	10192.47
859.605	10114.51
859.926	10088.75
860.248	10054.4
860.57	10037.22
860.891	10116.77
861.212	10009.43
861.534	9989.31
861.855	9966.04
862.176	9949.54
862.498	9936.66
862.819	9973.49
863.14	9917.23
863.461	9874.74
863.782	9824.12
864.103	9849.43
864.424	9826.38
864.745	9857.57
865.065	9734.41
865.386	9734.41
865.707	9703.67
866.027	9726.95
866.348	9677.91
866.668	9690.79
866.989	9665.25
867.309	9561.53
867.63	9633.62
867.95	9662.99
868.27	9620.28
868.59	9617.8
868.91	9542.09
869.23	9564.24
869.55	9541.19
869.87	9595.43
870.19	9465.71
870.51	9459.16
870.83	9614.86
871.15	9442.44
871.469	9437.92
871.789	9406.73
872.109	9477.46
872.428	9336
872.748	9439.05
873.067	9414.64
873.386	9411.25
873.706	9376.67
874.025	9350.01
874.344	9372.61
874.663	9317.01
874.982	9242.67
875.301	9289.67
875.62	9285.15
875.939	9224.81
876.258	9241.76
876.577	9161.54
876.896	9110.69
877.214	9101.65
877.533	9146.62
877.852	9143.23
878.17	9086.51
878.489	9125.16
878.807	9049.9
879.125	9074.31
879.444	9020.98
879.762	8996.12
880.08	9021.66
880.398	9056.23
880.716	8982.79
881.034	8924.93
881.352	8978.49
881.67	8875.67
881.988	8927.87
882.306	8877.7
882.624	8835.22
882.941	8799.51
883.259	8845.84
883.577	8833.86
883.894	8850.59
884.212	8760.87
884.529	8708.44
884.846	8674.09
885.164	8704.15
885.481	8678.84
885.798	8688.78
886.115	8662.79
886.432	8677.03
886.75	8604.04
887.067	8587.99
887.383	8533.98
887.7	8602.46
888.017	8499.18
888.334	8547.09
888.651	8482.91
888.967	8460.99
889.284	8415.57
889.6	8420.32
889.917	8417.83
890.233	8429.35
890.55	8268.23
890.866	8291.28
891.182	8309.81
891.498	8254.44
891.815	8257.16
892.131	8247.66
892.447	8202.47
892.763	8191.62
893.079	8113.43
893.395	8102.81
893.71	8175.35
894.026	8148.68
894.342	8029.37
894.657	8061
894.973	7948.46
895.289	7973.55
895.604	8020.78
895.92	7984.17
896.235	7915.24
896.55	7921.35
896.865	7851.29
897.181	7844.51
897.496	7894.23
897.811	7773.33
898.126	7761.35
898.441	7776.72
898.756	7684.06
899.071	7650.62
899.386	7648.58
899.7	7558.64
900.015	7537.4
900.33	7546.67
900.644	7512.99
900.959	7488.14
901.273	7549.38
901.588	7451.08
901.902	7371.98
902.216	7453.56
902.531	7363.85
902.845	7366.11
903.159	7230.06
903.473	7315.49
903.787	7255.37
904.101	7284.07
904.415	7154.59
904.729	7170.18
905.042	7164.53
905.356	7097.19
905.67	7075.72
905.984	7103.06
906.297	7087.47
906.611	6984.87
906.924	6911.65
907.237	6946.46
907.551	6976.96
907.864	6916.85
908.177	6972.44
908.491	6906
908.804	6783.97
909.117	6806.57
909.43	6789.85
909.743	6749.17
910.056	6718.67
910.368	6736.52
910.681	6662.85
910.994	6622.85
911.307	6641.15
911.619	6551.89
911.932	6586.24
912.244	6496.07
912.557	6542.62
912.869	6471.67
913.181	6433.02
913.494	6450.88
913.806	6397.32
914.118	6387.15
914.43	6319.58
914.742	6374.27
915.054	6299.69
915.366	6291.78
915.678	6246.59
915.99	6197.77
916.302	6153.03
916.613	6120.49
916.925	6157.78
917.236	6159.36
917.548	6047.27
917.859	6161.62
918.171	6008.4
918.482	5971.11
918.794	6032.36
919.105	5958.23
919.416	5935.41
919.727	5936.76
920.038	5922.3
920.349	5880.95
920.66	5834.62
920.971	5841.85
921.282	5830.1
921.593	5756.66
921.903	5790.33
922.214	5732.48
922.525	5722.08
922.835	5689.54
923.146	5658.58
923.456	5647.28
923.767	5584.23
924.077	5621.07
924.387	5609.32
924.697	5535.42
925.008	5551.01
925.318	5549.43
925.628	5471.92
925.938	5503.1
926.248	5458.81
926.558	5362.32
926.867	5360.96
927.177	5354.63
927.487	5380.62
927.796	5299.27
928.106	5316.22
928.416	5268.31
928.725	5237.35
929.034	5201.64
929.344	5269.66
929.653	5229.21
929.962	5227.18
930.271	5122.32
930.581	5104.02
930.89	5066.05
931.199	5074.64
931.508	5069.67
931.817	5061.08
932.125	5019.27
932.434	5015.21
932.743	4950.35
933.051	4972.27
933.36	4920.75
933.669	4916.23
933.977	4908.54
934.286	4830.35
934.594	4823.12
934.902	4809.34
935.21	4774.76
935.519	4763.24
935.827	4805.04
936.135	4731.15
936.443	4740.19
936.751	4670.36
937.059	4690.92
937.367	4644.37
937.674	4672.17
937.982	4624.71
938.29	4597.36
938.597	4602.79
938.905	4528.89
939.213	4555.11
939.52	4511.04
939.827	4506.52
940.135	4485.73
940.442	4463.36
940.749	4470.36
941.056	4414.32
941.363	4388.56
941.67	4433.08
941.977	4365.51
942.284	4331.84
942.591	4392.4
942.898	4355.34
943.205	4294.1
943.511	4313.53
943.818	4280.09
944.125	4203.25
944.431	4233.98
944.738	4241.44
945.044	4168.9
945.35	4159.18
945.657	4105.17
945.963	4155.57
946.269	4115.12
946.575	4135.23
946.881	4085.97
947.187	4052.52
947.493	4060.88
947.799	4057.72
948.105	4040.32
948.41	4001
948.716	3993.99
949.022	3981.56
949.327	3971.39
949.633	3831.96
949.938	3921.9
950.244	3918.74
950.549	3893.43
950.854	3882.81
951.16	3831.74
951.465	3858.63
951.77	3827.22
952.075	3780.44
952.38	3800.78
952.685	3741.57
952.99	3724.39
953.294	3683.72
953.599	3687.56
953.904	3709.48
954.209	3717.61
954.513	3715.81
954.818	3674
955.122	3665.64
955.426	3658.63
955.731	3603.04
956.035	3586.54
956.339	3591.52
956.643	3579.99
956.948	3533.21
957.252	3542.93
957.556	3532.31
957.86	3511.52
958.163	3540.22
958.467	3473.33
958.771	3492.99
959.075	3461.12
959.378	3424.29
959.682	3433.55
959.985	3401.01
960.289	3378.64
960.592	3322.82
960.896	3370.73
961.199	3374.57
961.502	3335.7
961.805	3342.71
962.108	3350.62
962.411	3287.57
962.714	3273.56
963.017	3270.62
963.32	3235.59
963.623	3226.1
963.926	3251.19
964.228	3215.48
964.531	3170.96
964.833	3174.58
965.136	3146.33
965.438	3135.26
965.741	3156.5
966.043	3105.2
966.345	3124.18
966.648	3100
966.95	3067.01
967.252	3074.69
967.554	3039.89
967.856	3057.52
968.158	2994.02
968.46	3048.03
968.761	3012.77
969.063	3014.81
969.365	2981.59
969.666	2967.58
969.968	2940.46
970.269	2949.95
970.571	2899.78
970.872	2884.64
971.174	2925.09
971.475	2869.27
971.776	2855.49
972.077	2889.39
972.378	2871.31
972.679	2836.51
972.98	2838.09
973.281	2808.94
973.582	2823.17
973.883	2808.71
974.183	2770.52
974.484	2751.99
974.785	2719.22
975.085	2719.9
975.386	2735.27
975.686	2725.78
975.986	2671.09
976.287	2699.11
976.587	2678.55
976.887	2688.26
977.187	2635.38
977.487	2632.9
977.787	2630.41
978.087	2599
978.387	2612.56
978.687	2629.51
978.987	2597.19
979.286	2563.52
979.586	2578.21
979.885	2534.14
980.185	2537.98
980.484	2549.96
980.784	2513.35
981.083	2478.78
981.382	2513.35
981.682	2501.6
981.981	2463.18
982.28	2443.98
982.579	2431.55
982.878	2458.21
983.177	2420.02
983.475	2409.4
983.774	2430.64
984.073	2407.14
984.372	2384.99
984.67	2377.08
984.969	2358.78
985.267	2372.79
985.566	2317.2
985.864	2335.05
986.162	2324.2
986.461	2289.86
986.759	2328.72
987.057	2272.68
987.355	2278.78
987.653	2260.25
987.951	2278.78
988.249	2267.48
988.547	2274.04
988.844	2257.77
989.142	2227.26
989.44	2215.05
989.737	2194.26
990.035	2215.51
990.332	2185.68
990.63	2186.35
990.927	2180.25
991.224	2172.8
991.521	2163.98
991.819	2148.16
992.116	2100.03
992.413	2134.38
992.71	2098.22
993.006	2105.45
993.303	2102.97
993.6	2084.44
993.897	2099.13
994.193	2083.31
994.49	2069.75
994.787	2028.39
995.083	2019.13
995.379	2058.45
995.676	2052.35
995.972	2032.23
996.268	1999.24
996.565	2012.57
996.861	1982.29
997.157	1984.78
997.453	1997.21
997.749	1963.99
998.044	1931.45
998.34	1959.24
998.636	1964.21
998.932	1921.96
999.227	1913.37
999.523	1909.53
999.818	1884.44
1000.114	1887.61
1000.409	1865.23
1000.704	1848.74
1001	1846.93
1001.295	1838.79
1001.59	1838.57
1001.885	1815.52
1002.18	1766.7
1002.475	1823.2
1002.77	1801.51
1003.065	1795.18
1003.359	1779.59
1003.654	1791.56
1003.949	1768.06
1004.243	1752.02
1004.538	1704.79
1004.832	1733.26
1005.127	1738.46
1005.421	1727.38
1005.715	1645.8
1006.009	1705.69
1006.304	1698.46
1006.598	1654.62
1006.892	1671.34
1007.186	1647.39
1007.48	1639.25
1007.773	1653.04
1008.067	1615.97
1008.361	1619.14
1008.655	1610.1
1008.948	1616.65
1009.242	1603.55
1009.535	1580.95
1009.829	1576.2
1010.122	1575.07
1010.415	1543.43
1010.708	1549.76
1011.001	1528.07
1011.295	1547.05
1011.588	1549.31
1011.881	1508.18
1012.173	1506.15
1012.466	1536.43
1012.759	1472.93
1013.052	1491.68
1013.344	1483.32
1013.637	1450.33
1013.93	1446.26
1014.222	1465.02
1014.514	1424.79
1014.807	1418.47
1015.099	1424.57
1015.391	1419.82
1015.683	1430.67
1015.976	1398.58
1016.268	1393.16
1016.56	1374.85
1016.851	1368.07
1017.143	1370.56
1017.435	1351.8
1017.727	1363.1
1018.018	1342.31
1018.31	1337.34
1018.602	1346.6
1018.893	1297.79
1019.185	1295.76
1019.476	1289.43
1019.767	1309.09
1020.058	1287.62
1020.35	1324.46
1020.641	1260.73
1020.932	1290.56
1021.223	1265.7
1021.514	1248.53
1021.804	1273.61
1022.095	1223.44
1022.386	1221.86
1022.677	1235.19
1022.967	1214.18
1023.258	1192.93
1023.548	1163.78
1023.839	1178.7
1024.129	1186.38
1024.419	1166.72
1024.709	1168.75
1025	1159.04
1025.29	1183.44
1025.58	1154.74
1025.87	1135.54
1026.16	1132.6
1026.449	1141.18
1026.739	1139.15
1027.029	1113.16
1027.319	1076.78
1027.608	1121.3
1027.898	1093.73
1028.187	1062.77
1028.477	1073.62
1028.766	1043.11
1029.055	1058.93
1029.344	1060.96
1029.634	1059.83
1029.923	1040.4
1030.212	1018.93
1030.501	1037.01
1030.79	1024.8
1031.078	1013.73
1031.367	1009.44
1031.656	1002.88
1031.945	1007.85
1032.233	1007.4
1032.522	989.1
1032.81	978.03
1033.099	971.25
1033.387	975.31
1033.675	974.18
1033.963	947.07
1034.251	942.32
1034.54	926.5
1034.828	966.5
1035.116	952.72
1035.403	945.71
1035.691	911.13
1035.979	904.35
1036.267	903.45
1036.554	882.66
1036.842	906.39
1037.129	890.12
1037.417	884.69
1037.704	878.59
1037.992	877.46
1038.279	860.51
1038.566	880.63
1038.853	880.63
1039.14	880.63
