Data from hue_80_FLMS001491_6.txt Node
Date: Mon Feb 06 15:22:22 GMT 2017
User: dcchb
Spectrometer: FLMS00149
Trigger mode: 0
Integration Time (sec): 2.000000E-2
Scans to average: 10
Electric dark correction enabled: true
Nonlinearity correction enabled: false
Boxcar width: 0
XAxis mode: Wavelengths
Number of Pixels in Spectrum: 2048
>>>>>Begin Spectral Data<<<<<
341.393	-11.92
341.776	-11.92
342.16	-11.92
342.543	-56.44
342.927	-53.95
343.31	-68.42
343.693	-65.25
344.077	-71.13
344.46	-79.26
344.843	-41.75
345.226	-28.64
345.61	-27.74
345.993	-14.41
346.376	-14.63
346.759	-2.66
347.142	5.48
347.525	25.14
347.908	90.45
348.291	82.09
348.674	80.73
349.057	130
349.44	112.37
349.823	151.46
350.206	161.86
350.588	195.76
350.971	205.93
351.354	221.75
351.737	236.21
352.119	252.93
352.502	266.72
352.884	268.07
353.267	291.57
353.65	289.77
354.032	307.85
354.414	318.92
354.797	309.2
355.179	314.85
355.562	323.21
355.944	335.41
356.326	343.1
356.709	355.53
357.091	338.58
357.473	345.13
357.855	342.19
358.238	350.1
358.62	334.28
359.002	341.06
359.384	339.71
359.766	333.38
360.148	357.79
360.53	320.05
360.912	346.49
361.294	347.84
361.676	338.8
362.057	341.29
362.439	325.02
362.821	351.46
363.203	339.93
363.584	332.48
363.966	332.03
364.348	333.16
364.729	299.94
365.111	320.73
365.493	329.99
365.874	320.73
366.256	302.2
366.637	322.08
367.019	332.7
367.4	306.26
367.781	306.49
368.163	321.4
368.544	336.32
368.925	314.85
369.306	312.82
369.688	304.68
370.069	327.51
370.45	313.49
370.831	322.53
371.212	304.23
371.593	323.66
371.974	329.77
372.355	320.95
372.736	306.04
373.117	307.39
373.498	320.05
373.879	325.02
374.26	310.56
374.641	336.32
375.021	323.89
375.402	321.18
375.783	339.03
376.163	331.12
376.544	317.34
376.925	336.09
377.305	303.1
377.686	329.09
378.066	332.7
378.447	337.67
378.827	327.51
379.208	329.77
379.588	321.63
379.968	333.38
380.349	323.66
380.729	341.74
381.109	341.29
381.489	359.6
381.87	361.18
382.25	355.3
382.63	344
383.01	325.47
383.39	356.43
383.77	361.4
384.15	356.66
384.53	348.52
384.91	348.75
385.29	347.39
385.67	347.62
386.049	367.05
386.429	358.24
386.809	354.62
387.189	357.34
387.568	346.49
387.948	358.69
388.328	362.08
388.707	366.83
389.087	350.1
389.466	361.85
389.846	359.14
390.225	338.58
390.605	372.02
390.984	368.18
391.363	375.19
391.743	370.44
392.122	363.21
392.501	384.23
392.881	359.14
393.26	373.83
393.639	360.5
394.018	372.02
394.397	374.96
394.776	364.34
395.155	376.32
395.534	386.71
395.913	376.54
396.292	401.85
396.671	388.52
397.05	388.75
397.429	379.71
397.808	381.29
398.186	383.32
398.565	374.06
398.944	400.27
399.323	405.47
399.701	383.32
400.08	412.02
400.458	415.41
400.837	411.8
401.215	407.28
401.594	402.08
401.972	412.93
402.351	383.1
402.729	412.48
403.107	407.05
403.486	404.34
403.864	408.18
404.242	426.71
404.62	418.35
404.999	417.22
405.377	429.88
405.755	436.66
406.133	414.96
406.511	408.18
406.889	416.09
407.267	421.74
407.645	437.56
408.023	439.59
408.401	432.59
408.779	417.67
409.156	435.3
409.534	440.95
409.912	453.6
410.29	422.42
410.667	453.6
411.045	451.57
411.422	454.28
411.8	455.19
412.178	459.93
412.555	459.93
412.933	467.84
413.31	483.21
413.687	479.14
414.065	484.34
414.442	487.73
414.819	508.97
415.197	472.59
415.574	496.31
415.951	499.03
416.328	480.5
416.705	483.21
417.082	504.45
417.46	517.33
417.837	520.04
418.214	508.29
418.591	501.96
418.967	511.23
419.344	505.58
419.721	518.23
420.098	504.68
420.475	533.15
420.852	520.04
421.228	524.34
421.605	523.66
421.982	534.96
422.358	515.98
422.735	542.42
423.111	531.57
423.488	536.54
423.864	558.69
424.241	540.61
424.617	549.87
424.994	577.67
425.37	560.95
425.746	566.6
426.123	565.69
426.499	581.96
426.875	556.88
427.251	590.1
427.627	599.81
428.003	582.64
428.379	581.96
428.756	592.13
429.132	596.2
429.507	613.6
429.883	613.83
430.259	638.68
430.635	619.93
431.011	603.2
431.387	632.58
431.763	630.32
432.138	647.27
432.514	645.46
432.89	642.53
433.265	658.57
433.641	663.99
434.016	687.04
434.392	667.84
434.767	692.69
435.143	676.42
435.518	695.18
435.894	694.95
436.269	692.92
436.644	703.31
437.02	692.02
437.395	700.15
437.77	722.75
438.145	695.63
438.52	721.85
438.895	738.57
439.271	749.64
439.646	762.3
440.021	740.38
440.395	757.32
440.77	764.1
441.145	798.23
441.52	771.56
441.895	758.45
442.27	790.32
442.645	784.44
443.019	788.51
443.394	791.22
443.769	820.15
444.143	812.69
444.518	816.98
444.892	784.67
445.267	803.43
445.641	825.8
446.016	833.93
446.39	834.38
446.764	819.47
447.139	818.11
447.513	846.81
447.887	859.02
448.262	838.45
448.636	857.44
449.01	878.68
449.384	860.15
449.758	850.43
450.132	873.48
450.506	895.17
450.88	890.2
451.254	883.88
451.628	880.03
452.002	894.5
452.376	929.52
452.75	893.14
453.123	910.09
453.497	934.5
453.871	955.29
454.244	972.69
454.618	991.44
454.992	975.85
455.365	983.08
455.739	995.96
456.112	1029.86
456.486	1030.09
456.859	1048.39
457.232	1029.86
457.606	1041.84
457.979	1029.41
458.352	1085.45
458.725	1074.6
459.099	1087.94
459.472	1131.33
459.845	1093.59
460.218	1117.09
460.591	1131.78
460.964	1150.76
461.337	1165.45
461.71	1205
462.083	1204.77
462.456	1238.67
462.829	1241.61
463.201	1246.35
463.574	1268.27
463.947	1283.19
464.32	1316.86
464.692	1297.2
465.065	1313.02
465.438	1336.97
465.81	1338.78
466.183	1372.22
466.555	1405.67
466.928	1391.88
467.3	1413.13
467.672	1440.7
468.045	1493.35
468.417	1484.09
468.789	1497.42
469.161	1487.7
469.534	1562.95
469.906	1593.23
470.278	1608.38
470.65	1673.68
471.022	1674.14
471.394	1725.66
471.766	1727.69
472.138	1776.73
472.51	1793
472.882	1862.15
473.253	1850.86
473.625	1895.83
473.997	1975.6
474.369	2010.85
474.74	2010.4
475.112	2060.79
475.484	2139.44
475.855	2174.24
476.227	2216.27
476.598	2294.69
476.97	2322.93
477.341	2395.25
477.713	2458.07
478.084	2489.03
478.455	2588.91
478.827	2605.64
479.198	2725.41
479.569	2763.6
479.94	2836.37
480.311	2911.62
480.682	3035.91
481.053	3120.65
481.424	3187.77
481.795	3277.03
482.166	3346.86
482.537	3488.78
482.908	3529.68
483.279	3643.12
483.65	3701.88
484.021	3877.69
484.391	3923.57
484.762	4030.91
485.133	4088.54
485.503	4259.83
485.874	4383.9
486.244	4458.92
486.615	4609.88
486.985	4739.59
487.356	4854.17
487.726	4910.44
488.097	5070.43
488.467	5221.16
488.837	5360.14
489.207	5487.82
489.578	5631.55
489.948	5727.14
490.318	5864.08
490.688	5982.72
491.058	6113.79
491.428	6269.95
491.798	6363.05
492.168	6615.48
492.538	6727.34
492.908	6835.58
493.278	6975.92
493.648	7133.88
494.017	7238.28
494.387	7422.91
494.757	7547.2
495.126	7693.87
495.496	7792.17
495.866	7937.02
496.235	8027.87
496.605	8279.61
496.974	8346.5
497.344	8492.71
497.713	8528.65
498.082	8743.78
498.452	8873.27
498.821	9005.92
499.19	8994.4
499.559	9225.12
499.928	9363.2
500.298	9447.49
500.667	9597.54
501.036	9654.72
501.405	9867.59
501.774	9943.07
502.143	10107.81
502.512	10120.92
502.88	10335.83
503.249	10410.63
503.618	10538.99
503.987	10550.06
504.356	10736.95
504.724	10804.07
505.093	10901.01
505.462	11042.7
505.83	11155.47
506.199	11199.31
506.567	11405.86
506.936	11463.71
507.304	11678.17
507.672	11670.94
508.041	11737.83
508.409	11879.74
508.777	11991.61
509.145	12048.1
509.514	12103.02
509.882	12301.43
510.25	12334.87
510.618	12496.23
510.986	12494.19
511.354	12585.04
511.722	12782.09
512.09	12846.27
512.458	12803.34
512.826	12967.63
513.193	13034.97
513.561	13071.13
513.929	13233.83
514.297	13370.1
514.664	13473.83
515.032	13488.52
515.4	13627.04
515.767	13666.36
516.135	13721.05
516.502	13558.12
516.869	13923.08
517.237	13950.2
517.604	13904.32
517.972	14017.09
518.339	14142.74
518.706	14171.89
519.073	14227.7
519.44	14303.64
519.808	14431.09
520.175	14384.31
520.542	14551.54
520.909	14611.88
521.276	14643.97
521.643	14728.93
522.009	14839.89
522.376	14852.32
522.743	14950.62
523.11	15115.82
523.477	15176.83
523.843	15253.44
524.21	15410.95
524.577	15487.33
524.943	15404.4
525.31	15549.48
525.676	15555.35
526.043	15655.69
526.409	15718.97
526.776	15892.97
527.142	15815.69
527.508	15953.54
527.874	16020.2
528.241	15925.29
528.607	16087.09
528.973	16130.71
529.339	16144.49
529.705	16259.74
530.071	16373.19
530.437	16280.31
530.803	16351.49
531.169	16418.83
531.535	16396.46
531.901	16451.6
532.267	16514.42
532.632	16570.47
532.998	16481.43
533.364	16581.54
533.73	16672.84
534.095	16755.77
534.461	16700.63
534.826	16739.96
535.192	16739.96
535.557	16782.89
535.923	16697.24
536.288	16769.11
536.653	16769.56
537.019	16688.21
537.384	16715.1
537.749	16779.73
538.114	16770.46
538.479	16782.67
538.845	16793.74
539.21	16685.72
539.575	16715.55
539.94	16811.14
540.305	16910.57
540.67	16875.54
541.034	16817.24
541.399	16920.06
541.764	16882.1
542.129	16944.7
542.494	16883.91
542.858	16829.67
543.223	16814.98
543.587	16807.3
543.952	16790.35
544.316	16826.05
544.681	16747.86
545.045	16810.91
545.41	16796.68
545.774	16783.57
546.138	16787.86
546.503	16746.51
546.867	16779.28
547.231	16764.59
547.595	16793.06
547.959	16803
548.324	16860.4
548.688	16758.94
549.052	16775.43
549.416	16718.26
549.779	16715.32
550.143	16694.31
550.507	16762.1
550.871	16860.63
551.235	16776.11
551.599	16739.73
551.962	16721.88
552.326	16781.31
552.689	16821.54
553.053	16704.93
553.417	16718.71
553.78	16860.18
554.143	16708.77
554.507	16817.24
554.87	16757.81
555.234	16947.63
555.597	16786.51
555.96	16786.28
556.323	16850.69
556.686	16774.08
557.05	16883.23
557.413	16823.34
557.776	16832.83
558.139	16864.02
558.502	16933.4
558.865	16906.5
559.228	17010.68
559.59	16993.28
559.953	17016.11
560.316	17121.64
560.679	17052.72
561.041	17088.19
561.404	17113.05
561.767	17338.13
562.129	17101.3
562.492	17275.99
562.854	17263.11
563.217	17197.12
563.579	17286.38
563.941	17310.79
564.304	17395.98
564.666	17482.31
565.028	17444.34
565.39	17445.7
565.753	17586.49
566.115	17491.35
566.477	17536.09
566.839	17555.75
567.201	17591.23
567.563	17609.76
567.925	17729.08
568.287	17726.37
568.648	17635.52
569.01	17877.78
569.372	17906.93
569.734	17707.84
570.095	17855.41
570.457	17819.02
570.819	17865.35
571.18	17879.36
571.542	17970.21
571.903	17973.14
572.265	18006.36
572.626	18084.33
572.987	18021.96
573.349	18089.52
573.71	18150.77
574.071	18145.57
574.432	18108.96
574.794	18321.38
575.155	18281.61
575.516	18171.33
575.877	18288.62
576.238	18301.5
576.599	18299.69
576.96	18364.77
577.32	18391.21
577.681	18422.17
578.042	18346.92
578.403	18275.51
578.763	18344.21
579.124	18422.17
579.485	18390.31
579.845	18456.75
580.206	18329.97
580.566	18457.2
580.927	18281.61
581.287	18467.82
581.648	18433.92
582.008	18414.26
582.368	18436.63
582.728	18422.4
583.089	18417.2
583.449	18329.97
583.809	18414.26
584.169	18440.7
584.529	18431.66
584.889	18616.74
585.249	18380.36
585.609	18370.19
585.969	18494.26
586.329	18381.04
586.688	18465.33
587.048	18456.75
587.408	18375.17
587.768	18307.82
588.127	18359.35
588.487	18279.35
588.846	18354.6
589.206	18312.8
589.565	18266.47
589.925	18299.46
590.284	18280.71
590.643	18355.05
591.003	18397.09
591.362	18485.45
591.721	18329.97
592.08	18352.57
592.44	18382.85
592.799	18307.37
593.158	18276.86
593.517	18362.06
593.876	18234.15
594.235	18246.58
594.593	18212.23
594.952	18277.09
595.311	18198.45
595.67	18275.96
596.029	18446.8
596.387	18309.63
596.746	18444.09
597.104	18297.88
597.463	18228.5
597.822	18431.21
598.18	18320.93
598.538	18272.12
598.897	18343.98
599.255	18174.95
599.613	18500.59
599.972	18311.21
600.33	18430.31
600.688	18252.23
601.046	18339.69
601.404	18439.35
601.762	18409.52
602.12	18477.76
602.478	18322.96
602.836	18504.88
603.194	18296.75
603.552	18391.89
603.91	18299.91
604.268	18386.01
604.625	18315.06
604.983	18442.74
605.341	18283.64
605.698	18417.43
606.056	18373.36
606.413	18414.71
606.771	18432.11
607.128	18445.67
607.485	18348.73
607.843	18429.18
608.2	18504.43
608.557	18471.66
608.914	18499.46
609.272	18561.38
609.629	18625.1
609.986	18590.98
610.343	18570.19
610.7	18590.3
611.057	18675.5
611.414	18575.16
611.771	18628.49
612.127	18590.53
612.484	18596.63
612.841	18766.12
613.198	18674.59
613.554	18598.66
613.911	18896.96
614.267	18813.12
614.624	18865.78
614.98	18786.46
615.337	18848.37
615.693	18791.65
616.05	18813.57
616.406	18842.05
616.762	18835.95
617.118	18868.26
617.475	18812.44
617.831	18948.94
618.187	18990.07
618.543	19029.16
618.899	19064.41
619.255	19005.66
619.611	19028.93
619.967	19094.24
620.323	19136.05
620.678	19029.39
621.034	19024.64
621.39	19051.98
621.746	19058.76
622.101	19203.85
622.457	19081.59
622.812	19117.07
623.168	19097.86
623.523	19093.34
623.879	19149.84
624.234	19029.61
624.589	19184.18
624.945	19100.12
625.3	19137.41
625.655	19213.56
626.01	19113.45
626.365	19154.58
626.72	19179.89
627.075	19111.19
627.43	19091.76
627.785	18974.92
628.14	19067.35
628.495	19108.71
628.85	18997.07
629.205	19060.8
629.559	19204.07
629.914	19097.18
630.269	19162.26
630.623	19008.82
630.978	19067.35
631.332	19072.55
631.687	19127.92
632.041	19075.71
632.396	19046.79
632.75	18876.85
633.104	19000.46
633.459	18944.19
633.813	18872.55
634.167	18923.4
634.521	18890.63
634.875	18862.84
635.229	18908.94
635.583	18681.83
635.937	18772.9
636.291	18721.6
636.645	18675.72
636.999	18708.04
637.352	18725.44
637.706	18694.93
638.06	18769.96
638.413	18734.93
638.767	18638.21
639.121	18609.51
639.474	18553.92
639.828	18600.47
640.181	18607.02
640.534	18572.9
640.888	18515.05
641.241	18412.68
641.594	18448.61
641.947	18438.67
642.301	18489.29
642.654	18497.88
643.007	18528.83
643.36	18439.8
643.713	18452
644.066	18527.25
644.419	18362.29
644.771	18223.98
645.124	18092.91
645.477	18095.63
645.83	17904.22
646.182	17897.44
646.535	17878.23
646.888	17833.71
647.24	17741.28
647.593	17916.2
647.945	17804.56
648.298	17762.3
648.65	17742.87
649.002	17669.65
649.355	17733.38
649.707	17784.45
650.059	17834.84
650.411	18085
650.763	18039.58
651.115	18213.14
651.467	18192.35
651.819	18141.27
652.171	18148.96
652.523	18091.11
652.875	18131.56
653.227	18084.55
653.578	18171.56
653.93	18098.34
654.282	18070.09
654.633	18188.96
654.985	18117.77
655.337	18136.98
655.688	18076.64
656.039	18178.34
656.391	18094.27
656.742	18091.56
657.094	18172.23
657.445	18189.86
657.796	18105.57
658.147	18103.99
658.498	18102.41
658.849	18160.03
659.2	18100.6
659.551	18082.74
659.902	18240.03
660.253	18153.7
660.604	18153.48
660.955	18174.27
661.306	18206.58
661.656	18091.11
662.007	18084.55
662.358	18133.14
662.708	18137.88
663.059	18143.76
663.409	18070.32
663.76	18223.31
664.11	18188.28
664.461	18124.78
664.811	18197.77
665.161	18210.88
665.511	18156.42
665.862	18171.78
666.212	18306.69
666.562	18272.8
666.912	18178.79
667.262	18240.25
667.612	18190.31
667.962	18242.51
668.312	18168.39
668.662	18275.06
669.011	18263.08
669.361	18159.58
669.711	18133.59
670.06	18106.47
670.41	18136.3
670.76	18095.85
671.109	18158.68
671.459	18127.94
671.808	18053.14
672.157	18098.79
672.507	17999.81
672.856	18024.89
673.205	18031.67
673.554	18122.74
673.904	18017.66
674.253	18101.5
674.602	17964.1
674.951	17750.1
675.3	17654.51
675.649	17925.91
675.998	17953.93
676.346	17952.35
676.695	18034.61
677.044	17835.75
677.393	17972.92
677.741	17887.72
678.09	17857.89
678.438	17894.5
678.787	17878.23
679.135	17802.3
679.484	17687.95
679.832	17816.31
680.181	17630.55
680.529	17706.03
680.877	17679.82
681.225	17638.91
681.573	17716.2
681.922	17612.02
682.27	17504.68
682.618	17541.74
682.966	17426.49
683.314	17460.61
683.661	17431.01
684.009	17265.59
684.357	17316.89
684.705	17379.71
685.053	17362.54
685.4	17291.35
685.748	17220.85
686.095	17267.63
686.443	17109.66
686.79	17059.04
687.138	17127.29
687.485	17083.45
687.832	17003.9
688.18	17020.63
688.527	16989.44
688.874	16920.52
689.221	16869.44
689.568	16860.18
689.915	16791.93
690.262	16723.68
690.609	16667.87
690.956	16605.95
691.303	16594.42
691.65	16560.07
691.997	16493.63
692.344	16455.44
692.69	16318.95
693.037	16452.28
693.383	16266.52
693.73	16266.3
694.077	16200.76
694.423	16184.49
694.769	16072.18
695.116	16070.14
695.462	16041.22
695.808	15941.33
696.155	15958.05
696.501	15800.09
696.847	15820.43
697.193	15655.24
697.539	15730.04
697.885	15626.99
698.231	15532.08
698.577	15523.49
698.923	15513.77
699.269	15436.26
699.614	15282.14
699.96	15274.91
700.306	15320.11
700.651	15141.13
700.997	15205.08
701.342	15138.42
701.688	15101.81
702.033	15085.08
702.379	15023.62
702.724	14979.55
703.069	15011.64
703.415	14780.91
703.76	14773.45
704.105	14860
704.45	14788.59
704.795	14683.06
705.14	14572.78
705.485	14579.56
705.83	14476.29
706.175	14481.48
706.52	14328.49
706.865	14429.06
707.209	14349.51
707.554	14279.68
707.899	14338.21
708.243	14321.04
708.588	14166.69
708.932	14068.39
709.277	14106.8
709.621	14101.15
709.966	14038.56
710.31	14042.4
710.654	13875.62
710.998	13984.77
711.342	13996.07
711.687	13905
712.031	13768.28
712.375	13741.62
712.719	13788.39
713.063	13787.04
713.407	13750.43
713.75	13700.94
714.094	13734.16
714.438	13717.44
714.782	13589.76
715.125	13586.59
715.469	13568.51
715.812	13582.07
716.156	13480.38
716.499	13426.6
716.843	13443.32
717.186	13445.13
717.53	13421.62
717.873	13527.61
718.216	13405.35
718.559	13355.19
718.902	13264.57
719.246	13300.5
719.589	13197
719.932	13286.03
720.275	13130.56
720.617	13168.3
720.96	13143.44
721.303	13152.48
721.646	13191.57
721.989	13084.01
722.331	13145.93
722.674	13091.46
723.016	13155.19
723.359	13140.05
723.701	13100.28
724.044	12990.45
724.386	12988.19
724.729	12988.19
725.071	12967.85
725.413	13033.61
725.755	12962.88
726.097	12946.16
726.439	12843.56
726.782	12904.12
727.124	12971.01
727.465	12846.95
727.807	12904.12
728.149	12864.58
728.491	12926.04
728.833	12889.44
729.175	12818.93
729.516	12790
729.858	12827.52
730.199	12841.98
730.541	12751.59
730.882	12800.17
731.224	12817.12
731.565	12802.66
731.906	12740.06
732.248	12714.3
732.589	12754.52
732.93	12639.05
733.271	12737.35
733.612	12719.27
733.953	12716.33
734.294	12661.42
734.635	12682.21
734.976	12677.01
735.317	12621.19
735.658	12654.41
735.999	12708.87
736.339	12570.35
736.68	12713.85
737.021	12740.06
737.361	12671.36
737.702	12652.83
738.042	12688.54
738.383	12621.87
738.723	12703.9
739.063	12717.46
739.404	12735.09
739.744	12745.26
740.084	12744.35
740.424	12725.37
740.764	12759.5
741.104	12720.17
741.444	12761.3
741.784	12754.98
742.124	12820.51
742.464	12792.49
742.804	12731.93
743.143	12797.69
743.483	12839.72
743.823	12853.73
744.162	12768.31
744.502	12894.18
744.841	12883.11
745.181	12994.07
745.52	12931.69
745.86	12994.29
746.199	13051.46
746.538	13108.41
746.877	13074.74
747.216	13211.69
747.556	13221.18
747.895	13243.78
748.234	13266.83
748.573	13234.74
748.911	13401.96
749.25	13419.36
749.589	13418.01
749.928	13463.21
750.267	13643.54
750.605	13625.23
750.944	13695.74
751.283	13754.95
751.621	13905.68
751.96	13832.69
752.298	13928.73
752.636	14055.96
752.975	14201.72
753.313	14168.72
753.651	14365.78
753.989	14445.33
754.327	14497.3
754.666	14525.1
755.004	14616.4
755.342	14796.5
755.679	14915.37
756.017	14963.73
756.355	15123.73
756.693	15151.07
757.031	15266.77
757.368	15434.9
757.706	15392.65
758.044	15633.77
758.381	15848.45
758.719	15856.59
759.056	15993.99
759.394	16121.67
759.731	15999.41
760.068	16249.8
760.405	16381.32
760.743	16407.31
761.08	16716.68
761.417	16693.4
761.754	16821.76
762.091	16894.75
762.428	17069.21
762.765	17032.83
763.102	17343.56
763.438	17240.06
763.775	17407.06
764.112	17564.11
764.449	17694.28
764.785	17630.55
765.122	17741.28
765.458	17875.74
765.795	17930.88
766.131	18080.26
766.467	18171.78
766.804	18002.52
767.14	18076.87
767.476	18305.56
767.812	18267.37
768.148	18479.34
768.485	18462.4
768.821	18389.4
769.157	18534.71
769.492	18592.56
769.828	18613.58
770.164	18559.12
770.5	18620.58
770.836	18710.98
771.171	18695.61
771.507	18715.5
771.842	18696.51
772.178	18789.84
772.513	18829.39
772.849	18741.48
773.184	18845.44
773.519	18868.71
773.855	18890.41
774.19	18877.98
774.525	18802.95
774.86	19027.35
775.195	18925.21
775.53	18910.52
775.865	18873.68
776.2	18929.73
776.535	18787.13
776.87	18855.15
777.205	18727.7
777.539	18718.21
777.874	18863.29
778.209	18718.89
778.543	18849.73
778.878	18635.95
779.212	18713.24
779.547	18670.07
779.881	18631.88
780.215	18601.83
780.55	18647.7
780.884	18559.57
781.218	18743.29
781.552	18648.61
781.886	18546.69
782.22	18503.52
782.554	18547.59
782.888	18377.43
783.222	18267.15
783.556	18237.77
783.889	18193.02
784.223	18132.46
784.557	18063.76
784.89	18199.13
785.224	18039.81
785.557	17969.53
785.891	17973.37
786.224	18012.69
786.558	17910.32
786.891	17810.89
787.224	17787.16
787.557	17776.54
787.891	17781.06
788.224	17706.71
788.557	17730.66
788.89	17680.5
789.223	17771.57
789.556	17516.21
789.888	17479.14
790.221	17510.78
790.554	17445.02
790.887	17381.97
791.219	17370.9
791.552	17304.46
791.884	17217.68
792.217	17228.76
792.549	17213.16
792.882	17071.02
793.214	16984.24
793.546	17054.07
793.879	16946.96
794.211	16872.16
794.543	16979.95
794.875	16800.97
795.207	16890.46
795.539	16751.71
795.871	16794.42
796.203	16520.07
796.535	16511.03
796.867	16576.57
797.198	16418.38
797.53	16484.59
797.862	16402.11
798.193	16396.01
798.525	16316.24
798.856	16333.19
799.188	16194.21
799.519	16144.49
799.85	16013.19
800.182	16083.48
800.513	16074.66
800.844	15891.16
801.175	16021.56
801.506	16001.44
801.837	15842.35
802.168	15803.48
802.499	15731.39
802.83	15653.88
803.161	15677.16
803.491	15695.24
803.822	15665.41
804.153	15552.19
804.483	15524.62
804.814	15399.2
805.145	15495.69
805.475	15395.58
805.805	15372.08
806.136	15322.37
806.466	15282.14
806.796	15261.12
807.126	15227.68
807.457	15142.26
807.787	14995.59
808.117	15025.2
808.447	15042.82
808.777	14990.4
809.107	14871.98
809.436	14915.14
809.766	14934.13
810.096	14866.56
810.426	14786.33
810.755	14834.92
811.085	14759.22
811.414	14720.8
811.744	14604.64
812.073	14596.73
812.403	14600.35
812.732	14497.53
813.061	14581.82
813.39	14489.84
813.719	14575.94
814.049	14487.13
814.378	14428.38
814.707	14422.5
815.036	14351.09
815.365	14354.93
815.693	14217.08
816.022	14195.16
816.351	14128.95
816.68	14118.78
817.008	14125.11
817.337	14011.89
817.665	14082.85
817.994	14086.24
818.322	14002.17
818.651	13893.02
818.979	13930.31
819.307	13942.06
819.636	13867.49
819.964	13850.99
820.292	13892.12
820.62	13853.93
820.948	13685.35
821.276	13873.82
821.604	13793.59
821.932	13807.38
822.259	13773.71
822.587	13747.27
822.915	13825.91
823.243	13781.84
823.57	13739.36
823.898	13808.28
824.225	13736.19
824.553	13657.1
824.88	13756.76
825.207	13833.37
825.535	13743.2
825.862	13758.34
826.189	13728.96
826.516	13747.04
826.843	13899.13
827.17	13782.52
827.497	13780.26
827.824	13832.91
828.151	13776.19
828.478	13780.26
828.805	13821.84
829.131	13768.73
829.458	13683.99
829.785	13671.79
830.111	13733.03
830.438	13802.63
830.764	13768.06
831.09	13771.9
831.417	13673.82
831.743	13713.14
832.069	13756.98
832.395	13689.64
832.722	13768.96
833.048	13650.55
833.374	13686.48
833.7	13585.46
834.026	13561.96
834.351	13646.48
834.677	13575.07
835.003	13661.39
835.329	13596.99
835.654	13561.28
835.98	13511.34
836.306	13555.63
836.631	13453.26
836.956	13569.87
837.282	13529.64
837.607	13439.48
837.932	13409.87
838.258	13453.26
838.583	13399.93
838.908	13360.84
839.233	13382.3
839.558	13333.04
839.883	13309.76
840.208	13306.6
840.533	13220.05
840.858	13296.43
841.182	13215.08
841.507	13235.64
841.832	13154.96
842.156	13076.77
842.481	13133.5
842.805	13120.84
843.13	13047.85
843.454	13083.78
843.778	12938.47
844.103	12958.59
844.427	12942.77
844.751	12998.81
845.075	12914.07
845.399	12863.9
845.723	12839.27
846.047	12769.66
846.371	12760.4
846.695	12706.62
847.019	12628.88
847.343	12570.8
847.666	12496.9
847.99	12526.05
848.313	12418.04
848.637	12343.46
848.96	12292.61
849.284	12294.87
849.607	12204.93
849.931	12170.36
850.254	12086.07
850.577	11973.08
850.9	11894.21
851.223	11885.17
851.546	11882.68
851.869	11821.89
852.192	11807.88
852.515	11743.25
852.838	11718.17
853.161	11664.61
853.483	11601.56
853.806	11609.47
854.129	11604.5
854.451	11547.1
854.774	11483.6
855.096	11421.9
855.419	11422.58
855.741	11381.23
856.063	11360.44
856.385	11309.36
856.708	11283.6
857.03	11243.83
857.352	11245.41
857.674	11139.2
857.996	11130.61
858.318	11043.61
858.64	11129.26
858.961	11036.15
859.283	10982.82
859.605	10910.73
859.926	10976.27
860.248	10976.04
860.57	10872.31
860.891	10868.25
861.212	10866.66
861.534	10833.44
861.855	10804.97
862.176	10752.32
862.498	10741.69
862.819	10773.33
863.14	10703.5
863.461	10732.66
863.782	10649.72
864.103	10589.61
864.424	10569.95
864.745	10598.42
865.065	10530.63
865.386	10541.93
865.707	10482.04
866.027	10588.25
866.348	10517.07
866.668	10518.88
866.989	10427.58
867.309	10296.28
867.63	10436.39
867.95	10436.39
868.27	10381.25
868.59	10346.9
868.91	10337.86
869.23	10378.09
869.55	10269.17
869.87	10351.87
870.19	10316.17
870.51	10261.48
870.83	10239.11
871.15	10203.18
871.469	10226.68
871.789	10217.87
872.109	10168.6
872.428	10087.47
872.748	10104.42
873.067	10217.87
873.386	10104.65
873.706	10124.76
874.025	10094.93
874.344	10064.65
874.663	10093.12
874.982	10020.81
875.301	10033.24
875.62	10004.31
875.939	9988.49
876.258	9931.09
876.577	9937.42
876.896	9907.59
877.214	9927.93
877.533	9913.47
877.852	9854.94
878.17	9918.44
878.489	9907.59
878.807	9932
879.125	9826.46
879.444	9847.03
879.762	9786.01
880.08	9790.99
880.398	9716.41
880.716	9762.06
881.034	9710.99
881.352	9712.57
881.67	9671.21
881.988	9643.19
882.306	9577.88
882.624	9612.69
882.941	9619.92
883.259	9590.31
883.577	9557.77
883.894	9523.42
884.212	9480.94
884.529	9552.35
884.846	9459.92
885.164	9433.93
885.481	9371.56
885.798	9402.07
886.115	9294.95
886.432	9325.01
886.75	9340.38
887.067	9388.51
887.383	9294.28
887.7	9293.82
888.017	9315.97
888.334	9231.68
888.651	9235.52
888.967	9122.98
889.284	9106.71
889.6	9082.53
889.917	9010.67
890.233	9023.77
890.55	9000.72
890.866	8973.61
891.182	8990.55
891.498	8981.06
891.815	8960.5
892.131	8853.16
892.447	8817.45
892.763	8861.29
893.079	8851.58
893.395	8823.78
893.71	8764.8
894.026	8741.97
894.342	8736.1
894.657	8591.02
894.973	8610.68
895.289	8632.82
895.604	8641.19
895.92	8572.94
896.235	8557.8
896.55	8526.61
896.865	8512.15
897.181	8401.87
897.496	8462.21
897.811	8388.08
898.126	8419.5
898.441	8370.68
898.756	8325.26
899.071	8284.58
899.386	8310.8
899.7	8221.99
900.015	8199.39
900.33	8150.8
900.644	8138.37
900.959	8194.42
901.273	8102.44
901.588	8075.1
901.902	8043.46
902.216	7987.42
902.531	7970.92
902.845	7915.55
903.159	7896.35
903.473	7851.83
903.787	7845.5
904.101	7814.54
904.415	7779.06
904.729	7674.66
905.042	7684.37
905.356	7696.35
905.67	7687.09
905.984	7647.99
906.297	7639.4
906.611	7558.5
906.924	7575.68
907.237	7535.23
907.551	7532.06
907.864	7466.53
908.177	7457.49
908.491	7409.58
908.804	7346.3
909.117	7390.82
909.43	7331.16
909.743	7255.01
910.056	7226.31
910.368	7231.73
910.681	7275.35
910.994	7123.94
911.307	7179.08
911.619	7153.31
911.932	7113.99
912.244	7047.1
912.557	7041.91
912.869	6991.29
913.181	7020.44
913.494	6992.19
913.806	6930.04
914.118	6886.43
914.43	6819.99
914.742	6867.9
915.054	6825.19
915.366	6822.93
915.678	6768.69
915.99	6656.38
916.302	6678.98
916.613	6652.08
916.925	6653.89
917.236	6656.6
917.548	6554.91
917.859	6584.52
918.171	6529.38
918.482	6469.49
918.794	6534.57
919.105	6483.05
919.416	6396.95
919.727	6478.76
920.038	6374.13
920.349	6340.23
920.66	6311.08
920.971	6323.28
921.282	6260.68
921.593	6236.95
921.903	6202.15
922.214	6200.8
922.525	6194.02
922.835	6188.14
923.146	6103.62
923.456	6102.49
923.767	6047.13
924.077	6076.51
924.387	6041.48
924.697	5943.63
925.008	5996.96
925.318	5924.87
925.628	5948.15
925.938	5953.12
926.248	5897.53
926.558	5825.21
926.867	5831.32
927.177	5822.95
927.487	5781.6
927.796	5722.62
928.106	5717.42
928.416	5729.17
928.725	5690.75
929.034	5664.77
929.344	5649.63
929.653	5604.88
929.962	5569.18
930.271	5555.84
930.581	5500.02
930.89	5505.45
931.199	5505
931.508	5454.38
931.817	5425
932.125	5418.67
932.434	5399.69
932.743	5393.81
933.051	5378.22
933.36	5331.89
933.669	5308.17
933.977	5287.6
934.286	5300.03
934.594	5264.32
934.902	5237.21
935.21	5218.9
935.519	5190.2
935.827	5147.72
936.135	5138.9
936.443	5123.54
936.751	5090.77
937.059	5087.61
937.367	5075.18
937.674	4998.34
937.982	5041.05
938.29	4982.98
938.597	5006.93
938.905	4930.55
939.213	4900.27
939.52	4862.75
939.827	4926.25
940.135	4865.01
940.442	4846.26
940.749	4825.92
941.056	4863.43
941.363	4760.61
941.67	4755.86
941.977	4744.56
942.284	4695.07
942.591	4724.9
942.898	4685.13
943.205	4718.8
943.511	4605.59
943.818	4618.01
944.125	4554.96
944.431	4586.83
944.738	4540.95
945.044	4532.37
945.35	4547.73
945.657	4479.26
945.963	4535.08
946.269	4466.38
946.575	4492.82
946.881	4423.44
947.187	4425.02
947.493	4333.05
947.799	4361.75
948.105	4332.82
948.41	4318.59
948.716	4321.75
949.022	4326.27
949.327	4303.9
949.633	4213.96
949.938	4213.05
950.244	4256.67
950.549	4237.01
950.854	4187.74
951.16	4182.32
951.465	4157.91
951.77	4121.08
952.075	4109.55
952.38	4089.67
952.685	4087.63
952.99	4054.64
953.294	4070.91
953.599	4030.23
953.904	4053.96
954.209	3968.54
954.513	3992.95
954.818	3952.49
955.122	3986.39
955.426	3912.95
955.731	3907.98
956.035	3890.8
956.339	3906.17
956.643	3838.37
956.948	3820.3
957.252	3838.15
957.556	3784.36
957.86	3784.14
958.163	3792.95
958.467	3729.9
958.771	3728.32
959.075	3739.62
959.378	3735.55
959.682	3719.05
959.985	3694.2
960.289	3672.73
960.592	3679.28
960.896	3668.43
961.199	3639.06
961.502	3590.7
961.805	3583.47
962.108	3575.1
962.411	3546.86
962.714	3549.12
963.017	3546.18
963.32	3524.03
963.623	3475.67
963.926	3495.33
964.228	3491.26
964.531	3482
964.833	3462.11
965.136	3394.54
965.438	3382.34
965.741	3345.51
966.043	3371.04
966.345	3348.44
966.648	3332.62
966.95	3334.21
967.252	3287.65
967.554	3285.85
967.856	3289.24
968.158	3274.09
968.46	3252.85
968.761	3244.94
969.063	3217.15
969.365	3223.47
969.666	3216.7
969.968	3176.7
970.269	3164.49
970.571	3157.26
970.872	3161.33
971.174	3110.03
971.475	3102.57
971.776	3130.82
972.077	3120.2
972.378	3117.71
972.679	3119.97
972.98	3054.44
973.281	3049.69
973.582	3050.6
973.883	3007.66
974.183	3010.37
974.484	2982.8
974.785	2963.14
975.085	2968.57
975.386	2977.61
975.686	2925.63
975.986	2930.6
976.287	2894.22
976.587	2891.96
976.887	2907.32
977.187	2914.56
977.487	2825.74
977.787	2852.18
978.087	2851.51
978.387	2838.17
978.687	2807.89
978.987	2815.58
979.286	2773.77
979.586	2773.09
979.885	2800.66
980.185	2757.72
980.484	2724.73
980.784	2730.83
981.083	2729.02
981.382	2707.1
981.682	2717.95
981.981	2668.23
982.28	2671.17
982.579	2645.41
982.878	2658.74
983.177	2614.45
983.475	2617.61
983.774	2591.63
984.073	2628.01
984.372	2594.79
984.67	2560.22
984.969	2573.32
985.267	2546.43
985.566	2537.62
985.864	2558.41
986.162	2505.3
986.461	2504.4
986.759	2502.82
987.057	2451.07
987.355	2484.28
987.653	2465.3
987.951	2453.33
988.249	2446.32
988.547	2444.96
988.844	2418.3
989.142	2397.51
989.44	2402.25
989.737	2355.47
990.035	2347.34
990.332	2365.87
990.63	2345.76
990.927	2345.98
991.224	2306.66
991.521	2310.96
991.819	2292.43
992.116	2313.22
992.413	2318.64
992.71	2253.56
993.006	2284.52
993.303	2285.19
993.6	2252.2
993.897	2235.7
994.193	2225.53
994.49	2228.25
994.787	2217.4
995.083	2191.64
995.379	2216.72
995.676	2151.86
995.972	2190.96
996.268	2154.12
996.565	2136.95
996.861	2161.58
997.157	2123.16
997.453	2103.05
997.749	2089.49
998.044	2105.76
998.34	2101.02
998.636	2087.46
998.932	2084.52
999.227	2049.72
999.523	2055.37
999.818	2032.55
1000.114	2034.35
1000.409	2000.46
1000.704	1969.27
1001	1988.25
1001.295	1983.06
1001.59	1981.93
1001.885	1983.51
1002.18	1974.24
1002.475	1944.64
1002.77	1950.97
1003.065	1915.49
1003.359	1902.83
1003.654	1882.27
1003.949	1899.22
1004.243	1884.98
1004.538	1880.01
1004.832	1873.68
1005.127	1817.64
1005.421	1833.23
1005.715	1821.25
1006.009	1794.81
1006.304	1790.74
1006.598	1804.3
1006.892	1802.72
1007.186	1789.39
1007.48	1795.26
1007.773	1739.9
1008.067	1749.62
1008.361	1730.86
1008.655	1710.07
1008.948	1715.94
1009.242	1731.08
1009.535	1697.19
1009.829	1679.79
1010.122	1657.87
1010.415	1666
1010.708	1643.63
1011.001	1628.49
1011.295	1640.47
1011.588	1650.18
1011.881	1611.99
1012.173	1639.34
1012.466	1592.56
1012.759	1625.78
1013.052	1588.04
1013.344	1574.48
1013.637	1576.51
1013.93	1563.86
1014.222	1580.58
1014.514	1533.12
1014.807	1533.35
1015.099	1524.54
1015.391	1527.02
1015.683	1505.33
1015.976	1492.22
1016.268	1517.3
1016.56	1491.09
1016.851	1463.52
1017.143	1461.71
1017.435	1492.45
1017.727	1447.48
1018.018	1453.8
1018.31	1428.95
1018.602	1418.55
1018.893	1415.84
1019.185	1402.73
1019.476	1414.93
1019.767	1383.07
1020.058	1389.4
1020.35	1368.38
1020.641	1349.4
1020.932	1338.78
1021.223	1357.08
1021.514	1313.02
1021.804	1304.2
1022.095	1313.02
1022.386	1327.25
1022.677	1288.84
1022.967	1302.4
1023.258	1267.14
1023.548	1276.86
1023.839	1282.28
1024.129	1280.25
1024.419	1259.91
1024.709	1235.5
1025	1221.27
1025.29	1209.06
1025.58	1190.53
1025.87	1220.36
1026.16	1189.86
1026.449	1188.95
1026.739	1196.86
1027.029	1182.17
1027.319	1153.92
1027.608	1176.52
1027.898	1161.83
1028.187	1146.47
1028.477	1145.11
1028.766	1155.96
1029.055	1128.61
1029.344	1123.87
1029.634	1110.08
1029.923	1125.68
1030.212	1114.83
1030.501	1087.03
1030.79	1073.25
1031.078	1081.84
1031.367	1097.65
1031.656	1080.03
1031.945	1039.8
1032.233	1046.36
1032.522	1064.66
1032.81	1023.08
1033.099	1043.19
1033.387	1024.66
1033.675	1015.85
1033.963	1024.66
1034.251	1029.63
1034.54	1017.66
1034.828	1003.65
1035.116	981.27
1035.403	986.92
1035.691	993.93
1035.979	976.53
1036.267	962.97
1036.554	955.96
1036.842	962.74
1037.129	945.12
1037.417	959.13
1037.704	937.66
1037.992	941.5
1038.279	951.44
1038.566	925.91
1038.853	925.91
1039.14	925.91
