Data from hue_34_FLMS001491_00064.txt Node
Date: Tue Feb 07 17:25:58 GMT 2017
User: dcchb
Spectrometer: FLMS00149
Trigger mode: 0
Integration Time (sec): 2.000000E-2
Scans to average: 10
Electric dark correction enabled: true
Nonlinearity correction enabled: false
Boxcar width: 0
XAxis mode: Wavelengths
Number of Pixels in Spectrum: 2048
>>>>>Begin Spectral Data<<<<<
341.393	8.83
341.776	8.83
342.16	8.83
342.543	-76.37
342.927	-59.65
343.31	-75.46
343.693	-42.47
344.077	-68.91
344.46	-49.7
344.843	-56.93
345.226	-25.52
345.61	-29.36
345.993	-21.68
346.376	-21
346.759	28.26
347.142	13.12
347.525	37.3
347.908	51.54
348.291	87.02
348.674	68.49
349.057	105.32
349.44	123.85
349.823	129.5
350.206	176.05
350.588	195.49
350.971	221.03
351.354	214.7
351.737	243.62
352.119	237.97
352.502	254.47
352.884	265.09
353.267	274.13
353.65	290.4
354.032	306.22
354.414	318.42
354.797	298.99
355.179	327.24
355.562	316.16
355.944	335.6
356.326	315.94
356.709	346.22
357.091	331.08
357.473	346.9
357.855	346.67
358.238	338.31
358.62	345.32
359.002	339.44
359.384	349.38
359.766	351.64
360.148	340.8
360.53	356.61
360.912	329.27
361.294	329.95
361.676	344.64
362.057	329.5
362.439	331.98
362.821	343.28
363.203	332.89
363.584	332.21
363.966	327.46
364.348	317.07
364.729	326.56
365.111	329.5
365.493	336.5
365.874	312.77
366.256	327.01
366.637	317.52
367.019	319.1
367.4	325.66
367.781	313.23
368.163	317.97
368.544	329.27
368.925	323.85
369.306	313.23
369.688	318.42
370.069	320.91
370.45	305.54
370.831	316.39
371.212	310.29
371.593	307.35
371.974	303.28
372.355	319.33
372.736	330.17
373.117	311.42
373.498	320.91
373.879	299.89
374.26	305.99
374.641	335.82
375.021	315.71
375.402	317.07
375.783	329.27
376.163	331.3
376.544	329.95
376.925	331.98
377.305	330.85
377.686	318.65
378.066	318.88
378.447	317.75
378.827	313.45
379.208	340.8
379.588	323.17
379.968	327.46
380.349	331.98
380.729	348.25
381.109	340.34
381.489	338.31
381.87	331.3
382.25	346.45
382.63	336.95
383.01	339.67
383.39	332.89
383.77	352.55
384.15	362.49
384.53	349.38
384.91	352.1
385.29	356.39
385.67	369.95
386.049	348.71
386.429	355.94
386.809	355.03
387.189	353.9
387.568	356.61
387.948	339.21
388.328	335.15
388.707	367.46
389.087	368.37
389.466	373.34
389.846	355.03
390.225	352.1
390.605	368.37
390.984	365.88
391.363	372.89
391.743	382.6
392.122	373.79
392.501	392.77
392.881	382.83
393.26	362.72
393.639	372.89
394.018	397.74
394.397	389.16
394.776	376.73
395.155	381.25
395.534	376.5
395.913	380.57
396.292	389.83
396.671	374.69
397.05	406.11
397.429	378.76
397.808	391.42
398.186	400.91
398.565	400.68
398.944	365.88
399.323	380.8
399.701	388.93
400.08	395.03
400.458	412.66
400.837	422.38
401.215	404.52
401.594	397.74
401.972	406.11
402.351	404.75
402.729	422.15
403.107	414.01
403.486	413.11
403.864	416.5
404.242	415.37
404.62	401.59
404.999	404.75
405.377	428.03
405.755	423.51
406.133	410.62
406.511	448.82
406.889	404.52
407.267	439.78
407.645	439.32
408.023	436.39
408.401	422.6
408.779	440.68
409.156	449.95
409.534	450.85
409.912	450.4
410.29	465.31
410.667	460.12
411.045	468.48
411.422	462.83
411.8	458.76
412.178	464.18
412.555	470.74
412.933	460.12
413.31	488.36
413.687	496.5
414.065	478.19
414.442	495.14
414.819	477.06
415.197	486.1
415.574	492.66
415.951	465.31
416.328	504.41
416.705	491.98
417.082	505.54
417.46	504.63
417.837	503.05
418.214	524.75
418.591	489.27
418.967	501.7
419.344	528.14
419.721	528.36
420.098	507.8
420.475	515.71
420.852	521.13
421.228	529.49
421.605	555.48
421.982	535.37
422.358	539.43
422.735	531.3
423.111	548.47
423.488	555.93
423.864	568.13
424.241	579.21
424.617	582.15
424.994	585.31
425.37	574.69
425.746	594.8
426.123	588.02
426.499	566.78
426.875	597.29
427.251	590.51
427.627	597.96
428.003	599.77
428.379	612.88
428.756	594.8
429.132	603.16
429.507	625.76
429.883	620.34
430.259	615.59
430.635	638.42
431.011	664.86
431.387	628.47
431.763	630.05
432.138	638.64
432.514	651.97
432.89	651.07
433.265	683.16
433.641	680
434.016	684.97
434.392	695.82
434.767	697.4
435.143	670.28
435.518	696.04
435.894	683.61
436.269	714.12
436.644	711.86
437.02	703.5
437.395	748.02
437.77	715.48
438.145	745.76
438.52	764.29
438.895	751.41
439.271	732.2
439.646	771.07
440.021	753.89
440.395	773.1
440.77	746.44
441.145	762.93
441.52	793.67
441.895	769.94
442.27	788.02
442.645	792.08
443.019	775.59
443.394	815.81
443.769	796.83
444.143	822.14
444.518	804.74
444.892	799.77
445.267	801.57
445.641	804.74
446.016	854.45
446.39	839.77
446.764	839.09
447.139	841.12
447.513	838.64
447.887	822.82
448.262	827.56
448.636	842.48
449.01	845.19
449.384	879.31
449.758	874.57
450.132	869.37
450.506	880.89
450.88	891.74
451.254	865.08
451.628	896.26
452.002	894
452.376	918.63
452.75	918.41
453.123	932.87
453.497	907.11
453.871	940.33
454.244	976.94
454.618	968.58
454.992	971.97
455.365	978.52
455.739	978.52
456.112	1008.12
456.486	1011.29
456.859	1021.91
457.232	1016.03
457.606	1032.76
457.979	1032.98
458.352	1063.49
458.725	1066.2
459.099	1085.41
459.472	1090.15
459.845	1085.41
460.218	1108.91
460.591	1106.43
460.964	1134.22
461.337	1146.88
461.71	1148.46
462.083	1156.14
462.456	1160.66
462.829	1184.39
463.201	1198.4
463.574	1224.84
463.947	1216.48
464.32	1244.05
464.692	1258.74
465.065	1269.81
465.438	1286.76
465.81	1320.21
466.183	1338.28
466.555	1310.04
466.928	1343.03
467.3	1373.76
467.672	1405.4
468.045	1410.6
468.417	1406.76
468.789	1439.3
469.161	1432.07
469.534	1479.07
469.906	1497.15
470.278	1518.62
470.65	1527.66
471.022	1581.44
471.394	1618.05
471.766	1623.25
472.138	1619.63
472.51	1684.26
472.882	1731.27
473.253	1698.73
473.625	1781.21
473.997	1794.09
474.369	1821.44
474.74	1842.68
475.112	1875.22
475.484	1940.75
475.855	1959.51
476.227	2009.45
476.598	2053.07
476.97	2082.9
477.341	2147.3
477.713	2165.61
478.084	2207.64
478.455	2287.41
478.827	2334.87
479.198	2394.98
479.569	2452.15
479.94	2471.81
480.311	2489.89
480.682	2611.47
481.053	2692.15
481.424	2736.89
481.795	2798.13
482.166	2865.7
482.537	2888.07
482.908	2995.42
483.279	3046.26
483.65	3117.45
484.021	3203.09
484.391	3253.04
484.762	3361.73
485.133	3399.92
485.503	3460.94
485.874	3540.94
486.244	3625.46
486.615	3721.72
486.985	3793.81
487.356	3897.31
487.726	3950.19
488.097	4058.44
488.467	4106.35
488.837	4259.34
489.207	4329.39
489.578	4442.84
489.948	4491.42
490.318	4598.99
490.688	4598.31
491.058	4773.22
491.428	4841.02
491.798	4897.96
492.168	5034.91
492.538	5107.22
492.908	5118.98
493.278	5265.41
493.648	5343.83
494.017	5427.22
494.387	5545.86
494.757	5601
495.126	5722.8
495.496	5726.42
495.866	5840.76
496.235	5946.98
496.605	5993.98
496.974	6119.85
497.344	6151.26
497.713	6146.75
498.082	6340.64
498.452	6446.4
498.821	6405.04
499.19	6478.94
499.559	6576.11
499.928	6661.31
500.298	6737.69
500.667	6833.96
501.036	6837.57
501.405	6968.19
501.774	6942.2
502.143	7046.38
502.512	7079.15
502.88	7179.26
503.249	7234.4
503.618	7273.5
503.987	7292.93
504.356	7391.68
504.724	7434.62
505.093	7513.49
505.462	7605.92
505.83	7617.67
506.199	7713.26
506.567	7816.08
506.936	7857.89
507.304	7927.26
507.672	7975.62
508.041	8032.57
508.409	8092
508.777	8120.93
509.145	8180.36
509.514	8274.37
509.882	8332.9
510.25	8310.08
510.618	8369.06
510.986	8446.35
511.354	8583.52
511.722	8568.6
512.09	8698.09
512.458	8712.78
512.826	8776.73
513.193	8754.81
513.561	8866.9
513.929	8898.99
514.297	8931.08
514.664	9002.94
515.032	9113.45
515.4	9112.99
515.767	9109.61
516.135	9232.77
516.502	9161.36
516.869	9353.44
517.237	9340.11
517.604	9322.71
517.972	9517.73
518.339	9511.4
518.706	9519.31
519.073	9545.75
519.44	9617.61
519.808	9705.97
520.175	9717.95
520.542	9832.3
520.909	9891.73
521.276	9941.45
521.643	9923.6
522.009	10063.48
522.376	10069.13
522.743	10165.4
523.11	10219.86
523.477	10345.5
523.843	10338.5
524.21	10514.77
524.577	10481.77
524.943	10563.35
525.31	10629.79
525.676	10730.35
526.043	10808.77
526.409	10789.56
526.776	10864.59
527.142	10924.25
527.508	11007.86
527.874	11106.39
528.241	11107.29
528.607	11210.34
528.973	11255.09
529.339	11228.19
529.705	11275.42
530.071	11463.89
530.437	11438.81
530.803	11574.63
531.169	11639.26
531.535	11615.98
531.901	11672.7
532.267	11720.38
532.632	11821.62
532.998	11852.81
533.364	11931.9
533.73	11973.26
534.095	12127.83
534.461	12107.27
534.826	12203.76
535.192	12197.21
535.557	12255.29
535.923	12285.57
536.288	12314.94
536.653	12367.37
537.019	12416.18
537.384	12454.83
537.749	12482.62
538.114	12582.51
538.479	12620.93
538.845	12614.15
539.21	12728.04
539.575	12758.77
539.94	12794.93
540.305	12829.51
540.67	12918.32
541.034	12984.53
541.399	12923.29
541.764	13123.28
542.129	13146.34
542.494	13221.14
542.858	13214.81
543.223	13230.85
543.587	13286.44
543.952	13321.92
544.316	13361.02
544.681	13367.57
545.045	13474.24
545.41	13507.91
545.774	13554.23
546.138	13554.69
546.503	13610.96
546.867	13636.04
547.231	13746.32
547.595	13834.9
547.959	13849.82
548.324	13968.01
548.688	13846.2
549.052	13990.15
549.416	14062.47
549.779	14138.4
550.143	14090.72
550.507	14221.79
550.871	14240.09
551.235	14244.84
551.599	14408.22
551.962	14392.63
552.326	14426.98
552.689	14535.68
553.053	14519.18
553.417	14450.03
553.78	14726.63
554.143	14649.8
554.507	14653.41
554.87	14760.98
555.234	14859.96
555.597	14804.14
555.96	14860.41
556.323	14993.52
556.686	14940.86
557.05	15094.31
557.413	15154.19
557.776	15101.54
558.139	15213.17
558.502	15308.99
558.865	15293.85
559.228	15455.65
559.59	15361.42
559.953	15423.79
560.316	15720.96
560.679	15584.01
561.041	15676.21
561.404	15771.12
561.767	15839.15
562.129	15837.11
562.492	15921.18
562.854	15974.06
563.217	15969.99
563.579	16122.98
563.941	16138.57
564.304	16148.74
564.666	16353.48
565.028	16339.02
565.39	16352.58
565.753	16453.82
566.115	16543.08
566.477	16451.11
566.839	16577.21
567.201	16739.46
567.563	16685.45
567.925	16843.87
568.287	16839.57
568.648	16909.4
569.01	16941.49
569.372	17142.39
569.734	17016.97
570.095	17134.25
570.457	17292.89
570.819	17238.43
571.18	17390.07
571.542	17481.14
571.903	17516.16
572.265	17550.29
572.626	17603.85
572.987	17766.33
573.349	17848.36
573.71	17936.04
574.071	17938.07
574.432	18019.65
574.794	18237.05
575.155	18269.36
575.516	18257.16
575.877	18404.73
576.238	18520.66
576.599	18733.98
576.96	18814.66
577.32	18877.94
577.681	19034.32
578.042	19129
578.403	19170.81
578.763	19388.2
579.124	19422.55
579.485	19601.31
579.845	19809.66
580.206	19895.08
580.566	19918.59
580.927	20130.11
581.287	20381.85
581.648	20378.46
582.008	20700.71
582.368	20834.04
582.728	21005.79
583.089	21108.84
583.449	21209.85
583.809	21479.9
584.169	21674.25
584.529	21794.92
584.889	22271.29
585.249	22259.32
585.609	22402.14
585.969	22817.49
586.329	22898.62
586.688	23152.17
587.048	23325.5
587.408	23446.18
587.768	23724.14
588.127	23824.47
588.487	24126.16
588.846	24431.24
589.206	24643.21
589.565	24904.67
589.925	25126.13
590.284	25263.53
590.643	25660.58
591.003	25794.82
591.362	26208.14
591.721	26357.06
592.08	26579.88
592.44	26906.88
592.799	27105.06
593.158	27257.6
593.517	27503.02
593.876	27842.45
594.235	27985.72
594.593	28246.5
594.952	28561.3
595.311	28646.49
595.67	28922.64
596.029	29454.38
596.387	29543.64
596.746	29855.5
597.104	29952.22
597.463	30147.92
597.822	30508.14
598.18	30659.55
598.538	30861.58
598.897	31292.3
599.255	31366.2
599.613	31896.8
599.972	31883.24
600.33	32104.71
600.688	32255.21
601.046	32548.31
601.404	32854.52
601.762	32881.86
602.12	33356.2
602.478	33376.09
602.836	33550.77
603.194	33727.26
603.552	33980.82
603.91	33960.93
604.268	34339.22
604.625	34474.36
604.983	34730.4
605.341	34722.04
605.698	35110.28
606.056	35465.52
606.413	35462.36
606.771	35698.28
607.128	35901.89
607.485	35932.63
607.843	36087.65
608.2	36525.38
608.557	36548.88
608.914	36637.69
609.272	36946.61
609.629	37106.84
609.986	37232.48
610.343	37287.85
610.7	37691
611.057	37785.46
611.414	37856.87
611.771	38022.07
612.127	38282.62
612.484	38260.03
612.841	38602.39
613.198	38553.8
613.554	38634.25
613.911	38931.87
614.267	38977.75
614.624	39115.6
614.98	39132.09
615.337	39495.02
615.693	39559.65
616.05	39474.68
616.406	39833.99
616.762	39761.45
617.118	39809.81
617.475	39928.46
617.831	40047.1
618.187	40134.78
618.543	40277.83
618.899	40570.25
619.255	40537.03
619.611	40672.84
619.967	40947.86
620.323	41047.75
620.678	40912.16
621.034	40919.84
621.39	40985.83
621.746	41050.46
622.101	41673.72
622.457	41366.84
622.812	41456.78
623.168	41530.67
623.523	41644.57
623.879	41818.35
624.234	41504.69
624.589	41669.43
624.945	41866.48
625.3	41930.89
625.655	41919.59
626.01	42086.82
626.365	41996.88
626.72	42073.03
627.075	41972.47
627.43	42096.76
627.785	42151.67
628.14	42133.82
628.495	42171.11
628.85	42110.32
629.205	42016.76
629.559	42320.48
629.914	42001.4
630.269	42383.76
630.623	42283.87
630.978	42098.79
631.332	42273.7
631.687	42519.35
632.041	42302.18
632.396	42450.65
632.75	42177.44
633.104	42294.72
633.459	42197.77
633.813	42328.84
634.167	42320.48
634.521	42303.08
634.875	42289.75
635.229	42295.17
635.583	42170.43
635.937	42335.85
636.291	42099.25
636.645	42200.03
636.999	41994.16
637.352	42133.14
637.706	41957.55
638.06	42290.2
638.413	42046.14
638.767	42026.93
639.121	42181.96
639.474	41820.61
639.828	42064.22
640.181	42012.92
640.534	42049.98
640.888	41942.41
641.241	41844.79
641.594	41868.07
641.947	42048.85
642.301	41813.83
642.654	42011.11
643.007	41838.69
643.36	41935.18
643.713	41965.69
644.066	42031.9
644.419	41643.66
644.771	41427.4
645.124	41156.67
645.477	41067.41
645.83	40750.81
646.182	40679.62
646.535	40580.19
646.888	40749.23
647.24	40594.88
647.593	40695.89
647.945	40570.47
648.298	40469.46
648.65	40444.15
649.002	40289.8
649.355	40453.64
649.707	40479.85
650.059	40619.06
650.411	40997.81
650.763	41109.22
651.115	41399.15
651.467	41361.64
651.819	41396.44
652.171	41291.36
652.523	41256.56
652.875	41162.77
653.227	40973.17
653.578	41151.25
653.93	41268.08
654.282	40938.37
654.633	40906.06
654.985	41017.69
655.337	41033.29
655.688	41061.08
656.039	41239.61
656.391	40938.37
656.742	40837.13
657.094	41055.43
657.445	41115.09
657.796	40991.03
658.147	40993.51
658.498	40932.72
658.849	40936.56
659.2	40950.58
659.551	40934.53
659.902	40999.61
660.253	40928.2
660.604	40999.84
660.955	40802.78
661.306	40913.97
661.656	40815.89
662.007	40757.13
662.358	40847.3
662.708	40756.68
663.059	40660.41
663.409	40676.23
663.76	40854.76
664.11	40799.17
664.461	40916.45
664.811	40981.99
665.161	40732.28
665.511	40601.43
665.862	40677.14
666.212	40756.91
666.562	40858.15
666.912	40817.7
667.262	40499.51
667.612	40710.36
667.962	40714.88
668.312	40591.49
668.662	40926.4
669.011	40670.58
669.361	40596.69
669.711	40617.03
670.06	40539.51
670.41	40529.34
670.76	40474.2
671.109	40503.81
671.459	40479.18
671.808	40536.12
672.157	40531.38
672.507	40232.18
672.856	40399.63
673.205	40320.99
673.554	40426.07
673.904	40286.86
674.253	40620.64
674.602	40292.06
674.951	39903.6
675.3	39617.28
675.649	40353.3
675.998	40296.36
676.346	40339.07
676.695	40372.06
677.044	40051.84
677.393	40196.47
677.741	40197.6
678.09	40065.18
678.438	40078.28
678.787	40215.23
679.135	40104.95
679.484	39980.66
679.832	40009.58
680.181	39811.85
680.529	39973.43
680.877	39875.58
681.225	39816.14
681.573	39884.16
681.922	39629.03
682.27	39728.69
682.618	39774.11
682.966	39425.64
683.314	39635.13
683.661	39588.35
684.009	39447.34
684.357	39240.56
684.705	39126.89
685.053	39213.9
685.4	39116.95
685.748	38915.15
686.095	38976.16
686.443	38920.35
686.79	38906.34
687.138	38857.07
687.485	38895.49
687.832	38785.43
688.18	38744.08
688.527	38507.02
688.874	38618.66
689.221	38574.37
689.568	38352.45
689.915	38282.85
690.262	38327.59
690.609	38083.76
690.956	38014.61
691.303	37970.77
691.65	37853.71
691.997	37883.54
692.344	37601.51
692.69	37598.57
693.037	37652.36
693.383	37310.22
693.73	37510.21
694.077	37266.6
694.423	37401.06
694.769	37158.36
695.116	36958.82
695.462	36960.85
695.808	36799.72
696.155	36898.48
696.501	36633.85
696.847	36672.04
697.193	36475.67
697.539	36598.15
697.885	36391.15
698.231	36239.51
698.577	36266.63
698.923	36197.93
699.269	35940.09
699.614	35831.16
699.96	35801.78
700.306	35908.67
700.651	35674.56
700.997	35509.59
701.342	35486.09
701.688	35247.9
702.033	35226.43
702.379	35305.75
702.724	35193.89
703.069	35267.11
703.415	34826.22
703.76	34758.87
704.105	34889.94
704.45	34753.45
704.795	34637.75
705.14	34492.89
705.485	34507.13
705.83	34336.74
706.175	34470.97
706.52	34273.01
706.865	34216.97
707.209	34137.87
707.554	34067.82
707.899	34028.05
708.243	33896.98
708.588	33878.9
708.932	33537.44
709.277	33655.85
709.621	33611.33
709.966	33512.13
710.31	33494.73
710.654	33091.8
710.998	33179.48
711.342	33312.13
711.687	33161.63
712.031	33070.56
712.375	33038.47
712.719	32943.78
713.063	32894.74
713.407	33024.46
713.75	32717.35
714.094	32761.86
714.438	32655.65
714.782	32790.34
715.125	32575.2
715.469	32624.92
715.812	32434.19
716.156	32323.46
716.499	32146.51
716.843	32355.77
717.186	32026.06
717.53	32209.56
717.873	32120.3
718.216	32036.69
718.559	32024.26
718.902	31747.65
719.246	31664.27
719.589	31706.07
719.932	31557.6
720.275	31703.81
720.617	31476.93
720.96	31563.7
721.303	31525.29
721.646	31470.6
721.989	31342.24
722.331	31363.71
722.674	31307.89
723.016	31323.71
723.359	31263.15
723.701	31310.6
724.044	31124.17
724.386	30924.85
724.729	31137.5
725.071	31049.14
725.413	31032.19
725.755	30834.46
726.097	30795.36
726.439	30596.27
726.782	30603.73
727.124	30643.95
727.465	30551.08
727.807	30683.05
728.149	30556.72
728.491	30345.43
728.833	30522.83
729.175	30379.55
729.516	30292.32
729.858	30196.28
730.199	30234.93
730.541	30173.91
730.882	30098.21
731.224	30205.1
731.565	29976.63
731.906	30150.63
732.248	30014.37
732.589	29902.28
732.93	29849.17
733.271	29812.11
733.612	29809.85
733.953	29943.18
734.294	29762.85
734.635	29686.24
734.976	29883.75
735.317	29563.98
735.658	29479.69
735.999	29578.22
736.339	29472.69
736.68	29468.39
737.021	29443.76
737.361	29202.86
737.702	29442.18
738.042	29322.86
738.383	29221.17
738.723	29284.89
739.063	29116.99
739.404	29227.04
739.744	29085.13
740.084	28909.08
740.424	29043.54
740.764	29013.49
741.104	29172.13
741.444	28893.04
741.784	28832.93
742.124	28987.73
742.464	28863.44
742.804	28795.87
743.143	28717.23
743.483	28748.41
743.823	28590.67
744.162	28618.7
744.502	28650.11
744.841	28432.03
745.181	28651.24
745.52	28458.93
745.86	28504.58
746.199	28434.29
746.538	28344.58
746.877	28464.58
747.216	28288.31
747.556	28233.17
747.895	28306.39
748.234	28096
748.573	28150.91
748.911	27944.36
749.25	27986.62
749.589	27946.17
749.928	27954.99
750.267	28009.9
750.605	27867.3
750.944	27804.48
751.283	27690.36
751.621	27820.07
751.96	27644.03
752.298	27605.39
752.636	27599.51
752.975	27451.27
753.313	27408.11
753.651	27566.07
753.989	27430.48
754.327	27371.95
754.666	27184.16
755.004	27225.51
755.342	27262.8
755.679	27049.7
756.017	26941
756.355	26960.44
756.693	26934.22
757.031	26959.53
757.368	26900.1
757.706	26642.93
758.044	26683.61
758.381	26633.21
758.719	26680.22
759.056	26620.33
759.394	26497.62
759.731	26357.51
760.068	26339.89
760.405	26177.4
760.743	26118.65
761.08	26079.55
761.417	25964.3
761.754	25910.97
762.091	26017.18
762.428	25887.7
762.765	25674.82
763.102	25742.16
763.438	25619.68
763.775	25517.31
764.112	25495.84
764.449	25584.2
764.785	25400.93
765.122	25235.96
765.458	25136.53
765.795	25031.22
766.131	25036.64
766.467	24808.18
766.804	24765.24
767.14	24727.73
767.476	24742.87
767.812	24586.49
768.148	24711.68
768.485	24478.69
768.821	24322.99
769.157	24347.85
769.492	24194.41
769.828	24172.94
770.164	24030.57
770.5	23994.86
770.836	23920.06
771.171	23838.48
771.507	23770.46
771.842	23621.99
772.178	23557.36
772.513	23520.07
772.849	23557.36
773.184	23359.63
773.519	23411.6
773.855	23265.39
774.19	23207.54
774.525	23115.34
774.86	23024.04
775.195	22887.55
775.53	22805.74
775.865	22695.01
776.2	22613.88
776.535	22406.43
776.87	22553.32
777.205	22359.88
777.539	22258.64
777.874	22378.63
778.209	22172.09
778.543	22018.64
778.878	21783.4
779.212	21894.13
779.547	21806.67
779.881	21793.57
780.215	21714.47
780.55	21623.4
780.884	21492.56
781.218	21443.29
781.552	21558.32
781.886	21347.25
782.22	21186.58
782.554	21184.77
782.888	20958.33
783.222	20975.51
783.556	20820.26
783.889	20855.96
784.223	20653.03
784.557	20679.92
784.89	20581.85
785.224	20541.39
785.557	20452.81
785.891	20372.59
786.224	20366.26
786.558	20339.59
786.891	20118.58
787.224	20083.1
787.557	19928.08
787.891	19948.87
788.224	19945.93
788.557	19910.23
788.89	19797.23
789.223	19787.06
789.556	19701.87
789.888	19498.71
790.221	19443.12
790.554	19372.39
790.887	19426.85
791.219	19243.35
791.552	19250.58
791.884	19185.95
792.217	19077.93
792.549	19066.41
792.882	18870.93
793.214	18815.11
793.546	18841.1
793.879	18579.41
794.211	18677.72
794.543	18688.79
794.875	18598.85
795.207	18662.57
795.539	18488.12
795.871	18426.2
796.203	18267.1
796.535	18234.56
796.867	18201.8
797.198	18126.09
797.53	18161.12
797.862	18002.03
798.193	18204.06
798.525	17939.66
798.856	17995.02
799.188	17717.74
799.519	17711.41
799.85	17682.26
800.182	17695.59
800.513	17639.32
800.844	17473.45
801.175	17613.34
801.506	17557.74
801.837	17484.53
802.168	17286.57
802.499	17378.09
802.83	17268.49
803.161	17161.82
803.491	17164.99
803.822	17168.6
804.153	17038.21
804.483	16957.53
804.814	16942.39
805.145	16846.8
805.475	16868.27
805.805	16735.17
806.136	16692.46
806.466	16778.56
806.796	16713.02
807.126	16563.42
807.457	16530.88
807.787	16581.27
808.117	16436.87
808.447	16352.35
808.777	16480.03
809.107	16309.64
809.436	16336.99
809.766	16250.89
810.096	16142.19
810.426	16129.53
810.755	16134.28
811.085	16075.3
811.414	16050.67
811.744	15918.92
812.073	15872.14
812.403	15832.37
812.732	15810.22
813.061	15750.56
813.39	15657.91
813.719	15694.97
814.049	15720.5
814.378	15641.18
814.707	15570
815.036	15519.61
815.365	15459.72
815.693	15370.23
816.022	15406.84
816.351	15251.59
816.68	15236.45
817.008	15324.13
817.337	15140.86
817.665	15132.95
817.994	15175.89
818.322	15117.13
818.651	15005.72
818.979	15008.89
819.307	14974.54
819.636	15054.76
819.964	14907.64
820.292	14958.49
820.62	14970.69
820.948	14838.72
821.276	14852.5
821.604	14947.19
821.932	14887.76
822.259	14956.01
822.587	14877.82
822.915	14828.32
823.243	14883.69
823.57	14740.42
823.898	14856.8
824.225	14743.81
824.553	14749.68
824.88	14752.39
825.207	14835.56
825.535	14757.14
825.862	14788.78
826.189	14692.96
826.516	14838.49
826.843	14838.49
827.17	14804.82
827.497	14847.08
827.824	14807.53
828.151	14841.21
828.478	14765.28
828.805	14846.86
829.131	14813.64
829.458	14741.55
829.785	14694.32
830.111	14750.81
830.438	14810.7
830.764	14812.05
831.09	14718.05
831.417	14577.71
831.743	14800.08
832.069	14694.99
832.395	14634.43
832.722	14684.83
833.048	14659.52
833.374	14612.06
833.7	14584.72
834.026	14618.61
834.351	14582.23
834.677	14508.33
835.003	14613.87
835.329	14511.27
835.654	14584.26
835.98	14506.53
836.306	14478.5
836.631	14406.41
836.956	14462.01
837.282	14555.34
837.607	14384.04
837.932	14381.56
838.258	14323.25
838.583	14375.23
838.908	14263.14
839.233	14250.71
839.558	14226.98
839.883	14239.41
840.208	14259.98
840.533	14166.87
840.858	14139.3
841.182	14136.14
841.507	14144.05
841.832	14031.96
842.156	14069.25
842.481	14043.26
842.805	13991.28
843.13	13935.01
843.454	13975.24
843.778	13830.16
844.103	13835.13
844.427	13936.6
844.751	13840.1
845.075	13744.06
845.399	13711.29
845.723	13669.26
846.047	13710.61
846.371	13601.92
846.695	13523.95
847.019	13391.75
847.343	13459.1
847.666	13324.64
847.99	13343.84
848.313	13297.07
848.637	13155.37
848.96	13190.18
849.284	13169.16
849.607	13071.53
849.931	13088.71
850.254	12966.23
850.577	12907.25
850.9	12781.6
851.223	12779.11
851.546	12777.98
851.869	12627.25
852.192	12672.68
852.515	12575.05
852.838	12534.15
853.161	12489.86
853.483	12399.91
853.806	12430.87
854.129	12343.19
854.451	12317.66
854.774	12272.91
855.096	12247.15
855.419	12194.04
855.741	12160.6
856.063	12072.69
856.385	12095.74
856.708	12098.23
857.03	11968.96
857.352	11970.09
857.674	11911.11
857.996	11873.6
858.318	11813.71
858.64	11808.74
858.961	11745.24
859.283	11777.78
859.605	11607.62
859.926	11759.03
860.248	11658.92
860.57	11583.44
860.891	11651.69
861.212	11538.69
861.534	11556.55
861.855	11542.31
862.176	11540.95
862.498	11484.01
862.819	11462.31
863.14	11459.37
863.461	11423.44
863.782	11379.83
864.103	11339.83
864.424	11262.77
864.745	11335.54
865.065	11305.71
865.386	11227.97
865.707	11300.51
866.027	11186.84
866.348	11216.89
866.668	11182.32
866.989	11137.35
867.309	11063.9
867.63	11098.03
867.95	11186.16
868.27	11086.5
868.59	10984.13
868.91	11032.27
869.23	11043.11
869.55	10988.65
869.87	11010.12
870.19	10995.43
870.51	10974.41
870.83	11021.65
871.15	10825.94
871.469	10858.03
871.789	10919.73
872.109	10892.38
872.428	10874.08
872.748	10869.33
873.067	10770.58
873.386	10784.82
873.706	10792.05
874.025	10682.22
874.344	10727.87
874.663	10764.02
874.982	10693.29
875.301	10695.55
875.62	10630.02
875.939	10594.09
876.258	10644.48
876.577	10622.33
876.896	10521.55
877.214	10557.48
877.533	10544.37
877.852	10494.65
878.17	10540.98
878.489	10504.6
878.807	10562.45
879.125	10443.81
879.444	10469.34
879.762	10379.4
880.08	10476.12
880.398	10391.15
880.716	10407.2
881.034	10298.5
881.352	10357.93
881.67	10304.15
881.988	10275.9
882.306	10176.92
882.624	10186.41
882.941	10195.9
883.259	10196.58
883.577	10088.11
883.894	10149.35
884.212	10061.67
884.529	10085.62
884.846	10008.34
885.164	9986.19
885.481	10005.85
885.798	10028
886.115	9932.18
886.432	9958.85
886.75	9890.6
887.067	9952.29
887.383	9915.91
887.7	9856.93
888.017	9877.95
888.334	9821.68
888.651	9815.12
888.967	9812.86
889.284	9781
889.6	9730.83
889.917	9666.43
890.233	9649.93
890.55	9618.29
890.866	9577.39
891.182	9589.37
891.498	9553.21
891.815	9538.97
892.131	9509.59
892.447	9442.03
892.763	9395.47
893.079	9400.44
893.395	9414.23
893.71	9396.6
894.026	9305.98
894.342	9277.74
894.657	9169.94
894.973	9140.56
895.289	9204.29
895.604	9179.89
895.92	9111.86
896.235	9066.67
896.55	9139.66
896.865	8997.52
897.181	9072.09
897.496	8992.55
897.811	8988.48
898.126	8907.58
898.441	8924.3
898.756	8807.69
899.071	8844.53
899.386	8825.77
899.7	8754.59
900.015	8698.09
900.33	8604.08
900.644	8698.54
900.959	8687.92
901.273	8604.31
901.588	8620.8
901.902	8558.66
902.216	8593.69
902.531	8480.02
902.845	8427.82
903.159	8440.92
903.473	8388.27
903.787	8333.13
904.101	8371.09
904.415	8346.91
904.729	8329.51
905.042	8284.77
905.356	8254.49
905.67	8208.84
905.984	8235.73
906.297	8158.22
906.611	8127.26
906.924	8035.28
907.237	8026.02
907.551	7989.63
907.864	7965.45
908.177	8008.39
908.491	7983.76
908.804	7909.18
909.117	7911.22
909.43	7796.42
909.743	7789.64
910.056	7838.23
910.368	7718
910.681	7693.37
910.994	7659.47
911.307	7688.85
911.619	7631.23
911.932	7638.01
912.244	7530.66
912.557	7511.46
912.869	7468.29
913.181	7439.59
913.494	7434.85
913.806	7419.48
914.118	7377.9
914.43	7227.39
914.742	7290.67
915.054	7273.72
915.366	7243.44
915.678	7218.81
915.99	7137.23
916.302	7115.76
916.613	7142.43
916.925	7124.8
917.236	7095.42
917.548	7011.13
917.859	7025.82
918.171	6947.18
918.482	6911.47
918.794	6823.34
919.105	6862.43
919.416	6840.74
919.727	6823.34
920.038	6830.57
920.349	6799.38
920.66	6727.29
920.971	6673.28
921.282	6668.54
921.593	6627.86
921.903	6584.25
922.214	6586.96
922.525	6539.28
922.835	6591.25
923.146	6445.04
923.456	6450.24
923.767	6481.2
924.077	6422.67
924.387	6475.32
924.697	6369.34
925.008	6323.69
925.318	6335.21
925.628	6272.62
925.938	6271.49
926.248	6233.52
926.558	6205.27
926.867	6220.42
927.177	6141.77
927.487	6107.42
927.796	6022.68
928.106	6060.42
928.416	6066.97
928.725	6056.13
929.034	6001.66
929.344	6023.58
929.653	5976.35
929.962	5919.18
930.271	5920.99
930.581	5884.61
930.89	5838.96
931.199	5791.5
931.508	5831.27
931.817	5819.75
932.125	5769.13
932.434	5736.13
932.743	5700.66
933.051	5673.31
933.36	5637.61
933.669	5597.83
933.977	5632.18
934.286	5619.75
934.594	5574.1
934.902	5588.79
935.21	5492.75
935.519	5525.97
935.827	5446.88
936.135	5457.27
936.443	5378.86
936.751	5425.41
937.059	5323.94
937.367	5345.64
937.674	5291.63
937.982	5281.23
938.29	5322.59
938.597	5275.81
938.905	5247.79
939.213	5179.54
939.52	5228.8
939.827	5156.26
940.135	5144.51
940.442	5125.3
940.749	5068.13
941.056	5075.59
941.363	5033.1
941.67	5019.77
941.977	4998.07
942.284	5025.87
942.591	5013.89
942.898	4967.12
943.205	4902.94
943.511	4930.51
943.818	4919.88
944.125	4880.79
944.431	4839.43
944.738	4879.43
945.044	4807.8
945.35	4784.75
945.657	4739.55
945.963	4765.09
946.269	4754.47
946.575	4701.81
946.881	4681.02
947.187	4663.17
947.493	4615.26
947.799	4610.51
948.105	4599.44
948.41	4565.54
948.716	4582.94
949.022	4562.38
949.327	4523.96
949.633	4477.64
949.938	4509.95
950.244	4527.35
950.549	4427.02
950.854	4406
951.16	4445.09
951.465	4340.69
951.77	4360.13
952.075	4316.51
952.38	4318.54
952.685	4339.34
952.99	4305.66
953.294	4260.69
953.599	4255.5
953.904	4246.91
954.209	4254.82
954.513	4230.64
954.818	4189.06
955.122	4175.95
955.426	4152.9
955.731	4129.85
956.035	4084.2
956.339	4100.92
956.643	4043.52
956.948	4064.54
957.252	4034.94
957.556	4016.86
957.86	4005.56
958.163	3981.6
958.467	3968.27
958.771	3962.85
959.075	3936.41
959.378	3912
959.682	3931.44
959.985	3900.25
960.289	3872.45
960.592	3883.08
960.896	3840.59
961.199	3843.3
961.502	3790.87
961.805	3806.92
962.108	3780.93
962.411	3781.38
962.714	3719.46
963.017	3742.51
963.32	3693.7
963.623	3712.91
963.926	3656.64
964.228	3647.15
964.531	3654.16
964.833	3652.12
965.136	3580.94
965.438	3578.68
965.741	3600.6
966.043	3602.63
966.345	3506.36
966.648	3494.84
966.95	3509.98
967.252	3540.49
967.554	3504.78
967.856	3448.06
968.158	3432.01
968.46	3462.07
968.761	3422.07
969.063	3438.34
969.365	3410.09
969.666	3397.21
969.968	3358.34
970.269	3325.12
970.571	3306.82
970.872	3340.72
971.174	3314.5
971.475	3283.77
971.776	3300.72
972.077	3285.58
972.378	3278.35
972.679	3279.7
972.98	3232.25
973.281	3233.15
973.582	3177.11
973.883	3179.14
974.183	3183.89
974.484	3141.85
974.785	3129.65
975.085	3155.19
975.386	3139.82
975.686	3094.4
975.986	3123.77
976.287	3074.51
976.587	3029.76
976.887	3044.68
977.187	3004.91
977.487	3043.78
977.787	3011.46
978.087	2959.71
978.387	2964.46
978.687	2990.9
978.987	2959.26
979.286	2920.16
979.586	2962.42
979.885	2939.82
980.185	2867.96
980.484	2898.92
980.784	2848.53
981.083	2870.67
981.382	2844.23
981.682	2830.67
981.981	2831.13
982.28	2815.53
982.579	2816.21
982.878	2773.27
983.177	2785.25
983.475	2745.03
983.774	2724.69
984.073	2725.14
984.372	2737.57
984.67	2705.25
984.969	2709.55
985.267	2729.89
985.566	2676.78
985.864	2641.53
986.162	2667.29
986.461	2635.65
986.759	2629.1
987.057	2622.77
987.355	2605.82
987.653	2554.75
987.951	2561.98
988.249	2572.15
988.547	2531.92
988.844	2576.22
989.142	2536.67
989.44	2512.72
989.737	2534.41
990.035	2504.36
990.332	2455.99
990.63	2445.37
990.927	2442.89
991.224	2460.29
991.521	2441.98
991.819	2462.55
992.116	2404.7
992.413	2401.31
992.71	2435.66
993.006	2367.18
993.303	2389.1
993.6	2379.61
993.897	2396.11
994.193	2319.5
994.49	2312.27
994.787	2305.94
995.083	2310.91
995.379	2324.92
995.676	2252.61
995.972	2252.61
996.268	2250.35
996.565	2248.54
996.861	2250.8
997.157	2253.74
997.453	2236.57
997.749	2184.36
998.044	2185.72
998.34	2170.8
998.636	2180.07
998.932	2153.86
999.227	2122.44
999.523	2170.58
999.818	2138.94
1000.114	2107.76
1000.409	2096.46
1000.704	2088.32
1001	2077.47
1001.295	2096.23
1001.59	2062.56
1001.885	2084.25
1002.18	2035.89
1002.475	2052.62
1002.77	1994.76
1003.065	2004.71
1003.359	2001.54
1003.654	1983.24
1003.949	1967.87
1004.243	1973.97
1004.538	1973.75
1004.832	1972.39
1005.127	1962
1005.421	1928.1
1005.715	1927.87
1006.009	1894.88
1006.304	1914.31
1006.598	1900.98
1006.892	1843.36
1007.186	1871.83
1007.48	1877.7
1007.773	1862.11
1008.067	1869.12
1008.361	1840.64
1008.655	1835.9
1008.948	1820.31
1009.242	1791.38
1009.535	1762.45
1009.829	1787.31
1010.122	1755.9
1010.415	1767.2
1010.708	1738.5
1011.001	1741.66
1011.295	1707.31
1011.588	1738.27
1011.881	1718.61
1012.173	1677.26
1012.466	1678.16
1012.759	1684.94
1013.052	1678.16
1013.344	1655.79
1013.637	1658.05
1013.93	1617.6
1014.222	1617.15
1014.514	1611.5
1014.807	1640.87
1015.099	1579.86
1015.391	1576.7
1015.683	1584.38
1015.976	1584.61
1016.268	1591.61
1016.56	1559.3
1016.851	1557.04
1017.143	1552.29
1017.435	1533.08
1017.727	1512.74
1018.018	1520.43
1018.31	1517.49
1018.602	1500.09
1018.893	1482.24
1019.185	1478.39
1019.476	1474.55
1019.767	1464.38
1020.058	1429.58
1020.35	1437.04
1020.641	1406.98
1020.932	1417.15
1021.223	1435
1021.514	1412.41
1021.804	1371.5
1022.095	1380.99
1022.386	1367.21
1022.677	1370.15
1022.967	1358.62
1023.258	1325.85
1023.548	1322.24
1023.839	1329.47
1024.129	1321.34
1024.419	1293.54
1024.709	1312.52
1025	1313.65
1025.29	1301.67
1025.58	1263.26
1025.87	1272.3
1026.16	1265.97
1026.449	1252.64
1026.739	1252.64
1027.029	1245.86
1027.319	1220.32
1027.608	1216.71
1027.898	1223.26
1028.187	1200.21
1028.477	1147.1
1028.766	1206.99
1029.055	1173.09
1029.344	1141.23
1029.634	1171.51
1029.923	1161.34
1030.212	1165.18
1030.501	1094
1030.79	1132.64
1031.078	1145.29
1031.367	1124.73
1031.656	1103.04
1031.945	1109.82
1032.233	1096.48
1032.522	1075.92
1032.81	1110.49
1033.099	1099.19
1033.387	1072.53
1033.675	1081.57
1033.963	1073.88
1034.251	1063.26
1034.54	1031.85
1034.828	1051.96
1035.116	996.82
1035.403	997.28
1035.691	1009.93
1035.979	1003.38
1036.267	996.37
1036.554	1008.12
1036.842	990.27
1037.129	984.4
1037.417	987.33
1037.704	965.64
1037.992	997.5
1038.279	969.93
1038.566	960.44
1038.853	960.44
1039.14	960.44
