Data from hue_340_FLMS001491_87.txt Node
Date: Mon Feb 06 15:43:44 GMT 2017
User: dcchb
Spectrometer: FLMS00149
Trigger mode: 0
Integration Time (sec): 2.000000E-2
Scans to average: 10
Electric dark correction enabled: true
Nonlinearity correction enabled: false
Boxcar width: 0
XAxis mode: Wavelengths
Number of Pixels in Spectrum: 2048
>>>>>Begin Spectral Data<<<<<
341.393	-19.1
341.776	-19.1
342.16	-19.1
342.543	-61.81
342.927	-57.74
343.31	-56.16
343.693	-60.22
344.077	-81.24
344.46	-67.46
344.843	-69.26
345.226	-40.34
345.61	-22.26
345.993	-13.45
346.376	-14.12
346.759	17.97
347.142	32.88
347.525	35.82
347.908	40.79
348.291	77.85
348.674	95.48
349.057	123.73
349.44	132.99
349.823	149.94
350.206	147.23
350.588	210.95
350.971	204.85
351.354	212.54
351.737	221.12
352.119	246.89
352.502	243.04
352.884	256.15
353.267	281.46
353.65	285.3
354.032	280.56
354.414	292.53
354.797	314.91
355.179	309.48
355.562	295.7
355.944	322.82
356.326	326.43
356.709	313.78
357.091	342.02
357.473	346.32
357.855	319.43
358.238	333.21
358.62	336.15
359.002	351.29
359.384	319.2
359.766	325.98
360.148	330.5
360.53	339.31
360.912	339.09
361.294	316.04
361.676	327.34
362.057	319.65
362.439	299.54
362.821	322.36
363.203	327.34
363.584	309.94
363.966	302.25
364.348	328.69
364.729	317.84
365.111	300.9
365.493	286.66
365.874	328.92
366.256	302.93
366.637	292.53
367.019	302.48
367.4	314.68
367.781	304.51
368.163	310.16
368.544	311.29
368.925	303.83
369.306	332.53
369.688	291.4
370.069	305.64
370.45	304.96
370.831	297.05
371.212	299.09
371.593	300.44
371.974	312.2
372.355	316.04
372.736	314
373.117	302.03
373.498	323.49
373.879	300.44
374.26	311.07
374.641	298.41
375.021	308.13
375.402	297.96
375.783	321.69
376.163	337.28
376.544	303.16
376.925	302.03
377.305	304.74
377.686	312.87
378.066	306.32
378.447	323.04
378.827	315.81
379.208	304.74
379.588	306.09
379.968	327.11
380.349	331.4
380.729	321.46
381.109	320.78
381.489	323.27
381.87	337.73
382.25	314.46
382.63	305.87
383.01	322.82
383.39	322.14
383.77	323.95
384.15	323.27
384.53	324.62
384.91	307.9
385.29	334.57
385.67	322.59
386.049	344.06
386.429	346.77
386.809	336.38
387.189	347.67
387.568	321.46
387.948	335.92
388.328	348.35
388.707	347.9
389.087	353.32
389.466	345.19
389.846	339.77
390.225	354.23
390.605	354.23
390.984	353.55
391.363	346.54
391.743	358.3
392.122	338.86
392.501	348.35
392.881	349.93
393.26	362.59
393.639	342.93
394.018	369.82
394.397	338.41
394.776	360.1
395.155	372.53
395.534	331.63
395.913	354.68
396.292	380.44
396.671	376.6
397.05	342.25
397.429	388.35
397.808	370.05
398.186	351.52
398.565	363.27
398.944	357.84
399.323	357.17
399.701	381.8
400.08	356.94
400.458	391.06
400.837	389.03
401.215	389.71
401.594	357.17
401.972	398.07
402.351	384.96
402.729	380.22
403.107	405.3
403.486	395.81
403.864	406.66
404.242	393.1
404.62	394.23
404.999	397.39
405.377	401.46
405.755	404.17
406.133	387.45
406.511	405.07
406.889	415.92
407.267	412.98
407.645	421.34
408.023	417.5
408.401	417.5
408.779	420.67
409.156	427.45
409.534	445.3
409.912	428.35
410.29	439.65
410.667	413.66
411.045	444.17
411.422	448.69
411.8	458.18
412.178	468.35
412.555	457.73
412.933	447.11
413.31	466.99
413.687	469.25
414.065	459.99
414.442	474.45
414.819	476.71
415.197	483.04
415.574	487.33
415.951	509.25
416.328	485.07
416.705	485.75
417.082	522.59
417.46	489.37
417.837	524.84
418.214	525.52
418.591	544.51
418.967	526.88
419.344	515.13
419.721	525.97
420.098	535.69
420.475	532.98
420.852	535.92
421.228	542.02
421.605	539.99
421.982	561
422.358	558.74
422.735	554.22
423.111	568.23
423.488	567.56
423.864	584.96
424.241	606.42
424.617	587.67
424.994	571.85
425.37	586.31
425.746	583.6
426.123	590.83
426.499	601.68
426.875	612.75
427.251	630.6
427.627	633.09
428.003	632.64
428.379	653.2
428.756	647.33
429.132	637.61
429.507	662.47
429.883	658.17
430.259	641.9
430.635	668.34
431.011	663.6
431.387	682.35
431.763	690.26
432.138	677.38
432.514	673.54
432.89	697.04
433.265	724.39
433.641	725.07
434.016	704.95
434.392	736.59
434.767	723.94
435.143	749.47
435.518	761.45
435.894	764.84
436.269	745.18
436.644	748.34
437.02	768.91
437.395	790.83
437.77	785.18
438.145	789.47
438.52	788.34
438.895	777.27
439.271	793.09
439.646	822.69
440.021	831.28
440.395	798.74
440.77	804.61
441.145	818.4
441.52	827.89
441.895	826.08
442.27	857.94
442.645	847.32
443.019	837.61
443.394	871.95
443.769	852.29
444.143	879.64
444.518	899.98
444.892	881.67
445.267	886.64
445.641	878.06
446.016	885.97
446.39	879.19
446.764	871.95
447.139	907.66
447.513	890.71
447.887	892.07
448.262	913.54
448.636	891.39
449.01	879.86
449.384	910.37
449.758	917.15
450.132	926.19
450.506	923.03
450.88	935.91
451.254	912.18
451.628	953.53
452.002	953.08
452.376	955.79
452.75	979.3
453.123	973.87
453.497	975.45
453.871	1003.93
454.244	988.11
454.618	1017.94
454.992	1017.04
455.365	991.95
455.739	1021.1
456.112	1011.61
456.486	1067.88
456.859	1055.9
457.232	1075.56
457.606	1059.29
457.979	1068.79
458.352	1074.89
458.725	1087.77
459.099	1105.62
459.472	1131.61
459.845	1134.55
460.218	1115.79
460.591	1137.71
460.964	1142.46
461.337	1142.46
461.71	1174.32
462.083	1161.66
462.456	1176.58
462.829	1185.39
463.201	1216.13
463.574	1220.87
463.947	1196.69
464.32	1251.83
464.692	1242.79
465.065	1244.15
465.438	1284.6
465.81	1271.27
466.183	1286.41
466.555	1323.47
466.928	1313.3
467.3	1316.69
467.672	1333.86
468.045	1343.81
468.417	1385.39
468.789	1392.17
469.161	1395.78
469.534	1430.81
469.906	1433.52
470.278	1477.59
470.65	1403.92
471.022	1477.59
471.394	1497.93
471.766	1495.89
472.138	1532.05
472.51	1528.89
472.882	1560.75
473.253	1581.77
473.625	1596.91
473.997	1657.7
474.369	1665.15
474.74	1650.01
475.112	1681.2
475.484	1689.33
475.855	1705.15
476.227	1779.95
476.598	1809.1
476.97	1814.53
477.341	1822.66
477.713	1848.2
478.084	1862.66
478.455	1895.88
478.827	1964.36
479.198	1991.47
479.569	1962.32
479.94	2037.12
480.311	2034.86
480.682	2079.15
481.053	2145.59
481.424	2167.06
481.795	2199.38
482.166	2186.27
482.537	2229.66
482.908	2270.79
483.279	2293.16
483.65	2311.92
484.021	2370.9
484.391	2394.63
484.762	2375.87
485.133	2442.76
485.503	2456.55
485.874	2526.15
486.244	2522.53
486.615	2553.94
486.985	2642.08
487.356	2642.08
487.726	2673.26
488.097	2697.22
488.467	2728.85
488.837	2776.54
489.207	2797.1
489.578	2852.02
489.948	2866.25
490.318	2929.08
490.688	2921.17
491.058	2978.34
491.428	3010.2
491.798	3008.17
492.168	3060.37
492.538	3079.81
492.908	3123.19
493.278	3184.44
493.648	3142.4
494.017	3221.27
494.387	3223.98
494.757	3256.07
495.126	3297.2
495.496	3290.87
495.866	3310.53
496.235	3345.34
496.605	3390.53
496.974	3427.82
497.344	3474.15
497.713	3451.32
498.082	3468.95
498.452	3500.36
498.821	3487.7
499.19	3511.66
499.559	3535.84
499.928	3597.76
500.298	3570.19
500.667	3632.33
501.036	3593.69
501.405	3662.39
501.774	3677.3
502.143	3744.42
502.512	3715.27
502.88	3747.36
503.249	3729.96
503.618	3782.84
503.987	3813.8
504.356	3804.76
504.724	3797.53
505.093	3783.97
505.462	3817.19
505.83	3809.73
506.199	3845.21
506.567	3961.82
506.936	3916.85
507.304	3915.49
507.672	3948.03
508.041	3931.31
508.409	3986.45
508.777	4037.52
509.145	4010.18
509.514	4036.39
509.882	4060.57
510.25	4075.03
510.618	4058.09
510.986	4130.4
511.354	4096.5
511.722	4128.37
512.09	4138.08
512.458	4172.21
512.826	4220.12
513.193	4208.14
513.561	4242.71
513.929	4277.74
514.297	4303.73
514.664	4278.64
515.032	4304.86
515.4	4286.1
515.767	4318.19
516.135	4322.03
516.502	4317.51
516.869	4363.61
517.237	4366.55
517.604	4392.31
517.972	4412.43
518.339	4434.8
518.706	4414.69
519.073	4441.13
519.44	4399.09
519.808	4461.46
520.175	4482.03
520.542	4573.55
520.909	4537.62
521.276	4496.49
521.643	4542.59
522.009	4605.19
522.376	4562.7
522.743	4592.53
523.11	4610.84
523.477	4663.27
523.843	4676.15
524.21	4751.85
524.577	4734.45
524.943	4735.81
525.31	4800.44
525.676	4810.38
526.043	4834.56
526.409	4835.01
526.776	4882.24
527.142	4863.26
527.508	4922.24
527.874	5006.99
528.241	4958.17
528.607	5024.84
528.973	5016.48
529.339	5047.89
529.705	5100.09
530.071	5125.85
530.437	5122.24
530.803	5116.36
531.169	5145.29
531.535	5170.15
531.901	5188.45
532.267	5209.24
532.632	5210.82
532.998	5256.25
533.364	5242.01
533.73	5308.67
534.095	5313.87
534.461	5395.68
534.826	5353.87
535.192	5395.68
535.557	5437.48
535.923	5433.42
536.288	5385.51
536.653	5466.86
537.019	5498.95
537.384	5510.02
537.749	5523.58
538.114	5580.76
538.479	5517.71
538.845	5576.69
539.21	5573.07
539.575	5598.84
539.94	5642.9
540.305	5666.86
540.67	5723.58
541.034	5698.72
541.399	5750.92
541.764	5777.14
542.129	5771.26
542.494	5808.55
542.858	5823.01
543.223	5838.83
543.587	5910.92
543.952	5870.02
544.316	5913.63
544.681	5916.57
545.045	5935.1
545.41	5991.37
545.774	6023.46
546.138	6026.85
546.503	6068.43
546.867	6008.99
547.231	6110.01
547.595	6105.72
547.959	6143.68
548.324	6147.3
548.688	6177.8
549.052	6219.61
549.416	6175.09
549.779	6232.72
550.143	6225.94
550.507	6244.47
550.871	6304.58
551.235	6315.88
551.599	6366.5
551.962	6363.11
552.326	6416.22
552.689	6414.86
553.053	6420.06
553.417	6449.43
553.78	6540.05
554.143	6433.62
554.507	6500.73
554.87	6487.4
555.234	6571.01
555.597	6522.43
555.96	6534.86
556.323	6623.22
556.686	6625.93
557.05	6590
557.413	6644.01
557.776	6675.19
558.139	6653.72
558.502	6715.42
558.865	6705.25
559.228	6814.17
559.59	6797
559.953	6803.55
560.316	6860.72
560.679	6805.58
561.041	6861.18
561.404	6908.86
561.767	6920.38
562.129	6890.55
562.492	6980.27
562.854	6987.05
563.217	6965.58
563.579	6994.05
563.941	7030.66
564.304	7102.3
564.666	7126.93
565.028	7125.12
565.39	7107.95
565.753	7172.58
566.115	7191.11
566.477	7224.1
566.839	7271.79
567.201	7277.89
567.563	7285.35
567.925	7350.43
568.287	7309.98
568.648	7361.95
569.01	7440.82
569.372	7456.64
569.734	7474.94
570.095	7502.97
570.457	7552.23
570.819	7594.49
571.18	7572.57
571.542	7665.45
571.903	7708.84
572.265	7692.11
572.626	7738.44
572.987	7767.37
573.349	7814.6
573.71	7880.36
574.071	7925.1
574.432	7914.26
574.794	8013.91
575.155	8090.97
575.516	8099.34
575.877	8104.08
576.238	8207.58
576.599	8319.44
576.96	8293
577.32	8400.8
577.681	8435.82
578.042	8580.23
578.403	8568.02
578.763	8706.78
579.124	8794.23
579.485	8852.31
579.845	8933.89
580.206	9080.55
580.566	9219.76
580.927	9288.91
581.287	9370.94
581.648	9426.98
582.008	9702.68
582.368	9751.27
582.728	9881.44
583.089	10010.92
583.449	10141.32
583.809	10327.98
584.169	10490.46
584.529	10602.55
584.889	10798.25
585.249	10886.15
585.609	11018.58
585.969	11350.77
586.329	11460.83
586.688	11711.9
587.048	11873.25
587.408	12010.42
587.768	12252.9
588.127	12487.02
588.487	12654.47
588.846	12995.93
589.206	13114.8
589.565	13321.34
589.925	13685.63
590.284	13821.67
590.643	14088.78
591.003	14465.04
591.362	14686.51
591.721	14844.24
592.08	15156.1
592.44	15400.84
592.799	15661.62
593.158	15919.69
593.517	16234.26
593.876	16472.45
594.235	16679
594.593	17008.25
594.952	17351.3
595.311	17578.18
595.67	17806.42
596.029	18199.18
596.387	18461.77
596.746	18821.09
597.104	18976.11
597.463	19261.98
597.822	19657.68
598.18	19759.37
598.538	20153.93
598.897	20416.3
599.255	20554.6
599.613	21152.1
599.972	21267.58
600.33	21616.72
600.688	21734.23
601.046	22178.06
601.404	22566.07
601.762	22656.92
602.12	23084.48
602.478	23299.84
602.836	23574.63
603.194	23722.43
603.552	23968.97
603.91	24230.66
604.268	24421.84
604.625	24581.39
604.983	24935.73
605.341	25064.76
605.698	25410.29
606.056	25698.65
606.413	25889.15
606.771	26197.39
607.128	26482.58
607.485	26518.29
607.843	26704.95
608.2	27122.34
608.557	27433.74
608.914	27548.77
609.272	27849.32
609.629	27997.57
609.986	28266.04
610.343	28385.36
610.7	28751.9
611.057	28887.94
611.414	28917.77
611.771	29270.76
612.127	29538.77
612.484	29548.04
612.841	29879.33
613.198	30036.84
613.554	30159.55
613.911	30398.64
614.267	30493.1
614.624	30754.56
614.98	30824.61
615.337	31144.38
615.693	31194.55
616.05	31355.22
616.406	31745.72
616.762	31714.31
617.118	31751.14
617.475	32026.39
617.831	32201.07
618.187	32268.42
618.543	32453.72
618.899	32825.24
619.255	32757.9
619.611	32797.22
619.967	33128.06
620.323	33276.07
620.678	33198.34
621.034	33251.44
621.39	33373.92
621.746	33361.27
622.101	33918.32
622.457	33689.62
622.812	33745.21
623.168	33985.43
623.523	34004.19
623.879	34303.17
624.234	34157.86
624.589	34306.78
624.945	34482.14
625.3	34586.55
625.655	34702.25
626.01	34642.37
626.365	34607.11
626.72	34760.1
627.075	34813.89
627.43	34966.65
627.785	34831.51
628.14	34913.09
628.495	35033.32
628.85	35037.16
629.205	34844.85
629.559	35243.93
629.914	35221.33
630.269	35332.07
630.623	35307.66
630.978	35271.5
631.332	35482.34
631.687	35507.88
632.041	35515.11
632.396	35337.94
632.75	35351.27
633.104	35425.62
633.459	35323.7
633.813	35371.84
634.167	35312.18
634.521	35441.67
634.875	35440.54
635.229	35499.74
635.583	35448.45
635.937	35401.67
636.291	35457.26
636.645	35527.54
636.999	35495
637.352	35626.97
637.706	35466.3
638.06	35512.63
638.413	35487.32
638.767	35353.53
639.121	35579.29
639.474	35438.96
639.828	35465.62
640.181	35590.14
640.534	35468.56
640.888	35376.58
641.241	35263.37
641.594	35426.53
641.947	35504.49
642.301	35295.23
642.654	35466.07
643.007	35420.42
643.36	35419.52
643.713	35279.41
644.066	35492.74
644.419	35274.89
644.771	35029.7
645.124	34661.8
645.477	34716.04
645.83	34577.51
646.182	34473.1
646.535	34259.55
646.888	34355.37
647.24	34182.04
647.593	34445.99
647.945	34300.91
648.298	34121.7
648.65	34179.33
649.002	34046
649.355	34234.92
649.707	34071.31
650.059	34325.54
650.411	34718.75
650.763	34769.59
651.115	35107.21
651.467	35040.32
651.819	35110.38
652.171	34983.37
652.523	34826.32
652.875	34833.1
653.227	34777.05
653.578	35057.72
653.93	35109.7
654.282	34826.09
654.633	34706.09
654.985	34828.8
655.337	35010.72
655.688	34887.78
656.039	34965.52
656.391	34583.84
656.742	34805.75
657.094	34736.83
657.445	34638.07
657.796	34735.47
658.147	34588.58
658.498	34710.84
658.849	34713.78
659.2	34643.72
659.551	34667.45
659.902	34670.16
660.253	34618.41
660.604	34657.73
660.955	34456.61
661.306	34564.85
661.656	34582.03
662.007	34632.42
662.358	34529.15
662.708	34589.03
663.059	34503.16
663.409	34355.14
663.76	34622.48
664.11	34582.71
664.461	34672.2
664.811	34538.64
665.161	34544.97
665.511	34576.38
665.862	34631.74
666.212	34648.47
666.562	34634
666.912	34451.86
667.262	34573.44
667.612	34544.29
667.962	34565.76
668.312	34445.76
668.662	34538.87
669.011	34482.37
669.361	34424.52
669.711	34397.63
670.06	34402.6
670.41	34363.5
670.76	34281.92
671.109	34398.98
671.459	34269.27
671.808	34337.97
672.157	34386.1
672.507	34256.84
672.856	34280.34
673.205	34202.83
673.554	34344.75
673.904	34256.61
674.253	34558.3
674.602	34385.42
674.951	33838.55
675.3	33750.64
675.649	34220.46
675.998	34203.06
676.346	34214.58
676.695	34234.69
677.044	34160.8
677.393	34152.89
677.741	34210.74
678.09	34040.57
678.438	34050.97
678.787	34084.41
679.135	34004.64
679.484	33966.45
679.832	33988.37
680.181	33777.76
680.529	33941.37
680.877	33728.04
681.225	33842.84
681.573	33883.06
681.922	33742.05
682.27	33536.18
682.618	33598.55
682.966	33489.63
683.314	33588.61
683.661	33472.23
684.009	33359.24
684.357	33422.51
684.705	33206.02
685.053	33328.5
685.4	33255.06
685.748	33078.79
686.095	33052.8
686.443	33015.74
686.79	32962.86
687.138	32961.73
687.485	32913.15
687.832	32714.51
688.18	32955.18
688.527	32587.96
688.874	32588.86
689.221	32636.32
689.568	32581.18
689.915	32371.69
690.262	32510.44
690.609	32298.92
690.956	32280.62
691.303	32141.19
691.65	31995.66
691.997	32065.71
692.344	31942.55
692.69	31789.79
693.037	31961.31
693.383	31584.82
693.73	31808.32
694.077	31579.4
694.423	31591.15
694.769	31454.2
695.116	31467.99
695.462	31401.77
695.808	31207.88
696.155	31364.26
696.501	31087.43
696.847	31003.59
697.193	30871.84
697.539	30979.19
697.885	30784.39
698.231	30681.79
698.577	30745.52
698.923	30617.39
699.269	30496.26
699.614	30247.91
699.96	30371.29
700.306	30370.39
700.651	30329.94
700.997	30177.85
701.342	30026.22
701.688	29971.53
702.033	29843.62
702.379	29827.13
702.724	29876.39
703.069	29834.58
703.415	29487.02
703.76	29499.9
704.105	29612.44
704.45	29422.84
704.795	29293.35
705.14	29219.68
705.485	29175.62
705.83	29125.22
706.175	29100.14
706.52	29021.27
706.865	29022.17
707.209	28929.3
707.554	28673.71
707.899	28861.28
708.243	28705.35
708.588	28636.42
708.932	28444.11
709.277	28490.44
709.621	28569.31
709.966	28301.29
710.31	28424.68
710.654	28135.64
710.998	28366.82
711.342	28221.52
711.687	28167.06
712.031	27910.11
712.375	27932.71
712.719	27991.47
713.063	27892.03
713.407	27959.83
713.75	27763.9
714.094	27657.24
714.438	27546.73
714.782	27597.35
715.125	27460.86
715.469	27536.79
715.812	27451.59
716.156	27340.86
716.499	27377.25
716.843	27237.81
717.186	27143.81
717.53	27301.77
717.873	27176.35
718.216	27170.47
718.559	27079.4
718.902	26735.68
719.246	26921.89
719.589	26812.52
719.932	26727.77
720.275	26672.86
720.617	26796.92
720.96	26639.64
721.303	26689.13
721.646	26641.22
721.989	26413.66
722.331	26553.09
722.674	26412.98
723.016	26495.01
723.359	26364.62
723.701	26441
724.044	26263.6
724.386	26083.72
724.729	26314.22
725.071	26262.7
725.413	26054.34
725.755	26173.66
726.097	26073.33
726.439	25807.12
726.782	25981.12
727.124	25995.36
727.465	25881.92
727.807	25920.11
728.149	25832.2
728.491	25707.69
728.833	25718.98
729.175	25641.92
729.516	25701.81
729.858	25543.62
730.199	25519.22
730.541	25494.81
730.882	25563.96
731.224	25446
731.565	25349.28
731.906	25346.79
732.248	25449.39
732.589	25198.77
732.93	25176.17
733.271	25220.01
733.612	25238.09
733.953	25303.63
734.294	25091.2
734.635	25099.11
734.976	25198.09
735.317	24929.85
735.658	24956.52
735.999	25019.12
736.339	24879.23
736.68	25041.04
737.021	24947.48
737.361	24795.62
737.702	24933.69
738.042	24801.04
738.383	24756.75
738.723	24790.65
739.063	24735.96
739.404	24693.25
739.744	24578.9
740.084	24576.42
740.424	24566.25
740.764	24535.97
741.104	24510.43
741.444	24469.75
741.784	24424.1
742.124	24439.24
742.464	24267.05
742.804	24367.61
743.143	24270.66
743.483	24308.85
743.823	24157.44
744.162	24113.15
744.502	24206.48
744.841	23987.05
745.181	24084.9
745.52	24121.74
745.86	24030.89
746.199	23984.12
746.538	23901.18
746.877	24105.69
747.216	24026.15
747.556	23886.72
747.895	23924.23
748.234	23822.54
748.573	23751.58
748.911	23658.7
749.25	23736.89
749.589	23629.32
749.928	23619.83
750.267	23571.7
750.605	23664.35
750.944	23457.58
751.283	23346.17
751.621	23393.85
751.96	23312.49
752.298	23283.79
752.636	23241.54
752.975	23213.97
753.313	23071.37
753.651	23265.26
753.989	23121.09
754.327	23050.81
754.666	22900.53
755.004	22933.97
755.342	23000.64
755.679	22976.23
756.017	22842.22
756.355	22817.59
756.693	22740.31
757.031	22744.37
757.368	22493.31
757.706	22668.9
758.044	22538.73
758.381	22527.66
758.719	22430.94
759.056	22468.67
759.394	22318.4
759.731	22225.29
760.068	22212.64
760.405	22206.31
760.743	22100.55
761.08	22073.66
761.417	21879.76
761.754	21914.57
762.091	21797.28
762.428	21759.77
762.765	21584.4
763.102	21607.68
763.438	21595.7
763.775	21423.05
764.112	21474.58
764.449	21516.38
764.785	21316.16
765.122	21318.2
765.458	21174.47
765.795	21120.24
766.131	20985.78
766.467	21012.22
766.804	20899.22
767.14	20853.12
767.476	20838.44
767.812	20681.83
768.148	20750.08
768.485	20567.26
768.821	20541.95
769.157	20482.74
769.492	20423.98
769.828	20405.9
770.164	20216.53
770.5	20213.82
770.836	20092.92
771.171	20039.59
771.507	20012.24
771.842	19811.57
772.178	19888.4
772.513	19703.32
772.849	19627.17
773.184	19721.18
773.519	19559.37
773.855	19596.21
774.19	19457.91
774.525	19376.33
774.86	19415.2
775.195	19297.46
775.53	19199.38
775.865	19196.67
776.2	19037.8
776.535	18922.1
776.87	18889.33
777.205	18807.08
777.539	18744.25
777.874	18816.12
778.209	18646.85
778.543	18555.56
778.878	18522.34
779.212	18476.46
779.547	18310.59
779.881	18378.39
780.215	18291.38
780.55	18266.07
780.884	18213.42
781.218	17948.57
781.552	18104.5
781.886	17850.72
782.22	17842.36
782.554	17775.69
782.888	17674.22
783.222	17590.61
783.556	17586.54
783.889	17548.13
784.223	17404.18
784.557	17361.46
784.89	17444.63
785.224	17331.86
785.557	17176.16
785.891	17141.36
786.224	17193.56
786.558	17076.05
786.891	17005.54
787.224	16918.99
787.557	16848.48
787.891	16855.26
788.224	16855.04
788.557	16745.89
788.89	16677.19
789.223	16657.3
789.556	16484.43
789.888	16473.8
790.221	16378.89
790.554	16352.9
790.887	16412.34
791.219	16281.94
791.552	16197.65
791.884	16214.6
792.217	16097.54
792.549	16027.04
792.882	15901.84
793.214	15857.1
793.546	15883.76
793.879	15793.14
794.211	15751.56
794.543	15824.78
794.875	15615.97
795.207	15754.28
795.539	15515.64
795.871	15540.72
796.203	15376.21
796.535	15315.42
796.867	15352.93
797.198	15264.12
797.53	15317
797.862	15079.26
798.193	15155.65
798.525	15012.15
798.856	15063.67
799.188	14911.81
799.519	14933.73
799.85	14832.27
800.182	14831.14
800.513	14839.72
800.844	14616.45
801.175	14680.4
801.506	14659.16
801.837	14613.51
802.168	14535.1
802.499	14637.24
802.83	14451.48
803.161	14421.43
803.491	14416.01
803.822	14401.32
804.153	14294.88
804.483	14324.93
804.814	14202.68
805.145	14239.29
805.475	14178.05
805.805	14115
806.136	14091.49
806.466	14022.8
806.796	14099.18
807.126	13929.92
807.457	13896.24
807.787	13941.67
808.117	13825.29
808.447	13733.99
808.777	13725.85
809.107	13747.55
809.436	13738.96
809.766	13709.13
810.096	13595.24
810.426	13498.06
810.755	13543.26
811.085	13468.91
811.414	13526.31
811.744	13346.2
812.073	13365.64
812.403	13293.1
812.732	13276.83
813.061	13275.02
813.39	13202.7
813.719	13138.75
814.049	13194.12
814.378	13158.19
814.707	13061.24
815.036	13096.27
815.365	13088.13
815.693	12964.97
816.022	12957.96
816.351	13000.22
816.68	12868.25
817.008	12964.97
817.337	12783.28
817.665	12712.77
817.994	12800.45
818.322	12877.97
818.651	12690.4
818.979	12710.06
819.307	12641.59
819.636	12625.09
819.964	12572.89
820.292	12610.4
820.62	12588.93
820.948	12554.81
821.276	12530.18
821.604	12502.38
821.932	12548.94
822.259	12502.38
822.587	12529.73
822.915	12454.25
823.243	12479.56
823.57	12449.05
823.898	12519.33
824.225	12440.46
824.553	12466.9
824.88	12405.89
825.207	12527.02
825.535	12436.85
825.862	12466.23
826.189	12415.38
826.516	12514.36
826.843	12469.84
827.17	12498.77
827.497	12522.5
827.824	12552.78
828.151	12444.31
828.478	12407.47
828.805	12449.5
829.131	12411.76
829.458	12427.81
829.785	12341.03
830.111	12352.33
830.438	12461.25
830.764	12359.11
831.09	12433.91
831.417	12345.1
831.743	12410.63
832.069	12369.28
832.395	12355.49
832.722	12364.99
833.048	12313.91
833.374	12357.53
833.7	12270.07
834.026	12240.47
834.351	12280.92
834.677	12203.86
835.003	12236.18
835.329	12181.04
835.654	12241.6
835.98	12144.88
836.306	12257.19
836.631	12134.71
836.956	12158.21
837.282	12190.98
837.607	12177.19
837.932	12101.72
838.258	12146.23
838.583	12027.59
838.908	12027.14
839.233	12025.79
839.558	11942.17
839.883	12001.38
840.208	11868.73
840.533	11897.65
840.858	11882.51
841.182	11875.96
841.507	11940.59
841.832	11820.37
842.156	11776.07
842.481	11825.11
842.805	11772.91
843.13	11805.23
843.454	11811.78
843.778	11617.43
844.103	11637.32
844.427	11659.02
844.751	11595.51
845.075	11540.83
845.399	11572.92
845.723	11436.87
846.047	11509.64
846.371	11454.28
846.695	11424.67
847.019	11284.56
847.343	11253.15
847.666	11173.15
847.99	11158.46
848.313	11208.18
848.637	11037.79
848.96	11139.71
849.284	11070.33
849.607	11018.58
849.931	11043.66
850.254	10891.13
850.577	10841.86
850.9	10763.45
851.223	10707.18
851.546	10682.54
851.869	10601.42
852.192	10713.05
852.515	10515.99
852.838	10567.74
853.161	10534.75
853.483	10477.58
853.806	10468.31
854.129	10367.07
854.451	10370.69
854.774	10303.57
855.096	10253.18
855.419	10208.66
855.741	10182.44
856.063	10173.4
856.385	10125.27
856.708	10054.54
857.03	10036.91
857.352	10129.56
857.674	10068.77
857.996	10056.12
858.318	9979.74
858.64	9939.74
858.961	9867.42
859.283	9907.88
859.605	9832.62
859.926	9883.69
860.248	9815.9
860.57	9755.56
860.891	9822
861.212	9818.84
861.534	9732.74
861.855	9691.61
862.176	9737.94
862.498	9697.03
862.819	9653.42
863.14	9587.21
863.461	9566.42
863.782	9571.61
864.103	9585.17
864.424	9546.08
864.745	9614.78
865.065	9470.6
865.386	9475.12
865.707	9442.12
866.027	9476.02
866.348	9466.3
866.668	9462.69
866.989	9376.36
867.309	9353.09
867.63	9418.62
867.95	9343.14
868.27	9333.65
868.59	9337.72
868.91	9330.49
869.23	9272.86
869.55	9256.14
869.87	9225.18
870.19	9329.59
870.51	9199.19
870.83	9210.49
871.15	9147.44
871.469	9150.38
871.789	9165.97
872.109	9136.14
872.428	9171.17
872.748	9162.58
873.067	9123.71
873.386	9086.88
873.706	9118.52
874.025	9029.93
874.344	9046.65
874.663	9114.45
874.982	9034
875.301	8956.49
875.62	8950.16
875.939	8972.31
876.258	8961.69
876.577	8911.52
876.896	8909.48
877.214	8904.74
877.533	8901.8
877.852	8889.82
878.17	8905.42
878.489	8853.44
878.807	8872.2
879.125	8913.1
879.444	8896.38
879.762	8784.06
880.08	8697.74
880.398	8733.44
880.716	8731.63
881.034	8679.66
881.352	8763.5
881.67	8680.34
881.988	8673.11
882.306	8708.13
882.624	8648.02
882.941	8633.56
883.259	8559.89
883.577	8581.58
883.894	8575.48
884.212	8571.87
884.529	8494.35
884.846	8507.01
885.164	8506.1
885.481	8455.71
885.798	8462.49
886.115	8401.47
886.432	8396.5
886.75	8344.07
887.067	8400.34
887.383	8326.22
887.7	8358.09
888.017	8302.95
888.334	8318.09
888.651	8300.01
888.967	8262.04
889.284	8241.25
889.6	8182.95
889.917	8175.72
890.233	8206.22
890.55	8165.55
890.866	8171.65
891.182	8061.82
891.498	8084.65
891.815	7989.96
892.131	8003.97
892.447	8032.44
892.763	7926.68
893.079	7938.89
893.395	7937.31
893.71	7919.23
894.026	7932.11
894.342	7872.45
894.657	7806.24
894.973	7794.26
895.289	7772.34
895.604	7714.71
895.92	7752.68
896.235	7690.08
896.55	7684.66
896.865	7686.92
897.181	7613.47
897.496	7633.81
897.811	7522.4
898.126	7543.42
898.441	7529.18
898.756	7438.79
899.071	7457.77
899.386	7452.12
899.7	7369.64
900.015	7375.06
900.33	7350.43
900.644	7300.26
900.959	7328.96
901.273	7290.77
901.588	7203.31
901.902	7230.88
902.216	7203.09
902.531	7136.2
902.845	7157.66
903.159	7081.73
903.473	7044
903.787	7079.7
904.101	7029.98
904.415	7049.87
904.729	7002.19
905.042	6887.84
905.356	6925.13
905.67	6903.21
905.984	6913.83
906.297	6863.66
906.611	6873.38
906.924	6851.23
907.237	6802.42
907.551	6766.94
907.864	6811.01
908.177	6678.58
908.491	6662.99
908.804	6679.94
909.117	6651.01
909.43	6626.83
909.743	6592.71
910.056	6620.96
910.368	6523.56
910.681	6502.54
910.994	6537.79
911.307	6492.37
911.619	6410.79
911.932	6421.64
912.244	6406.5
912.557	6350
912.869	6352.94
913.181	6292.15
913.494	6288.54
913.806	6310.46
914.118	6209.22
914.43	6203.34
914.742	6170.12
915.054	6174.64
915.366	6161.98
915.678	6113.17
915.99	6044.02
916.302	6012.84
916.613	6046.73
916.925	6079.05
917.236	6055.55
917.548	5960.63
917.859	5939.62
918.171	5916.57
918.482	5839.73
918.794	5849.68
919.105	5871.37
919.416	5797.02
919.727	5779.62
920.038	5794.99
920.349	5754.76
920.66	5697.36
920.971	5728.78
921.282	5687.2
921.593	5644.71
921.903	5651.04
922.214	5610.36
922.525	5574.43
922.835	5543.7
923.146	5502.12
923.456	5495.79
923.767	5522.68
924.077	5474.77
924.387	5466.64
924.697	5359.97
925.008	5377.15
925.318	5399.29
925.628	5298.28
925.938	5294.21
926.248	5321.1
926.558	5256.25
926.867	5236.36
927.177	5224.83
927.487	5207.89
927.796	5158.4
928.106	5197.72
928.416	5132.18
928.725	5169.92
929.034	5114.33
929.344	5080.21
929.653	5076.59
929.962	5057.16
930.271	5003.15
930.581	4988.91
930.89	4982.58
931.199	4939.19
931.508	4937.16
931.817	4931.73
932.125	4887.44
932.434	4874.56
932.743	4821.23
933.051	4818.29
933.36	4816.48
933.669	4784.85
933.977	4774
934.286	4752.3
934.594	4721.8
934.902	4675.92
935.21	4715.47
935.519	4682.48
935.827	4668.01
936.135	4639.77
936.443	4624.17
936.751	4591.18
937.059	4576.72
937.367	4549.37
937.674	4530.39
937.982	4529.71
938.29	4498.98
938.597	4468.7
938.905	4403.61
939.213	4451.07
939.52	4387.79
939.827	4427.34
940.135	4383.73
940.442	4377.4
940.749	4334.69
941.056	4360.9
941.363	4305.54
941.67	4297.63
941.977	4280.23
942.284	4246.1
942.591	4245.88
942.898	4186.22
943.205	4217.63
943.511	4167.01
943.818	4189.38
944.125	4159.1
944.431	4123.39
944.738	4126.78
945.044	4110.74
945.35	4069.16
945.657	4057.63
945.963	4063.06
946.269	4040.01
946.575	4017.18
946.881	3970.4
947.187	4002.95
947.493	3984.42
947.799	3956.62
948.105	3969.5
948.41	3903.97
948.716	3906.45
949.022	3890.18
949.327	3824.19
949.633	3837.98
949.938	3808.15
950.244	3811.54
950.549	3780.58
950.854	3751.43
951.16	3762.27
951.465	3754.59
951.77	3739.9
952.075	3718.21
952.38	3675.72
952.685	3701.26
952.99	3681.37
953.294	3670.52
953.599	3641.37
953.904	3624.65
954.209	3597.31
954.513	3622.62
954.818	3622.39
955.122	3547.36
955.426	3547.36
955.731	3594.59
956.035	3548.49
956.339	3509.63
956.643	3459.46
956.948	3478.21
957.252	3440.7
957.556	3416.52
957.86	3457.88
958.163	3421.94
958.467	3409.74
958.771	3384.43
959.075	3335.17
959.378	3340.59
959.682	3356.41
959.985	3362.28
960.289	3308.5
960.592	3288.61
960.896	3312.34
961.199	3244.77
961.502	3284.77
961.805	3249.75
962.108	3236.19
962.411	3228.95
962.714	3183.31
963.017	3194.15
963.32	3156.41
963.623	3143.99
963.926	3140.82
964.228	3145.57
964.531	3116.64
964.833	3087.94
965.136	3066.02
965.438	3063.08
965.741	3063.31
966.043	3030.32
966.345	3031.67
966.648	3011.33
966.95	3036.19
967.252	2973.37
967.554	2962.29
967.856	2976.08
968.158	2966.36
968.46	2975.85
968.761	2900.15
969.063	2910.32
969.365	2944.89
969.666	2907.83
969.968	2859.7
970.269	2862.18
970.571	2838.68
970.872	2905.57
971.174	2833.03
971.475	2827.84
971.776	2814.73
972.077	2796.42
972.378	2769.76
972.679	2774.96
972.98	2753.03
973.281	2733.37
973.582	2726.14
973.883	2719.36
974.183	2709.65
974.484	2690.89
974.785	2698.35
975.085	2662.42
975.386	2707.61
975.686	2641.63
975.986	2618.8
976.287	2655.64
976.587	2589.65
976.887	2600.04
977.187	2594.62
977.487	2593.49
977.787	2594.85
978.087	2578.8
978.387	2563.89
978.687	2541.74
978.987	2541.97
979.286	2512.36
979.586	2518.24
979.885	2524.79
980.185	2517.79
980.484	2494.96
980.784	2464.68
981.083	2459.94
981.382	2442.53
981.682	2434.4
981.981	2419.26
982.28	2424.91
982.579	2376.1
982.878	2397.11
983.177	2393.5
983.475	2340.84
983.774	2359.6
984.073	2332.71
984.372	2328.64
984.67	2344.23
984.969	2340.84
985.267	2320.96
985.566	2308.3
985.864	2298.58
986.162	2276.44
986.461	2303.1
986.759	2270.56
987.057	2220.62
987.355	2254.74
987.653	2227.63
987.951	2208.19
988.249	2203.67
988.547	2224.46
988.844	2185.59
989.142	2191.02
989.44	2162.09
989.737	2200.73
990.035	2163.45
990.332	2115.54
990.63	2127.97
990.927	2115.09
991.224	2126.84
991.521	2084.8
991.819	2067.63
992.116	2108.98
992.413	2070.57
992.71	2062.43
993.006	2048.42
993.303	2067.18
993.6	2033.96
993.897	2014.75
994.193	2033.28
994.49	2030.34
994.787	1956.45
995.083	1981.76
995.379	2002.09
995.676	1987.18
995.972	1936.11
996.268	1928.65
996.565	1948.31
996.861	1927.52
997.157	1924.36
997.453	1908.54
997.749	1900.85
998.044	1856.79
998.34	1868.31
998.636	1899.72
998.932	1906.96
999.227	1855.88
999.523	1859.73
999.818	1847.3
1000.114	1810.46
1000.409	1859.95
1000.704	1807.75
1001	1804.59
1001.295	1783.34
1001.59	1766.62
1001.885	1780.41
1002.18	1757.58
1002.475	1756.23
1002.77	1765.49
1003.065	1761.2
1003.359	1750.8
1003.654	1704.93
1003.949	1725.49
1004.243	1682.55
1004.538	1710.8
1004.832	1682.1
1005.127	1690.01
1005.421	1667.19
1005.715	1680.97
1006.009	1661.09
1006.304	1643.23
1006.598	1645.72
1006.892	1650.69
1007.186	1629.9
1007.48	1614.76
1007.773	1588.77
1008.067	1584.93
1008.361	1584.25
1008.655	1611.6
1008.948	1572.28
1009.242	1570.47
1009.535	1564.59
1009.829	1574.53
1010.122	1524.37
1010.415	1540.19
1010.708	1512.62
1011.001	1515.78
1011.295	1484.59
1011.588	1494.31
1011.881	1517.36
1012.173	1469.9
1012.466	1441.21
1012.759	1472.39
1013.052	1433.97
1013.344	1442.56
1013.637	1431.04
1013.93	1417.93
1014.222	1439.85
1014.514	1423.35
1014.807	1389
1015.099	1377.25
1015.391	1410.47
1015.683	1375.9
1015.976	1373.41
1016.268	1362.11
1016.56	1343.13
1016.851	1353.07
1017.143	1336.35
1017.435	1327.31
1017.727	1349
1018.018	1301.32
1018.31	1297.71
1018.602	1278.72
1018.893	1278.27
1019.185	1298.61
1019.476	1278.72
1019.767	1279.85
1020.058	1239.4
1020.35	1246.63
1020.641	1237.37
1020.932	1253.64
1021.223	1207.54
1021.514	1211.83
1021.804	1227.2
1022.095	1203.47
1022.386	1200.53
1022.677	1202.57
1022.967	1212.28
1023.258	1201.66
1023.548	1155.11
1023.839	1157.82
1024.129	1135.68
1024.419	1167.54
1024.709	1168.9
1025	1124.15
1025.29	1133.42
1025.58	1142.46
1025.87	1118.5
1026.16	1110.14
1026.449	1087.32
1026.739	1085.51
1027.029	1080.08
1027.319	1073.98
1027.608	1065.85
1027.898	1054.55
1028.187	1087.09
1028.477	1059.29
1028.766	1036.7
1029.055	1045.96
1029.344	1026.07
1029.634	1034.21
1029.923	1004.15
1030.212	1003.02
1030.501	1005.51
1030.79	1010.26
1031.078	986.75
1031.367	995.79
1031.656	1015.68
1031.945	998.5
1032.233	973.65
1032.522	950.14
1032.81	958.96
1033.099	939.07
1033.387	934.78
1033.675	952.4
1033.963	952.86
1034.251	958.73
1034.54	924.16
1034.828	932.52
1035.116	919.86
1035.403	930.94
1035.691	882.8
1035.979	880.09
1036.267	895.46
1036.554	888
1036.842	885.06
1037.129	855.23
1037.417	863.59
1037.704	858.4
1037.992	857.27
1038.279	839.19
1038.566	855.46
1038.853	855.46
1039.14	855.46
