Data from hue_100_FLMS001491_00032.txt Node
Date: Tue Feb 07 17:03:04 GMT 2017
User: dcchb
Spectrometer: FLMS00149
Trigger mode: 0
Integration Time (sec): 2.000000E-2
Scans to average: 10
Electric dark correction enabled: true
Nonlinearity correction enabled: false
Boxcar width: 0
XAxis mode: Wavelengths
Number of Pixels in Spectrum: 2048
>>>>>Begin Spectral Data<<<<<
341.393	-23.62
341.776	-23.62
342.16	-23.62
342.543	-47.8
342.927	-73.78
343.31	-62.48
343.693	-86.21
344.077	-61.58
344.46	-48.7
344.843	-60
345.226	-44.41
345.61	-18.87
345.993	-32.65
346.376	11.86
346.759	20.68
347.142	3.95
347.525	38.98
347.908	47.57
348.291	72.2
348.674	101.58
349.057	118.08
349.44	131.18
349.823	165.53
350.206	145.42
350.588	210.73
350.971	231.75
351.354	236.49
351.737	251.18
352.119	268.58
352.502	262.7
352.884	281.46
353.267	280.33
353.65	283.04
354.032	307.45
354.414	309.48
354.797	314
355.179	316.26
355.562	339.54
355.944	333.21
356.326	332.99
356.709	333.66
357.091	334.34
357.473	338.64
357.855	373.66
358.238	351.06
358.62	350.16
359.002	363.49
359.384	340.67
359.766	337.05
360.148	357.39
360.53	354.68
360.912	339.99
361.294	344.96
361.676	337.28
362.057	338.18
362.439	343.83
362.821	342.02
363.203	343.38
363.584	332.08
363.966	345.19
364.348	330.73
364.729	319.65
365.111	322.36
365.493	310.84
365.874	317.17
366.256	317.62
366.637	328.69
367.019	316.71
367.4	321.69
367.781	328.24
368.163	335.02
368.544	342.48
368.925	333.66
369.306	342.02
369.688	322.59
370.069	314
370.45	293.89
370.831	317.62
371.212	327.56
371.593	312.2
371.974	331.4
372.355	334.57
372.736	309.71
373.117	319.43
373.498	339.77
373.879	341.35
374.26	330.73
374.641	332.99
375.021	322.59
375.402	303.38
375.783	347.67
376.163	325.08
376.544	345.19
376.925	326.88
377.305	316.94
377.686	337.51
378.066	364.4
378.447	333.44
378.827	361.91
379.208	356.26
379.588	340.44
379.968	331.18
380.349	368.69
380.729	360.1
381.109	354.23
381.489	369.14
381.87	393.1
382.25	372.08
382.63	372.98
383.01	379.76
383.39	361.01
383.77	356.49
384.15	356.94
384.53	367.33
384.91	347.45
385.29	376.6
385.67	388.35
386.049	371.63
386.429	391.97
386.809	380.44
387.189	371.18
387.568	391.52
387.948	377.28
388.328	374.34
388.707	396.26
389.087	370.05
389.466	422.7
389.846	402.36
390.225	404.62
390.605	391.74
390.984	403.49
391.363	408.92
391.743	378.63
392.122	377.28
392.501	376.37
392.881	413.66
393.26	427.67
393.639	409.37
394.018	395.81
394.397	411.18
394.776	404.17
395.155	410.27
395.534	449.82
395.913	419.09
396.292	418.18
396.671	440.33
397.05	444.17
397.429	430.38
397.808	429.03
398.186	412.08
398.565	440.55
398.944	434.68
399.323	444.17
399.701	457.28
400.08	460.67
400.458	439.88
400.837	454.34
401.215	445.07
401.594	450.95
401.972	433.1
402.351	456.37
402.729	466.32
403.107	483.04
403.486	481.46
403.864	465.86
404.242	467.45
404.62	470.38
404.999	469.71
405.377	460.44
405.755	481
406.133	473.77
406.511	489.59
406.889	483.49
407.267	489.37
407.645	484.17
408.023	503.15
408.401	494.79
408.779	530.49
409.156	511.51
409.534	519.65
409.912	512.87
410.29	535.24
410.667	539.31
411.045	559.19
411.422	538.18
411.8	518.29
412.178	528.01
412.555	540.44
412.933	550.83
413.31	562.58
413.687	590.15
414.065	542.7
414.442	547.44
414.819	550.83
415.197	560.32
415.574	586.09
415.951	608.46
416.328	591.51
416.705	570.04
417.082	588.8
417.46	596.03
417.837	593.54
418.214	616.14
418.591	614.11
418.967	594.67
419.344	619.08
419.721	628.12
420.098	603.71
420.475	633.77
420.852	647.78
421.228	617.5
421.605	658.85
421.982	663.15
422.358	643.71
422.735	661.56
423.111	665.86
423.488	666.76
423.864	670.6
424.241	709.92
424.617	670.83
424.994	685.52
425.37	699.08
425.746	686.2
426.123	717.38
426.499	701.34
426.875	707.89
427.251	748.34
427.627	735.69
428.003	742.69
428.379	744.95
428.756	749.7
429.132	749.7
429.507	744.73
429.883	784.5
430.259	792.41
430.635	799.19
431.011	788.79
431.387	803.26
431.763	841.22
432.138	805.97
432.514	841.45
432.89	843.48
433.265	851.16
433.641	838.96
434.016	860.66
434.392	863.14
434.767	889.58
435.143	879.19
435.518	912.86
435.894	924.38
436.269	915.34
436.644	918.28
437.02	928
437.395	929.13
437.77	944.49
438.145	963.7
438.52	958.96
438.895	964.38
439.271	972.06
439.646	977.26
440.021	1003.93
440.395	1003.02
440.77	991.05
441.145	991.73
441.52	1031.95
441.895	1013.65
442.27	1022.46
442.645	1012.29
443.019	1056.81
443.394	1042.8
443.769	1064.94
444.143	1069.01
444.518	1085.73
444.892	1079.41
445.267	1097.94
445.641	1091.38
446.016	1104.72
446.39	1114.21
446.764	1102.91
447.139	1122.34
447.513	1125.28
447.887	1149.24
448.262	1163.7
448.636	1156.92
449.01	1145.62
449.384	1176.58
449.758	1157.14
450.132	1218.16
450.506	1185.62
450.88	1168.22
451.254	1218.84
451.628	1237.14
452.002	1245.96
452.376	1246.63
452.75	1237.59
453.123	1279.63
453.497	1311.26
453.871	1300.64
454.244	1318.95
454.618	1317.14
454.992	1360.76
455.365	1352.85
455.739	1389.23
456.112	1399.62
456.486	1415.44
456.859	1417.93
457.232	1447.76
457.606	1464.26
457.979	1476.91
458.352	1519.85
458.725	1530.02
459.099	1506.74
459.472	1531.6
459.845	1547.64
460.218	1572.5
460.591	1605.27
460.964	1596
461.337	1643.23
461.71	1679.62
462.083	1686.17
462.456	1717.58
462.829	1716.23
463.201	1742.89
463.574	1740.18
463.947	1767.98
464.32	1855.88
464.692	1847.52
465.065	1854.75
465.438	1870.57
465.81	1929.55
466.183	1946.95
466.555	1988.08
466.928	2008.87
467.3	2002.77
467.672	2029.44
468.045	2127.97
468.417	2106.05
468.789	2127.06
469.161	2145.14
469.534	2225.37
469.906	2268.75
470.278	2300.84
470.65	2311.24
471.022	2364.8
471.394	2422.87
471.766	2433.5
472.138	2503.32
472.51	2553.27
472.882	2584.23
473.253	2649.99
473.625	2678.23
473.997	2752.81
474.369	2791.45
474.74	2846.59
475.112	2912.8
475.484	2968.85
475.855	3058.79
476.227	3145.12
476.598	3216.53
476.97	3255.17
477.341	3355.96
477.713	3448.61
478.084	3477.76
478.455	3639.57
478.827	3656.51
479.198	3799.56
479.569	3874.36
479.94	4012.89
480.311	4024.64
480.682	4163.85
481.053	4297.18
481.424	4391.64
481.795	4483.38
482.166	4696.49
482.537	4721.34
482.908	4844.05
483.279	4986.2
483.65	5156.81
484.021	5238.17
484.391	5336.92
484.762	5464.38
485.133	5560.87
485.503	5752.5
485.874	5900.3
486.244	6046.28
486.615	6168.76
486.985	6295.54
487.356	6494.41
487.726	6600.39
488.097	6806.49
488.467	6901.17
488.837	7151.79
489.207	7304.78
489.578	7442.18
489.948	7556.98
490.318	7809.4
490.688	7833.35
491.058	8131.42
491.428	8267.01
491.798	8437.18
492.168	8646.67
492.538	8763.72
492.908	8957.39
493.278	9144.28
493.648	9234.45
494.017	9403.93
494.387	9591.27
494.757	9786.52
495.126	9963.01
495.496	10020.87
495.866	10114.65
496.235	10315.55
496.605	10553.96
496.974	10707.63
497.344	10773.84
497.713	10978.36
498.082	11040.95
498.452	11282.3
498.821	11394.84
499.19	11448.85
499.559	11558
499.928	11674.83
500.298	11911.21
500.667	12018.78
501.036	12052.68
501.405	12279.56
501.774	12398.21
502.143	12524.98
502.512	12562.95
502.88	12715.48
503.249	12751.87
503.618	12965.42
503.987	13035.25
504.356	13130.16
504.724	13351.85
505.093	13356.15
505.462	13476.37
505.83	13652.18
506.199	13644.27
506.567	13873.65
506.936	13937.15
507.304	14111.61
507.672	14145.73
508.041	14248.55
508.409	14309.34
508.777	14423.91
509.145	14566.06
509.514	14492.84
509.882	14569.9
510.25	14762.21
510.618	14903.68
510.986	14891.92
511.354	14957.01
511.722	15142.09
512.09	15194.52
512.458	15205.59
512.826	15385.02
513.193	15408.52
513.561	15402.19
513.929	15622.08
514.297	15663.2
514.664	15753.37
515.032	15802.41
515.4	15913.82
515.767	15939.58
516.135	15982.52
516.502	15846.7
516.869	16239.46
517.237	16166.69
517.604	16137.54
517.972	16279.46
518.339	16309.29
518.706	16310.64
519.073	16426.57
519.44	16499.57
519.808	16528.27
520.175	16543.63
520.542	16796.51
520.909	16758.32
521.276	16880.8
521.643	16820.91
522.009	16928.71
522.376	16950.85
522.743	17064.07
523.11	17303.61
523.477	17252.31
523.843	17224.97
524.21	17454.34
524.577	17429.03
524.943	17545.19
525.31	17592.19
525.676	17640.1
526.043	17702.02
526.409	17750.83
526.776	17799.42
527.142	17832.64
527.508	17935.01
527.874	17899.08
528.241	17933.65
528.607	17964.39
528.973	18135.23
529.339	18031.28
529.705	18139.3
530.071	18144.27
530.437	18196.24
530.803	18263.14
531.169	18322.12
531.535	18220.2
531.901	18251.38
532.267	18313.53
532.632	18341.33
532.998	18258.39
533.364	18377.03
533.73	18355.79
534.095	18475.56
534.461	18335
534.826	18324.38
535.192	18485.95
535.557	18507.42
535.923	18400.76
536.288	18417.48
536.653	18428.1
537.019	18304.49
537.384	18358.95
537.749	18399.18
538.114	18311.5
538.479	18350.36
538.845	18363.02
539.21	18245.73
539.575	18337.26
539.94	18246.41
540.305	18318.73
540.67	18260.88
541.034	18151.27
541.399	18243.93
541.764	18187.21
542.129	18191.5
542.494	18147.43
542.858	18182.91
543.223	18100.88
543.587	18258.39
543.952	18133.42
544.316	18080.77
544.681	18070.37
545.045	18078.73
545.41	18209.13
545.774	18085.51
546.138	17997.15
546.503	17966.19
546.867	17965.29
547.231	18008
547.595	17994.22
547.959	17978.85
548.324	17843.03
548.688	17820.66
549.052	17810.49
549.416	17873.77
549.779	17822.02
550.143	17822.47
550.507	17791.06
550.871	17782.92
551.235	17723.71
551.599	17829.93
551.962	17687.56
552.326	17715.58
552.689	17766.88
553.053	17582.93
553.417	17683.72
553.78	17772.08
554.143	17640.55
554.507	17559.65
554.87	17700.44
555.234	17834.67
555.597	17631.29
555.96	17659.76
556.323	17752.41
556.686	17527.79
557.05	17693.89
557.413	17668.8
557.776	17606.43
558.139	17697.05
558.502	17696.37
558.865	17639.65
559.228	17723.71
559.59	17724.39
559.953	17733.88
560.316	17799.42
560.679	17810.49
561.041	17862.02
561.404	17909.02
561.767	17858.85
562.129	17837.16
562.492	17838.51
562.854	17843.03
563.217	17865.63
563.579	17979.08
563.941	17945.86
564.304	17982.47
564.666	18068.34
565.028	18036.93
565.39	18048.45
565.753	18178.62
566.115	18122.57
566.477	18126.19
566.839	18102.91
567.201	18283.93
567.563	18254.55
567.925	18281.89
568.287	18367.77
568.648	18323.92
569.01	18417.03
569.372	18438.27
569.734	18361.66
570.095	18514.88
570.457	18464.71
570.819	18530.25
571.18	18584.48
571.542	18743.12
571.903	18601.43
572.265	18527.76
572.626	18703.58
572.987	18664.71
573.349	18621.09
573.71	18695.67
574.071	18742.9
574.432	18751.26
574.794	18865.38
575.155	18794.65
575.516	18777.47
575.877	18755.78
576.238	18788.55
576.599	18819.73
576.96	18832.16
577.32	18676.23
577.681	18876.23
578.042	18881.65
578.403	18909.67
578.763	18951.93
579.124	18892.27
579.485	18906.28
579.845	19027.18
580.206	18871.26
580.566	18948.09
580.927	18942.89
581.287	18944.93
581.648	18900.18
582.008	18895.44
582.368	18921.2
582.728	18978.37
583.089	18896.57
583.449	18833.06
583.809	19034.87
584.169	18864.93
584.529	18850.46
584.889	18979.95
585.249	18941.31
585.609	18721.43
585.969	18836
586.329	18902.89
586.688	18943.57
587.048	18806.62
587.408	18781.31
587.768	18771.82
588.127	18767.3
588.487	18758.26
588.846	18897.47
589.206	18710.58
589.565	18752.61
589.925	18783.35
590.284	18697.25
590.643	18796.45
591.003	18748.77
591.362	18925.72
591.721	18826.74
592.08	18757.59
592.44	18784.93
592.799	18839.17
593.158	18754.87
593.517	18704.03
593.876	18763.24
594.235	18701.99
594.593	18729.79
594.952	18720.52
595.311	18692.05
595.67	18672.16
596.029	18814.08
596.387	18720.98
596.746	18808.21
597.104	18638.94
597.463	18662.9
597.822	18663.35
598.18	18513.3
598.538	18564.6
598.897	18792.16
599.255	18511.49
599.613	18758.04
599.972	18730.24
600.33	18605.95
600.688	18555.78
601.046	18748.09
601.404	18691.15
601.762	18650.02
602.12	18765.72
602.478	18698.83
602.836	18768.21
603.194	18687.98
603.552	18658.83
603.91	18560.53
604.268	18723.24
604.625	18562.79
604.983	18704.03
605.341	18548.55
605.698	18650.24
606.056	18723.24
606.413	18748.32
606.771	18783.8
607.128	18819.51
607.485	18687.53
607.843	18640.98
608.2	18789.22
608.557	18831.03
608.914	18731.15
609.272	18850.92
609.629	18889.33
609.986	18885.49
610.343	18914.87
610.7	18988.31
611.057	19036.9
611.414	18900.63
611.771	18927.3
612.127	18987.18
612.484	18962.55
612.841	19030.35
613.198	18968.88
613.554	19000.07
613.911	19079.61
614.267	19079.84
614.624	19071.93
614.98	19048.2
615.337	19057.01
615.693	19115.99
616.05	19203.68
616.406	19254.97
616.762	19110.34
617.118	19131.14
617.475	19088.88
617.831	19226.05
618.187	19287.52
618.543	19278.7
618.899	19369.1
619.255	19232.38
619.611	19231.7
619.967	19301.75
620.323	19486.15
620.678	19425.59
621.034	19273.96
621.39	19232.6
621.746	19285.03
622.101	19454.74
622.457	19249.32
622.812	19371.13
623.168	19305.14
623.523	19260.4
623.879	19406.16
624.234	19274.63
624.589	19335.88
624.945	19315.54
625.3	19330.45
625.655	19326.61
626.01	19373.61
626.365	19318.02
626.72	19294.29
627.075	19310.34
627.43	19375.87
627.785	19166.16
628.14	19270.34
628.495	19243
628.85	19250.45
629.205	19140.4
629.559	19345.14
629.914	19173.39
630.269	19220.4
630.623	19123
630.978	19143.56
631.332	19184.47
631.687	19301.98
632.041	19060.18
632.396	19173.39
632.75	18962.1
633.104	19031.7
633.459	18838.71
633.813	18950.8
634.167	18988.31
634.521	18940.41
634.875	19000.74
635.229	18943.8
635.583	18821.09
635.937	18834.19
636.291	18788.32
636.645	18872.61
636.999	18709
637.352	18837.13
637.706	18666.51
638.06	18741.32
638.413	18678.72
638.767	18706.51
639.121	18726.17
639.474	18636.46
639.828	18553.07
640.181	18605.05
640.534	18606.63
640.888	18554.65
641.241	18495.22
641.594	18626.52
641.947	18654.09
642.301	18565.95
642.654	18624.93
643.007	18552.62
643.36	18487.31
643.713	18502.9
644.066	18589.45
644.419	18391.95
644.771	18303.81
645.124	18205.28
645.477	18122.12
645.83	18074.44
646.182	17930.26
646.535	17908.12
646.888	17926.2
647.24	17801.9
647.593	17893.65
647.945	17972.07
648.298	17787.22
648.65	17824.5
649.002	17762.36
649.355	17777.27
649.707	17795.8
650.059	17933.88
650.411	18115.12
650.763	18069.02
651.115	18272.63
651.467	18251.38
651.819	18196.02
652.171	18117.6
652.523	18077.15
652.875	18212.97
653.227	18026.31
653.578	18264.27
653.93	18191.5
654.282	18113.31
654.633	18077.83
654.985	18172.74
655.337	18140.65
655.688	18083.93
656.039	18220.42
656.391	18008.68
656.742	18123.93
657.094	18043.03
657.445	18150.82
657.796	18220.42
658.147	18213.65
658.498	18067.66
658.849	18196.47
659.2	18119.64
659.551	18080.09
659.902	18228.79
660.253	18103.82
660.604	18246.64
660.955	18182.23
661.306	18197.6
661.656	18141.78
662.007	18241.22
662.358	18285.96
662.708	18236.24
663.059	18148.56
663.409	18157.15
663.76	18270.59
664.11	18193.08
664.461	18147.21
664.811	18078.51
665.161	18125.51
665.511	18167.09
665.862	18170.71
666.212	18173.65
666.562	18223.36
666.912	18124.83
667.262	18139.98
667.612	18170.26
667.962	18228.79
668.312	18152.18
668.662	18325.96
669.011	18269.24
669.361	18134.78
669.711	18204.15
670.06	18176.58
670.41	18161.44
670.76	18156.47
671.109	18238.28
671.459	18197.6
671.808	18114.21
672.157	18142.46
672.507	18009.58
672.856	18014.78
673.205	18034.89
673.554	18093.2
673.904	17926.65
674.253	18065.85
674.602	17963.26
674.951	17709.7
675.3	17586.32
675.649	17898.85
675.998	17834.67
676.346	17991.73
676.695	17912.64
677.044	17806.88
677.393	17740.44
677.741	17864.95
678.09	17789.48
678.438	17778.85
678.787	17755.8
679.135	17759.65
679.484	17655.47
679.832	17645.3
680.181	17606.43
680.529	17586.54
680.877	17525.98
681.225	17615.02
681.573	17681.46
681.922	17457.96
682.27	17392.88
682.618	17462.25
682.966	17371.41
683.314	17433.1
683.661	17321.92
684.009	17265.2
684.357	17275.82
684.705	17259.55
685.053	17295.93
685.4	17145.65
685.748	17098.19
686.095	17054.58
686.443	16989.72
686.79	17025.2
687.138	17045.09
687.485	17039.44
687.832	16873.34
688.18	16825.66
688.527	16787.92
688.874	16833.12
689.221	16753.12
689.568	16686
689.915	16693.69
690.262	16613.46
690.609	16567.59
690.956	16501.83
691.303	16476.74
691.65	16467.93
691.997	16467.48
692.344	16322.85
692.69	16271.78
693.037	16319.68
693.383	16217.99
693.73	16218.44
694.077	16008.73
694.423	16073.59
694.769	16012.35
695.116	15989.75
695.462	15941.39
695.808	15946.13
696.155	15813.26
696.501	15734.84
696.847	15745.01
697.193	15572.36
697.539	15675.86
697.885	15539.59
698.231	15465.47
698.577	15479.71
698.923	15422.31
699.269	15320.16
699.614	15249.43
699.96	15190.9
700.306	15178.47
700.651	15057.34
700.997	15098.02
701.342	14997.68
701.688	14881.98
702.033	14942.77
702.379	14938.48
702.724	14848.54
703.069	14798.14
703.415	14747.52
703.76	14640.86
704.105	14659.61
704.45	14673.63
704.795	14497.36
705.14	14513.86
705.485	14493.97
705.83	14413.97
706.175	14393.41
706.52	14413.52
706.865	14348.44
707.209	14319.96
707.554	14211.26
707.899	14216.91
708.243	14088.78
708.588	14020.76
708.932	13970.82
709.277	13917.04
709.621	13989.58
709.966	13813.99
710.31	13913.42
710.654	13691.96
710.998	13803.37
711.342	13783.48
711.687	13758.17
712.031	13683.14
712.375	13675.01
712.719	13711.16
713.063	13602.24
713.407	13678.17
713.75	13509.59
714.094	13496.26
714.438	13560.43
714.782	13518.18
715.125	13454.9
715.469	13515.69
715.812	13347.33
716.156	13348.69
716.499	13431.85
716.843	13297.39
717.186	13235.92
717.53	13324.51
717.873	13293.77
718.216	13247.45
718.559	13167.45
718.902	13080.22
719.246	13177.85
719.589	13104.85
719.932	13120.22
720.275	13055.59
720.617	13055.14
720.96	13047
721.303	13011.3
721.646	13130.39
721.989	12936.95
722.331	12994.57
722.674	13060.79
723.016	12975.14
723.359	12955.7
723.701	12976.49
724.044	12893.56
724.386	12880.9
724.729	12875.03
725.071	12860.11
725.413	12857.63
725.755	12821.24
726.097	12773.79
726.439	12706.9
726.782	12743.73
727.124	12821.7
727.465	12733.56
727.807	12719.1
728.149	12695.37
728.491	12704.41
728.833	12747.35
729.175	12649.05
729.516	12624.19
729.858	12662.83
730.199	12695.37
730.541	12660.35
730.882	12601.36
731.224	12698.31
731.565	12667.12
731.906	12596.62
732.248	12641.81
732.589	12575.15
732.93	12508.94
733.271	12518.2
733.612	12558.88
733.953	12559.56
734.294	12591.19
734.635	12527.69
734.976	12648.82
735.317	12598.88
735.658	12525.66
735.999	12578.54
736.339	12527.92
736.68	12643.17
737.021	12566.79
737.361	12548.94
737.702	12649.5
738.042	12573.79
738.383	12522.27
738.723	12572.66
739.063	12582.38
739.404	12632.32
739.744	12580.57
740.084	12576.73
740.424	12521.37
740.764	12534.7
741.104	12669.16
741.444	12552.55
741.784	12531.99
742.124	12682.72
742.464	12615.15
742.804	12690.85
743.143	12717.29
743.483	12726.78
743.823	12660.57
744.162	12689.5
744.502	12786.22
744.841	12734.02
745.181	12827.8
745.52	12842.94
745.86	12931.75
746.199	12957.96
746.538	12972.88
746.877	13041.8
747.216	13179.65
747.556	13108.24
747.895	13195.92
748.234	13251.06
748.573	13259.65
748.911	13344.39
749.25	13326.77
749.589	13469.14
749.928	13564.28
750.267	13662.35
750.605	13674.1
750.944	13741.22
751.283	13813.54
751.621	13956.13
751.96	14021.67
752.298	14086.3
752.636	14254.65
752.975	14242.68
753.313	14335.78
753.651	14577.81
753.989	14601.99
754.327	14737.58
754.666	14785.03
755.004	14926.95
755.342	15109.32
755.679	15280.62
756.017	15361.97
756.355	15554.28
756.693	15647.39
757.031	15901.39
757.368	15869.75
757.706	15990.43
758.044	16228.61
758.381	16543.63
758.719	16587.47
759.056	16826.79
759.394	16927.8
759.731	17094.58
760.068	17244.63
760.405	17301.35
760.743	17483.04
761.08	17720.33
761.417	17766.88
761.754	17952.64
762.091	18173.87
762.428	18332.74
762.765	18499.29
763.102	18612.73
763.438	18766.4
763.775	18864.48
764.112	19076.9
764.449	19248.65
764.785	19551.69
765.122	19512.82
765.458	19568.86
765.795	19844.56
766.131	19915.07
766.467	19999.36
766.804	20155.06
767.14	20231.9
767.476	20430.99
767.812	20550.31
768.148	20677.31
768.485	20773.13
768.821	20783.75
769.157	20942.84
769.492	21115.72
769.828	21261.93
770.164	21225.09
770.5	21246.11
770.836	21494.46
771.171	21504.18
771.507	21667.79
771.842	21672.31
772.178	21867.33
772.513	21772.42
772.849	21881.35
773.184	22076.37
773.519	22020.78
773.855	21945.07
774.19	22065.52
774.525	22206.99
774.86	22236.82
775.195	22272.75
775.53	22290.83
775.865	22319.07
776.2	22224.39
776.535	22257.83
776.87	22385.06
777.205	22393.2
777.539	22324.72
777.874	22466.64
778.209	22297.61
778.543	22298.06
778.878	22348
779.212	22419.18
779.547	22291.28
779.881	22508.67
780.215	22515
780.55	22463.48
780.884	22370.37
781.218	22442.91
781.552	22499.86
781.886	22356.59
782.22	22227.55
782.554	22375.8
782.888	22189.13
783.222	22258.06
783.556	22109.81
783.889	22311.84
784.223	22056.93
784.557	21954.56
784.89	22066.43
785.224	22126.31
785.557	21941.01
785.891	21905.98
786.224	21965.41
786.558	21971.06
786.891	21808.81
787.224	21708.69
787.557	21716.6
787.891	21759.09
788.224	21659.66
788.557	21799.09
788.89	21718.19
789.223	21577.17
789.556	21544.18
789.888	21539.21
790.221	21573.11
790.554	21269.38
790.887	21353
791.219	21170.4
791.552	21268.71
791.884	21106.22
792.217	21120.91
792.549	21193.91
792.882	21031.88
793.214	20959.11
793.546	21055.38
793.879	20934.93
794.211	20812.22
794.543	20845.21
794.875	20894.48
795.207	20854.25
795.539	20736.52
795.871	20863.07
796.203	20619.91
796.535	20467.6
796.867	20508.05
797.198	20471.44
797.53	20490.42
797.862	20395.06
798.193	20359.8
798.525	20317.77
798.856	20318.45
799.188	20182.18
799.519	20079.36
799.85	19950.1
800.182	20051.34
800.513	19965.69
800.844	19902.64
801.175	19924.79
801.506	19923.66
801.837	19732.48
802.168	19786.94
802.499	19616.77
802.83	19609.77
803.161	19598.02
803.491	19509.43
803.822	19523.22
804.153	19441.18
804.483	19246.84
804.814	19304.24
805.145	19230.79
805.475	19260.17
805.805	19181.08
806.136	19184.02
806.466	19179.27
806.796	19049.78
807.126	18907.64
807.457	18963.91
807.787	18997.35
808.117	18907.19
808.447	18855.66
808.777	18835.32
809.107	18736.57
809.436	18683.01
809.766	18687.98
810.096	18567.99
810.426	18555.56
810.755	18465.84
811.085	18493.86
811.414	18481.43
811.744	18363.47
812.073	18361.89
812.403	18383.58
812.732	18221.78
813.061	18233.53
813.39	18076.7
813.719	18140.2
814.049	18228.11
814.378	18093.42
814.707	17996.25
815.036	18108.11
815.365	18037.15
815.693	17861.56
816.022	17887.78
816.351	17828.12
816.68	17761.45
817.008	17815.69
817.337	17701.34
817.665	17635.36
817.994	17671.74
818.322	17723.49
818.651	17503.83
818.979	17483.72
819.307	17566.66
819.636	17543.83
819.964	17370.28
820.292	17520.1
820.62	17447.79
820.948	17351.75
821.276	17455.93
821.604	17352.43
821.932	17369.83
822.259	17478.75
822.587	17284.86
822.915	17326.21
823.243	17385.19
823.57	17379.32
823.898	17311.97
824.225	17175.48
824.553	17347.23
824.88	17271.07
825.207	17385.64
825.535	17294.57
825.862	17440.56
826.189	17323.05
826.516	17379.99
826.843	17380.67
827.17	17415.25
827.497	17402.14
827.824	17302.03
828.151	17383.61
828.478	17441.01
828.805	17498.86
829.131	17314.46
829.458	17394.23
829.785	17302.03
830.111	17373.44
830.438	17432.42
830.764	17394.01
831.09	17396.94
831.417	17262.94
831.743	17420.67
832.069	17283.05
832.395	17148.59
832.722	17272.2
833.048	17302.26
833.374	17271.75
833.7	17157.18
834.026	17221.58
834.351	17251.64
834.677	17147.68
835.003	17190.62
835.329	17162.15
835.654	17089.83
835.98	17042.6
836.306	17058.2
836.631	16959.44
836.956	17010.97
837.282	17033.11
837.607	17013.68
837.932	16925.54
838.258	16988.59
838.583	16834.47
838.908	16794.25
839.233	16784.76
839.558	16777.52
839.883	16796.73
840.208	16659.34
840.533	16711.76
840.858	16762.38
841.182	16759.22
841.507	16597.42
841.832	16636.06
842.156	16617.76
842.481	16541.15
842.805	16487.36
843.13	16468.15
843.454	16476.06
843.778	16425.22
844.103	16324.66
844.427	16317.65
844.751	16285.79
845.075	16223.42
845.399	16132.8
845.723	16191.1
846.047	16192.46
846.371	15999.69
846.695	15983.87
847.019	15881.05
847.343	15748.17
847.666	15640.15
847.99	15620.49
848.313	15648.52
848.637	15559.93
848.96	15556.99
849.284	15527.39
849.607	15479.71
849.931	15314.51
850.254	15219.6
850.577	15247.17
850.9	15065.25
851.223	15105.48
851.546	15000.17
851.869	14882.66
852.192	14887.86
852.515	14802.44
852.838	14783.23
853.161	14763.34
853.483	14671.59
853.806	14615.55
854.129	14652.84
854.451	14620.97
854.774	14508.43
855.096	14445.16
855.419	14435.67
855.741	14346.63
856.063	14350.7
856.385	14254.65
856.708	14213.3
857.03	14203.36
857.352	14121.32
857.674	14127.88
857.996	14009.91
858.318	13920.42
858.64	13993.19
858.961	13943.25
859.283	13852.18
859.605	13843.59
859.926	13871.39
860.248	13806.53
860.57	13716.59
860.891	13760.2
861.212	13620.32
861.534	13664.39
861.855	13566.76
862.176	13645.18
862.498	13584.39
862.819	13601.11
863.14	13512.53
863.461	13422.36
863.782	13432.53
864.103	13439.31
864.424	13375.58
864.745	13390.95
865.065	13431.62
865.386	13291.74
865.707	13328.58
866.027	13302.59
866.348	13274.79
866.668	13249.48
866.989	13208.81
867.309	13192.08
867.63	13188.01
867.95	13118.86
868.27	13075.02
868.59	13148.92
868.91	13092.65
869.23	13051.07
869.55	12985.53
869.87	13157.73
870.19	13043.16
870.51	12943.73
870.83	13048.36
871.15	12932.2
871.469	12863.73
871.789	12903.28
872.109	12954.35
872.428	12864.18
872.748	12858.08
873.067	12817.18
873.386	12794.13
873.706	12840.45
874.025	12762.94
874.344	12712.1
874.663	12692.21
874.982	12663.73
875.301	12732.43
875.62	12606.56
875.939	12624.41
876.258	12609.5
876.577	12563.17
876.896	12608.14
877.214	12480.46
877.533	12506.22
877.852	12453.57
878.17	12492.67
878.489	12429.62
878.807	12434.59
879.125	12378.54
879.444	12395.27
879.762	12311.65
880.08	12393.69
880.398	12309.39
880.716	12327.47
881.034	12234.82
881.352	12278.89
881.67	12160.7
881.988	12161.38
882.306	12205.89
882.624	12082.28
882.941	12088.38
883.259	12024.66
883.577	12004.32
883.894	11987.14
884.212	12097.2
884.529	11983.07
884.846	11902.62
885.164	11954.15
885.481	11892
885.798	11947.82
886.115	11763.19
886.432	11779.24
886.75	11786.47
887.067	11789.86
887.383	11682.07
887.7	11740.37
888.017	11645.68
888.334	11711.67
888.651	11638.68
888.967	11624.89
889.284	11571.56
889.6	11534.05
889.917	11463.54
890.233	11464.22
890.55	11434.16
890.866	11367.5
891.182	11334.28
891.498	11284.34
891.815	11287.5
892.131	11176.54
892.447	11158.46
892.763	11190.33
893.079	11113.27
893.395	11132.7
893.71	11096.32
894.026	11044.34
894.342	11042.08
894.657	10927.74
894.973	10910.56
895.289	10915.31
895.604	10877.57
895.92	10812.03
896.235	10728.42
896.55	10728.19
896.865	10691.81
897.181	10671.24
897.496	10655.2
897.811	10634.64
898.126	10528.88
898.441	10528.88
898.756	10478.93
899.071	10457.24
899.386	10492.27
899.7	10366.39
900.015	10350.12
900.33	10245.27
900.644	10231.71
900.959	10271.71
901.273	10255.89
901.588	10134.54
901.902	10115.1
902.216	10117.59
902.531	10050.02
902.845	10025.61
903.159	10009.12
903.473	9906.52
903.787	9877.37
904.101	9843.7
904.415	9853.19
904.729	9781.32
905.042	9714.21
905.356	9676.47
905.67	9657.03
905.984	9629.46
906.297	9640.99
906.611	9570.93
906.924	9520.31
907.237	9619.07
907.551	9446.64
907.864	9353.31
908.177	9432.41
908.491	9363.03
908.804	9240.77
909.117	9245.97
909.43	9176.37
909.743	9151.51
910.056	9165.97
910.368	9123.71
910.681	9007.33
910.994	8966.2
911.307	8994.68
911.619	8944.28
911.932	8904.51
912.244	8841.46
912.557	8825.19
912.869	8762.14
913.181	8688.02
913.494	8724.63
913.806	8683.05
914.118	8689.83
914.43	8639.89
914.742	8562.83
915.054	8598.3
915.366	8488.03
915.678	8480.34
915.99	8424.52
916.302	8400.34
916.613	8334.13
916.925	8318.09
917.236	8330.06
917.548	8278.31
917.859	8290.97
918.171	8212.55
918.482	8194.47
918.794	8120.35
919.105	8162.16
919.416	8075.61
919.727	8096.62
920.038	7990.64
920.349	8000.58
920.66	7911.77
920.971	7876.97
921.282	7862.73
921.593	7782.96
921.903	7733.47
922.214	7780.25
922.525	7756.07
922.835	7676.52
923.146	7638.78
923.456	7741.15
923.767	7615.51
924.077	7607.37
924.387	7565.79
924.697	7500.48
925.008	7471.1
925.318	7448.73
925.628	7467.26
925.938	7437.43
926.248	7331.9
926.558	7352.01
926.867	7300.03
927.177	7258.68
927.487	7227.04
927.796	7159.47
928.106	7188.62
928.416	7171
928.725	7145.91
929.034	7070.44
929.344	7114.28
929.653	7053.49
929.962	6993.83
930.271	6974.84
930.581	6969.42
930.89	6924.9
931.199	6879.48
931.508	6871.12
931.817	6897.33
932.125	6806.26
932.434	6777.56
932.743	6730.11
933.051	6651.92
933.36	6676.55
933.669	6599.71
933.977	6721.29
934.286	6664.12
934.594	6642.65
934.902	6531.01
935.21	6488.98
935.519	6462.32
935.827	6460.28
936.135	6472.03
936.443	6395.2
936.751	6355.88
937.059	6361.75
937.367	6332.15
937.674	6304.81
937.982	6292.38
938.29	6256.45
938.597	6243.56
938.905	6131.03
939.213	6168.09
939.52	6165.83
939.827	6067.98
940.135	6005.6
940.442	6081.08
940.749	6023.23
941.056	6030.46
941.363	5922.67
941.67	5917.25
941.977	5899.39
942.284	5887.42
942.591	5839.28
942.898	5872.73
943.205	5844.25
943.511	5809.68
943.818	5753.18
944.125	5741.2
944.431	5699.85
944.738	5693.3
945.044	5627.76
945.35	5636.8
945.657	5575.56
945.963	5553.19
946.269	5538.05
946.575	5553.64
946.881	5519.29
947.187	5486.75
947.493	5465.73
947.799	5436.81
948.105	5434.32
948.41	5388.67
948.716	5386.64
949.022	5356.36
949.327	5329.46
949.633	5310.71
949.938	5299.18
950.244	5293.31
950.549	5245.4
950.854	5252.86
951.16	5198.17
951.465	5181.22
951.77	5129.47
952.075	5128.34
952.38	5073.65
952.685	5068.45
952.99	5097.15
953.294	5035.23
953.599	5025.07
953.904	5015.8
954.209	4989.59
954.513	4963.37
954.818	4929.7
955.122	4918.18
955.426	4864.62
955.731	4909.59
956.035	4816.26
956.339	4817.16
956.643	4806.09
956.948	4759.31
957.252	4731.51
957.556	4717.5
957.86	4668.24
958.163	4699.2
958.467	4666.2
958.771	4637.96
959.075	4687.9
959.378	4624.62
959.682	4619.65
959.985	4571.74
960.289	4555.02
960.592	4510.73
960.896	4510.28
961.199	4516.38
961.502	4554.34
961.805	4447.91
962.108	4433.67
962.411	4442.71
962.714	4386.21
963.017	4411.3
963.32	4361.13
963.623	4356.16
963.926	4303.05
964.228	4293.33
964.531	4298.53
964.833	4271.87
965.136	4243.39
965.438	4249.04
965.741	4214.24
966.043	4196.16
966.345	4171.53
966.648	4164.98
966.95	4152.77
967.252	4121.13
967.554	4128.37
967.856	4065.32
968.158	4043.17
968.46	4059.67
968.761	4039.78
969.063	4000.46
969.365	4017.41
969.666	3971.31
969.968	3941.93
970.269	3944.64
970.571	3951.42
970.872	3920.91
971.174	3873.23
971.475	3893.8
971.776	3842.05
972.077	3845.21
972.378	3835.72
972.679	3776.06
972.98	3805.44
973.281	3770.86
973.582	3763.18
973.883	3702.39
974.183	3716.17
974.484	3720.47
974.785	3679.34
975.085	3664.2
975.386	3687.02
975.686	3646.34
975.986	3608.83
976.287	3593.46
976.587	3610.64
976.887	3576.06
977.187	3565.67
977.487	3540.58
977.787	3510.08
978.087	3521.6
978.387	3504.43
978.687	3508.72
978.987	3495.84
979.286	3449.06
979.586	3467.59
979.885	3420.81
980.185	3398.22
980.484	3361.38
980.784	3398.44
981.083	3381.94
981.382	3394.83
981.682	3347.37
981.981	3315.28
982.28	3303.08
982.579	3290.65
982.878	3276.86
983.177	3262.85
983.475	3178.56
983.774	3247.26
984.073	3211.33
984.372	3188.28
984.67	3216.53
984.969	3194.15
985.267	3152.57
985.566	3145.79
985.864	3181.72
986.162	3117.77
986.461	3101.5
986.759	3069.64
987.057	3026.93
987.355	3052.01
987.653	3030.54
987.951	3022.86
988.249	2992.12
988.547	2953.93
988.844	3010.2
989.142	2986.48
989.44	2949.64
989.737	2926.59
990.035	2938.34
990.332	2923.2
990.63	2900.38
990.927	2905.12
991.224	2890.88
991.521	2851.56
991.819	2785.58
992.116	2861.73
992.413	2803.43
992.71	2800.94
993.006	2775.18
993.303	2798.68
993.6	2771.57
993.897	2766.37
994.193	2729.76
994.49	2739.48
994.787	2700.83
995.083	2680.04
995.379	2678.01
995.676	2660.61
995.972	2632.13
996.268	2659.93
996.565	2642.53
996.861	2599.14
997.157	2582.19
997.453	2608.18
997.749	2570.21
998.044	2525.24
998.34	2576.99
998.636	2569.31
998.932	2530.89
999.227	2550.1
999.523	2515.08
999.818	2487.05
1000.114	2472.36
1000.409	2454.96
1000.704	2440.5
1001	2430.78
1001.295	2429.43
1001.59	2455.64
1001.885	2391.46
1002.18	2373.38
1002.475	2367.96
1002.77	2348.98
1003.065	2362.08
1003.359	2336.32
1003.654	2315.08
1003.949	2287.06
1004.243	2287.96
1004.538	2259.04
1004.832	2259.94
1005.127	2226.95
1005.421	2233.5
1005.715	2203.22
1006.009	2192.15
1006.304	2195.31
1006.598	2219.72
1006.892	2143.33
1007.186	2175.87
1007.48	2150.56
1007.773	2133.16
1008.067	2138.59
1008.361	2128.87
1008.655	2105.37
1008.948	2097.68
1009.242	2071.02
1009.535	2036.22
1009.829	2049.32
1010.122	2010.46
1010.415	2024.47
1010.708	2018.59
1011.001	2014.98
1011.295	1965.26
1011.588	1977.46
1011.881	1954.19
1012.173	1940.63
1012.466	1959.38
1012.759	1928.88
1013.052	1925.26
1013.344	1939.5
1013.637	1878.48
1013.93	1890.23
1014.222	1881.42
1014.514	1878.26
1014.807	1897.01
1015.099	1861.08
1015.391	1859.73
1015.683	1830.57
1015.976	1864.02
1016.268	1826.96
1016.56	1754.64
1016.851	1773.17
1017.143	1771.37
1017.435	1736.11
1017.727	1720.29
1018.018	1715.77
1018.31	1715.1
1018.602	1725.94
1018.893	1695.89
1019.185	1696.79
1019.476	1674.65
1019.767	1685.04
1020.058	1635.1
1020.35	1640.52
1020.641	1650.01
1020.932	1626.06
1021.223	1595.55
1021.514	1590.13
1021.804	1598.26
1022.095	1581.99
1022.386	1556
1022.677	1553.74
1022.967	1547.64
1023.258	1538.6
1023.548	1545.84
1023.839	1515.55
1024.129	1528.21
1024.419	1509.68
1024.709	1488.66
1025	1451.15
1025.29	1466.29
1025.58	1454.31
1025.87	1443.01
1026.16	1422.45
1026.449	1420.41
1026.739	1409.12
1027.029	1423.13
1027.319	1415.67
1027.608	1417.7
1027.898	1390.13
1028.187	1363.92
1028.477	1359.17
1028.766	1346.74
1029.055	1324.6
1029.344	1329.8
1029.634	1334.54
1029.923	1347.2
1030.212	1317.14
1030.501	1311.26
1030.79	1261.1
1031.078	1283.02
1031.367	1268.55
1031.656	1250.25
1031.945	1270.59
1032.233	1252.06
1032.522	1238.95
1032.81	1221.78
1033.099	1235.33
1033.387	1211.15
1033.675	1208.89
1033.963	1211.83
1034.251	1200.08
1034.54	1173.19
1034.828	1185.84
1035.116	1159.4
1035.403	1165.73
1035.691	1170.25
1035.979	1161.21
1036.267	1145.39
1036.554	1136.35
1036.842	1129.35
1037.129	1111.72
1037.417	1129.35
1037.704	1113.08
1037.992	1089.8
1038.279	1086.86
1038.566	1074.21
1038.853	1074.21
1039.14	1074.21
