Data from hue_36_FLMS001491_00099.txt Node
Date: Tue Feb 07 17:30:33 GMT 2017
User: dcchb
Spectrometer: FLMS00149
Trigger mode: 0
Integration Time (sec): 2.000000E-2
Scans to average: 10
Electric dark correction enabled: true
Nonlinearity correction enabled: false
Boxcar width: 0
XAxis mode: Wavelengths
Number of Pixels in Spectrum: 2048
>>>>>Begin Spectral Data<<<<<
341.393	-16.1
341.776	-16.1
342.16	-16.1
342.543	-58.81
342.927	-82.77
343.31	-75.08
343.693	-72.14
344.077	-62.43
344.46	-53.16
344.843	-48.64
345.226	-42.09
345.61	-33.05
345.993	-35.99
346.376	-2.54
346.759	15.08
347.142	41.3
347.525	47.85
347.908	55.08
348.291	79.26
348.674	86.72
349.057	99.83
349.44	129.88
349.823	145.93
350.206	165.36
350.588	192.25
350.971	215.31
351.354	218.69
351.737	251.91
352.119	256.43
352.502	269.77
352.884	288.52
353.267	269.77
353.65	286.49
354.032	300.73
354.414	295.98
354.797	302.99
355.179	326.04
355.562	325.81
355.944	338.24
356.326	330.1
356.709	350.67
357.091	339.37
357.473	342.53
357.855	340.73
358.238	352.48
358.62	351.57
359.002	355.64
359.384	358.58
359.766	321.29
360.148	336.21
360.53	345.25
360.912	343.44
361.294	338.92
361.676	345.02
362.057	343.89
362.439	338.92
362.821	321.74
363.203	323.32
363.584	339.37
363.966	306.38
364.348	327.62
364.729	326.71
365.111	324
365.493	327.84
365.874	346.83
366.256	318.13
366.637	317.68
367.019	323.1
367.4	326.26
367.781	330.1
368.163	282.87
368.544	291.01
368.925	312.48
369.306	312.25
369.688	328.07
370.069	321.97
370.45	286.94
370.831	304.57
371.212	322.87
371.593	308.41
371.974	316.77
372.355	313.61
372.736	320.61
373.117	316.32
373.498	319.94
373.879	309.31
374.26	307.05
374.641	325.36
375.021	342.76
375.402	313.83
375.783	324.45
376.163	320.16
376.544	310.9
376.925	338.47
377.305	320.39
377.686	318.13
378.066	313.16
378.447	316.77
378.827	307.28
379.208	342.99
379.588	335.3
379.968	312.03
380.349	331.23
380.729	332.82
381.109	335.3
381.489	329.88
381.87	338.47
382.25	354.74
382.63	334.17
383.01	328.52
383.39	333.04
383.77	362.87
384.15	344.34
384.53	349.31
384.91	332.82
385.29	348.86
385.67	354.06
386.049	359.26
386.429	351.57
386.809	350.22
387.189	357.45
387.568	349.31
387.948	343.44
388.328	351.35
388.707	372.36
389.087	365.36
389.466	379.82
389.846	366.04
390.225	359.03
390.605	350.22
390.984	369.88
391.363	361.97
391.743	366.94
392.122	371.69
392.501	368.3
392.881	384.11
393.26	372.14
393.639	374.62
394.018	376.66
394.397	372.59
394.776	385.47
395.155	378.01
395.534	385.92
395.913	380.05
396.292	385.02
396.671	382.98
397.05	382.31
397.429	376.2
397.808	358.35
398.186	384.11
398.565	372.36
398.944	378.01
399.323	385.24
399.701	385.7
400.08	399.03
400.458	396.77
400.837	399.03
401.215	391.8
401.594	401.29
401.972	395.41
402.351	396.09
402.729	397.22
403.107	388.18
403.486	405.36
403.864	405.58
404.242	401.29
404.62	423.21
404.999	417.33
405.377	412.59
405.755	425.02
406.133	424.57
406.511	425.24
406.889	422.31
407.267	422.76
407.645	432.25
408.023	443.55
408.401	431.34
408.779	434.96
409.156	444
409.534	421.18
409.912	436.54
410.29	454.17
410.667	458.46
411.045	446.49
411.422	427.95
411.8	459.82
412.178	455.3
412.555	448.29
412.933	448.97
413.31	485.35
413.687	464.11
414.065	485.81
414.442	476.32
414.819	456.88
415.197	486.26
415.574	487.61
415.951	501.85
416.328	494.85
416.705	473.15
417.082	494.39
417.46	506.6
417.837	492.81
418.214	497.78
418.591	491.91
418.967	522.19
419.344	513.83
419.721	508.4
420.098	519.7
420.475	496.43
420.852	516.54
421.228	527.39
421.605	520.38
421.982	501.63
422.358	520.38
422.735	528.29
423.111	539.59
423.488	521.96
423.864	532.81
424.241	532.58
424.617	544.11
424.994	548.63
425.37	530.33
425.746	530.55
426.123	536.65
426.499	566.48
426.875	557.89
427.251	566.26
427.627	562.41
428.003	561.06
428.379	582.75
428.756	592.24
429.132	595.18
429.507	585.24
429.883	607.84
430.259	598.8
430.635	609.42
431.011	613.49
431.387	602.41
431.763	615.75
432.138	636.76
432.514	647.38
432.89	637.67
433.265	642.64
433.641	643.54
434.016	661.62
434.392	650.1
434.767	679.7
435.143	659.59
435.518	655.97
435.894	687.84
436.269	688.74
436.644	699.36
437.02	698.68
437.395	702.07
437.77	702.52
438.145	712.47
438.52	691.9
438.895	721.51
439.271	721.51
439.646	719.47
440.021	714.95
440.395	723.31
440.77	714.28
441.145	715.63
441.52	783.2
441.895	751.79
442.27	745.23
442.645	762.18
443.019	735.29
443.394	747.72
443.769	774.16
444.143	756.99
444.518	821.84
444.892	774.61
445.267	791.79
445.641	790.66
446.016	789.53
446.39	805.12
446.764	783.43
447.139	792.24
447.513	826.59
447.887	803.99
448.262	817.32
448.636	820.26
449.01	808.74
449.384	829.98
449.758	843.09
450.132	832.92
450.506	829.53
450.88	833.59
451.254	859.36
451.628	843.54
452.002	855.74
452.376	876.76
452.75	871.78
453.123	884.44
453.497	888.96
453.871	888.51
454.244	919.24
454.618	911.33
454.992	930.54
455.365	947.26
455.739	969.18
456.112	947.04
456.486	952.91
456.859	972.57
457.232	981.39
457.606	999.24
457.979	992.69
458.352	995.85
458.725	1014.61
459.099	1040.37
459.472	1041.5
459.845	1029.97
460.218	1073.81
460.591	1073.59
460.964	1064.1
461.337	1082.63
461.71	1109.97
462.083	1113.59
462.456	1122.63
462.829	1152.23
463.201	1132.12
463.574	1155.62
463.947	1166.92
464.32	1194.26
464.692	1210.08
465.065	1220.02
465.438	1230.65
465.81	1233.58
466.183	1244.88
466.555	1286.24
466.928	1282.17
467.3	1330.76
467.672	1350.87
468.045	1339.57
468.417	1380.7
468.789	1359
469.161	1370.08
469.534	1423.41
469.906	1438.32
470.278	1444.65
470.65	1493.46
471.022	1488.94
471.394	1542.5
471.766	1586.34
472.138	1610.52
472.51	1619.11
472.882	1641.71
473.253	1673.8
473.625	1722.16
473.997	1721.48
474.369	1786.56
474.74	1809.16
475.112	1836.05
475.484	1885.54
475.855	1895.03
476.227	1994.02
476.598	1982.94
476.97	2053.22
477.341	2081.47
477.713	2137.51
478.084	2170.96
478.455	2245.31
478.827	2261.58
479.198	2329.37
479.569	2395.13
479.94	2449.37
480.311	2499.31
480.682	2547
481.053	2657.27
481.424	2692.75
481.795	2785.86
482.166	2816.37
482.537	2888.23
482.908	2953.76
483.279	3000.77
483.65	3127.54
484.021	3202.57
484.391	3278.28
484.762	3335.22
485.133	3335
485.503	3514.65
485.874	3562.79
486.244	3672.84
486.615	3726.63
486.985	3849.56
487.356	3924.59
487.726	4006.39
488.097	4157.35
488.467	4176.1
488.837	4242.54
489.207	4378.13
489.578	4474.4
489.948	4537.9
490.318	4679.14
490.688	4758.46
491.058	4838.01
491.428	4975.18
491.798	5068.96
492.168	5208.17
492.538	5256.3
492.908	5349.18
493.278	5462.85
493.648	5510.76
494.017	5622.62
494.387	5711.21
494.757	5735.39
495.126	5884.76
495.496	5934.7
495.866	6066.22
496.235	6119.56
496.605	6290.63
496.974	6319.55
497.344	6402.71
497.713	6444.07
498.082	6578.08
498.452	6637.51
498.821	6771.06
499.19	6781.23
499.559	6939.42
499.928	6926.77
500.298	7049.25
500.667	7116.14
501.036	7186.2
501.405	7287.21
501.774	7305.06
502.143	7408.56
502.512	7487.88
502.88	7518.84
503.249	7578.5
503.618	7738.72
503.987	7745.28
504.356	7849.45
504.724	7875.22
505.093	7947.53
505.462	8081.31
505.83	8077.25
506.199	8178.26
506.567	8237.24
506.936	8258.94
507.304	8397.69
507.672	8480.17
508.041	8492.15
508.409	8581.86
508.777	8696.66
509.145	8717.45
509.514	8733.5
509.882	8802.88
510.25	8858.92
510.618	8937.56
510.986	8992.7
511.354	9117.44
511.722	9150.89
512.09	9273.37
512.458	9292.58
512.826	9316.31
513.193	9356.31
513.561	9424.78
513.929	9505.23
514.297	9575.96
514.664	9654.38
515.032	9707.26
515.4	9786.13
515.767	9881.94
516.135	9851.89
516.502	9910.42
516.869	10072.9
517.237	10040.58
517.604	9996.29
517.972	10170.98
518.339	10219.34
518.706	10209.62
519.073	10342.27
519.44	10332.33
519.808	10451.19
520.175	10499.1
520.542	10522.38
520.909	10598.53
521.276	10612.77
521.643	10695.93
522.009	10864.29
522.376	10932.54
522.743	10992.2
523.11	11104.74
523.477	11123.72
523.843	11207.11
524.21	11298.63
524.577	11418.4
524.943	11379.76
525.31	11399.64
525.676	11544.95
526.043	11605.97
526.409	11661.78
526.776	11800.76
527.142	11806.64
527.508	11917.37
527.874	11938.39
528.241	12014.09
528.607	12028.33
528.973	12222.9
529.339	12215.89
529.705	12281.2
530.071	12333.63
530.437	12393.52
530.803	12548.99
531.169	12619.27
531.535	12579.5
531.901	12559.84
532.267	12722.32
532.632	12786.95
532.998	12780.17
533.364	12859.94
533.73	12897.68
534.095	13042.54
534.461	13048.19
534.826	13165.7
535.192	13218.58
535.557	13336.32
535.923	13256.77
536.288	13421.96
536.653	13390.55
537.019	13396.43
537.384	13505.8
537.749	13582.19
538.114	13567.95
538.479	13580.15
538.845	13657.21
539.21	13741.05
539.575	13796.87
539.94	13760.03
540.305	13825.57
540.67	13853.14
541.034	13933.36
541.399	14006.13
541.764	14145.56
542.129	14100.59
542.494	14187.82
542.858	14205.22
543.223	14315.73
543.587	14422.39
543.952	14468.04
544.316	14504.42
544.681	14493.57
545.045	14489.96
545.41	14700.8
545.774	14660.8
546.138	14685.89
546.503	14771.76
546.867	14823.06
547.231	14930.62
547.595	14900.57
547.959	14960.68
548.324	14952.77
548.688	15067.8
549.052	15073.67
549.416	15174.01
549.779	15163.84
550.143	15265.98
550.507	15277.28
550.871	15378.52
551.235	15369.93
551.599	15502.36
551.962	15516.15
552.326	15624.17
552.689	15596.6
553.053	15632.75
553.417	15663.49
553.78	15909.13
554.143	15831.17
554.507	15867.55
554.87	15893.76
555.234	16084.27
555.597	15998.17
555.96	16038.62
556.323	16211.04
556.686	16215.11
557.05	16300.98
557.413	16312.51
557.776	16419.17
558.139	16466.18
558.502	16533.97
558.865	16503.92
559.228	16627.3
559.59	16712.72
559.953	16760.41
560.316	16897.35
560.679	16896
561.041	17087.4
561.404	16987.52
561.767	17109.78
562.129	17194.07
562.492	17279.72
562.854	17241.07
563.217	17234.74
563.579	17395.19
563.941	17419.37
564.304	17523.78
564.666	17599.03
565.028	17602.42
565.39	17615.98
565.753	17842.41
566.115	17824.79
566.477	17864.33
566.839	18057.1
567.201	18085.12
567.563	18031.33
567.925	18224.78
568.287	18318.33
568.648	18222.97
569.01	18385.22
569.372	18514.03
569.734	18413.92
570.095	18596.97
570.457	18652.33
570.819	18801.94
571.18	18830.63
571.542	18989.05
571.903	18915.83
572.265	19142.27
572.626	19099.55
572.987	19245.54
573.349	19265.43
573.71	19405.31
574.071	19430.39
574.432	19530.05
574.794	19664.96
575.155	19698.41
575.516	19729.82
575.877	19946.54
576.238	19924.39
576.599	20146.76
576.96	20249.35
577.32	20377.26
577.681	20398.73
578.042	20566.41
578.403	20636.69
578.763	20838.49
579.124	21019.05
579.485	21083.23
579.845	21301.08
580.206	21315.77
580.566	21489.77
580.927	21628.53
581.287	21878.01
581.648	21896.09
582.008	22191
582.368	22223.77
582.728	22550.99
583.089	22607.71
583.449	22755.96
583.809	22998.21
584.169	23214.25
584.529	23181.48
584.889	23584.41
585.249	23633.22
585.609	23889.71
585.969	24146.88
586.329	24327.89
586.688	24512.29
587.048	24730.37
587.408	24925.39
587.768	25026.86
588.127	25310.24
588.487	25526.28
588.846	25818.25
589.206	25965.81
589.565	26148.41
589.925	26505.24
590.284	26580.94
590.643	26935.28
591.003	27109.74
591.362	27489.62
591.721	27660.91
592.08	27714.92
592.44	28050.51
592.799	28335.02
593.158	28537.5
593.517	28750.83
593.876	28859.98
594.235	29123.7
594.593	29384.26
594.952	29786.73
595.311	29891.59
595.67	30114.18
596.029	30544.68
596.387	30732.92
596.746	30929.3
597.104	31019.01
597.463	31289.74
597.822	31552.11
598.18	31571.09
598.538	31731.54
598.897	32137.18
599.255	32081.13
599.613	32731.06
599.972	32611.97
600.33	32980.77
600.688	33069.58
601.046	33356.81
601.404	33677.02
601.762	33714.99
602.12	34000.86
602.478	34126.73
602.836	34236.56
603.194	34338.48
603.552	34601.52
603.91	34655.76
604.268	34914.05
604.625	34954.73
604.983	35361.5
605.341	35262.29
605.698	35570.53
606.056	35780.92
606.413	35828.83
606.771	36104.53
607.128	36401.47
607.485	36377.07
607.843	36476.95
608.2	36763.95
608.557	36879.43
608.914	36902.02
609.272	37189.7
609.629	37555.57
609.986	37593.98
610.343	37673.08
610.7	37923.01
611.057	38096.12
611.414	38082.33
611.771	38229.67
612.127	38444.81
612.484	38566.84
612.841	38759.83
613.198	38794.18
613.554	38922.08
613.911	39174.96
614.267	39125.92
614.624	39273.71
614.98	39502.63
615.337	39632.35
615.693	39615.17
616.05	39771.55
616.406	39981.94
616.762	39901.04
617.118	39803.19
617.475	40017.42
617.831	40199.11
618.187	40218.77
618.543	40381.71
618.899	40772.66
619.255	40717.29
619.611	40640
619.967	40949.6
620.323	41047.9
620.678	40951.64
621.034	40930.39
621.39	41003.16
621.746	41068.92
622.101	41455.12
622.457	41186.21
622.812	41352.98
623.168	41532.18
623.523	41540.32
623.879	41798.17
624.234	41384.84
624.589	41698.96
624.945	41772.86
625.3	41790.71
625.655	41824.15
626.01	41967.88
626.365	42047.2
626.72	41946.86
627.075	42010.14
627.43	42102.57
627.785	42013.98
628.14	42195.22
628.495	42246.74
628.85	42148.67
629.205	42103.7
629.559	42314.99
629.914	42153.86
630.269	42196.8
630.623	42161.77
630.978	42077.26
631.332	42368.77
631.687	42340.98
632.041	42142.56
632.396	42308.44
632.75	42274.54
633.104	42340.53
633.459	42185.05
633.813	42272.05
634.167	42284.71
634.521	42197.03
634.875	42299.62
635.229	42239.51
635.583	42136.91
635.937	42183.92
636.291	42107.31
636.645	42111.83
636.999	42195.22
637.352	42194.09
637.706	41937.6
638.06	42284.03
638.413	41975.79
638.767	41956.58
639.121	41969.69
639.474	41841.78
639.828	42015.79
640.181	42059.18
640.534	42158.83
640.888	41828
641.241	41884.04
641.594	41828.67
641.947	42068.22
642.301	41807.43
642.654	41896.69
643.007	41988.9
643.36	41969.46
643.713	41753.87
644.066	41999.97
644.419	41721.56
644.771	41480.89
645.124	41006.32
645.477	40958.19
645.83	40931.52
646.182	40740.12
646.535	40707.12
646.888	40794.13
647.24	40554.58
647.593	40810.17
647.945	40703.96
648.298	40490.86
648.65	40485.88
649.002	40408.15
649.355	40610.18
649.707	40372.89
650.059	40698.76
650.411	41257.39
650.763	41128.13
651.115	41656.93
651.467	41454.22
651.819	41452.64
652.171	41339.65
652.523	41192.08
652.875	41135.36
653.227	41097.17
653.578	41338.29
653.93	41263.94
654.282	40995.25
654.633	41023.95
654.985	41074.34
655.337	41105.3
655.688	41092.42
656.039	41337.61
656.391	40927
656.742	41049.03
657.094	41052.88
657.445	41145.08
657.796	41067.34
658.147	41035.7
658.498	40924.52
658.849	41145.98
659.2	41020.56
659.551	40980.11
659.902	41046.1
660.253	41067.79
660.604	41019.43
660.955	40823.05
661.306	40994.35
661.656	40884.52
662.007	40970.84
662.358	40972.2
662.708	41020.56
663.059	40930.62
663.409	40798.64
663.76	40937.4
664.11	41042.25
664.461	40875.7
664.811	41037.06
665.161	40933.33
665.511	40734.47
665.862	40965.19
666.212	40912.31
666.562	41029.83
666.912	40791.41
667.262	40915.48
667.612	40633.45
667.962	40771.53
668.312	40731.08
668.662	40945.99
669.011	40827.57
669.361	40739.89
669.711	40600.91
670.06	40694.92
670.41	40506.9
670.76	40660.12
671.109	40755.48
671.459	40616.73
671.808	40527.24
672.157	40714.13
672.507	40363.4
672.856	40594.13
673.205	40541.93
673.554	40563.4
673.904	40644.98
674.253	40690.17
674.602	40571.31
674.951	39931.1
675.3	39820.82
675.649	40477.07
675.998	40412.89
676.346	40472.78
676.695	40442.72
677.044	40263.07
677.393	40195.72
677.741	40386
678.09	40216.97
678.438	40110.08
678.787	40268.26
679.135	40408.82
679.484	40033.69
679.832	40211.09
680.181	40023.98
680.529	40028.27
680.877	39934.26
681.225	39825.11
681.573	40066.91
681.922	39787.37
682.27	39679.58
682.618	39759.12
682.966	39650.2
683.314	39807.94
683.661	39631.9
684.009	39524.55
684.357	39466.93
684.705	39328.4
685.053	39574.5
685.4	39398.91
685.748	39336.76
686.095	39386.25
686.443	39042.31
686.79	38990.33
687.138	39037.11
687.485	39034.17
687.832	38948.3
688.18	38890.22
688.527	38853.84
688.874	38709.43
689.221	38739.49
689.568	38482.1
689.915	38562.55
690.262	38418.37
690.609	38416.33
690.956	38201.42
691.303	38178.6
691.65	38085.27
691.997	38103.12
692.344	37746.52
692.69	37855.45
693.037	37707.65
693.383	37528.67
693.73	37680.08
694.077	37421.33
694.423	37471.27
694.769	37215.01
695.116	37250.94
695.462	37286.19
695.808	37152.86
696.155	37166.88
696.501	36789.71
696.847	36827.68
697.193	36689.83
697.539	36837.84
697.885	36524.41
698.231	36347.69
698.577	36444.63
698.923	36372.09
699.269	36076.06
699.614	36044.42
699.96	35919.9
700.306	35973.91
700.651	35799.23
700.997	35854.37
701.342	35683.53
701.688	35623.19
702.033	35561.49
702.379	35573.25
702.724	35450.76
703.069	35556.75
703.415	35189.3
703.76	35124.44
704.105	35162.18
704.45	34969.65
704.795	34865.24
705.14	34761.29
705.485	34724.91
705.83	34497.57
706.175	34550.9
706.52	34544.12
706.865	34402.65
707.209	34284.47
707.554	34323.79
707.899	34203.34
708.243	34171.47
708.588	34133.74
708.932	33804.48
709.277	33852.39
709.621	33888.77
709.966	33633.86
710.31	33708.21
710.654	33423.02
710.998	33592.05
711.342	33610.36
711.687	33459.4
712.031	33284.04
712.375	33131.05
712.719	33224.38
713.063	33144.16
713.407	33209.69
713.75	33056.02
714.094	32959.08
714.438	32880.43
714.782	32961.11
715.125	32742.81
715.469	32757.5
715.812	32668.01
716.156	32468.92
716.499	32549.37
716.843	32468.24
717.186	32451.07
717.53	32567
717.873	32363.84
718.216	32283.61
718.559	32204.97
718.902	31994.36
719.246	32089.27
719.589	32048.14
719.932	31820.35
720.275	31849.05
720.617	31835.26
720.96	31809.73
721.303	31649.05
721.646	31846.11
721.989	31509.85
722.331	31866.68
722.674	31571.32
723.016	31619.45
723.359	31528.38
723.701	31460.81
724.044	31298.33
724.386	31224.89
724.729	31327.71
725.071	31185.56
725.413	31260.59
725.755	31093.59
726.097	30888.62
726.439	30921.39
726.782	30927.49
727.124	30914.84
727.465	30887.27
727.807	30859.92
728.149	30716.88
728.491	30870.77
728.833	30766.37
729.175	30654.05
729.516	30588.74
729.858	30471.23
730.199	30489.99
730.541	30419.71
730.882	30475.3
731.224	30548.97
731.565	30306.72
731.906	30357.34
732.248	30214.06
732.589	30184.69
732.93	29999.15
733.271	30156.89
733.612	30121.19
733.953	30200.96
734.294	29931.59
734.635	29910.12
734.976	29915.32
735.317	29814.07
735.658	29809.78
735.999	29710.12
736.339	29726.17
736.68	29794.87
737.021	29633.06
737.361	29503.8
737.702	29603.23
738.042	29415.22
738.383	29632.61
738.723	29488.21
739.063	29454.08
739.404	29473.97
739.744	29329.34
740.084	29140.87
740.424	29256.35
740.764	29167.76
741.104	29370.24
741.444	29123.47
741.784	29099.07
742.124	29157.59
742.464	29031.5
742.804	28932.52
743.143	28876.02
743.483	28946.53
743.823	28748.34
744.162	28713.76
744.502	28757.38
744.841	28603.94
745.181	28706.99
745.52	28598.06
745.86	28689.36
746.199	28539.08
746.538	28568.23
746.877	28508.57
747.216	28483.94
747.556	28325.53
747.895	28382.25
748.234	28252.08
748.573	28269.71
748.911	28211.18
749.25	28269.03
749.589	28092.09
749.928	28020.68
750.267	28053.67
750.605	28030.84
750.944	27928.7
751.283	27835.37
751.621	27893.45
751.96	27674.02
752.298	27765.77
752.636	27679.67
752.975	27504.53
753.313	27510.63
753.651	27641.93
753.989	27504.76
754.327	27413.01
754.666	27226.35
755.004	27476.28
755.342	27369.85
755.679	27248.94
756.017	27143.86
756.355	27270.86
756.693	27015.05
757.031	27109.74
757.368	26907.03
757.706	26874.49
758.044	26839.24
758.381	26826.58
758.719	26722.4
759.056	26737.32
759.394	26576.19
759.731	26492.81
760.068	26473.82
760.405	26247.39
760.743	26163.1
761.08	26301.4
761.417	26097.56
761.754	26094.62
762.091	26021.18
762.428	25896.21
762.765	25798.36
763.102	25811.69
763.438	25776.67
763.775	25580.74
764.112	25598.59
764.449	25531.7
764.785	25420.29
765.122	25317.7
765.458	25209.9
765.795	25119.28
766.131	25199.96
766.467	25041.77
766.804	24917.71
767.14	24808.78
767.476	24755.45
767.812	24614.66
768.148	24747.54
768.485	24562.69
768.821	24323.15
769.157	24479.07
769.492	24342.35
769.828	24219.65
770.164	24075.92
770.5	24034.79
770.836	24169.93
771.171	23947.11
771.507	23898.3
771.842	23726.78
772.178	23632.77
772.513	23600
772.849	23610.17
773.184	23470.96
773.519	23399.33
773.855	23378.31
774.19	23221.93
774.525	23167.47
774.86	23107.36
775.195	23055.38
775.53	23018.32
775.865	22871.88
776.2	22750.08
776.535	22561.16
776.87	22536.53
777.205	22431.44
777.539	22313.48
777.874	22395.06
778.209	22178.34
778.543	22174.73
778.878	21946.94
779.212	22009.99
779.547	21916.43
779.881	21897.22
780.215	21758.02
780.55	21829.43
780.884	21598.92
781.218	21491.81
781.552	21472.37
781.886	21428.08
782.22	21296.78
782.554	21337.91
782.888	21117.58
783.222	20945.83
783.556	20916.23
783.889	20894.99
784.223	20642.11
784.557	20650.25
784.89	20742
785.224	20681.89
785.557	20439.63
785.891	20471.27
786.224	20427.2
786.558	20317.38
786.891	20115.8
787.224	20184.27
787.557	20027.67
787.891	19991.96
788.224	20044.61
788.557	19929.81
788.89	19812.76
789.223	19778.41
789.556	19693.21
789.888	19654.79
790.221	19546.1
790.554	19462.26
790.887	19382.94
791.219	19330.28
791.552	19335.03
791.884	19194.24
792.217	19096.16
792.549	19111.31
792.882	18826.12
793.214	18926.45
793.546	18968.71
793.879	18839
794.211	18599.91
794.543	18794.7
794.875	18677.87
795.207	18733.91
795.539	18463.64
795.871	18517.65
796.203	18361.72
796.535	18299.58
796.867	18295.73
797.198	18293.93
797.53	18152.69
797.862	18048.73
798.193	18088.73
798.525	17967.61
798.856	17921.96
799.188	17739.36
799.519	17717.44
799.85	17650.1
800.182	17639.93
800.513	17628.18
800.844	17531.46
801.175	17584.79
801.506	17531.91
801.837	17512.7
802.168	17419.82
802.499	17386.38
802.83	17415.76
803.161	17237.68
803.491	17230
803.822	17228.87
804.153	17061.64
804.483	16933.28
804.814	16915.66
805.145	16892.38
805.475	16841.08
805.805	16856.22
806.136	16839.5
806.466	16811.25
806.796	16736.9
807.126	16739.62
807.457	16567.19
807.787	16623.46
808.117	16476.12
808.447	16436.57
808.777	16408.55
809.107	16293.53
809.436	16382.79
809.766	16319.06
810.096	16115
810.426	16194.77
810.755	16162.23
811.085	16101.89
811.414	16145.73
811.744	15917.04
812.073	15992.74
812.403	15893.99
812.732	15835.91
813.061	15954.55
813.39	15802.47
813.719	15725.63
814.049	15812.41
814.378	15719.76
814.707	15640.66
815.036	15632.53
815.365	15507.33
815.693	15441.8
816.022	15512.53
816.351	15416.49
816.68	15287.68
817.008	15355.92
817.337	15185.98
817.665	15167.45
817.994	15192.76
818.322	15166.1
818.651	15124.29
818.979	15045.2
819.307	15130.62
819.636	14999.32
819.964	15010.4
820.292	15078.64
820.62	14997.29
820.948	14935.14
821.276	14978.31
821.604	14821.25
821.932	14910.74
822.259	14947.8
822.587	14953.22
822.915	14855.15
823.243	14899.21
823.57	14734.47
823.898	14805.43
824.225	14731.99
824.553	14773.34
824.88	14748.48
825.207	14868.71
825.535	14744.41
825.862	14887.91
826.189	14811.08
826.516	14883.39
826.843	14764.08
827.17	14830.29
827.497	14897.63
827.824	14918.2
828.151	14827.8
828.478	14913.45
828.805	14896.95
829.131	14854.24
829.458	14747.8
829.785	14673.91
830.111	14776.05
830.438	14790.74
830.764	14797.75
831.09	14881.36
831.417	14621.93
831.743	14759.33
832.069	14813.57
832.395	14698.54
832.722	14780.12
833.048	14668.71
833.374	14778.54
833.7	14661.03
834.026	14619.67
834.351	14705.77
834.677	14686.34
835.003	14645.89
835.329	14683.17
835.654	14655.83
835.98	14576.74
836.306	14539.9
836.631	14529.96
836.956	14487.47
837.282	14535.15
837.607	14522.05
837.932	14434.82
838.258	14403.18
838.583	14461.71
838.908	14284.77
839.233	14327.25
839.558	14350.98
839.883	14276.63
840.208	14151.66
840.533	14148.27
840.858	14200.02
841.182	14181.04
841.507	14135.17
841.832	14109.4
842.156	14054.72
842.481	13978.33
842.805	14023.3
843.13	14042.51
843.454	13989.18
843.778	13948.28
844.103	13887.26
844.427	13857.43
844.751	13798.68
845.075	13759.36
845.399	13737.89
845.723	13733.14
846.047	13732.46
846.371	13573.82
846.695	13601.85
847.019	13459.02
847.343	13482.75
847.666	13424.9
847.99	13259.48
848.313	13336.54
848.637	13228.52
848.96	13217.9
849.284	13163.21
849.607	13057.68
849.931	13017.68
850.254	12956.44
850.577	12865.59
850.9	12796.44
851.223	12815.2
851.546	12686.39
851.869	12661.76
852.192	12749.44
852.515	12584.25
852.838	12492.27
853.161	12578.82
853.483	12469.67
853.806	12367.75
854.129	12370.24
854.451	12294.08
854.774	12300.41
855.096	12256.57
855.419	12269.23
855.741	12157.59
856.063	12150.13
856.385	12099.74
856.708	12067.42
857.03	12013.64
857.352	11983.13
857.674	11900.2
857.996	11864.72
858.318	11798.73
858.64	11839.41
858.961	11764.61
859.283	11775.68
859.605	11669.69
859.926	11664.27
860.248	11657.72
860.57	11586.76
860.891	11641.9
861.212	11537.49
861.534	11603.03
861.855	11435.12
862.176	11516.7
862.498	11561.67
862.819	11500.21
863.14	11435.8
863.461	11412.52
863.782	11429.47
864.103	11430.15
864.424	11318.52
864.745	11276.03
865.065	11249.59
865.386	11253.88
865.707	11271.29
866.027	11214.79
866.348	11273.77
866.668	11296.6
866.989	11154
867.309	11162.14
867.63	11117.17
867.95	11169.59
868.27	11024.29
868.59	11087.56
868.91	11023.16
869.23	11066.32
869.55	10924.63
869.87	11006.21
870.19	11037.85
870.51	10958.75
870.83	11014.12
871.15	10928.7
871.469	10901.35
871.789	10930.96
872.109	10942.25
872.428	10808.7
872.748	10902.03
873.067	10825.87
873.386	10839.88
873.706	10763.5
874.025	10724.86
874.344	10740.45
874.663	10801.02
874.982	10753.79
875.301	10707.46
875.62	10649.38
875.939	10632.43
876.258	10678.53
876.577	10606.9
876.896	10632.21
877.214	10552.43
877.533	10592.89
877.852	10535.94
878.17	10568.93
878.489	10608.93
878.807	10559.67
879.125	10520.8
879.444	10476.96
879.762	10473.79
880.08	10468.14
880.398	10349.5
880.716	10390.4
881.034	10383.17
881.352	10432.21
881.67	10250.97
881.988	10273.12
882.306	10276.28
882.624	10301.82
882.941	10264.31
883.259	10203.07
883.577	10133.91
883.894	10148.6
884.212	10190.41
884.529	10177.3
884.846	10110.41
885.164	10090.3
885.481	10059.11
885.798	10022.96
886.115	9953.35
886.432	10050.75
886.75	9952.22
887.067	9949.74
887.383	9916.52
887.7	9908.16
888.017	9840.14
888.334	9898.89
888.651	9872
888.967	9792.45
889.284	9741.16
889.6	9731.89
889.917	9661.38
890.233	9665.68
890.55	9648.28
890.866	9677.43
891.182	9568.96
891.498	9569.41
891.815	9544.78
892.131	9564.21
892.447	9487.83
892.763	9433.14
893.079	9430.2
893.395	9410.09
893.71	9365.8
894.026	9334.84
894.342	9328.51
894.657	9233.83
894.973	9246.03
895.289	9260.72
895.604	9207.39
895.92	9132.58
896.235	9129.65
896.55	9069.54
896.865	9070.89
897.181	9064.11
897.496	9045.13
897.811	8955.87
898.126	8925.81
898.441	8975.3
898.756	8877.22
899.071	8833.38
899.386	8876.77
899.7	8803.78
900.015	8730.79
900.33	8724.69
900.644	8669.55
900.959	8691.69
901.273	8701.86
901.588	8543
901.902	8562.66
902.216	8576.89
902.531	8516.1
902.845	8489.21
903.159	8489.66
903.473	8463.9
903.787	8404.02
904.101	8302.55
904.415	8293.96
904.729	8300.97
905.042	8270.46
905.356	8275.21
905.67	8264.58
905.984	8200.63
906.297	8150.24
906.611	8107.53
906.924	8144.81
907.237	8082.22
907.551	8018.26
907.864	8070.92
908.177	7992.73
908.491	7991.6
908.804	7966.51
909.117	7945.27
909.43	7884.71
909.743	7836.8
910.056	7779.63
910.368	7716.12
910.681	7728.33
910.994	7697.37
911.307	7665.73
911.619	7558.16
911.932	7644.49
912.244	7548.45
912.557	7582.34
912.869	7492.85
913.181	7476.13
913.494	7460.31
913.806	7439.07
914.118	7388.9
914.43	7313.42
914.742	7342.8
915.054	7342.12
915.366	7258.96
915.678	7240.43
915.99	7220.54
916.302	7180.55
916.613	7092.64
916.925	7152.07
917.236	7063.26
917.548	7070.94
917.859	7015.8
918.171	6982.13
918.482	6980.78
918.794	6892.87
919.105	6948.69
919.416	6830.27
919.727	6875.47
920.038	6829.14
920.349	6802.48
920.66	6756.83
920.971	6743.27
921.282	6712.08
921.593	6654.23
921.903	6636.83
922.214	6646.77
922.525	6574.91
922.835	6564.29
923.146	6475.93
923.456	6476.16
923.767	6472.32
924.077	6437.51
924.387	6386.22
924.697	6397.29
925.008	6367.91
925.318	6344.86
925.628	6318.42
925.938	6295.82
926.248	6271.42
926.558	6243.17
926.867	6175.83
927.177	6174.92
927.487	6133.34
927.796	6082.95
928.106	6066.68
928.416	6045.89
928.725	6098.54
929.034	6051.54
929.344	5991.88
929.653	6017.64
929.962	5970.41
930.271	5920.92
930.581	5906.91
930.89	5853.8
931.199	5856.06
931.508	5834.82
931.817	5800.02
932.125	5797.98
932.434	5791.2
932.743	5680.92
933.051	5740.58
933.36	5696.29
933.669	5633.02
933.977	5646.57
934.286	5583.98
934.594	5599.57
934.902	5525
935.21	5565.22
935.519	5516.86
935.827	5522.74
936.135	5472.12
936.443	5458.33
936.751	5426.92
937.059	5414.49
937.367	5374.27
937.674	5372.91
937.982	5318
938.29	5303.53
938.597	5324.55
938.905	5243.42
939.213	5233.48
939.52	5196.87
939.827	5232.8
940.135	5165.01
940.442	5129.75
940.749	5110.32
941.056	5095.63
941.363	5070.09
941.67	5063.77
941.977	5028.74
942.284	5014.95
942.591	4984.22
942.898	4985.12
943.205	4946.48
943.511	4934.95
943.818	4896.76
944.125	4853.6
944.431	4817.67
944.738	4819.48
945.044	4858.8
945.35	4800.72
945.657	4778.57
945.963	4783.55
946.269	4725.47
946.575	4754.85
946.881	4692.02
947.187	4706.94
947.493	4688.18
947.799	4607.05
948.105	4625.81
948.41	4578.35
948.716	4589.2
949.022	4560.28
949.327	4587.39
949.633	4522.54
949.938	4508.53
950.244	4505.59
950.549	4463.33
950.854	4424.01
951.16	4438.02
951.465	4426.95
951.77	4358.47
952.075	4337.68
952.38	4341.75
952.685	4337.23
952.99	4286.61
953.294	4280.73
953.599	4251.36
953.904	4234.86
954.209	4237.35
954.513	4207.74
954.818	4184.01
955.122	4200.51
955.426	4127.07
955.731	4139.95
956.035	4071.25
956.339	4073.28
956.643	4105.82
956.948	4056.79
957.252	4056.33
957.556	4036
957.86	4029.89
958.163	4004.13
958.467	3943.34
958.771	3962.33
959.075	3991.48
959.378	3956
959.682	3917.13
959.985	3937.92
960.289	3878.71
960.592	3859.05
960.896	3838.94
961.199	3836.9
961.502	3838.26
961.805	3770.92
962.108	3773.63
962.411	3746.96
962.714	3725.04
963.017	3744.93
963.32	3676.01
963.623	3669.45
963.926	3698.15
964.228	3704.48
964.531	3666.97
964.833	3620.41
965.136	3606.63
965.438	3629
965.741	3562.34
966.043	3575.44
966.345	3553.3
966.648	3567.53
966.95	3544.71
967.252	3508.78
967.554	3525.73
967.856	3492.51
968.158	3447.54
968.46	3437.82
968.761	3469.23
969.063	3395.56
969.365	3409.8
969.666	3410.7
969.968	3320.99
970.269	3376.58
970.571	3310.36
970.872	3332.74
971.174	3313.53
971.475	3299.74
971.776	3291.38
972.077	3295.68
972.378	3254.32
972.679	3236.92
972.98	3247.09
973.281	3246.19
973.582	3206.19
973.883	3228.11
974.183	3196.92
974.484	3170.71
974.785	3126.87
975.085	3121.9
975.386	3130.93
975.686	3107.66
975.986	3079.18
976.287	3103.82
976.587	3062.01
976.887	3060.43
977.187	3013.2
977.487	3013.65
977.787	2996.7
978.087	2975.01
978.387	2999.86
978.687	2970.94
978.987	2995.34
979.286	2956.02
979.586	2932.52
979.885	2884.84
980.185	2929.13
980.484	2885.74
980.784	2904.27
981.083	2871.05
981.382	2844.61
981.682	2831.96
981.981	2842.35
982.28	2825.41
982.579	2759.87
982.878	2802.58
983.177	2780.89
983.475	2784.73
983.774	2730.49
984.073	2756.93
984.372	2707.67
984.67	2730.95
984.969	2692.98
985.267	2722.13
985.566	2706.31
985.864	2669.7
986.162	2642.13
986.461	2661.79
986.759	2624.73
987.057	2631.06
987.355	2612.3
987.653	2620.67
987.951	2561.23
988.249	2587.45
988.547	2550.16
988.844	2537.05
989.142	2541.12
989.44	2527.33
989.737	2499.54
990.035	2494.79
990.332	2488.69
990.63	2472.65
990.927	2458.86
991.224	2463.16
991.521	2441.24
991.819	2452.31
992.116	2434
992.413	2415.47
992.71	2404.85
993.006	2370.73
993.303	2367.11
993.6	2366.66
993.897	2343.16
994.193	2362.82
994.49	2333.22
994.787	2298.19
995.083	2312.65
995.379	2311.97
995.676	2289.83
995.972	2280.79
996.268	2278.3
996.565	2250.96
996.861	2256.38
997.157	2240.56
997.453	2233.78
997.749	2234.69
998.044	2178.19
998.34	2210.28
998.636	2191.75
998.932	2154.46
999.227	2120.57
999.523	2165.31
999.818	2133.67
1000.114	2132.09
1000.409	2108.36
1000.704	2090.06
1001	2087.12
1001.295	2093.67
1001.59	2063.17
1001.885	2064.52
1002.18	2037.18
1002.475	2025.43
1002.77	2036.27
1003.065	2017.52
1003.359	1980.46
1003.654	1992.89
1003.949	1949.72
1004.243	1952.43
1004.538	1949.72
1004.832	1950.63
1005.127	1962.83
1005.421	1932.77
1005.715	1912.89
1006.009	1911.53
1006.304	1890.06
1006.598	1858.65
1006.892	1881.93
1007.186	1883.51
1007.48	1892.1
1007.773	1884.41
1008.067	1853.68
1008.361	1815.49
1008.655	1820.46
1008.948	1784.53
1009.242	1782.72
1009.535	1777.75
1009.829	1751.54
1010.122	1766.22
1010.415	1741.82
1010.708	1731.88
1011.001	1720.35
1011.295	1722.38
1011.588	1715.6
1011.881	1684.19
1012.173	1683.74
1012.466	1693.68
1012.759	1678.32
1013.052	1679.9
1013.344	1646.23
1013.637	1660.69
1013.93	1646.45
1014.222	1645.78
1014.514	1630.18
1014.807	1590.18
1015.099	1622.27
1015.391	1579.56
1015.683	1570.3
1015.976	1571.2
1016.268	1562.84
1016.56	1543.18
1016.851	1537.3
1017.143	1549.51
1017.435	1512.45
1017.727	1526.68
1018.018	1498.66
1018.31	1519
1018.602	1489.4
1018.893	1466.8
1019.185	1480.58
1019.476	1453.24
1019.767	1460.24
1020.058	1456.18
1020.35	1443.97
1020.641	1422.73
1020.932	1399.91
1021.223	1407.14
1021.514	1406.91
1021.804	1418.21
1022.095	1381.15
1022.386	1374.37
1022.677	1373.47
1022.967	1359
1023.258	1354.94
1023.548	1342.51
1023.839	1337.31
1024.129	1333.02
1024.419	1293.24
1024.709	1326.24
1025	1299.57
1025.29	1262.51
1025.58	1268.61
1025.87	1237.43
1026.16	1257.99
1026.449	1248.72
1026.739	1249.85
1027.029	1237.43
1027.319	1244.43
1027.608	1234.49
1027.898	1241.04
1028.187	1214.15
1028.477	1209.18
1028.766	1183.64
1029.055	1193.58
1029.344	1193.13
1029.634	1142.51
1029.923	1168.5
1030.212	1163.75
1030.501	1150.42
1030.79	1115.85
1031.078	1122.4
1031.367	1134.38
1031.656	1137.54
1031.945	1102.97
1032.233	1107.94
1032.522	1096.41
1032.81	1077.43
1033.099	1086.24
1033.387	1087.6
1033.675	1065.45
1033.963	1023.19
1034.251	1058.45
1034.54	1033.59
1034.828	1022.74
1035.116	1055.28
1035.403	1041.5
1035.691	1017.54
1035.979	1012.8
1036.267	1031.55
1036.554	998.34
1036.842	1033.81
1037.129	981.84
1037.417	971.44
1037.704	982.29
1037.992	977.54
1038.279	981.61
1038.566	947.49
1038.853	947.49
1039.14	947.49
