Data from hue_36_FLMS001491_00063.txt Node
Date: Tue Feb 07 17:30:07 GMT 2017
User: dcchb
Spectrometer: FLMS00149
Trigger mode: 0
Integration Time (sec): 2.000000E-2
Scans to average: 10
Electric dark correction enabled: true
Nonlinearity correction enabled: false
Boxcar width: 0
XAxis mode: Wavelengths
Number of Pixels in Spectrum: 2048
>>>>>Begin Spectral Data<<<<<
341.393	-12.34
341.776	-12.34
342.16	-12.34
342.543	-52.8
342.927	-84.21
343.31	-71.78
343.693	-68.84
344.077	-60.48
344.46	-62.29
344.843	-47.82
345.226	-24.77
345.61	-28.39
345.993	-14.15
346.376	-18.45
346.759	12.06
347.142	21.1
347.525	51.83
347.908	65.85
348.291	70.82
348.674	72.63
349.057	102.68
349.44	118.05
349.823	147.65
350.206	174.32
350.588	215.45
350.971	215.67
351.354	225.84
351.737	219.97
352.119	254.54
352.502	277.59
352.884	266.97
353.267	288.89
353.65	311.26
354.032	307.2
354.414	307.42
354.797	319.85
355.179	310.13
355.562	331.15
355.944	324.14
356.326	338.38
356.709	331.15
357.091	333.41
357.473	348.55
357.855	326.86
358.238	309.91
358.62	307.42
359.002	351.71
359.384	340.87
359.766	327.08
360.148	327.08
360.53	344.26
360.912	348.55
361.294	345.16
361.676	332.51
362.057	326.4
362.439	337.93
362.821	321.66
363.203	327.08
363.584	323.69
363.966	335.9
364.348	336.35
364.729	323.24
365.111	332.51
365.493	320.08
365.874	305.61
366.256	323.69
366.637	299.51
367.019	319.4
367.4	308.1
367.781	308.33
368.163	311.94
368.544	311.04
368.925	315.56
369.306	342.67
369.688	323.47
370.069	321.21
370.45	323.47
370.831	305.84
371.212	310.36
371.593	306.52
371.974	311.04
372.355	316.01
372.736	297.48
373.117	340.64
373.498	317.36
373.879	305.39
374.26	324.82
374.641	317.82
375.021	334.54
375.402	316.91
375.783	327.76
376.163	320.53
376.544	324.14
376.925	321.88
377.305	337.03
377.686	332.05
378.066	334.99
378.447	329.12
378.827	341.32
379.208	332.05
379.588	322.56
379.968	331.83
380.349	338.61
380.729	335.9
381.109	313.97
381.489	353.07
381.87	341.54
382.25	338.61
382.63	337.93
383.01	313.07
383.39	320.53
383.77	343.13
384.15	354.65
384.53	340.64
384.91	337.93
385.29	332.51
385.67	346.29
386.049	365.27
386.429	320.3
386.809	344.48
387.189	357.59
387.568	362.11
387.948	344.48
388.328	358.72
388.707	375.22
389.087	365.27
389.466	358.04
389.846	358.72
390.225	348.1
390.605	371.6
390.984	363.92
391.363	366.85
391.743	367.76
392.122	342.22
392.501	366.4
392.881	368.44
393.26	366.18
393.639	366.85
394.018	376.57
394.397	372.5
394.776	373.63
395.155	379.06
395.534	384.48
395.913	362.11
396.292	357.36
396.671	369.79
397.05	379.51
397.429	394.88
397.808	386.97
398.186	405.95
398.565	367.31
398.944	386.74
399.323	386.06
399.701	379.28
400.08	374.76
400.458	386.74
400.837	381.77
401.215	409.11
401.594	384.03
401.972	401.2
402.351	397.59
402.729	393.52
403.107	393.52
403.486	411.37
403.864	410.92
404.242	398.27
404.62	409.79
404.999	406.85
405.377	410.92
405.755	420.19
406.133	415.67
406.511	415.44
406.889	430.13
407.267	414.99
407.645	408.89
408.023	417.25
408.401	399.17
408.779	429.9
409.156	414.99
409.534	419.73
409.912	441.43
410.29	444.14
410.667	423.58
411.045	461.32
411.422	445.5
411.8	451.6
412.178	454.76
412.555	452.95
412.933	452.5
413.31	446.85
413.687	475.78
414.065	441.88
414.442	445.72
414.819	464.93
415.197	458.15
415.574	443.46
415.951	465.61
416.328	486.85
416.705	477.13
417.082	490.47
417.46	468.55
417.837	500.86
418.214	483.69
418.591	495.89
418.967	483.24
419.344	492.05
419.721	505.61
420.098	503.35
420.475	508.09
420.852	498.6
421.228	512.39
421.605	479.17
421.982	500.86
422.358	506.74
422.735	509
423.111	501.54
423.488	512.39
423.864	515.1
424.241	536.57
424.617	524.82
424.994	524.36
425.37	529.11
425.746	537.02
426.123	536.57
426.499	544.93
426.875	542.44
427.251	568.88
427.627	565.49
428.003	559.62
428.379	544.7
428.756	570.92
429.132	579.05
429.507	572.05
429.883	578.37
430.259	571.6
430.635	599.84
431.011	563.46
431.387	582.67
431.763	632.84
432.138	582.22
432.514	601.65
432.89	611.59
433.265	612.95
433.641	633.29
434.016	644.36
434.392	610.01
434.767	621.76
435.143	638.49
435.518	662.21
435.894	658.6
436.269	652.05
436.644	653.63
437.02	679.16
437.395	680.97
437.77	675.32
438.145	675.32
438.52	671.71
438.895	672.61
439.271	682.33
439.646	722.33
440.021	701.31
440.395	702.89
440.77	695.43
441.145	710.8
441.52	709.44
441.895	721.65
442.27	732.27
442.645	719.16
443.019	732.72
443.394	719.39
443.769	744.92
444.143	730.01
444.518	744.25
444.892	739.73
445.267	748.09
445.641	741.08
446.016	754.64
446.39	769.78
446.764	783.79
447.139	777.24
447.513	792.38
447.887	747.41
448.262	777.01
448.636	774.3
449.01	798.71
449.384	783.57
449.758	777.92
450.132	779.05
450.506	780.63
450.88	803.23
451.254	793.74
451.628	834.41
452.002	821.08
452.376	821.98
452.75	854.53
453.123	880.51
453.497	853.62
453.871	854.98
454.244	861.76
454.618	873.51
454.992	880.97
455.365	917.8
455.739	904.24
456.112	904.47
456.486	898.14
456.859	930
457.232	965.03
457.606	951.92
457.979	954.41
458.352	928.42
458.725	982.66
459.099	978.82
459.472	980.4
459.845	1010.45
460.218	993.5
460.591	999.38
460.964	1038.25
461.337	1058.59
461.71	1046.16
462.083	1060.62
462.456	1085.25
462.829	1083.67
463.201	1076.21
463.574	1077.8
463.947	1095.88
464.32	1161.41
464.692	1122.77
465.065	1138.36
465.438	1157.34
465.81	1161.86
466.183	1170.9
466.555	1202.54
466.928	1245.02
467.3	1214.74
467.672	1253.16
468.045	1279.15
468.417	1294.97
468.789	1278.02
469.161	1324.8
469.534	1354.4
469.906	1371.35
470.278	1371.8
470.65	1391.91
471.022	1418.13
471.394	1442.31
471.766	1468.07
472.138	1487.73
472.51	1507.39
472.882	1559.82
473.253	1593.94
473.625	1607.95
473.997	1630.32
474.369	1653.6
474.74	1675.29
475.112	1749.42
475.484	1763.88
475.855	1805.46
476.227	1851.34
476.598	1873.48
476.97	1920.71
477.341	1990.77
477.713	2009.98
478.084	2030.31
478.455	2085.23
478.827	2140.37
479.198	2207.94
479.569	2234.83
479.94	2302.85
480.311	2353.24
480.682	2425.56
481.053	2496.06
481.424	2577.42
481.795	2592.11
482.166	2675.49
482.537	2734.25
482.908	2798.43
483.279	2897.18
483.65	2937.18
484.021	3075.03
484.391	3093.34
484.762	3162.49
485.133	3185.76
485.503	3325.65
485.874	3369.26
486.244	3482.48
486.615	3564.51
486.985	3650.61
487.356	3777.84
487.726	3818.97
488.097	3931.28
488.467	3966.08
488.837	4087.43
489.207	4201.56
489.578	4305.28
489.948	4390.03
490.318	4467.99
490.688	4561.55
491.058	4636.8
491.428	4756.57
491.798	4849.9
492.168	4925.83
492.538	5017.58
492.908	5106.84
493.278	5242.21
493.648	5274.75
494.017	5396.55
494.387	5506.83
494.757	5522.65
495.126	5651.01
495.496	5747.73
495.866	5871.79
496.235	5924.67
496.605	5993.6
496.974	6082.86
497.344	6192.24
497.713	6207.83
498.082	6385.91
498.452	6462.74
498.821	6464.77
499.19	6622.06
499.559	6668.84
499.928	6705.67
500.298	6850.07
500.667	6940.02
501.036	6936.85
501.405	7084.87
501.774	7116.51
502.143	7210.06
502.512	7208.48
502.88	7391.53
503.249	7336.16
503.618	7460.91
503.987	7485.54
504.356	7525.76
504.724	7656.61
505.093	7730.28
505.462	7780.45
505.83	7855.47
506.199	7913.55
506.567	8102.02
506.936	8041
507.304	8170.27
507.672	8235.57
508.041	8336.36
508.409	8355.12
508.777	8409.13
509.145	8535
509.514	8587.88
509.882	8610.48
510.25	8633.08
510.618	8693.64
510.986	8733.87
511.354	8880.08
511.722	8872.17
512.09	8960.53
512.458	8975.22
512.826	9081.65
513.193	9123.01
513.561	9161.88
513.929	9324.36
514.297	9298.37
514.664	9426.73
515.032	9485.03
515.4	9522.77
515.767	9605.71
516.135	9670.34
516.502	9624.01
516.869	9741.98
517.237	9882.31
517.604	9802.54
517.972	9924.34
518.339	9921.41
518.706	10024.45
519.073	10044.79
519.44	10082.98
519.808	10220.61
520.175	10199.14
520.542	10338.8
520.909	10403.88
521.276	10384.44
521.643	10493.59
522.009	10545.12
522.376	10585.8
522.743	10629.64
523.11	10746.47
523.477	10800.25
523.843	10917.99
524.21	11014.26
524.577	11100.13
524.943	11136.52
525.31	11165.21
525.676	11330.18
526.043	11285.21
526.409	11340.8
526.776	11530.86
527.142	11532.89
527.508	11580.8
527.874	11632.1
528.241	11752.54
528.607	11687.24
528.973	11882.26
529.339	11887.91
529.705	11999.77
530.071	12102.37
530.437	12094.23
530.803	12174
531.169	12289.93
531.535	12336.03
531.901	12305.07
532.267	12424.16
532.632	12457.61
532.998	12495.12
533.364	12534.67
533.73	12588
534.095	12698.73
534.461	12684.05
534.826	12830.26
535.192	12858.28
535.557	12933.76
535.923	12964.49
536.288	13005.62
536.653	12977.82
537.019	13082.68
537.384	13177.14
537.749	13267.53
538.114	13260.08
538.479	13327.19
538.845	13381.43
539.21	13265.05
539.575	13456.68
539.94	13483.8
540.305	13527.64
540.67	13632.04
541.034	13595.66
541.399	13725.37
541.764	13728.99
542.129	13888.08
542.494	13809.44
542.858	13895.54
543.223	13893.73
543.587	13998.36
543.952	14028.42
544.316	14083.1
544.681	14095.53
545.045	14222.54
545.41	14226.6
545.774	14264.79
546.138	14330.56
546.503	14354.28
546.867	14427.5
547.231	14529.19
547.595	14647.38
547.959	14633.82
548.324	14725.35
548.688	14661.62
549.052	14713.82
549.416	14751.79
549.779	14854.84
550.143	14882.63
550.507	15009.18
550.871	15034.72
551.235	15017.54
551.599	15103.64
551.962	15124.88
552.326	15190.42
552.689	15288.95
553.053	15205.56
553.417	15291.89
553.78	15452.79
554.143	15492.33
554.507	15526.46
554.87	15443.97
555.234	15625.44
555.597	15660.69
555.96	15632.22
556.323	15731.42
556.686	15719.9
557.05	15860.23
557.413	15972.55
557.776	15977.52
558.139	16056.16
558.502	16149.72
558.865	16165.31
559.228	16258.19
559.59	16423.38
559.953	16302.03
560.316	16487.33
560.679	16464.51
561.041	16595.35
561.404	16682.58
561.767	16721.9
562.129	16680.32
562.492	16813.88
562.854	16782.92
563.217	16876.48
563.579	16913.76
563.941	17021.56
564.304	17030.15
564.666	17126.64
565.028	17218.62
565.39	17284.6
565.753	17418.61
566.115	17459.06
566.477	17526.18
566.839	17563.92
567.201	17669.9
567.563	17690.47
567.925	17839.62
568.287	17804.14
568.648	17857.02
569.01	17896.34
569.372	18166.16
569.734	18049.78
570.095	18159.38
570.457	18310.56
570.819	18290.9
571.18	18320.73
571.542	18360.51
571.903	18477.57
572.265	18488.86
572.626	18620.84
572.987	18790.78
573.349	18758.69
573.71	18912.36
574.071	18980.15
574.432	19016.53
574.794	19259.69
575.155	19208.62
575.516	19250.65
575.877	19458.33
576.238	19534.26
576.599	19661.94
576.96	19736.06
577.32	19870.52
577.681	20067.35
578.042	20166.56
578.403	20113.45
578.763	20334.47
579.124	20426.89
579.485	20651.75
579.845	20700.78
580.206	20901
580.566	20976.03
580.927	21074.56
581.287	21318.17
581.648	21432.97
582.008	21733.98
582.368	21762.68
582.728	21922.67
583.089	22073.18
583.449	22193.17
583.809	22461.42
584.169	22627.29
584.529	22770.79
584.889	22957.22
585.249	23173.94
585.609	23253.03
585.969	23608.96
586.329	23762.17
586.688	24035.84
587.048	24133.46
587.408	24340.91
587.768	24550.4
588.127	24745.42
588.487	24998.75
588.846	25395.8
589.206	25339.76
589.565	25600.09
589.925	26038.5
590.284	26119.17
590.643	26303.57
591.003	26623.11
591.362	26879.83
591.721	26947.4
592.08	27238.01
592.44	27514.16
592.799	27722.97
593.158	27885.45
593.517	28068.73
593.876	28353.46
594.235	28453.57
594.593	28739.89
594.952	28946.67
595.311	29159.54
595.67	29427.11
596.029	29850.37
596.387	29982.12
596.746	30170.14
597.104	30362
597.463	30521.32
597.822	30826.17
598.18	30948.88
598.538	31139.6
598.897	31334.85
599.255	31460.73
599.613	32033.59
599.972	32121.73
600.33	32261.38
600.688	32309.07
601.046	32706.12
601.404	32947.24
601.762	33070.63
602.12	33382.48
602.478	33567.34
602.836	33661.57
603.194	33754.45
603.552	33869.93
603.91	33974.78
604.268	34290.03
604.625	34330.71
604.983	34627.65
605.341	34590.14
605.698	34805.5
606.056	35138.14
606.413	35169.1
606.771	35466.72
607.128	35560.28
607.485	35435.76
607.843	35678.92
608.2	36026.26
608.557	36239.58
608.914	36072.13
609.272	36391.9
609.629	36586.92
609.986	36836.63
610.343	36789.4
610.7	37210.86
611.057	37201.59
611.414	37315.26
611.771	37361.59
612.127	37762.48
612.484	37728.81
612.841	38010.38
613.198	37925.19
613.554	38012.19
613.911	38305.07
614.267	38461.67
614.624	38500.09
614.98	38495.12
615.337	38804.71
615.693	38729.91
616.05	38884.71
616.406	39153.86
616.762	39059.62
617.118	39126.06
617.475	39138.49
617.831	39314.31
618.187	39470.69
618.543	39565.15
618.899	39780.28
619.255	39731.47
619.611	39860.28
619.967	40013.72
620.323	40147.5
620.678	40109.76
621.034	40132.14
621.39	40097.79
621.746	40204.9
622.101	40679.47
622.457	40403.54
622.812	40586.59
623.168	40660.03
623.523	40745.23
623.879	40868.84
624.234	40569.41
624.589	40799.01
624.945	40736.87
625.3	40881.04
625.655	40892.57
626.01	41003.75
626.365	41052.34
626.72	40964.66
627.075	41018.44
627.43	41028.38
627.785	41006.46
628.14	41116.29
628.495	41069.51
628.85	41224.09
629.205	41093.92
629.559	41383.86
629.914	41063.64
630.269	41271.32
630.623	41152.45
630.978	41102.51
631.332	41316.74
631.687	41495.49
632.041	41105.9
632.396	41231.32
632.75	41164.88
633.104	41383.86
633.459	41136.4
633.813	41246.46
634.167	41147.7
634.521	41143.41
634.875	41382.5
635.229	41261.15
635.583	41091.89
635.937	41068.38
636.291	41066.8
636.645	41104.99
636.999	41035.39
637.352	41267.25
637.706	40907.71
638.06	41178.66
638.413	40975.05
638.767	40908.16
639.121	41084.2
639.474	40881.95
639.828	40951.78
640.181	40844.43
640.534	40978.89
640.888	40862.51
641.241	40733.25
641.594	40883.08
641.947	40886.24
642.301	40891.66
642.654	40914.04
643.007	40881.04
643.36	40898.22
643.713	40750.88
644.066	40891.44
644.419	40708.84
644.771	40492.81
645.124	39908.64
645.477	39974.17
645.83	39788.19
646.182	39590.91
646.535	39487.63
646.888	39716.33
647.24	39321.31
647.593	39588.2
647.945	39555.65
648.298	39458.48
648.65	39394.3
649.002	39218.71
649.355	39447.41
649.707	39351.82
650.059	39580.96
650.411	40004.91
650.763	40015.76
651.115	40394.05
651.467	40234.73
651.819	40290.78
652.171	40160.61
652.523	40029.99
652.875	40178.46
653.227	39971.92
653.578	40267.27
653.93	40108.63
654.282	40073.16
654.633	39964.46
654.985	39966.04
655.337	40088.52
655.688	40072.25
656.039	40189.76
656.391	39736.67
656.742	39925.36
657.094	39895.53
657.445	40090.1
657.796	39932.14
658.147	39964.23
658.498	39816.66
658.849	39937.79
659.2	39835.87
659.551	39697.57
659.902	39896.89
660.253	39757.91
660.604	39876.1
660.955	39663.22
661.306	39834.74
661.656	39657.8
662.007	39726.72
662.358	39837
662.708	39764.46
663.059	39771.92
663.409	39492.83
663.76	39742.54
664.11	39811.47
664.461	39831.13
664.811	39817.57
665.161	39733.05
665.511	39688.76
665.862	39683.79
666.212	39791.81
666.562	39777.57
666.912	39715.42
667.262	39528.99
667.612	39608.99
667.962	39793.84
668.312	39632.26
668.662	39908.87
669.011	39716.78
669.361	39632.71
669.711	39728.76
670.06	39654.41
670.41	39430.23
670.76	39471.36
671.109	39579.16
671.459	39510.91
671.808	39537.58
672.157	39575.99
672.507	39302.78
672.856	39262.33
673.205	39317.7
673.554	39385.94
673.904	39346.62
674.253	39500.06
674.602	39279.73
674.951	38827.99
675.3	38709.8
675.649	39354.08
675.998	39270.92
676.346	39227.53
676.695	39414.19
677.044	39122.45
677.393	39257.81
677.741	39223.23
678.09	39196.12
678.438	39056.23
678.787	39092.84
679.135	39173.29
679.484	38944.6
679.832	38965.16
680.181	38898.95
680.529	38983.69
680.877	38679.75
681.225	38814.21
681.573	39172.84
681.922	38677.49
682.27	38636.58
682.618	38729.46
682.966	38498.96
683.314	38613.76
683.661	38424.16
684.009	38317.27
684.357	38351.84
684.705	38112.98
685.053	38287.67
685.4	38163.6
685.748	37967.22
686.095	38041.34
686.443	37821.46
686.79	37781.69
687.138	37888.58
687.485	37794.35
687.832	37730.84
688.18	37708.47
688.527	37548.48
688.874	37572.43
689.221	37413.34
689.568	37353
689.915	37306
690.262	37280.23
690.609	37243.17
690.956	37070.3
691.303	37174.7
691.65	36858.1
691.997	36911.66
692.344	36700.59
692.69	36781.94
693.037	36732.23
693.383	36341.73
693.73	36720.25
694.077	36432.35
694.423	36295.63
694.769	36331.56
695.116	36116.42
695.462	36125.69
695.808	36036.65
696.155	36016.09
696.501	35826.49
696.847	35704.68
697.193	35421.53
697.539	35570.67
697.885	35419.27
698.231	35239.16
698.577	35370
698.923	35152.15
699.269	35057.92
699.614	35033.97
699.96	35021.31
700.306	34882.33
700.651	34793.52
700.997	34696.35
701.342	34566.86
701.688	34507.65
702.033	34400.76
702.379	34495.22
702.724	34314.89
703.069	34470.82
703.415	33973.43
703.76	33969.14
704.105	34105.18
704.45	33829.25
704.795	33701.35
705.14	33675.81
705.485	33578.41
705.83	33503.38
706.175	33657.28
706.52	33526.66
706.865	33393.78
707.209	33390.85
707.554	33310.85
707.899	33228.14
708.243	32996.96
708.588	33016.39
708.932	32798.54
709.277	32774.82
709.621	32855.49
709.966	32547.93
710.31	32616.63
710.654	32408.05
710.998	32437.2
711.342	32316.75
711.687	32378.67
712.031	32155.4
712.375	32189.52
712.719	32171.22
713.063	32141.39
713.407	32041.05
713.75	32042.86
714.094	31890.77
714.438	31897.55
714.782	31755.63
715.125	31731.68
715.469	31779.59
715.812	31483.55
716.156	31550.89
716.499	31428.86
716.843	31471.8
717.186	31256.44
717.53	31418.92
717.873	31439.03
718.216	31286.72
718.559	31166.95
718.902	31032.94
719.246	30955.43
719.589	30821.42
719.932	30742.33
720.275	30804.02
720.617	30770.58
720.96	30778.03
721.303	30770.58
721.646	30750.91
721.989	30518.15
722.331	30605.83
722.674	30427.53
723.016	30545.5
723.359	30638.6
723.701	30456.91
724.044	30201.55
724.386	30233.64
724.729	30193.64
725.071	30302.79
725.413	30112.74
725.755	30150.03
726.097	29910.71
726.439	29969.47
726.782	29941.67
727.124	30048.56
727.465	29882.01
727.807	29897.83
728.149	29750.26
728.491	29595.92
728.833	29805.63
729.175	29624.16
729.516	29623.49
729.858	29474.56
730.199	29544.17
730.541	29281.57
730.882	29242.25
731.224	29497.84
731.565	29192.76
731.906	29383.49
732.248	29314.12
732.589	29073.44
732.93	29064.63
733.271	29052.88
733.612	29068.7
733.953	29087
734.294	28927.46
734.635	28924.75
734.976	28938.98
735.317	28801.36
735.658	28894.47
735.999	28786.9
736.339	28805.88
736.68	28738.99
737.021	28678.88
737.361	28548.94
737.702	28748.03
738.042	28523.63
738.383	28545.1
738.723	28582.84
739.063	28446.34
739.404	28439.11
739.744	28337.42
740.084	28254.03
740.424	28278.66
740.764	28319.11
741.104	28385.78
741.444	28137.2
741.784	28128.16
742.124	28171.55
742.464	28205.9
742.804	27978.78
743.143	28034.83
743.483	28047.71
743.823	27734.27
744.162	27846.81
744.502	27821.95
744.841	27770.65
745.181	27749.64
745.52	27649.08
745.86	27684.78
746.199	27684.78
746.538	27537.21
746.877	27563.2
747.216	27503.32
747.556	27451.57
747.895	27446.37
748.234	27287.95
748.573	27279.37
748.911	27246.15
749.25	27419.48
749.589	27103.78
749.928	27164.34
750.267	27230.56
750.605	27103.55
750.944	27020.17
751.283	26958.7
751.621	26940.62
751.96	26959.38
752.298	26758.7
752.636	26967.29
752.975	26810.23
753.313	26717.35
753.651	26754.18
753.989	26459.05
754.327	26500.86
754.666	26448.2
755.004	26567.52
755.342	26475.77
755.679	26254.76
756.017	26215.21
756.355	26281.2
756.693	26236.01
757.031	26167.98
757.368	26101.32
757.706	25961.21
758.044	25906.3
758.381	26041.21
758.719	25867.43
759.056	25895.9
759.394	25673.99
759.731	25548.79
760.068	25579.75
760.405	25525.52
760.743	25408.23
761.08	25385.63
761.417	25337.95
761.754	25169.82
762.091	25309.02
762.428	25071.74
762.765	24912.42
763.102	24874.23
763.438	24840.11
763.775	24695.03
764.112	24898.41
764.449	24873.1
764.785	24668.59
765.122	24522.15
765.458	24385.66
765.795	24380.69
766.131	24371.87
766.467	24156.06
766.804	24192.44
767.14	24077.87
767.476	24035.61
767.812	23940.25
768.148	23884.88
768.485	23763.98
768.821	23745.68
769.157	23694.83
769.492	23588.62
769.828	23569.41
770.164	23506.81
770.5	23348.85
770.836	23319.7
771.171	23154.5
771.507	23100.49
771.842	22891.91
772.178	22987.5
772.513	22828.86
772.849	22801.29
773.184	22702.99
773.519	22788.64
773.855	22633.84
774.19	22507.06
774.525	22415.77
774.86	22403.56
775.195	22239.73
775.53	22144.36
775.865	22077.47
776.2	21939.39
776.535	21873.41
776.87	21825.73
777.205	21725.84
777.539	21680.64
777.874	21578.73
778.209	21486.07
778.543	21394.32
778.878	21180.09
779.212	21308.9
779.547	21291.73
779.881	21224.16
780.215	21059.87
780.55	21074.78
780.884	20868.46
781.218	20864.62
781.552	20951.4
781.886	20784.85
782.22	20531.52
782.554	20574.91
782.888	20440.68
783.222	20369.27
783.556	20327.23
783.889	20148.26
784.223	20043.17
784.557	19988.71
784.89	20044.76
785.224	19881.6
785.557	19883.86
785.891	19781.71
786.224	19830.3
786.558	19744.42
786.891	19611.55
787.224	19421.49
787.557	19470.53
787.891	19376.98
788.224	19350.76
788.557	19370.65
788.89	19181.73
789.223	19222.86
789.556	19081.39
789.888	19057.89
790.221	18993.03
790.554	18832.81
790.887	18864.45
791.219	18735.64
791.552	18634.17
791.884	18565.7
792.217	18573.83
792.549	18428.07
792.882	18337.46
793.214	18184.69
793.546	18284.8
793.879	18237.35
794.211	18104.92
794.543	18067.86
794.875	18133.62
795.207	18059.95
795.539	17963.45
795.871	17957.8
796.203	17806.85
796.535	17744.02
796.867	17827.19
797.198	17645.5
797.53	17613.63
797.862	17547.42
798.193	17462
798.525	17412.06
798.856	17411.15
799.188	17229.69
799.519	17222.91
799.85	17055.23
800.182	17029.92
800.513	17135.68
800.844	16858.17
801.175	17101.56
801.506	16966.42
801.837	16954.44
802.168	16852.07
802.499	16728.23
802.83	16791.73
803.161	16790.38
803.491	16632.64
803.822	16692.98
804.153	16563.94
804.483	16422.03
804.814	16303.38
805.145	16375.47
805.475	16300
805.805	16273.33
806.136	16242.37
806.466	16242.6
806.796	16180.45
807.126	16044.86
807.457	16080.34
807.787	16125.54
808.117	15996.73
808.447	15817.07
808.777	15767.35
809.107	15734.13
809.436	15840.35
809.766	15732.33
810.096	15733.23
810.426	15608.26
810.755	15611.43
811.085	15597.41
811.414	15561.03
811.744	15368.95
812.073	15393.8
812.403	15442.62
812.732	15255.05
813.061	15213.7
813.39	15200.59
813.719	15200.36
814.049	15267.93
814.378	15228.38
814.707	15152
815.036	15160.82
815.365	15038.33
815.693	14875.17
816.022	14899.58
816.351	14881.73
816.68	14765.35
817.008	14840.82
817.337	14739.81
817.665	14715.18
817.994	14740.94
818.322	14664.56
818.651	14630.21
818.979	14594.96
819.307	14599.47
819.636	14516.54
819.964	14447.39
820.292	14495.97
820.62	14448.52
820.948	14461.85
821.276	14418.91
821.604	14370.78
821.932	14516.09
822.259	14494.39
822.587	14382.08
822.915	14304.79
823.243	14374.62
823.57	14364
823.898	14376.88
824.225	14301.4
824.553	14357
824.88	14314.51
825.207	14401.29
825.535	14304.34
825.862	14368.75
826.189	14292.82
826.516	14390.89
826.843	14353.61
827.17	14422.76
827.497	14345.24
827.824	14352.7
828.151	14407.16
828.478	14300.27
828.805	14395.86
829.131	14236.32
829.458	14306.38
829.785	14221.86
830.111	14233.38
830.438	14418.01
830.764	14294.17
831.09	14398.8
831.417	14296.88
831.743	14218.02
832.069	14279.26
832.395	14191.12
832.722	14336.43
833.048	14192.93
833.374	14221.41
833.7	14134.85
834.026	14219.37
834.351	14223.44
834.677	14167.17
835.003	14193.38
835.329	14133.5
835.654	14077.91
835.98	14101.41
836.306	14103.44
836.631	14025.93
836.956	14111.13
837.282	14046.27
837.607	13977.8
837.932	14000.85
838.258	13949.32
838.583	13937.57
838.908	13859.61
839.233	13884.47
839.558	13829.55
839.883	13827.29
840.208	13804.69
840.533	13738.25
840.858	13785.26
841.182	13757.01
841.507	13717.24
841.832	13666.62
842.156	13694.19
842.481	13643.79
842.805	13571.25
843.13	13599.28
843.454	13536.45
843.778	13443.57
844.103	13425.72
844.427	13371.48
844.751	13437.02
845.075	13349.11
845.399	13288.77
845.723	13237.02
846.047	13226.4
846.371	13132.39
846.695	13131.26
847.019	12997.26
847.343	13040.19
847.666	12918.39
847.99	12887.2
848.313	12844.49
848.637	12781.67
848.96	12792.97
849.284	12770.14
849.607	12656.02
849.931	12660.77
850.254	12543.26
850.577	12488.34
850.9	12372.19
851.223	12296.94
851.546	12309.14
851.869	12213.55
852.192	12269.14
852.515	12116.6
852.838	12078.41
853.161	12154.79
853.483	12021.69
853.806	11935.82
854.129	12031.18
854.451	11829.15
854.774	11869.83
855.096	11739.89
855.419	11813.33
855.741	11731.75
856.063	11657.63
856.385	11695.14
856.708	11658.31
857.03	11556.84
857.352	11647.46
857.674	11561.14
857.996	11571.31
858.318	11410.18
858.64	11398.2
858.961	11490.18
859.283	11284.31
859.605	11308.04
859.926	11381.71
860.248	11296.74
860.57	11253.8
860.891	11219.22
861.212	11262.61
861.534	11115.5
861.855	11192.78
862.176	11117.53
862.498	11145.78
862.819	11103.97
863.14	11110.98
863.461	11092.22
863.782	11061.94
864.103	11022.85
864.424	11003.64
864.745	10985.78
865.065	10903.53
865.386	10885
865.707	10876.63
866.027	10941.72
866.348	10821.5
866.668	10887.93
866.989	10783.76
867.309	10761.84
867.63	10787.37
867.95	10749.63
868.27	10680.48
868.59	10693.81
868.91	10708.5
869.23	10686.13
869.55	10622.86
869.87	10749.63
870.19	10689.07
870.51	10639.8
870.83	10675.28
871.15	10548.28
871.469	10645.45
871.789	10557.1
872.109	10591.22
872.428	10529.98
872.748	10490.2
873.067	10479.81
873.386	10476.65
873.706	10486.81
874.025	10385.35
874.344	10385.12
874.663	10439.58
874.982	10343.77
875.301	10325.91
875.62	10339.02
875.939	10311.45
876.258	10280.94
876.577	10269.87
876.896	10263.09
877.214	10237.56
877.533	10212.25
877.852	10234.84
878.17	10191
878.489	10162.53
878.807	10212.25
879.125	10100.38
879.444	10085.24
879.762	10101.74
880.08	10197.78
880.398	10122.53
880.716	10158.01
881.034	10034.85
881.352	9986.71
881.67	9980.84
881.988	9963.44
882.306	9975.19
882.624	9949.65
882.941	9833.95
883.259	9812.71
883.577	9837.34
883.894	9825.14
884.212	9773.16
884.529	9862.42
884.846	9713.73
885.164	9733.84
885.481	9778.58
885.798	9773.16
886.115	9562.32
886.432	9628.08
886.75	9592.15
887.067	9636.89
887.383	9593.05
887.7	9641.41
888.017	9582.21
888.334	9496.33
888.651	9515.09
888.967	9447.75
889.284	9521.64
889.6	9396.67
889.917	9301.08
890.233	9297.02
890.55	9345.38
890.866	9355.77
891.182	9277.13
891.498	9278.03
891.815	9232.38
892.131	9184.25
892.447	9172.72
892.763	9124.82
893.079	9135.21
893.395	9100.18
893.71	9093.18
894.026	9047.3
894.342	9061.54
894.657	8986.29
894.973	8998.49
895.289	8936.57
895.604	8938.61
895.92	8931.83
896.235	8870.59
896.55	8842.56
896.865	8837.82
897.181	8784.71
897.496	8812.06
897.811	8708.33
898.126	8670.37
898.441	8628.78
898.756	8596.24
899.071	8546.3
899.386	8552.85
899.7	8498.62
900.015	8458.62
900.33	8414.33
900.644	8395.57
900.959	8382.69
901.273	8354.67
901.588	8285.52
901.902	8300.66
902.216	8232.18
902.531	8277.38
902.845	8232.18
903.159	8146.99
903.473	8084.84
903.787	8075.13
904.101	8115.8
904.415	8087.1
904.729	8092.08
905.042	7942.7
905.356	8015.69
905.67	7988.8
905.984	7991.29
906.297	7955.81
906.611	7895.24
906.924	7839.65
907.237	7853.89
907.551	7857.73
907.864	7768.69
908.177	7747.45
908.491	7682.59
908.804	7663.61
909.117	7671.97
909.43	7596.04
909.743	7523.95
910.056	7534.35
910.368	7567.57
910.681	7505.42
910.994	7398.08
911.307	7420.23
911.619	7333.23
911.932	7332.1
912.244	7317.63
912.557	7309.72
912.869	7329.16
913.181	7241.02
913.494	7158.99
913.806	7183.62
914.118	7084.19
914.43	7145.89
914.742	7083.51
915.054	7063.85
915.366	7075.15
915.678	7049.84
915.99	7003.97
916.302	6936.4
916.613	6893.24
916.925	6861.83
917.236	6823.18
917.548	6828.61
917.859	6812.11
918.171	6821.37
918.482	6740.92
918.794	6715.16
919.105	6685.78
919.416	6623.41
919.727	6592.45
920.038	6600.14
920.349	6533.7
920.66	6515.85
920.971	6552
921.282	6471.55
921.593	6477.2
921.903	6399.24
922.214	6379.13
922.525	6323.08
922.835	6373.7
923.146	6275.4
923.456	6305
923.767	6261.62
924.077	6267.04
924.387	6202.63
924.697	6158.34
925.008	6180.49
925.318	6190.88
925.628	6139.58
925.938	6115.86
926.248	6019.14
926.558	5994.05
926.867	6004.45
927.177	6027.5
927.487	5954.28
927.796	5956.54
928.106	5919.48
928.416	5897.78
928.725	5876.77
929.034	5834.96
929.344	5842.42
929.653	5831.34
929.962	5783.44
930.271	5754.74
930.581	5742.53
930.89	5726.49
931.199	5665.02
931.508	5614.85
931.817	5608.98
932.125	5606.94
932.434	5593.61
932.743	5523.78
933.051	5474.52
933.36	5515.65
933.669	5498.25
933.977	5414.63
934.286	5411.24
934.594	5403.11
934.902	5362.88
935.21	5319.49
935.519	5329.66
935.827	5309.55
936.135	5289.89
936.443	5282.66
936.751	5196.11
937.059	5231.36
937.367	5184.58
937.674	5189.78
937.982	5148.88
938.29	5120.4
938.597	5112.04
938.905	5122.66
939.213	5118.37
939.52	5021.42
939.827	5098.93
940.135	4997.92
940.442	4987.52
940.749	4966.28
941.056	4977.36
941.363	4910.69
941.67	4903.46
941.977	4848.09
942.284	4814.42
942.591	4783.01
942.898	4809
943.205	4782.56
943.511	4820.52
943.818	4801.31
944.125	4717.47
944.431	4749.11
944.738	4680.19
945.044	4681.77
945.35	4628.89
945.657	4645.16
945.963	4606.52
946.269	4567.2
946.575	4512.51
946.881	4508.89
947.187	4514.99
947.493	4557.25
947.799	4478.16
948.105	4439.06
948.41	4410.59
948.716	4455.79
949.022	4417.82
949.327	4404.94
949.633	4347.54
949.938	4352.96
950.244	4368.11
950.549	4303.93
950.854	4222.12
951.16	4289.46
951.465	4268.22
951.77	4270.03
952.075	4202.69
952.38	4188.9
952.685	4253.08
952.99	4123.82
953.294	4243.14
953.599	4127.21
953.904	4096.25
954.209	4066.64
954.513	4046.76
954.818	4042.24
955.122	4054.67
955.426	4020.32
955.731	4021.9
956.035	3966.99
956.339	3965.63
956.643	3955.69
956.948	3958.85
957.252	3954.78
957.556	3903.71
957.86	3886.31
958.163	3851.51
958.467	3860.1
958.771	3839.76
959.075	3811.06
959.378	3793.88
959.682	3789.36
959.985	3790.49
960.289	3756.37
960.592	3741.68
960.896	3726.54
961.199	3711.85
961.502	3720.21
961.805	3665.53
962.108	3647.9
962.411	3655.81
962.714	3601.12
963.017	3614.23
963.32	3639.76
963.623	3584.4
963.926	3586.21
964.228	3565.41
964.531	3556.6
964.833	3529.94
965.136	3505.53
965.438	3458.75
965.741	3459.43
966.043	3441.8
966.345	3452.65
966.648	3421.01
966.95	3458.3
967.252	3415.14
967.554	3411.97
967.856	3416.94
968.158	3349.6
968.46	3361.58
968.761	3337.85
969.063	3317.96
969.365	3283.16
969.666	3248.36
969.968	3247.46
970.269	3240
970.571	3296.04
970.872	3256.04
971.174	3199.55
971.475	3180.57
971.776	3161.58
972.077	3164.75
972.378	3173.11
972.679	3140.57
972.98	3107.8
973.281	3126.56
973.582	3119.1
973.883	3091.75
974.183	3118.87
974.484	3059.44
974.785	3065.54
975.085	3032.32
975.386	3036.16
975.686	2995.94
975.986	2968.59
976.287	2990.97
976.587	2979.67
976.887	2960.46
977.187	2932.44
977.487	2919.56
977.787	2931.99
978.087	2889.5
978.387	2898.31
978.687	2906
978.987	2876.85
979.286	2831.65
979.586	2849.95
979.885	2838.2
980.185	2804.08
980.484	2806.34
980.784	2791.65
981.083	2808.82
981.382	2775.83
981.682	2733.12
981.981	2754.81
982.28	2744.19
982.579	2734.7
982.878	2738.32
983.177	2697.19
983.475	2692.22
983.774	2663.97
984.073	2650.18
984.372	2646.12
984.67	2661.48
984.969	2635.72
985.267	2639.56
985.566	2566.12
985.864	2568.15
986.162	2599.11
986.461	2572.67
986.759	2535.84
987.057	2555.5
987.355	2515.5
987.653	2508.04
987.951	2504.88
988.249	2500.36
988.547	2508.04
988.844	2482.51
989.142	2468.27
989.44	2453.81
989.737	2442.28
990.035	2425.11
990.332	2416.74
990.63	2375.39
990.927	2406.12
991.224	2381.94
991.521	2374.94
991.819	2353.47
992.116	2384.88
992.413	2367.93
992.71	2307.82
993.006	2299.69
993.303	2309.63
993.6	2279.35
993.897	2323.64
994.193	2285.67
994.49	2268.73
994.787	2248.16
995.083	2216.3
995.379	2226.92
995.676	2227.6
995.972	2228.5
996.268	2216.75
996.565	2184.89
996.861	2185.56
997.157	2200.48
997.453	2176.98
997.749	2123.64
998.044	2172.46
998.34	2169.97
998.636	2152.8
998.932	2098.11
999.227	2117.77
999.523	2092.23
999.818	2092.01
1000.114	2041.39
1000.409	2043.65
1000.704	2058.11
1001	2028.05
1001.295	2009.75
1001.59	2014.04
1001.885	2000.48
1002.18	1992.8
1002.475	1979.47
1002.77	2009.07
1003.065	1956.19
1003.359	1950.54
1003.654	1934.27
1003.949	1942.63
1004.243	1936.53
1004.538	1916.19
1004.832	1904.67
1005.127	1884.33
1005.421	1900.6
1005.715	1855.4
1006.009	1856.99
1006.304	1846.36
1006.598	1846.14
1006.892	1826.48
1007.186	1819.02
1007.48	1816.53
1007.773	1800.49
1008.067	1797.1
1008.361	1770.66
1008.655	1775.41
1008.948	1737.89
1009.242	1756.65
1009.535	1737.67
1009.829	1723.66
1010.122	1728.4
1010.415	1718.68
1010.708	1685.69
1011.001	1707.38
1011.295	1665.8
1011.588	1689.98
1011.881	1671.91
1012.173	1651.79
1012.466	1658.8
1012.759	1620.16
1013.052	1628.52
1013.344	1602.3
1013.637	1604.11
1013.93	1615.86
1014.222	1572.92
1014.514	1612.25
1014.807	1561.17
1015.099	1573.83
1015.391	1554.62
1015.683	1569.54
1015.976	1554.39
1016.268	1531.8
1016.56	1519.14
1016.851	1506.71
1017.143	1497.22
1017.435	1482.08
1017.727	1502.19
1018.018	1475.3
1018.31	1481.63
1018.602	1454.74
1018.893	1441.18
1019.185	1440.5
1019.476	1427.39
1019.767	1427.17
1020.058	1402.08
1020.35	1412.25
1020.641	1394.17
1020.932	1354.85
1021.223	1344
1021.514	1364.79
1021.804	1341.97
1022.095	1365.47
1022.386	1316.43
1022.677	1315.76
1022.967	1294.51
1023.258	1283.21
1023.548	1352.37
1023.839	1302.88
1024.129	1300.62
1024.419	1271.01
1024.709	1254.97
1025	1252.26
1025.29	1278.24
1025.58	1239.15
1025.87	1240.73
1026.16	1221.97
1026.449	1230.56
1026.739	1208.64
1027.029	1192.6
1027.319	1204.57
1027.608	1202.99
1027.898	1188.53
1028.187	1146.72
1028.477	1170.22
1028.766	1144.24
1029.055	1146.5
1029.344	1142.88
1029.634	1135.87
1029.923	1118.93
1030.212	1101.98
1030.501	1117.8
1030.79	1111.24
1031.078	1090.9
1031.367	1092.26
1031.656	1091.81
1031.945	1076.89
1032.233	1079.38
1032.522	1057.68
1032.81	1053.39
1033.099	1063.33
1033.387	1041.64
1033.675	1017.01
1033.963	1018.82
1034.251	1031.24
1034.54	1013.17
1034.828	1008.42
1035.116	1017.69
1035.403	1014.75
1035.691	1008.87
1035.979	997.12
1036.267	969.32
1036.554	980.85
1036.842	982.43
1037.129	967.97
1037.417	934.3
1037.704	946.5
1037.992	949.89
1038.279	943.56
1038.566	933.39
1038.853	933.39
1039.14	933.39
