Data from hue_10_FLMS001491_87.txt Node
Date: Mon Feb 06 15:32:42 GMT 2017
User: dcchb
Spectrometer: FLMS00149
Trigger mode: 0
Integration Time (sec): 2.000000E-2
Scans to average: 10
Electric dark correction enabled: true
Nonlinearity correction enabled: false
Boxcar width: 0
XAxis mode: Wavelengths
Number of Pixels in Spectrum: 2048
>>>>>Begin Spectral Data<<<<<
341.393	3.77
341.776	3.77
342.16	3.77
342.543	-61.31
342.927	-81.65
343.31	-71.93
343.693	-40.75
344.077	-72.84
344.46	-57.7
344.843	-43.46
345.226	-43.46
345.61	-31.71
345.993	-24.25
346.376	-7.98
346.759	27.73
347.142	9.19
347.525	29.99
347.908	54.17
348.291	86.48
348.674	86.48
349.057	100.04
349.44	133.71
349.823	152.92
350.206	171
350.588	206.93
350.971	226.59
351.354	222.3
351.737	220.49
352.119	245.8
352.502	252.58
352.884	264.78
353.267	276.76
353.65	292.58
354.032	301.84
354.414	305.46
354.797	319.47
355.179	301.39
355.562	336.87
355.944	345.91
356.326	320.37
356.709	341.84
357.091	352.69
357.473	340.26
357.855	351.56
358.238	339.58
358.62	345.91
359.002	337.32
359.384	357.21
359.766	344.33
360.148	358.11
360.53	344.33
360.912	353.59
361.294	326.47
361.676	341.62
362.057	340.26
362.439	326.93
362.821	335.74
363.203	338
363.584	336.42
363.966	321.73
364.348	324.44
364.729	329.19
365.111	303.42
365.493	325.57
365.874	311.11
366.256	331.67
366.637	338.23
367.019	323.54
367.4	317.66
367.781	321.5
368.163	327.15
368.544	316.53
368.925	291
369.306	319.02
369.688	319.24
370.069	342.29
370.45	320.82
370.831	328.28
371.212	309.75
371.593	339.58
371.974	318.34
372.355	313.37
372.736	334.16
373.117	297.55
373.498	306.81
373.879	316.76
374.26	342.75
374.641	319.02
375.021	324.67
375.402	324.89
375.783	321.05
376.163	327.83
376.544	328.28
376.925	312.69
377.305	329.86
377.686	312.46
378.066	310.66
378.447	330.32
378.827	346.36
379.208	346.36
379.588	327.38
379.968	340.26
380.349	335.51
380.729	353.14
381.109	339.13
381.489	347.26
381.87	334.38
382.25	329.41
382.63	350.43
383.01	343.65
383.39	348.39
383.77	360.15
384.15	344.33
384.53	339.13
384.91	348.39
385.29	340.26
385.67	358.34
386.049	360.82
386.429	354.27
386.809	354.04
387.189	352.69
387.568	339.58
387.948	342.52
388.328	349.3
388.707	359.47
389.087	350.43
389.466	355.17
389.846	355.85
390.225	356.53
390.605	373.7
390.984	365.8
391.363	352.01
391.743	353.14
392.122	358.34
392.501	381.39
392.881	369.19
393.26	369.86
393.639	386.59
394.018	365.12
394.397	356.98
394.776	368.06
395.155	370.54
395.534	375.74
395.913	380.94
396.292	381.84
396.671	386.81
397.05	371.22
397.429	392.24
397.808	367.6
398.186	383.42
398.565	399.47
398.944	388.85
399.323	371.22
399.701	370.77
400.08	395.85
400.458	389.07
400.837	390.65
401.215	389.52
401.594	399.47
401.972	392.24
402.351	365.8
402.729	370.99
403.107	392.46
403.486	404.66
403.864	420.26
404.242	421.61
404.62	405.57
404.999	413.48
405.377	415.29
405.755	408.28
406.133	414.38
406.511	416.42
406.889	418.22
407.267	413.7
407.645	441.73
408.023	420.71
408.401	442.86
408.779	448.28
409.156	432.23
409.534	442.18
409.912	439.01
410.29	451.44
410.667	456.41
411.045	443.99
411.422	448.73
411.8	442.18
412.178	468.84
412.555	434.72
412.933	458.45
413.31	453.93
413.687	457.09
414.065	468.84
414.442	472.01
414.819	466.81
415.197	466.13
415.574	470.88
415.951	481.05
416.328	456.87
416.705	488.96
417.082	484.44
417.46	485.34
417.837	509.29
418.214	498.9
418.591	502.97
418.967	493.48
419.344	502.74
419.721	496.41
420.098	496.64
420.475	509.97
420.852	522.63
421.228	518.56
421.605	496.41
421.982	512.01
422.358	520.37
422.735	541.61
423.111	509.75
423.488	539.8
423.864	551.33
424.241	541.38
424.617	521.5
424.994	551.55
425.37	536.41
425.746	544.32
426.123	533.93
426.499	552.01
426.875	559.69
427.251	558.33
427.627	564.43
428.003	552.68
428.379	585.45
428.756	563.76
429.132	559.24
429.507	567.15
429.883	578.67
430.259	574.38
430.635	603.98
431.011	602.63
431.387	599.91
431.763	605.79
432.138	622.74
432.514	598.11
432.89	609.63
433.265	633.13
433.641	628.84
434.016	623.64
434.392	612.12
434.767	662.06
435.143	623.42
435.518	643.3
435.894	636.3
436.269	656.18
436.644	641.95
437.02	681.04
437.395	652.57
437.77	679.23
438.145	673.58
438.52	689.63
438.895	705.9
439.271	680.36
439.646	700.02
440.021	712
440.395	717.2
440.77	684.88
441.145	708.61
441.52	707.03
441.895	758.1
442.27	745.45
442.645	706.8
443.019	725.33
443.394	722.17
443.769	738.22
444.143	743.19
444.518	737.99
444.892	753.13
445.267	755.84
445.641	768.04
446.016	750.19
446.39	768.27
446.764	765.33
447.139	778.44
447.513	758.1
447.887	763.53
448.262	780.93
448.636	781.83
449.01	777.31
449.384	806.69
449.758	784.99
450.132	807.82
450.506	803.98
450.88	797.65
451.254	794.03
451.628	819.34
452.002	838.33
452.376	823.86
452.75	837.2
453.123	846.23
453.497	833.13
453.871	854.14
454.244	863.18
454.618	851.43
454.992	867.48
455.365	874.93
455.739	897.53
456.112	897.31
456.486	882.17
456.859	900.7
457.232	929.17
457.606	950.64
457.979	906.8
458.352	976.17
458.725	951.09
459.099	965.55
459.472	972.56
459.845	970.53
460.218	994.93
460.591	991.77
460.964	988.83
461.337	1006.46
461.71	1024.99
462.083	1051.65
462.456	1041.71
462.829	1069.28
463.201	1050.3
463.574	1053.69
463.947	1085.32
464.32	1093.46
464.692	1111.54
465.065	1087.58
465.438	1105.44
465.81	1113.12
466.183	1129.84
466.555	1164.87
466.928	1176.62
467.3	1185.21
467.672	1209.16
468.045	1225.43
468.417	1212.78
468.789	1220.69
469.161	1237.41
469.534	1240.12
469.906	1295.71
470.278	1308.6
470.65	1310.86
471.022	1323.51
471.394	1351.08
471.766	1357.63
472.138	1388.37
472.51	1408.25
472.882	1415.71
473.253	1463.62
473.625	1466.56
473.997	1498.65
474.369	1517.63
474.74	1492.77
475.112	1528.48
475.484	1557.4
475.855	1590.62
476.227	1611.86
476.598	1629.04
476.97	1666.33
477.341	1696.16
477.713	1718.75
478.084	1733.9
478.455	1750.84
478.827	1839.43
479.198	1872.87
479.569	1873.55
479.94	1927.11
480.311	1939.31
480.682	1981.8
481.053	2027.9
481.424	2065.41
481.795	2086.88
482.166	2102.02
482.537	2138.63
482.908	2186.76
483.279	2235.12
483.65	2248.23
484.021	2311.73
484.391	2320.32
484.762	2388.57
485.133	2416.59
485.503	2466.76
485.874	2511.05
486.244	2500.65
486.615	2550.14
486.985	2609.35
487.356	2630.82
487.726	2658.84
488.097	2760.31
488.467	2760.76
488.837	2779.07
489.207	2878.72
489.578	2888.22
489.948	2938.16
490.318	3002.56
490.688	3006.63
491.058	3093.41
491.428	3129.79
491.798	3118.94
492.168	3211.14
492.538	3201.2
492.908	3237.81
493.278	3277.81
493.648	3264.7
494.017	3402.1
494.387	3418.82
494.757	3389.22
495.126	3465.15
495.496	3454.08
495.866	3501.76
496.235	3558.48
496.605	3572.26
496.974	3614.52
497.344	3653.39
497.713	3654.75
498.082	3692.26
498.452	3717.57
498.821	3763.67
499.19	3763.45
499.559	3811.35
499.928	3821.75
500.298	3869.66
500.667	3897.91
501.036	3877.57
501.405	3915.31
501.774	3918.92
502.143	3971.35
502.512	3959.37
502.88	4043.66
503.249	4063.1
503.618	4070.56
503.987	4062.42
504.356	4081.18
504.724	4156.66
505.093	4144.45
505.462	4208.86
505.83	4153.04
506.199	4222.42
506.567	4270.33
506.936	4281.17
507.304	4297.67
507.672	4338.8
508.041	4351
508.409	4338.12
508.777	4381.28
509.145	4409.3
509.514	4455.18
509.882	4445.01
510.25	4474.39
510.618	4502.41
510.986	4527.95
511.354	4577.21
511.722	4562.3
512.09	4568.85
512.458	4563.2
512.826	4604.55
513.193	4620.37
513.561	4674.16
513.929	4683.87
514.297	4687.26
514.664	4700.14
515.032	4726.58
515.4	4774.49
515.767	4769.52
516.135	4798
516.502	4712.12
516.869	4816.3
517.237	4828.05
517.604	4813.59
517.972	4880.93
518.339	4866.92
518.706	4875.73
519.073	4876.19
519.44	4921.38
519.808	4978.33
520.175	4953.47
520.542	5012.9
520.909	5003.64
521.276	5011.55
521.643	5087.71
522.009	5132.9
522.376	5084.32
522.743	5117.53
523.11	5175.39
523.477	5228.04
523.843	5244.99
524.21	5234.37
524.577	5280.92
524.943	5297.87
525.31	5304.2
525.676	5380.13
526.043	5359.11
526.409	5435.49
526.776	5433.01
527.142	5508.03
527.508	5496.73
527.874	5529.05
528.241	5536.28
528.607	5613.79
528.973	5607.69
529.339	5648.59
529.705	5689.27
530.071	5715.71
530.437	5725.65
530.803	5771.3
531.169	5803.84
531.535	5816.95
531.901	5809.27
532.267	5832.09
532.632	5901.92
532.998	5896.05
533.364	5880
533.73	5927.46
534.095	5933.33
534.461	5996.61
534.826	6046.55
535.192	6059.43
535.557	6050.39
535.923	6084.29
536.288	6103.27
536.653	6158.64
537.019	6154.57
537.384	6132.2
537.749	6180.33
538.114	6290.61
538.479	6218.97
538.845	6296.26
539.21	6310.5
539.575	6278.86
539.94	6336.26
540.305	6363.15
540.67	6386.88
541.034	6381
541.399	6434.79
541.764	6421
542.129	6474.34
542.494	6484.05
542.858	6553.43
543.223	6551.85
543.587	6560.43
543.952	6619.87
544.316	6600.66
544.681	6698.96
545.045	6692.18
545.41	6719.07
545.774	6780.09
546.138	6766.98
546.503	6767.89
546.867	6825.96
547.231	6899.86
547.595	6851.27
547.959	6882.01
548.324	6893.76
548.688	6935.57
549.052	6969.92
549.416	6969.69
549.779	6961.1
550.143	6976.02
550.507	7035.45
550.871	7083.36
551.235	7100.76
551.599	7157.93
551.962	7183.24
552.326	7137.14
552.689	7270.7
553.053	7171.04
553.417	7249.23
553.78	7331.26
554.143	7241.77
554.507	7339.17
554.87	7272.05
555.234	7395.22
555.597	7354.31
555.96	7422.33
556.323	7379.17
556.686	7419.4
557.05	7515.21
557.413	7465.72
557.776	7604.25
558.139	7578.04
558.502	7658.03
558.865	7572.16
559.228	7737.35
559.59	7675.43
559.953	7650.12
560.316	7738.93
560.679	7732.61
561.041	7777.13
561.404	7796.56
561.767	7808.31
562.129	7833.85
562.492	7913.62
562.854	7910
563.217	7957.69
563.579	7916.56
563.941	7945.48
564.304	8025.48
564.666	8030.68
565.028	8031.36
565.39	8125.82
565.753	8118.81
566.115	8098.02
566.477	8250.11
566.839	8194.29
567.201	8232.03
567.563	8331.01
567.925	8353.16
568.287	8331.91
568.648	8369.43
569.01	8393.61
569.372	8478.35
569.734	8409.2
570.095	8536.65
570.457	8507.05
570.819	8547.28
571.18	8572.59
571.542	8697.55
571.903	8655.52
572.265	8759.25
572.626	8820.94
572.987	8829.3
573.349	8871.33
573.71	8942.75
574.071	8974.61
574.432	9034.04
574.794	9161.95
575.155	9107.03
575.516	9129.86
575.877	9286.01
576.238	9293.02
576.599	9326.01
576.96	9370.08
577.32	9428.16
577.681	9566.01
578.042	9690.52
578.403	9750.18
578.763	9776.4
579.124	10006.45
579.485	9996.95
579.845	10151.07
580.206	10239.89
580.566	10326.21
580.927	10432.2
581.287	10603.72
581.648	10669.93
582.008	10819.98
582.368	10945.4
582.728	11048.45
583.089	11193.53
583.449	11385.17
583.809	11519.63
584.169	11692.28
584.529	11841.2
584.889	12161.64
585.249	12204.58
585.609	12351.92
585.969	12600.95
586.329	12753.49
586.688	13027.38
587.048	13180.37
587.408	13452.91
587.768	13631.44
588.127	13864.42
588.487	14060.12
588.846	14441.36
589.206	14484.29
589.565	14800.44
589.925	15161.79
590.284	15384.16
590.643	15616.24
591.003	15896.01
591.362	16244.25
591.721	16381.87
592.08	16722.65
592.44	17065.02
592.799	17285.8
593.158	17575.06
593.517	17823.42
593.876	18254.14
594.235	18510.18
594.593	18733
594.952	19125.98
595.311	19316.03
595.67	19726.87
596.029	19999.4
596.387	20360.52
596.746	20811.81
597.104	20925.48
597.463	21139.03
597.822	21542.19
598.18	21772.69
598.538	22030.76
598.897	22593.23
599.255	22655.83
599.613	23296.72
599.972	23389.82
600.33	23814.67
600.688	23905.52
601.046	24253.08
601.404	24614.2
601.762	24947.07
602.12	25289.43
602.478	25573.95
602.836	25964.22
603.194	26019.81
603.552	26313.59
603.91	26665.44
604.268	26994.25
604.625	27119.67
604.983	27426.33
605.341	27572.99
605.698	27967.33
606.056	28344.49
606.413	28633.98
606.771	28794.65
607.128	29060.18
607.485	29306.05
607.843	29519.15
608.2	29955.98
608.557	30204.11
608.914	30318
609.272	30672.34
609.629	30956.4
609.986	31364.75
610.343	31186.45
610.7	31707.57
611.057	31863.27
611.414	32051.06
611.771	32245.41
612.127	32454.44
612.484	32581.22
612.841	32870.48
613.198	32955.45
613.554	33252.39
613.911	33557.92
614.267	33701.64
614.624	33766.73
614.98	34152.25
615.337	34359.03
615.693	34322.87
616.05	34468.85
616.406	34955.17
616.762	34860.48
617.118	35056.86
617.475	35250.08
617.831	35417.98
618.187	35513.57
618.543	35785.88
618.899	35983.39
619.255	36163.27
619.611	36238.75
619.967	36384.74
620.323	36690.72
620.678	36536.6
621.034	36655.69
621.39	36767.55
621.746	36737.27
622.101	37235.79
622.457	37155.34
622.812	37217.71
623.168	37397.82
623.523	37491.82
623.879	37752.16
624.234	37469.45
624.589	37885.49
624.945	37840.97
625.3	38010.23
625.655	38079.83
626.01	38099.27
626.365	38191.02
626.72	38352.14
627.075	38293.61
627.43	38366.15
627.785	38296.1
628.14	38524.34
628.495	38676.2
628.85	38546.71
629.205	38465.58
629.559	38919.36
629.914	38754.62
630.269	38875.07
630.623	38862.41
630.978	38688.63
631.332	38938.11
631.687	38920.49
632.041	39002.29
632.396	38948.28
632.75	38725.24
633.104	39000.03
633.459	38871.9
633.813	38965.68
634.167	38995.74
634.521	39034.84
634.875	39096.08
635.229	39055.63
635.583	38916.65
635.937	38987.38
636.291	39006.59
636.645	38997.77
636.999	38982.63
637.352	39074.83
637.706	38921.17
638.06	39137.66
638.413	39061.28
638.767	38960.94
639.121	39107.15
639.474	38779.47
639.828	38998.45
640.181	39052.01
640.534	38938.79
640.888	38931.11
641.241	38767.05
641.594	38988.06
641.947	38915.97
642.301	38787.16
642.654	39012.69
643.007	38710.78
643.36	38765.01
643.713	38786.25
644.066	39013.14
644.419	38677.78
644.771	38497
645.124	38154.18
645.477	38096.1
645.83	38016.33
646.182	37760.07
646.535	37667.87
646.888	37870.12
647.24	37631.03
647.593	37803.46
647.945	37819.27
648.298	37702.44
648.65	37575.21
649.002	37429.91
649.355	37693.63
649.707	37496.8
650.059	37709.22
650.411	38148.98
650.763	38301.97
651.115	38576.77
651.467	38372.03
651.819	38520.27
652.171	38407.28
652.523	38236.44
652.875	38327.06
653.227	38141.07
653.578	38365.02
653.93	38316.44
654.282	38186.04
654.633	38101.07
654.985	38196.89
655.337	38229.66
655.688	38190.11
656.039	38206.61
656.391	38037.12
656.742	38009.33
657.094	38148.53
657.445	38173.84
657.796	38188.08
658.147	37996.67
658.498	37928.88
658.849	38095.2
659.2	38012.04
659.551	38066.5
659.902	38137.01
660.253	37967.97
660.604	37951.02
660.955	37920.06
661.306	38034.18
661.656	37960.06
662.007	37931.14
662.358	37980.63
662.708	38002.09
663.059	38066.73
663.409	37751.93
663.76	37994.41
664.11	37852.27
664.461	37965.26
664.811	37895.43
665.161	37888.2
665.511	37798.71
665.862	38054.3
666.212	37953.51
666.562	37930.68
666.912	38071.02
667.262	37863.34
667.612	37854.75
667.962	37953.28
668.312	37728.65
668.662	37869.44
669.011	37929.33
669.361	37893.4
669.711	37697.02
670.06	37881.87
670.41	37751.48
670.76	37681.88
671.109	37866.28
671.459	37637.58
671.808	37692.5
672.157	37721.2
672.507	37459.51
672.856	37449.79
673.205	37560.52
673.554	37757.13
673.904	37485.05
674.253	37700.86
674.602	37537.25
674.951	36989.24
675.3	36855.68
675.649	37444.82
675.998	37409.79
676.346	37387.87
676.695	37461.77
677.044	37240.98
677.393	37335.9
677.741	37440.98
678.09	37283.24
678.438	37248.22
678.787	37286.63
679.135	37243.47
679.484	37090.93
679.832	37125.51
680.181	37040.99
680.529	37059.07
680.877	37056.13
681.225	37015
681.573	37211.83
681.922	37023.59
682.27	36898.85
682.618	36841.22
682.966	36612.98
683.314	36780.43
683.661	36686.87
684.009	36586.54
684.357	36424.73
684.705	36441.91
685.053	36468.35
685.4	36385.64
685.748	36073.56
686.095	36244.63
686.443	36133.22
686.79	36164.63
687.138	36105.87
687.485	36045.54
687.832	36034.46
688.18	35930.74
688.527	35705.66
688.874	35753.11
689.221	35620.46
689.568	35590.63
689.915	35508.83
690.262	35540.92
690.609	35288.04
690.956	35315.38
691.303	35278.1
691.65	35142.96
691.997	35159.46
692.344	34865.23
692.69	34858.22
693.037	34894.38
693.383	34542.52
693.73	34855.28
694.077	34493.49
694.423	34673.37
694.769	34337.33
695.116	34294.85
695.462	34262.31
695.808	34233.15
696.155	34212.59
696.501	34031.12
696.847	33957.91
697.193	33699.83
697.539	34003.1
697.885	33658.93
698.231	33586.39
698.577	33560.4
698.923	33479.28
699.269	33236.8
699.614	33201.09
699.96	33113.18
700.306	33254.87
700.651	33044.48
700.997	32880.65
701.342	32806.3
701.688	32982.79
702.033	32640.43
702.379	32751.84
702.724	32501.22
703.069	32561.79
703.415	32376.03
703.76	32328.34
704.105	32304.16
704.45	32294
704.795	32116.6
705.14	31983.95
705.485	31955.25
705.83	31725.42
706.175	31867.11
706.52	31690.4
706.865	31707.12
707.209	31651.75
707.554	31498.99
707.899	31503.06
708.243	31368.6
708.588	31397.97
708.932	31223.06
709.277	31120.02
709.621	31101.48
709.966	30902.62
710.31	31054.48
710.654	30665.11
710.998	30745.34
711.342	30677.09
711.687	30567.04
712.031	30522.06
712.375	30499.92
712.719	30499.92
713.063	30353.03
713.407	30353.03
713.75	30290.66
714.094	30196.88
714.438	30195.29
714.782	30267.16
715.125	29983.77
715.469	30074.62
715.812	29921.85
716.156	29798.47
716.499	29891.12
716.843	29896.32
717.186	29702.43
717.53	29830.33
717.873	29832.59
718.216	29757.34
718.559	29493.17
718.902	29351.7
719.246	29495.43
719.589	29330.46
719.932	29169.56
720.275	29359.16
720.617	29261.31
720.96	29202.55
721.303	29118.03
721.646	29101.99
721.989	29029.45
722.331	29057.02
722.674	28890.02
723.016	28940.86
723.359	28960.75
723.701	28846.4
724.044	28718.5
724.386	28567.77
724.729	28673.98
725.071	28478.28
725.413	28609.57
725.755	28687.54
726.097	28459.52
726.439	28340.2
726.782	28402.8
727.124	28422.46
727.465	28285.97
727.807	28250.49
728.149	28261.11
728.491	28178.85
728.833	28096.82
729.175	28085.97
729.516	27975.46
729.858	28026.54
730.199	28044.62
730.541	27963.26
730.882	27838.97
731.224	27878.97
731.565	27655.93
731.906	27714.45
732.248	27878.52
732.589	27626.32
732.93	27371.41
733.271	27541.58
733.612	27580.22
733.953	27595.36
734.294	27391.98
734.635	27350.4
734.976	27388.36
735.317	27316.95
735.658	27345.88
735.999	27321.47
736.339	27205.32
736.68	27337.52
737.021	27157.86
737.361	27038.77
737.702	27285.54
738.042	27103.17
738.383	27020.46
738.723	27047.35
739.063	27027.69
739.404	26987.69
739.744	26915.15
740.084	26760.81
740.424	26882.61
740.764	26823.63
741.104	26784.08
741.444	26647.36
741.784	26539.57
742.124	26669.51
742.464	26542.28
742.804	26493.47
743.143	26466.8
743.483	26512
743.823	26373.25
744.162	26249.18
744.502	26336.19
744.841	26248.73
745.181	26361.95
745.52	26245.34
745.86	26263.65
746.199	26116.53
746.538	26192.01
746.877	26235.17
747.216	26194.49
747.556	26026.36
747.895	26102.75
748.234	25957.66
748.573	25959.02
748.911	25890.32
749.25	25915.18
749.589	25756.54
749.928	25875.41
750.267	25752.25
750.605	25794.96
750.944	25631.57
751.283	25585.92
751.621	25630.44
751.96	25457.11
752.298	25534.17
752.636	25508.86
752.975	25403.78
753.313	25270
753.651	25444.91
753.989	25240.17
754.327	25126.73
754.666	25117.46
755.004	25074.98
755.342	25130.34
755.679	25113.17
756.017	24882.66
756.355	24992.49
756.693	24983.91
757.031	24929.22
757.368	24748.43
757.706	24746.4
758.044	24586.18
758.381	24658.26
758.719	24592.96
759.056	24488.1
759.394	24388.21
759.731	24333.3
760.068	24265.73
760.405	24160.88
760.743	24193.64
761.08	24138.05
761.417	24010.37
761.754	23947.1
762.091	23842.47
762.428	23784.61
762.765	23692.19
763.102	23680.66
763.438	23604.28
763.775	23560.21
764.112	23609.93
764.449	23527.22
764.785	23408.81
765.122	23296.94
765.458	23316.6
765.795	23255.36
766.131	23107.12
766.467	23128.59
766.804	22984.64
767.14	22859.89
767.476	23006.1
767.812	22856.96
768.148	22732.66
768.485	22678.2
768.821	22545.55
769.157	22498.77
769.492	22531.09
769.828	22446.8
770.164	22210.64
770.5	22224.66
770.836	22162.28
771.171	22055.62
771.507	22045
771.842	21748.06
772.178	21835.51
772.513	21684.78
772.849	21711.22
773.184	21448.86
773.519	21536.31
773.855	21420.61
774.19	21448.18
774.525	21390.78
774.86	21166.15
775.195	21167.28
775.53	21038.02
775.865	20961.64
776.2	20838.03
776.535	20751.93
776.87	20745.6
777.205	20700.85
777.539	20616.34
777.874	20607.07
778.209	20539.5
778.543	20414.08
778.878	20242.56
779.212	20271.03
779.547	20128.89
779.881	20245.5
780.215	19930.25
780.55	20040.53
780.884	19928.9
781.218	19796.25
781.552	19749.47
781.886	19672.41
782.22	19590.15
782.554	19566.42
782.888	19370.72
783.222	19262.7
783.556	19240.55
783.889	19168.92
784.223	19080.78
784.557	19090.95
784.89	19069.48
785.224	18969.37
785.557	18871.07
785.891	18733
786.224	18766.89
786.558	18757.63
786.891	18667.69
787.224	18534.13
787.557	18455.72
787.891	18441.93
788.224	18518.31
788.557	18375.04
788.89	18347.7
789.223	18211.43
789.556	18169.62
789.888	18193.12
790.221	18199.68
790.554	17871.55
790.887	17936.86
791.219	17829.97
791.552	17780.7
791.884	17716.75
792.217	17714.49
792.549	17657.32
792.882	17510.88
793.214	17418.23
793.546	17511.11
793.879	17298.68
794.211	17279.02
794.543	17247.61
794.875	17189.31
795.207	17273.15
795.539	17100.27
795.871	17073.38
796.203	16933.72
796.535	16824.57
796.867	16822.54
797.198	16712.03
797.53	16712.48
797.862	16621.41
798.193	16590.45
798.525	16437.69
798.856	16496.44
799.188	16368.09
799.519	16387.75
799.85	16269.11
800.182	16216.45
800.513	16230.46
800.844	16089
801.175	16218.71
801.506	16089.68
801.837	16050.81
802.168	16011.94
802.499	15870.02
802.83	15824.37
803.161	15862.11
803.491	15895.33
803.822	15790.02
804.153	15652.17
804.483	15602.23
804.814	15525.62
805.145	15569.92
805.475	15591.16
805.805	15488.11
806.136	15423.7
806.466	15466.87
806.796	15364.05
807.126	15221.45
807.457	15312.52
807.787	15276.14
808.117	15226.2
808.447	15132.41
808.777	15154.79
809.107	15070.27
809.436	15014.68
809.766	14984.17
810.096	14929.48
810.426	14866.43
810.755	14970.61
811.085	14869.37
811.414	14850.16
811.744	14706.89
812.073	14740.11
812.403	14691.29
812.732	14566.78
813.061	14538.98
813.39	14404.07
813.719	14471.64
814.049	14464.18
814.378	14421.7
814.707	14336.28
815.036	14348.93
815.365	14271.19
815.693	14126.11
816.022	14196.62
816.351	14208.14
816.68	14028.49
817.008	14121.14
817.337	13957.53
817.665	13968.15
817.994	14062.16
818.322	14042.27
818.651	13873.24
818.979	13881.6
819.307	13910.3
819.636	13878.89
819.964	13826.23
820.292	13807.7
820.62	13787.14
820.948	13718.89
821.276	13785.33
821.604	13762.96
821.932	13833.24
822.259	13671.21
822.587	13673.47
822.915	13630.98
823.243	13668.95
823.57	13665.56
823.898	13678.89
824.225	13693.81
824.553	13701.26
824.88	13665.11
825.207	13705.78
825.535	13637.54
825.862	13677.08
826.189	13572.91
826.516	13709.63
826.843	13706.24
827.17	13725.22
827.497	13714.6
827.824	13719.57
828.151	13705.33
828.478	13676.41
828.805	13707.59
829.131	13629.63
829.458	13583.75
829.785	13637.31
830.111	13551.66
830.438	13644.09
830.764	13646.12
831.09	13664.43
831.417	13530.2
831.743	13602.51
832.069	13621.72
832.395	13497.43
832.722	13569.52
833.048	13499.69
833.374	13467.37
833.7	13525
834.026	13435.96
834.351	13489.97
834.677	13451.1
835.003	13529.07
835.329	13472.34
835.654	13459.01
835.98	13391.67
836.306	13413.36
836.631	13379.24
836.956	13263.76
837.282	13320.26
837.607	13272.35
837.932	13303.08
838.258	13301.73
838.583	13280.26
838.908	13221.28
839.233	13293.14
839.558	13176.98
839.883	13103.54
840.208	13155.97
840.533	13097.44
840.858	13134.5
841.182	13067.38
841.507	13079.13
841.832	12969.08
842.156	12924.56
842.481	13010.43
842.805	12954.62
843.13	12909.65
843.454	12873.72
843.778	12830.78
844.103	12839.14
844.427	12733.38
844.751	12797.78
845.075	12705.36
845.399	12669.65
845.723	12710.56
846.047	12638.02
846.371	12511.01
846.695	12529.77
847.019	12422.2
847.343	12414.97
847.666	12277.8
847.99	12215.2
848.313	12285.93
848.637	12174.52
848.96	12157.12
849.284	12108.76
849.607	11969.11
849.931	11942.44
850.254	11869.22
850.577	11885.27
850.9	11781.09
851.223	11734.99
851.546	11685.5
851.869	11591.71
852.192	11722.78
852.515	11581.32
852.838	11546.52
853.161	11506.75
853.483	11499.97
853.806	11466.07
854.129	11365.96
854.451	11348.33
854.774	11316.24
855.096	11292.51
855.419	11251.16
855.741	11224.04
856.063	11197.38
856.385	11109.92
856.708	11084.84
857.03	11034.89
857.352	11055.23
857.674	11000.77
857.996	10968.45
858.318	10898.85
858.64	10916.93
858.961	10888.46
859.283	10828.8
859.605	10724.17
859.926	10834.22
860.248	10758.74
860.57	10671.06
860.891	10704.05
861.212	10627.45
861.534	10633.77
861.855	10638.29
862.176	10571.4
862.498	10619.54
862.819	10582.93
863.14	10548.35
863.461	10637.84
863.782	10519.65
864.103	10451.18
864.424	10448.69
864.745	10388.58
865.065	10390.39
865.386	10350.17
865.707	10351.75
866.027	10397.17
866.348	10307.23
866.668	10357.17
866.989	10276.5
867.309	10238.08
867.63	10224.75
867.95	10246.67
868.27	10193.56
868.59	10229.26
868.91	10207.12
869.23	10115.14
869.55	10069.27
869.87	10154.24
870.19	10128.7
870.51	10141.58
870.83	10092.55
871.15	10079.89
871.469	10082.38
871.789	10053.68
872.109	10046.67
872.428	9981.36
872.748	10009.61
873.067	10043.28
873.386	10003.96
873.706	9975.03
874.025	9944.3
874.344	9965.54
874.663	9896.84
874.982	9886
875.301	9881.7
875.62	9781.14
875.939	9783.63
876.258	9794.93
876.577	9746.79
876.896	9706.11
877.214	9707.02
877.533	9740.92
877.852	9653.91
878.17	9668.6
878.489	9708.37
878.807	9641.03
879.125	9641.71
879.444	9685.1
879.762	9640.35
880.08	9616.4
880.398	9594.03
880.716	9598.77
881.034	9566.46
881.352	9553.8
881.67	9518.1
881.988	9473.8
882.306	9445.1
882.624	9491.88
882.941	9422.05
883.259	9430.42
883.577	9380.7
883.894	9345.22
884.212	9348.84
884.529	9312.9
884.846	9297.31
885.164	9247.37
885.481	9269.52
885.798	9297.76
886.115	9244.88
886.432	9163.08
886.75	9163.98
887.067	9170.99
887.383	9129.18
887.7	9116.75
888.017	9038.79
888.334	9139.8
888.651	9108.84
888.967	9020.03
889.284	8976.87
889.6	8953.14
889.917	8915.4
890.233	8877.44
890.55	8886.25
890.866	8931.45
891.182	8855.29
891.498	8833.82
891.815	8821.17
892.131	8779.81
892.447	8761.05
892.763	8712.69
893.079	8669.98
893.395	8596.31
893.71	8669.31
894.026	8651.45
894.342	8625.92
894.657	8553.83
894.973	8509.54
895.289	8429.09
895.604	8469.31
895.92	8407.84
896.235	8388.86
896.55	8387.51
896.865	8365.81
897.181	8319.03
897.496	8352.03
897.811	8313.38
898.126	8285.14
898.441	8216.44
898.756	8220.05
899.071	8170.79
899.386	8172.14
899.7	8113.84
900.015	8037.01
900.33	8057.12
900.644	8047.4
900.959	8028.87
901.273	7997.01
901.588	7912.94
901.902	7894.64
902.216	7897.57
902.531	7834.98
902.845	7883.34
903.159	7798.37
903.473	7794.75
903.787	7725.6
904.101	7693.74
904.415	7749.33
904.729	7681.76
905.042	7595.44
905.356	7643.34
905.67	7573.06
905.984	7566.06
906.297	7558.37
906.611	7481.99
906.924	7459.85
907.237	7510.24
907.551	7419.62
907.864	7381.2
908.177	7319.74
908.491	7357.48
908.804	7315.22
909.117	7222.56
909.43	7200.19
909.743	7125.39
910.056	7192.51
910.368	7120.87
910.681	7139.4
910.994	7099.86
911.307	7056.02
911.619	7018.73
911.932	7025.28
912.244	6970.59
912.557	6943.48
912.869	6908
913.181	6869.13
913.494	6885.17
913.806	6819.41
914.118	6882.01
914.43	6754.33
914.742	6737.15
915.054	6752.75
915.366	6728.79
915.678	6682.47
915.99	6622.35
916.302	6535.58
916.613	6545.97
916.925	6548.01
917.236	6523.6
917.548	6503.04
917.859	6499.87
918.171	6456.26
918.482	6433.88
918.794	6376.03
919.105	6378.29
919.416	6346.43
919.727	6322.48
920.038	6305.75
920.349	6254.45
920.66	6235.92
920.971	6257.39
921.282	6185.53
921.593	6125.19
921.903	6154.57
922.214	6105.98
922.525	6096.27
922.835	6058.08
923.146	6030.96
923.456	6050.17
923.767	5961.81
924.077	5945.54
924.387	5891.98
924.697	5869.15
925.008	5867.12
925.318	5845.88
925.628	5864.41
925.938	5828.93
926.248	5788.25
926.558	5747.57
926.867	5749.38
927.177	5726.33
927.487	5660.8
927.796	5629.39
928.106	5584.42
928.416	5595.49
928.725	5606.11
929.034	5541.25
929.344	5524.08
929.653	5517.07
929.962	5508.71
930.271	5447.24
930.581	5443.63
930.89	5446.34
931.199	5391.65
931.508	5365.89
931.817	5388.71
932.125	5316.17
932.434	5366.12
932.743	5302.84
933.051	5326.34
933.36	5247.25
933.669	5272.79
933.977	5233.01
934.286	5205.89
934.594	5183.07
934.902	5136.74
935.21	5093.58
935.519	5091.32
935.827	5086.8
936.135	5051.77
936.443	5034.6
936.751	5022.4
937.059	4981.72
937.367	4974.71
937.674	4945.11
937.982	4925.22
938.29	4858.78
938.597	4895.17
938.905	4822.63
939.213	4853.59
939.52	4798.67
939.827	4822.4
940.135	4764.32
940.442	4736.53
940.749	4725.68
941.056	4748.28
941.363	4683.65
941.67	4676.19
941.977	4706.7
942.284	4600.71
942.591	4608.17
942.898	4607.72
943.205	4585.12
943.511	4550.32
943.818	4524.78
944.125	4523.2
944.431	4480.94
944.738	4431.23
945.044	4425.12
945.35	4445.46
945.657	4393.26
945.963	4355.52
946.269	4407.05
946.575	4363.66
946.881	4307.16
947.187	4305.8
947.493	4295.18
947.799	4300.83
948.105	4263.55
948.41	4225.81
948.716	4212.93
949.022	4268.74
949.327	4207.73
949.633	4166.83
949.938	4176.54
950.244	4149.2
950.549	4132.7
950.854	4081.86
951.16	4065.36
951.465	4035.76
951.77	4034.85
952.075	4053.61
952.38	4041.18
952.685	4028.52
952.99	3981.52
953.294	3961.86
953.599	3939.49
953.904	3919.6
954.209	3883.67
954.513	3914.63
954.818	3863.78
955.122	3884.57
955.426	3863.78
955.731	3807.29
956.035	3839.15
956.339	3775.42
956.643	3791.69
956.948	3699.27
957.252	3776.55
957.556	3748.98
957.86	3744.92
958.163	3731.36
958.467	3677.35
958.771	3685.93
959.075	3676.89
959.378	3620.85
959.682	3604.35
959.985	3572.26
960.289	3618.59
960.592	3605.94
960.896	3561.19
961.199	3513.28
961.502	3549.21
961.805	3523.23
962.108	3508.09
962.411	3471.25
962.714	3476.45
963.017	3457.47
963.32	3472.83
963.623	3367.98
963.926	3387.86
964.228	3391.93
964.531	3405.26
964.833	3363.68
965.136	3353.97
965.438	3364.36
965.741	3333.63
966.043	3347.86
966.345	3271.71
966.648	3269.45
966.95	3291.37
967.252	3229.22
967.554	3257.7
967.856	3197.81
968.158	3230.13
968.46	3205.49
968.761	3159.62
969.063	3147.42
969.365	3159.17
969.666	3148.55
969.968	3098.6
970.269	3102.45
970.571	3096.12
970.872	3092.96
971.174	3041.66
971.475	3044.82
971.776	3053.18
972.077	3037.14
972.378	3047.53
972.679	2982.9
972.98	2991.72
973.281	2970.02
973.582	2981.32
973.883	2953.75
974.183	2945.16
974.484	2929.8
974.785	2941.09
975.085	2891.15
975.386	2941.77
975.686	2908.1
975.986	2852.74
976.287	2854.54
976.587	2834.43
976.887	2823.36
977.187	2860.19
977.487	2828.33
977.787	2779.97
978.087	2766.86
978.387	2758.95
978.687	2756.69
978.987	2747.2
979.286	2758.73
979.586	2742.46
979.885	2733.87
980.185	2721.67
980.484	2664.04
980.784	2659.07
981.083	2696.13
981.382	2660.42
981.682	2649.8
981.981	2641.67
982.28	2596.7
982.579	2591.27
982.878	2629.24
983.177	2553.31
983.475	2551.05
983.774	2575.23
984.073	2566.19
984.372	2537.04
984.67	2549.92
984.969	2527.77
985.267	2490.26
985.566	2502.01
985.864	2444.61
986.162	2459.07
986.461	2475.8
986.759	2419.07
987.057	2417.04
987.355	2417.49
987.653	2422.01
987.951	2429.47
988.249	2403.93
988.547	2367.32
988.844	2391.96
989.142	2390.38
989.44	2337.04
989.737	2343.6
990.035	2355.8
990.332	2315.35
990.63	2332.52
990.927	2303.37
991.224	2287.1
991.521	2292.98
991.819	2256.14
992.116	2252.3
992.413	2278.97
992.71	2228.8
993.006	2199.87
993.303	2198.29
993.6	2203.49
993.897	2211.17
994.193	2215.46
994.49	2147.67
994.787	2183.6
995.083	2145.64
995.379	2138.86
995.676	2138.4
995.972	2145.64
996.268	2132.98
996.565	2118.74
996.861	2109.48
997.157	2071.29
997.453	2101.34
997.749	2064.51
998.044	2062.7
998.34	2055.92
998.636	2056.15
998.932	2030.38
999.227	1990.39
999.523	2035.36
999.818	2008.46
1000.114	1966.21
1000.409	1986.09
1000.704	1967.56
1001	1960.56
1001.295	1930.5
1001.59	1925.3
1001.885	1922.14
1002.18	1912.87
1002.475	1938.18
1002.77	1897.96
1003.065	1854.8
1003.359	1901.12
1003.654	1896.38
1003.949	1837.62
1004.243	1854.8
1004.538	1841.91
1004.832	1843.5
1005.127	1817.73
1005.421	1818.19
1005.715	1791.75
1006.009	1788.13
1006.304	1801.92
1006.598	1740.9
1006.892	1759.21
1007.186	1735.03
1007.48	1736.83
1007.773	1710.84
1008.067	1735.03
1008.361	1695.93
1008.655	1705.42
1008.948	1669.49
1009.242	1686.66
1009.535	1671.3
1009.829	1658.87
1010.122	1646.89
1010.415	1632.65
1010.708	1608.47
1011.001	1645.99
1011.295	1635.37
1011.588	1587.01
1011.881	1587.23
1012.173	1552.88
1012.466	1592.2
1012.759	1588.36
1013.052	1573.22
1013.344	1545.88
1013.637	1542.26
1013.93	1548.14
1014.222	1531.87
1014.514	1535.93
1014.807	1520.79
1015.099	1473.56
1015.391	1485.77
1015.683	1471.98
1015.976	1496.39
1016.268	1476.5
1016.56	1459.1
1016.851	1474.69
1017.143	1429.5
1017.435	1431.08
1017.727	1441.02
1018.018	1437.18
1018.31	1412.55
1018.602	1383.4
1018.893	1402.38
1019.185	1363.06
1019.476	1370.06
1019.767	1366.67
1020.058	1366
1020.35	1346.79
1020.641	1330.74
1020.932	1342.94
1021.223	1319.67
1021.514	1314.92
1021.804	1292.32
1022.095	1274.7
1022.386	1296.17
1022.677	1293
1022.967	1290.29
1023.258	1253.91
1023.548	1273.79
1023.839	1257.98
1024.129	1233.34
1024.419	1238.54
1024.709	1219.56
1025	1214.81
1025.29	1192.89
1025.58	1182.27
1025.87	1200.8
1026.16	1201.93
1026.449	1189.5
1026.739	1150.18
1027.029	1179.56
1027.319	1140.92
1027.608	1130.97
1027.898	1163.51
1028.187	1140.46
1028.477	1118.09
1028.766	1122.16
1029.055	1125.78
1029.344	1102.27
1029.634	1108.15
1029.923	1110.41
1030.212	1110.86
1030.501	1078.32
1030.79	1063.18
1031.078	1083.06
1031.367	1041.94
1031.656	1052.78
1031.945	1061.14
1032.233	1015.72
1032.522	1053.69
1032.81	1023.86
1033.099	1038.32
1033.387	1010.07
1033.675	1019.11
1033.963	1006.91
1034.251	985.67
1034.54	982.73
1034.828	989.73
1035.116	990.19
1035.403	1010.52
1035.691	950.64
1035.979	942.96
1036.267	977.3
1036.554	933.46
1036.842	943.41
1037.129	950.41
1037.417	919.68
1037.704	931.88
1037.992	932.11
1038.279	917.42
1038.566	922.62
1038.853	922.62
1039.14	922.62
