Data from hue_100_FLMS001491_00005.txt Node
Date: Tue Feb 07 17:02:34 GMT 2017
User: dcchb
Spectrometer: FLMS00149
Trigger mode: 0
Integration Time (sec): 2.000000E-2
Scans to average: 10
Electric dark correction enabled: true
Nonlinearity correction enabled: false
Boxcar width: 0
XAxis mode: Wavelengths
Number of Pixels in Spectrum: 2048
>>>>>Begin Spectral Data<<<<<
341.393	-28.08
341.776	-28.08
342.16	-28.08
342.543	-57.91
342.927	-83.9
343.31	-75.31
343.693	-54.29
344.077	-74.4
344.46	-48.87
344.843	-30.34
345.226	-39.83
345.61	-21.75
345.993	-19.72
346.376	-28.76
346.759	0.62
347.142	-6.38
347.525	46.72
347.908	58.25
348.291	76.55
348.674	94.18
349.057	123.33
349.44	131.92
349.823	146.61
350.206	165.36
350.588	190.22
350.971	201.07
351.354	215.53
351.737	238.81
352.119	241.75
352.502	262.08
352.884	254.63
353.267	287.39
353.65	280.84
354.032	296.43
354.414	298.47
354.797	313.83
355.179	335.53
355.562	318.35
355.944	320.39
356.326	324.68
356.709	330.56
357.091	346.15
357.473	338.47
357.855	355.41
358.238	334.85
358.62	337.56
359.002	347.05
359.384	351.8
359.766	326.26
360.148	326.04
360.53	339.37
360.912	352.02
361.294	327.62
361.676	336.21
362.057	315.19
362.439	331.46
362.821	345.92
363.203	347.96
363.584	340.5
363.966	329.43
364.348	320.16
364.729	309.09
365.111	323.1
365.493	313.61
365.874	333.72
366.256	312.25
366.637	330.33
367.019	316.32
367.4	318.35
367.781	312.48
368.163	309.09
368.544	332.82
368.925	287.17
369.306	286.94
369.688	305.7
370.069	323.1
370.45	301.18
370.831	335.98
371.212	317
371.593	324.23
371.974	304.57
372.355	328.75
372.736	333.27
373.117	312.93
373.498	315.87
373.879	306.15
374.26	310.67
374.641	329.88
375.021	319.48
375.402	343.66
375.783	302.53
376.163	344.57
376.544	327.17
376.925	338.01
377.305	333.49
377.686	315.42
378.066	328.97
378.447	361.74
378.827	336.88
379.208	329.88
379.588	335.98
379.968	344.79
380.349	333.72
380.729	354.74
381.109	335.3
381.489	331.01
381.87	359.03
382.25	364.68
382.63	340.73
383.01	361.06
383.39	361.74
383.77	333.04
384.15	339.6
384.53	342.76
384.91	353.15
385.29	359.48
385.67	355.87
386.049	366.49
386.429	352.02
386.809	361.29
387.189	356.32
387.568	362.87
387.948	365.13
388.328	388.86
388.707	365.36
389.087	387.5
389.466	385.47
389.846	367.39
390.225	354.06
390.605	376.43
390.984	384.34
391.363	372.59
391.743	391.57
392.122	381.85
392.501	387.5
392.881	371.01
393.26	371.69
393.639	390.89
394.018	381.85
394.397	387.05
394.776	410.1
395.155	373.72
395.534	400.16
395.913	404.45
396.292	383.44
396.671	408.07
397.05	404.23
397.429	378.46
397.808	394.74
398.186	407.39
398.565	413.49
398.944	408.52
399.323	416.88
399.701	418.92
400.08	418.69
400.458	412.36
400.837	426.15
401.215	423.66
401.594	415.53
401.972	413.72
402.351	447.39
402.729	432.02
403.107	444.9
403.486	437.45
403.864	446.03
404.242	444.45
404.62	429.54
404.999	431.34
405.377	442.64
405.755	446.49
406.133	450.33
406.511	451.91
406.889	461.17
407.267	451.23
407.645	453.72
408.023	458.69
408.401	479.25
408.779	479.48
409.156	484.9
409.534	497.11
409.912	486.71
410.29	484.22
410.667	491.91
411.045	504.11
411.422	505.24
411.8	496.2
412.178	517.9
412.555	509.31
412.933	510.89
413.31	505.01
413.687	514.73
414.065	519.48
414.442	527.84
414.819	536.2
415.197	533.04
415.574	546.37
415.951	526.03
416.328	533.94
416.705	566.26
417.082	547.73
417.46	531.45
417.837	562.87
418.214	562.64
418.591	593.6
418.967	573.71
419.344	562.41
419.721	585.92
420.098	569.19
420.475	591.79
420.852	575.3
421.228	560.61
421.605	594.5
421.982	625.01
422.358	615.07
422.735	621.17
423.111	617.1
423.488	608.29
423.864	632.7
424.241	625.69
424.617	643.54
424.994	633.6
425.37	642.64
425.746	630.21
426.123	649.19
426.499	636.31
426.875	671.34
427.251	671.56
427.627	689.87
428.003	661.62
428.379	702.3
428.756	682.41
429.132	716.53
429.507	678.34
429.883	700.04
430.259	709.08
430.635	698.91
431.011	715.4
431.387	722.86
431.763	731.22
432.138	759.92
432.514	753.82
432.89	757.44
433.265	771.45
433.641	745.91
434.016	773.48
434.392	794.27
434.767	810.32
435.143	822.52
435.518	813.71
435.894	802.41
436.269	848.06
436.644	852.35
437.02	849.86
437.395	839.47
437.77	843.31
438.145	854.61
438.52	858.9
438.895	891.9
439.271	883.99
439.646	898.22
440.021	874.72
440.395	908.62
440.77	917.21
441.145	899.81
441.52	918.11
441.895	913.14
442.27	944.33
442.645	904.55
443.019	949.75
443.394	939.35
443.769	949.07
444.143	963.31
444.518	966.47
444.892	954.27
445.267	985.68
445.641	1005.57
446.016	1002.4
446.39	1003.98
446.764	1023.19
447.139	1004.89
447.513	1012.8
447.887	1034.04
448.262	1023.19
448.636	1034.72
449.01	1062.06
449.384	1031.1
449.758	1047.15
450.132	1077.43
450.506	1120.59
450.88	1064.77
451.254	1081.5
451.628	1094.6
452.002	1102.06
452.376	1139.8
452.75	1152.91
453.123	1128.73
453.497	1172.12
453.871	1166.24
454.244	1187.93
454.618	1205.11
454.992	1250.98
455.365	1216.41
455.739	1257.09
456.112	1232.45
456.486	1262.51
456.859	1258.89
457.232	1308.38
457.606	1311.32
457.979	1311.77
458.352	1339.12
458.725	1351.77
459.099	1341.38
459.472	1398.78
459.845	1420.25
460.218	1403.52
460.591	1446.23
460.964	1420.92
461.337	1474.71
461.71	1492.56
462.083	1498.44
462.456	1511.77
462.829	1529.85
463.201	1547.25
463.574	1554.25
463.947	1598.09
464.32	1588.15
464.692	1672.22
465.065	1676.28
465.438	1692.1
465.81	1715.6
466.183	1736.85
466.555	1786.11
466.928	1780.46
467.3	1813
467.672	1825.88
468.045	1890.74
468.417	1894.36
468.789	1877.41
469.161	1935.03
469.534	1977.52
469.906	2015.03
470.278	2066.1
470.65	2078.08
471.022	2106.78
471.394	2162.15
471.766	2215.48
472.138	2225.87
472.51	2309.71
472.882	2301.35
473.253	2367.34
473.625	2425.64
473.997	2514.68
474.369	2528.69
474.74	2539.99
475.112	2651.85
475.484	2713.32
475.855	2753.32
476.227	2806.2
476.598	2873.09
476.97	2948.11
477.341	3051.16
477.713	3097.26
478.084	3147.66
478.455	3252.74
478.827	3289.57
479.198	3427.65
479.569	3450.93
479.94	3570.47
480.311	3638.94
480.682	3760.52
481.053	3897.24
481.424	3955.55
481.795	4025.83
482.166	4157.57
482.537	4246.61
482.908	4347.4
483.279	4511.24
483.65	4556.43
484.021	4751.46
484.391	4808.18
484.762	4931.57
485.133	5035.29
485.503	5133.82
485.874	5314.15
486.244	5365.9
486.615	5612.9
486.985	5720.25
487.356	5883.86
487.726	5891.09
488.097	6150.97
488.467	6230.97
488.837	6425.09
489.207	6523.61
489.578	6661.69
489.948	6803.38
490.318	6998.18
490.688	7085.86
491.058	7214.44
491.428	7457.6
491.798	7542.57
492.168	7787.31
492.538	7910.7
492.908	8007.42
493.278	8260.52
493.648	8260.29
494.017	8394.98
494.387	8620.96
494.757	8706.16
495.126	8846.49
495.496	8959.71
495.866	9152.02
496.235	9321.73
496.605	9437.89
496.974	9550.2
497.344	9693.47
497.713	9888.05
498.082	9948.61
498.452	10120.81
498.821	10209.17
499.19	10249.39
499.559	10450.97
499.928	10483.51
500.298	10685.54
500.667	10812.99
501.036	10836.04
501.405	11014.8
501.774	11019.09
502.143	11267.22
502.512	11291.62
502.88	11436.25
503.249	11458.63
503.618	11604.38
503.987	11654.1
504.356	11750.37
504.724	11895.22
505.093	11996.46
505.462	12010.25
505.83	12088.21
506.199	12291.82
506.567	12469.9
506.936	12479.39
507.304	12758.7
507.672	12672.38
508.041	12823.11
508.409	12899.49
508.777	13055.87
509.145	13087.96
509.514	13015.87
509.882	13219.93
510.25	13243.89
510.618	13286.6
510.986	13388.07
511.354	13439.36
511.722	13546.71
512.09	13657.44
512.458	13567.72
512.826	13830.77
513.193	13878.22
513.561	13859.01
513.929	13986.02
514.297	14164.32
514.664	14117.54
515.032	14170.64
515.4	14268.49
515.767	14328.61
516.135	14434.14
516.502	14264.2
516.869	14488.38
517.237	14504.42
517.604	14495.61
517.972	14644.08
518.339	14634.13
518.706	14687.01
519.073	14698.77
519.44	14769.5
519.808	14905.54
520.175	14896.27
520.542	15020.57
520.909	15016.72
521.276	15052.43
521.643	15102.6
522.009	15179.88
522.376	15210.84
522.743	15298.52
523.11	15455.13
523.477	15484.06
523.843	15510.95
524.21	15606.31
524.577	15640.44
524.943	15686.54
525.31	15710.49
525.676	15857.61
526.043	15836.14
526.409	15919.98
526.776	15969.02
527.142	15999.07
527.508	15992.97
527.874	16073.42
528.241	16013.99
528.607	16068
528.973	16115.68
529.339	16085.17
529.705	16255.56
530.071	16312.28
530.437	16266.41
530.803	16285.39
531.169	16265.28
531.535	16276.8
531.901	16246.75
532.267	16311.61
532.632	16402.22
532.998	16396.57
533.364	16297.59
533.73	16303.47
534.095	16319.51
534.461	16320.19
534.826	16354.54
535.192	16350.47
535.557	16450.81
535.923	16313.64
536.288	16344.37
536.653	16459.62
537.019	16255.56
537.384	16255.11
537.749	16311.83
538.114	16303.24
538.479	16213.75
538.845	16246.75
539.21	16208.78
539.575	16182.12
539.94	16178.28
540.305	16247.43
540.67	16135.79
541.034	16141.21
541.399	16131.95
541.764	16147.54
542.129	16083.36
542.494	16053.31
542.858	16078.16
543.223	16008.34
543.587	16004.49
543.952	15924.72
544.316	15976.25
544.681	15921.56
545.045	15934.21
545.41	15996.59
545.774	15941.67
546.138	15762.47
546.503	15842.92
546.867	15775.35
547.231	15782.58
547.595	15828.23
547.959	15827.55
548.324	15715.46
548.688	15680.21
549.052	15650.61
549.416	15665.29
549.779	15618.52
550.143	15584.17
550.507	15682.69
550.871	15586.65
551.235	15464.4
551.599	15602.25
551.962	15585.3
552.326	15459.42
552.689	15514.34
553.053	15392.99
553.417	15415.13
553.78	15571.74
554.143	15403.38
554.507	15413.32
554.87	15328.81
555.234	15531.51
555.597	15385.08
555.96	15343.49
556.323	15446.54
556.686	15362.03
557.05	15381.91
557.413	15445.41
557.776	15489.48
558.139	15438.63
558.502	15418.52
558.865	15385.98
559.228	15411.52
559.59	15454.9
559.953	15344.62
560.316	15523.6
560.679	15446.09
561.041	15520.67
561.404	15522.25
561.767	15589.59
562.129	15465.75
562.492	15592.3
562.854	15556.37
563.217	15519.76
563.579	15545.98
563.941	15575.35
564.304	15582.81
564.666	15731.06
565.028	15578.29
565.39	15747.1
565.753	15752.75
566.115	15704.62
566.477	15718.63
566.839	15794.33
567.201	15829.13
567.563	15818.06
567.925	15846.08
568.287	15905.06
568.648	15910.26
569.01	15939.19
569.372	16020.77
569.734	15872.75
570.095	15990.71
570.457	16095.34
570.819	16044.49
571.18	16036.81
571.542	16056.7
571.903	16160.42
572.265	16115
572.626	16160.2
572.987	16157.94
573.349	16116.36
573.71	16223.7
574.071	16283.58
574.432	16117.49
574.794	16195.68
575.155	16244.71
575.516	16173.53
575.877	16275.9
576.238	16286.07
576.599	16288.78
576.96	16270.7
577.32	16347.54
577.681	16386.86
578.042	16247.65
578.403	16370.13
578.763	16357.03
579.124	16431.6
579.485	16339.63
579.845	16468.44
580.206	16308.22
580.566	16331.27
580.927	16371.26
581.287	16396.35
581.648	16317.03
582.008	16414.88
582.368	16359.06
582.728	16453.75
583.089	16349.8
583.449	16349.8
583.809	16351.38
584.169	16422.34
584.529	16309.57
584.889	16437.25
585.249	16328.1
585.609	16296.01
585.969	16333.07
586.329	16210.14
586.688	16347.54
587.048	16235.9
587.408	16167.88
587.768	16229.8
588.127	16273.87
588.487	16203.13
588.846	16245.39
589.206	16158.16
589.565	16202.23
589.925	16222.12
590.284	16123.14
590.643	16237.93
591.003	16266.63
591.362	16287.65
591.721	16187.31
592.08	16201.33
592.44	16239.52
592.799	16179.41
593.158	16226.64
593.517	16202.91
593.876	16192.29
594.235	16154.1
594.593	16164.04
594.952	16150.48
595.311	16068.9
595.67	16130.37
596.029	16232.74
596.387	16189.8
596.746	16162.46
597.104	16060.99
597.463	16127.43
597.822	16099.63
598.18	16065.74
598.538	16066.87
598.897	16167.88
599.255	15971.05
599.613	16253.53
599.972	16150.71
600.33	16205.39
600.688	16106.86
601.046	16152.29
601.404	16160.42
601.762	16151.61
602.12	16102.8
602.478	16138.73
602.836	16199.52
603.194	15982.12
603.552	16078.84
603.91	16157.71
604.268	16173.76
604.625	16078.16
604.983	16117.03
605.341	16089.01
605.698	16115.68
606.056	16200.87
606.413	16179.41
606.771	16227.31
607.128	16149.8
607.485	16139.63
607.843	16156.81
608.2	16181.89
608.557	16244.26
608.914	16214.88
609.272	16205.39
609.629	16281.1
609.986	16312.06
610.343	16241.32
610.7	16419.4
611.057	16297.82
611.414	16278.16
611.771	16345.05
612.127	16498.49
612.484	16427.76
612.841	16395.9
613.198	16243.81
613.554	16380.53
613.911	16418.72
614.267	16446.06
614.624	16371.04
614.98	16384.15
615.337	16443.35
615.693	16532.84
616.05	16586.63
616.406	16608.55
616.762	16542.56
617.118	16538.27
617.475	16488.32
617.831	16499.4
618.187	16596.8
618.543	16549.56
618.899	16639.73
619.255	16533.97
619.611	16606.29
619.967	16651.71
620.323	16701.88
620.678	16659.17
621.034	16576
621.39	16585.95
621.746	16598.6
622.101	16824.13
622.457	16629.56
622.812	16621.65
623.168	16669.79
623.523	16690.13
623.879	16684.7
624.234	16678.6
624.589	16739.62
624.945	16738.49
625.3	16692.84
625.655	16674.08
626.01	16599.06
626.365	16618.94
626.72	16585.5
627.075	16556.8
627.43	16605.38
627.785	16522.22
628.14	16552.95
628.495	16612.84
628.85	16533.52
629.205	16534.42
629.559	16546.4
629.914	16524.25
630.269	16538.04
630.623	16501.2
630.978	16439.51
631.332	16552.73
631.687	16464.37
632.041	16457.59
632.396	16571.94
632.75	16487.19
633.104	16407.87
633.459	16330.81
633.813	16397.03
634.167	16336.92
634.521	16381.43
634.875	16308.89
635.229	16378.72
635.583	16316.8
635.937	16269.57
636.291	16364.94
636.645	16206.52
636.999	16198.39
637.352	16338.04
637.706	16162.46
638.06	16230.48
638.413	16167.65
638.767	16011.5
639.121	16218.5
639.474	16040.88
639.828	16039.3
640.181	16074.78
640.534	16078.39
640.888	16036.58
641.241	16046.3
641.594	16020.54
641.947	16023.93
642.301	15921.78
642.654	15958.39
643.007	16003.82
643.36	15980.54
643.713	15896.93
644.066	15905.74
644.419	15833.65
644.771	15724.95
645.124	15571.29
645.477	15608.8
645.83	15528.12
646.182	15477.05
646.535	15365.87
646.888	15482.7
647.24	15323.16
647.593	15349.82
647.945	15411.06
648.298	15311.63
648.65	15349.6
649.002	15306.21
649.355	15402.02
649.707	15417.84
650.059	15476.82
650.411	15660.32
650.763	15677.95
651.115	15721.11
651.467	15685.41
651.819	15658.29
652.171	15693.99
652.523	15696.93
652.875	15623.04
653.227	15558.63
653.578	15717.72
653.93	15713.65
654.282	15596.6
654.633	15589.36
654.985	15649.02
655.337	15719.53
655.688	15668.91
656.039	15739.42
656.391	15518.41
656.742	15642.02
657.094	15664.62
657.445	15698.06
657.796	15681.11
658.147	15659.87
658.498	15697.38
658.849	15601.57
659.2	15610.61
659.551	15568.57
659.902	15679.08
660.253	15686.99
660.604	15673.2
660.955	15623.71
661.306	15720.66
661.656	15696.93
662.007	15621.23
662.358	15662.81
662.708	15679.98
663.059	15660.1
663.409	15494.68
663.76	15679.98
664.11	15698.97
664.461	15756.14
664.811	15746.2
665.161	15696.03
665.511	15643.6
665.862	15707.33
666.212	15732.64
666.562	15715.24
666.912	15684.95
667.262	15711.17
667.612	15724.05
667.962	15693.09
668.312	15724.05
668.662	15701.45
669.011	15664.84
669.361	15661.23
669.711	15655.35
670.06	15705.75
670.41	15598.4
670.76	15619.42
671.109	15648.8
671.459	15582.36
671.808	15579.65
672.157	15548.69
672.507	15458.75
672.856	15512.98
673.205	15515.02
673.554	15666.88
673.904	15507.78
674.253	15570.38
674.602	15578.06
674.951	15240.9
675.3	15243.61
675.649	15426.43
675.998	15465.98
676.346	15440.44
676.695	15489.48
677.044	15464.85
677.393	15379.43
677.741	15387.34
678.09	15408.8
678.438	15373.78
678.787	15413.78
679.135	15326.32
679.484	15263.72
679.832	15311.86
680.181	15233.67
680.529	15223.72
680.877	15253.55
681.225	15152.31
681.573	15293.33
681.922	15071.86
682.27	15076.38
682.618	15003.16
682.966	15010.62
683.314	15081.35
683.661	14932.43
684.009	14893.79
684.357	14893.34
684.705	14831.87
685.053	14874.13
685.4	14823.06
685.748	14741.25
686.095	14781.7
686.443	14730.63
686.79	14735.15
687.138	14721.59
687.485	14710.74
687.832	14588.94
688.18	14611.76
688.527	14532.44
688.874	14444.31
689.221	14492.22
689.568	14461.48
689.915	14381.03
690.262	14432.56
690.609	14394.37
690.956	14293.8
691.303	14311.66
691.65	14256.07
691.997	14204.77
692.344	14107.37
692.69	14072.57
693.037	14091.55
693.383	13966.36
693.73	13980.82
694.077	13914.38
694.423	13895.85
694.769	13798.45
695.116	13769.52
695.462	13734.05
695.808	13676.87
696.155	13699.24
696.501	13599.13
696.847	13575.86
697.193	13385.35
697.539	13586.48
697.885	13427.84
698.231	13420.38
698.577	13327.95
698.923	13335.41
699.269	13230.78
699.614	13245.24
699.96	13090.67
700.306	13153.95
700.651	13081.86
700.997	12927.97
701.342	12979.49
701.688	12900.85
702.033	12900.85
702.379	12873.05
702.724	12935.42
703.069	12799.15
703.415	12688.42
703.76	12704.92
704.105	12681.42
704.45	12671.93
704.795	12600.52
705.14	12560.97
705.485	12463.57
705.83	12443.68
706.175	12424.02
706.52	12404.36
706.865	12323.91
707.209	12317.81
707.554	12227.19
707.899	12332.27
708.243	12204.14
708.588	12211.15
708.932	12193.07
709.277	12071.26
709.621	12074.65
709.966	12045.95
710.31	12008.44
710.654	11902.91
710.998	11997.14
711.342	11963.02
711.687	11968.67
712.031	11803.25
712.375	11855.9
712.719	11874.66
713.063	11742.91
713.407	11817.03
713.75	11728
714.094	11756.92
714.438	11700.88
714.782	11709.01
715.125	11561.22
715.469	11584.05
715.812	11567.32
716.156	11467.89
716.499	11533.2
716.843	11574.78
717.186	11462.69
717.53	11541.11
717.873	11508.34
718.216	11488
718.559	11454.56
718.902	11318.74
719.246	11383.37
719.589	11423.82
719.932	11322.13
720.275	11328.46
720.617	11302.02
720.96	11323.49
721.303	11328.23
721.646	11252.98
721.989	11285.07
722.331	11237.61
722.674	11224.96
723.016	11251.85
723.359	11206.2
723.701	11269.03
724.044	11161.91
724.386	11103.15
724.729	11207.11
725.071	11109.93
725.413	11216.82
725.755	11144.96
726.097	11143.38
726.439	11098.63
726.782	11078.75
727.124	11088.92
727.465	11014.12
727.807	11077.84
728.149	10985.64
728.491	10953.33
728.833	11034.46
729.175	10999.2
729.516	11005.76
729.858	10879.88
730.199	10959.66
730.541	10915.59
730.882	10975.7
731.224	10982.03
731.565	10901.8
731.906	10898.19
732.248	10925.76
732.589	10857.51
732.93	10871.75
733.271	10794.01
733.612	10939.32
733.953	10879.43
734.294	10851.41
734.635	10845.99
734.976	10820
735.317	10893.22
735.658	10877.62
735.999	10817.51
736.339	10865.19
736.68	10856.61
737.021	10874.69
737.361	10837.62
737.702	10989.71
738.042	10868.13
738.383	10903.61
738.723	10911.97
739.063	10891.18
739.404	10977.96
739.744	10905.65
740.084	10906.32
740.424	10923.27
740.764	10892.99
741.104	10994.91
741.444	10935.25
741.784	10924.4
742.124	10928.24
742.464	10959.43
742.804	10958.98
743.143	10961.01
743.483	11064.29
743.823	11027.45
744.162	11085.98
744.502	11119.88
744.841	11151.29
745.181	11187.22
745.52	11192.64
745.86	11202.81
746.199	11210.95
746.538	11291.85
746.877	11411.39
747.216	11443.71
747.556	11449.81
747.895	11423.82
748.234	11525.52
748.573	11548.11
748.911	11646.87
749.25	11695.68
749.589	11774.78
749.928	11812.29
750.267	11832.63
750.605	11984.49
750.944	11999.63
751.283	12029.68
751.621	12186.97
751.96	12142
752.298	12257.7
752.636	12421.76
752.975	12468.77
753.313	12532.95
753.651	12637.58
753.989	12765.48
754.327	12858.14
754.666	12928.42
755.004	13083.67
755.342	13293.38
755.679	13388.97
756.017	13503.09
756.355	13597.1
756.693	13828.05
757.031	13906.24
757.368	14101.72
757.706	14127.03
758.044	14243.64
758.381	14462.61
758.719	14621.93
759.056	14665.32
759.394	14882.72
759.731	14960.68
760.068	15186.66
760.405	15253.78
760.743	15479.76
761.08	15680.21
761.417	15737.61
761.754	15991.16
762.091	16196.35
762.428	16182.12
762.765	16377.82
763.102	16547.31
763.438	16731.71
763.775	16831.14
764.112	17114.3
764.449	17291.69
764.785	17314.52
765.122	17514.74
765.458	17606.49
765.795	17771
766.131	17926.7
766.467	18014.39
766.804	18107.26
767.14	18252.8
767.476	18416.41
767.812	18448.72
768.148	18710.64
768.485	18713.58
768.821	18812.33
769.157	18951.08
769.492	19071.08
769.828	19189.27
770.164	19022.95
770.5	19314.46
770.836	19422.26
771.171	19407.34
771.507	19575.25
771.842	19615.7
772.178	19664.29
772.513	19779.31
772.849	19920.55
773.184	19790.16
773.519	19896.14
773.855	20016.37
774.19	19975.01
774.525	20099.98
774.86	20226.08
775.195	20225.63
775.53	20275.12
775.865	20242.35
776.2	20414.55
776.535	20191.05
776.87	20300.88
777.205	20393.08
777.539	20388.56
777.874	20468.33
778.209	20452.97
778.543	20433.08
778.878	20315.79
779.212	20440.08
779.547	20454.32
779.881	20618.38
780.215	20490.93
780.55	20525.28
780.884	20480.08
781.218	20427.43
781.552	20462.68
781.886	20400.31
782.22	20456.81
782.554	20366.64
782.888	20308.79
783.222	20312.63
783.556	20260.65
783.889	20260.2
784.223	20155.57
784.557	20210.71
784.89	20214.55
785.224	20103.6
785.557	20077.38
785.891	20094.1
786.224	20103.14
786.558	20060.66
786.891	20045.52
787.224	19958.97
787.557	19922.81
787.891	19957.38
788.224	20022.92
788.557	19980.21
788.89	19878.97
789.223	19847.33
789.556	19776.15
789.888	19723.04
790.221	19778.18
790.554	19592.65
790.887	19619.54
791.219	19707.67
791.552	19503.84
791.884	19489.37
792.217	19417.74
792.549	19433.1
792.882	19318.31
793.214	19243.51
793.546	19427.23
793.879	19184.52
794.211	19068.59
794.543	19242.83
794.875	19101.81
795.207	19171.87
795.539	19059.1
795.871	19023.17
796.203	18946.56
796.535	18902.72
796.867	18800.13
797.198	18856.85
797.53	18861.82
797.862	18743.41
798.193	18732.56
798.525	18627.25
798.856	18718.77
799.188	18441.94
799.519	18432.68
799.85	18289.41
800.182	18386.13
800.513	18369.86
800.844	18140.48
801.175	18394.49
801.506	18271.55
801.837	18201.05
802.168	18192.01
802.499	18077.89
802.83	18018.68
803.161	17967.83
803.491	18004.22
803.822	17989.53
804.153	17962.18
804.483	17777.78
804.814	17708.18
805.145	17808.97
805.475	17713.38
805.805	17625.69
806.136	17540.05
806.466	17631.57
806.796	17548.63
807.126	17468.41
807.457	17342.54
807.787	17439.03
808.117	17390.9
808.447	17281.52
808.777	17402.65
809.107	17343.67
809.436	17255.99
809.766	17170.34
810.096	17093.51
810.426	17105.03
810.755	17069.78
811.085	17072.71
811.414	17020.74
811.744	16891.7
812.073	16911.36
812.403	16850.57
812.732	16774.87
813.061	16832.72
813.39	16727.19
813.719	16753.4
814.049	16787.52
814.378	16701.65
814.707	16693.97
815.036	16671.37
815.365	16558.83
815.693	16452.84
816.022	16422.34
816.351	16373.52
816.68	16358.16
817.008	16421.66
817.337	16240.19
817.665	16242.68
817.994	16345.95
818.322	16307.31
818.651	16113.19
818.979	16100.76
819.307	16140.99
819.636	16113.19
819.964	16064.83
820.292	16032.97
820.62	16131.04
820.948	15966.3
821.276	16105.73
821.604	16000.65
821.932	15977.6
822.259	15966.98
822.587	15976.02
822.915	16031.39
823.243	15971.5
823.57	15879.75
823.898	15961.78
824.225	15932.86
824.553	15946.64
824.88	15904.84
825.207	15989.81
825.535	16022.8
825.862	15969.92
826.189	15884.95
826.516	16066.41
826.843	15996.81
827.17	16121.33
827.497	16056.92
827.824	16042.69
828.151	16134.21
828.478	15993.65
828.805	16056.24
829.131	15913.65
829.458	16051.5
829.785	15924.72
830.111	15991.39
830.438	16020.77
830.764	15953.42
831.09	16060.99
831.417	15950.03
831.743	16036.58
832.069	15947.09
832.395	15819.64
832.722	15972.18
833.048	15896.02
833.374	15986.42
833.7	15806.31
834.026	15828.45
834.351	15863.93
834.677	15818.74
835.003	15876.36
835.329	15766.99
835.654	15840.43
835.98	15774.9
836.306	15728.34
836.631	15745.52
836.956	15737.38
837.282	15850.83
837.607	15647.44
837.932	15701.45
838.258	15701.23
838.583	15627.78
838.908	15505.07
839.233	15561.12
839.558	15466.88
839.883	15423.49
840.208	15357.73
840.533	15367.22
840.858	15388.92
841.182	15390.95
841.507	15428.69
841.832	15297.39
842.156	15311.63
842.481	15232.76
842.805	15252.88
843.13	15236.38
843.454	15255.36
843.778	15081.58
844.103	15068.02
844.427	15073.45
844.751	15048.14
845.075	15005.88
845.399	14939.66
845.723	14892.43
846.047	14948.03
846.371	14844.75
846.695	14818.08
847.019	14651.99
847.343	14608.82
847.666	14493.8
847.99	14454.48
848.313	14495.16
848.637	14312.79
848.96	14302.62
849.284	14347.81
849.607	14250.64
849.931	14130.87
850.254	14084.32
850.577	14023.08
850.9	13987.82
851.223	13928.84
851.546	13880.03
851.869	13746.93
852.192	13795.96
852.515	13721.16
852.838	13632.81
853.161	13660.6
853.483	13600.49
853.806	13439.82
854.129	13511
854.451	13440.49
854.774	13341.74
855.096	13375.41
855.419	13210.67
855.741	13244.57
856.063	13252.02
856.385	13188.75
856.708	13054.74
857.03	13108.75
857.352	13127.73
857.674	13038.02
857.996	12972.94
858.318	12883.67
858.64	12850.45
858.961	12930.68
859.283	12772.49
859.605	12783.11
859.926	12784.92
860.248	12790.79
860.57	12630.12
860.891	12659.95
861.212	12665.37
861.534	12530.24
861.855	12582.21
862.176	12573.62
862.498	12534.08
862.819	12530.69
863.14	12434.87
863.461	12448.2
863.782	12439.39
864.103	12449.33
864.424	12342.67
864.745	12353.07
865.065	12322.56
865.386	12297.93
865.707	12254.54
866.027	12202.33
866.348	12259.51
866.668	12240.07
866.989	12228.55
867.309	12080.3
867.63	12121.88
867.95	12222.67
868.27	12035.56
868.59	12143.8
868.91	12054.32
869.23	11990.59
869.55	11994.43
869.87	11946.3
870.19	11975.67
870.51	11950.36
870.83	12022.68
871.15	11937.71
871.469	11959.63
871.789	11917.37
872.109	11834.89
872.428	11850.93
872.748	11858.61
873.067	11822.01
873.386	11841.44
873.706	11799.86
874.025	11684.61
874.344	11634.67
874.663	11739.97
874.982	11670.15
875.301	11667.89
875.62	11671.73
875.939	11637.38
876.258	11608
876.577	11622.46
876.896	11532.3
877.214	11570.26
877.533	11575.01
877.852	11518.28
878.17	11511.51
878.489	11499.53
878.807	11496.14
879.125	11476.03
879.444	11416.82
879.762	11445.97
880.08	11422.24
880.398	11378.18
880.716	11363.71
881.034	11277.84
881.352	11230.16
881.67	11273.55
881.988	11276.48
882.306	11221.12
882.624	11210.5
882.941	11176.37
883.259	11061.12
883.577	11127.33
883.894	11128.01
884.212	11073.32
884.529	11120.56
884.846	11093.44
885.164	10980.9
885.481	10947
885.798	10888.24
886.115	10884.4
886.432	10912.2
886.75	10867.91
887.067	10888.7
887.383	10781.35
887.7	10814.57
888.017	10848.25
888.334	10784.07
888.651	10743.39
888.967	10711.53
889.284	10591.3
889.6	10630.85
889.917	10564.41
890.233	10542.04
890.55	10500.91
890.866	10489.61
891.182	10443.96
891.498	10467.46
891.815	10410.29
892.131	10380.01
892.447	10331.88
892.763	10274.93
893.079	10282.84
893.395	10225.21
893.71	10194.48
894.026	10156.74
894.342	10149.06
894.657	10075.61
894.973	10129.17
895.289	10095.95
895.604	10034.26
895.92	9954.71
896.235	9974.6
896.55	9897.99
896.865	9927.59
897.181	9894.37
897.496	9861.61
897.811	9759.46
898.126	9758.78
898.441	9716.3
898.756	9675.85
899.071	9671.78
899.386	9634.04
899.7	9571.9
900.015	9610.54
900.33	9453.25
900.644	9445.12
900.959	9457.77
901.273	9456.19
901.588	9366.48
901.902	9356.08
902.216	9259.59
902.531	9299.81
902.845	9304.56
903.159	9189.08
903.473	9091.91
903.787	9091.23
904.101	9021.4
904.415	9102.76
904.729	8992.25
905.042	8954.28
905.356	8998.8
905.67	8946.6
905.984	8959.93
906.297	8935.75
906.611	8813.27
906.924	8869.09
907.237	8793.84
907.551	8713.61
907.864	8631.58
908.177	8647.17
908.491	8626.61
908.804	8557.01
909.117	8520.85
909.43	8526.5
909.743	8479.72
910.056	8401.98
910.368	8378.03
910.681	8395.2
910.994	8372.15
911.307	8292.61
911.619	8238.82
911.932	8266.17
912.244	8166.51
912.557	8174.19
912.869	8143.68
913.181	8079.96
913.494	8076.57
913.806	7995.67
914.118	8001.54
914.43	7960.19
914.742	7961.09
915.054	7938.04
915.366	7877.02
915.678	7817.14
915.99	7792.51
916.302	7762.68
916.613	7721.77
916.925	7641.78
917.236	7659.18
917.548	7616.92
917.859	7643.13
918.171	7599.29
918.482	7518.39
918.794	7506.86
919.105	7460.54
919.416	7430.26
919.727	7373.31
920.038	7434.55
920.349	7333.08
920.66	7303.93
920.971	7313.42
921.282	7251.96
921.593	7237.95
921.903	7168.34
922.214	7159.53
922.525	7216.25
922.835	7169.92
923.146	7106.2
923.456	7048.35
923.767	7041.34
924.077	7020.78
924.387	6954.79
924.697	6924.06
925.008	6884.06
925.318	6898.75
925.628	6823.94
925.938	6813.32
926.248	6788.92
926.558	6738.52
926.867	6719.54
927.177	6672.76
927.487	6668.47
927.796	6671.86
928.106	6629.15
928.416	6616.72
928.725	6560.67
929.034	6547.79
929.344	6582.37
929.653	6512.99
929.962	6481.13
930.271	6423.96
930.581	6426.22
930.89	6413.33
931.199	6374.92
931.508	6356.61
931.817	6344.86
932.125	6273.22
932.434	6347.57
932.743	6198.88
933.051	6209.95
933.36	6207.69
933.669	6161.82
933.977	6139.9
934.286	6092.89
934.594	6071.42
934.902	6066
935.21	6012.67
935.519	5997.07
935.827	5968.15
936.135	5936.51
936.443	5919.11
936.751	5915.49
937.059	5896.51
937.367	5863.29
937.674	5821.71
937.982	5745.1
938.29	5771.09
938.597	5732
938.905	5767.02
939.213	5647.7
939.52	5660.81
939.827	5659.46
940.135	5591.89
940.442	5622.39
940.749	5593.47
941.056	5608.84
941.363	5532
941.67	5532.23
941.977	5526.35
942.284	5464.88
942.591	5438.67
942.898	5405.68
943.205	5365.45
943.511	5361.38
943.818	5340.14
944.125	5350.09
944.431	5319.8
944.738	5301.05
945.044	5203.87
945.35	5247.94
945.657	5260.14
945.963	5193.48
946.269	5136.31
946.575	5155.06
946.881	5101.05
947.187	5067.83
947.493	5076.87
947.799	5064.44
948.105	5026.25
948.41	4976.76
948.716	4970.89
949.022	4953.26
949.327	4889.76
949.633	4900.15
949.938	4961.62
950.244	4835.07
950.549	4873.04
950.854	4822.42
951.16	4795.75
951.465	4803.66
951.77	4776.09
952.075	4771.34
952.38	4701.06
952.685	4707.16
952.99	4646.15
953.294	4681.18
953.599	4634.62
953.904	4617.9
954.209	4571.12
954.513	4582.42
954.818	4544.46
955.122	4567.28
955.426	4544.46
955.731	4507.62
956.035	4489.09
956.339	4471.01
956.643	4455.65
956.948	4464.01
957.252	4393.5
957.556	4389.43
957.86	4400.28
958.163	4405.03
958.467	4321.86
958.771	4330.23
959.075	4317.57
959.378	4243.22
959.682	4250.68
959.985	4275.54
960.289	4182.21
960.592	4221.98
960.896	4191.25
961.199	4162.32
961.502	4165.48
961.805	4176.78
962.108	4139.04
962.411	4180.4
962.714	4060.85
963.017	4099.5
963.32	4066.28
963.623	4042.1
963.926	4017.24
964.228	4014.08
964.531	3970.91
964.833	3936.79
965.136	3975.21
965.438	3891.82
965.741	3904.7
966.043	3918.03
966.345	3874.64
966.648	3857.47
966.95	3835.77
967.252	3843.23
967.554	3823.35
967.856	3786.96
968.158	3736.79
968.46	3784.25
968.761	3715.33
969.063	3711.48
969.365	3697.25
969.666	3686.85
969.968	3668.77
970.269	3667.87
970.571	3660.41
970.872	3641.66
971.174	3589.23
971.475	3586.29
971.776	3609.79
972.077	3574.99
972.378	3553.75
972.679	3563.92
972.98	3492.28
973.281	3515.11
973.582	3518.04
973.883	3481.21
974.183	3445.5
974.484	3445.28
974.785	3431.04
975.085	3443.24
975.386	3417.48
975.686	3405.5
975.986	3372.28
976.287	3345.39
976.587	3363.24
976.887	3317.37
977.187	3312.17
977.487	3292.06
977.787	3288.44
978.087	3270.82
978.387	3226.75
978.687	3271.5
978.987	3212.97
979.286	3193.76
979.586	3185.4
979.885	3178.84
980.185	3177.94
980.484	3121.9
980.784	3151.5
981.083	3108.56
981.382	3100.88
981.682	3118.51
981.981	3101.1
982.28	3059.98
982.579	3033.54
982.878	3047.32
983.177	2993.09
983.475	3010.71
983.774	2992.63
984.073	2976.81
984.372	2943.14
984.67	2968.68
984.969	2943.37
985.267	2919.87
985.566	2896.59
985.864	2932.75
986.162	2881.45
986.461	2851.17
986.759	2827.89
987.057	2847.55
987.355	2839.42
987.653	2845.29
987.951	2791.51
988.249	2807.55
988.547	2791.06
988.844	2757.16
989.142	2767.78
989.44	2764.16
989.737	2716.26
990.035	2723.71
990.332	2683.71
990.63	2721.23
990.927	2682.58
991.224	2680.1
991.521	2670.61
991.819	2645.52
992.116	2627.45
992.413	2611.63
992.71	2597.39
993.006	2624.73
993.303	2592.42
993.6	2590.61
993.897	2580.67
994.193	2575.92
994.49	2505.19
994.787	2549.71
995.083	2495.7
995.379	2483.95
995.676	2489.37
995.972	2504.51
996.268	2449.82
996.565	2441.69
996.861	2443.72
997.157	2455.47
997.453	2424.74
997.749	2413.44
998.044	2384.51
998.34	2377.73
998.636	2358.53
998.932	2373.44
999.227	2351.29
999.523	2365.08
999.818	2330.05
1000.114	2295.48
1000.409	2299.77
1000.704	2299.32
1001	2251.18
1001.295	2260.45
1001.59	2269.04
1001.885	2238.08
1002.18	2226.1
1002.475	2218.87
1002.77	2206.21
1003.065	2209.38
1003.359	2175.48
1003.654	2129.38
1003.949	2130.28
1004.243	2139.1
1004.538	2117.4
1004.832	2103.39
1005.127	2107.68
1005.421	2112.2
1005.715	2067.46
1006.009	2076.5
1006.304	2046.44
1006.598	2037.63
1006.892	2041.7
1007.186	2017.07
1007.48	2021.59
1007.773	2012.09
1008.067	1960.57
1008.361	1956.5
1008.655	1947.91
1008.948	1925.32
1009.242	1935.94
1009.535	1912.21
1009.829	1894.13
1010.122	1898.2
1010.415	1878.76
1010.708	1872.21
1011.001	1847.35
1011.295	1836.96
1011.588	1848.26
1011.881	1861.82
1012.173	1851.87
1012.466	1826.79
1012.759	1801.25
1013.052	1808.26
1013.344	1812.33
1013.637	1746.79
1013.93	1785.43
1014.222	1763.29
1014.514	1716.51
1014.807	1754.02
1015.099	1742.27
1015.391	1735.94
1015.683	1682.39
1015.976	1710.63
1016.268	1683.06
1016.56	1646.68
1016.851	1651.43
1017.143	1656.62
1017.435	1622.73
1017.727	1634.48
1018.018	1613.46
1018.31	1623.86
1018.602	1581.37
1018.893	1554.03
1019.185	1533.46
1019.476	1569.39
1019.767	1556.06
1020.058	1569.85
1020.35	1542.28
1020.641	1482.16
1020.932	1527.59
1021.223	1520.13
1021.514	1493.01
1021.804	1468.38
1022.095	1479.45
1022.386	1435.84
1022.677	1454.82
1022.967	1453.01
1023.258	1412.79
1023.548	1415.27
1023.839	1398.32
1024.129	1421.6
1024.419	1402.17
1024.709	1399
1025	1406.23
1025.29	1380.47
1025.58	1366.24
1025.87	1345.67
1026.16	1352.45
1026.449	1349.74
1026.739	1326.91
1027.029	1303.19
1027.319	1305.45
1027.608	1297.54
1027.898	1286.69
1028.187	1279.91
1028.477	1276.75
1028.766	1254.83
1029.055	1238.78
1029.344	1255.73
1029.634	1248.72
1029.923	1234.94
1030.212	1223.87
1030.501	1197.43
1030.79	1212.57
1031.078	1205.56
1031.367	1179.12
1031.656	1188.61
1031.945	1170.31
1032.233	1179.12
1032.522	1135.28
1032.81	1153.13
1033.099	1158.56
1033.387	1137.09
1033.675	1137.99
1033.963	1123.98
1034.251	1106.13
1034.54	1118.33
1034.828	1115.39
1035.116	1093.47
1035.403	1078.79
1035.691	1084.89
1035.979	1046.92
1036.267	1058.67
1036.554	1046.02
1036.842	1055.96
1037.129	1032.01
1037.417	1017.09
1037.704	1027.94
1037.992	1042.63
1038.279	1043.98
1038.566	995.17
1038.853	995.17
1039.14	995.17
