Data from hue_240_FLMS001491_00081.txt Node
Date: Tue Feb 07 16:36:03 GMT 2017
User: dcchb
Spectrometer: FLMS00149
Trigger mode: 0
Integration Time (sec): 2.000000E-2
Scans to average: 10
Electric dark correction enabled: true
Nonlinearity correction enabled: false
Boxcar width: 0
XAxis mode: Wavelengths
Number of Pixels in Spectrum: 2048
>>>>>Begin Spectral Data<<<<<
341.393	-2.57
341.776	-2.57
342.16	-2.57
342.543	-59.97
342.927	-60.65
343.31	-83.47
343.693	-69.01
344.077	-66.75
344.46	-65.62
344.843	-66.07
345.226	-29.91
345.61	-22.01
345.993	-7.99
346.376	-6.86
346.759	3.98
347.142	39.01
347.525	35.17
347.908	56.86
348.291	81.5
348.674	81.04
349.057	120.14
349.44	116.75
349.823	150.65
350.206	170.98
350.588	207.59
350.971	217.99
351.354	232.45
351.737	233.36
352.119	239.68
352.502	233.58
352.884	261.15
353.267	279.23
353.65	293.24
354.032	307.7
354.414	304.54
354.797	291.66
355.179	305.44
355.562	327.82
355.944	340.47
356.326	324.65
356.709	320.13
357.091	331.66
357.473	324.65
357.855	334.6
358.238	335.5
358.62	333.92
359.002	324.65
359.384	326.46
359.766	324.65
360.148	334.14
360.53	325.1
360.912	332.11
361.294	321.26
361.676	326.23
362.057	342.73
362.439	312.9
362.821	331.88
363.203	313.58
363.584	305.67
363.966	310.87
364.348	310.64
364.729	317.65
365.111	296.63
365.493	310.42
365.874	302.51
366.256	307.48
366.637	310.87
367.019	297.76
367.4	294.37
367.781	306.12
368.163	306.8
368.544	292.56
368.925	299.34
369.306	334.82
369.688	333.01
370.069	256.63
370.45	288.72
370.831	307.25
371.212	309.06
371.593	297.76
371.974	302.05
372.355	314.48
372.736	307.25
373.117	338.89
373.498	309.96
373.879	316.29
374.26	312.22
374.641	310.64
375.021	298.44
375.402	306.8
375.783	311.55
376.163	324.43
376.544	320.13
376.925	336.4
377.305	323.3
377.686	322.84
378.066	316.29
378.447	319
378.827	337.31
379.208	324.65
379.588	330.98
379.968	333.24
380.349	329.85
380.729	332.79
381.109	322.39
381.489	324.88
381.87	330.98
382.25	311.55
382.63	335.5
383.01	344.31
383.39	334.37
383.77	357.19
384.15	337.31
384.53	335.73
384.91	336.63
385.29	342.73
385.67	343.86
386.049	367.59
386.429	365.56
386.809	348.38
387.189	327.82
387.568	334.37
387.948	343.41
388.328	334.14
388.707	353.35
389.087	351.32
389.466	347.25
389.846	349.96
390.225	380.24
390.605	377.98
390.984	354.26
391.363	347.48
391.743	362.39
392.122	346.35
392.501	359.68
392.881	382.5
393.26	375.5
393.639	395.16
394.018	363.52
394.397	367.36
394.776	370.08
395.155	367.59
395.534	375.72
395.913	368.04
396.292	394.71
396.671	377.98
397.05	385.67
397.429	377.76
397.808	376.18
398.186	392.67
398.565	389.74
398.944	386.12
399.323	387.25
399.701	381.83
400.08	409.85
400.458	395.39
400.837	417.31
401.215	412.56
401.594	408.49
401.972	401.26
402.351	423.63
402.729	401.03
403.107	443.75
403.486	411.43
403.864	408.04
404.242	419.34
404.62	422.28
404.999	429.06
405.377	426.34
405.755	443.75
406.133	447.59
406.511	436.51
406.889	453.24
407.267	463.41
407.645	447.59
408.023	460.92
408.401	462.28
408.779	466.57
409.156	471.77
409.534	456.17
409.912	481.48
410.29	486.68
410.667	491.65
411.045	468.15
411.422	516.74
411.8	482.39
412.178	528.26
412.555	531.2
412.933	518.55
413.31	530.52
413.687	549.05
414.065	523.74
414.442	533.01
414.819	554.93
415.197	560.13
415.574	576.4
415.951	577.53
416.328	590.86
416.705	589.73
417.082	580.01
417.46	586.79
417.837	564.42
418.214	586.34
418.591	588.15
418.967	597.41
419.344	615.04
419.721	635.38
420.098	650.29
420.475	637.86
420.852	657.3
421.228	671.76
421.605	657.3
421.982	648.94
422.358	690.07
422.735	676.51
423.111	702.95
423.488	728.48
423.864	715.6
424.241	742.27
424.617	725.55
424.994	738.43
425.37	742.49
425.746	762.16
426.123	759.9
426.499	753.57
426.875	754.47
427.251	772.55
427.627	809.39
428.003	826.11
428.379	829.05
428.756	810.29
429.132	838.31
429.507	820.68
429.883	850.29
430.259	883.51
430.635	848.25
431.011	874.92
431.387	883.96
431.763	891.87
432.138	912.43
432.514	937.07
432.89	927.8
433.265	960.34
433.641	972.55
434.016	974.58
434.392	970.74
434.767	1007.35
435.143	1027.91
435.518	1037.4
435.894	1061.58
436.269	1014.58
436.644	1074.92
437.02	1096.16
437.395	1107.91
437.77	1087.8
438.145	1128.93
438.52	1121.02
438.895	1162.14
439.271	1140.22
439.646	1180.22
440.021	1205.76
440.395	1203.27
440.77	1212.09
441.145	1192.2
441.52	1253.89
441.895	1251.41
442.27	1265.87
442.645	1269.71
443.019	1267
443.394	1260.67
443.769	1292.99
444.143	1279.66
444.518	1326.43
444.892	1346.09
445.267	1361.24
445.641	1367.56
446.016	1366.66
446.39	1363.5
446.764	1384.96
447.139	1373.89
447.513	1384.51
447.887	1400.33
448.262	1391.07
448.636	1413.66
449.01	1427.67
449.384	1428.35
449.758	1462.25
450.132	1460.89
450.506	1450.95
450.88	1485.75
451.254	1499.54
451.628	1516.71
452.002	1515.81
452.376	1509.25
452.75	1565.52
453.123	1570.95
453.497	1595.81
453.871	1588.35
454.244	1591.74
454.618	1633.09
454.992	1626.09
455.365	1654.34
455.739	1672.19
456.112	1679.19
456.486	1700.89
456.859	1728.68
457.232	1718.29
457.606	1752.64
457.979	1763.94
458.352	1809.59
458.725	1815.23
459.099	1796.7
459.472	1878.74
459.845	1867.44
460.218	1858.4
460.591	1887.78
460.964	1941.33
461.337	1963.03
461.71	1959.19
462.083	2015.68
462.456	1987.43
462.829	2022.91
463.201	2012.97
463.574	2054.55
463.947	2063.14
464.32	2128.22
464.692	2117.15
465.065	2146.07
465.438	2172.51
465.81	2198.73
466.183	2205.73
466.555	2279.4
466.928	2238.5
467.3	2286.86
467.672	2302.45
468.045	2342.45
468.417	2343.36
468.789	2336.35
469.161	2411.15
469.534	2457.7
469.906	2485.95
470.278	2456.8
470.65	2492.28
471.022	2581.77
471.394	2602.56
471.766	2593.29
472.138	2669.9
472.51	2693.86
472.882	2676.46
473.253	2739.73
473.625	2777.92
473.997	2829.67
474.369	2848.88
474.74	2854.53
475.112	2894.98
475.484	2959.39
475.855	2991.25
476.227	3044.13
476.598	3055.88
476.97	3130.91
477.341	3170.23
477.713	3216.78
478.084	3226.27
478.455	3280.96
478.827	3302.88
479.198	3417
479.569	3414.97
479.94	3465.13
480.311	3538.13
480.682	3609.99
481.053	3682.3
481.424	3695.19
481.795	3733.38
482.166	3791.23
482.537	3815.41
482.908	3896.31
483.279	3913.48
483.65	3988.51
484.021	4067.15
484.391	4099.02
484.762	4136.3
485.133	4128.85
485.503	4181.73
485.874	4277.99
486.244	4285.23
486.615	4392.79
486.985	4438.22
487.356	4489.97
487.726	4480.25
488.097	4610.19
488.467	4596.18
488.837	4683.18
489.207	4736.97
489.578	4793.46
489.948	4834.82
490.318	4856.51
490.688	4872.33
491.058	4928.15
491.428	5033.46
491.798	5053.57
492.168	5170.17
492.538	5152.32
492.908	5152.55
493.278	5259.89
493.648	5238.87
494.017	5307.8
494.387	5365.88
494.757	5391.64
495.126	5431.18
495.496	5429.15
495.866	5498.53
496.235	5518.41
496.605	5564.29
496.974	5563.84
497.344	5572.2
497.713	5650.84
498.082	5700.1
498.452	5730.84
498.821	5809.93
499.19	5777.39
499.559	5856.03
499.928	5839.99
500.298	5894
500.667	5876.6
501.036	5934.9
501.405	5932.87
501.774	5939.19
502.143	5998.85
502.512	5977.16
502.88	6051.51
503.249	6081.79
503.618	6056.93
503.987	6089.25
504.356	6126.53
504.724	6124.27
505.093	6142.58
505.462	6196.59
505.83	6194.55
506.199	6215.8
506.567	6280.65
506.936	6324.49
507.304	6360.2
507.672	6363.36
508.041	6352.74
508.409	6390.93
508.777	6433.19
509.145	6484.94
509.514	6395.45
509.882	6468.9
510.25	6448.11
510.618	6484.04
510.986	6549.35
511.354	6543.02
511.722	6591.38
512.09	6590.48
512.458	6573.08
512.826	6616.46
513.193	6677.48
513.561	6658.95
513.929	6712.96
514.297	6757.93
514.664	6736.69
515.032	6744.14
515.4	6763.58
515.767	6837.02
516.135	6763.13
516.502	6779.62
516.869	6874.76
517.237	6820.53
517.604	6821.2
517.972	6903.91
518.339	6877.02
518.706	6884.93
519.073	6886.74
519.44	6936
519.808	6967.42
520.175	6923.35
520.542	6967.87
520.909	7054.19
521.276	6974.65
521.643	7049.45
522.009	7101.65
522.376	7093.29
522.743	7133.96
523.11	7161.08
523.477	7188.43
523.843	7142.55
524.21	7249.22
524.577	7267.97
524.943	7302.32
525.31	7238.37
525.676	7249.67
526.043	7259.39
526.409	7294.41
526.776	7417.35
527.142	7378.48
527.508	7416.67
527.874	7396.78
528.241	7397.46
528.607	7393.17
528.973	7456.22
529.339	7401.75
529.705	7513.84
530.071	7469.32
530.437	7439.72
530.803	7419.61
531.169	7493.05
531.535	7498.48
531.901	7457.57
532.267	7457.57
532.632	7542.99
532.998	7520.17
533.364	7540.73
533.73	7468.65
534.095	7538.02
534.461	7584.12
534.826	7542.54
535.192	7578.93
535.557	7545.48
535.923	7568.53
536.288	7508.19
536.653	7536.67
537.019	7493.5
537.384	7534.63
537.749	7552.49
538.114	7488.31
538.479	7478.81
538.845	7482.66
539.21	7434.3
539.575	7458.93
539.94	7444.47
540.305	7430.68
540.67	7453.73
541.034	7450.11
541.399	7469.78
541.764	7497.12
542.129	7433.84
542.494	7445.37
542.858	7456.89
543.223	7375.09
543.587	7397.23
543.952	7483.56
544.316	7416.22
544.681	7388.2
545.045	7458.48
545.41	7416.22
545.774	7436.33
546.138	7364.24
546.503	7390.91
546.867	7345.71
547.231	7357.01
547.595	7359.95
547.959	7370.57
548.324	7358.59
548.688	7341.64
549.052	7372.83
549.416	7391.36
549.779	7293.96
550.143	7326.95
550.507	7323.34
550.871	7368.99
551.235	7341.87
551.599	7295.09
551.962	7254.64
552.326	7339.16
552.689	7326.5
553.053	7230.46
553.417	7242.44
553.78	7338.93
554.143	7324.92
554.507	7341.87
554.87	7312.72
555.234	7313.85
555.597	7259.39
555.96	7335.09
556.323	7251.25
556.686	7293.73
557.05	7302.1
557.413	7315.43
557.776	7304.58
558.139	7389.1
558.502	7304.13
558.865	7306.62
559.228	7378.93
559.59	7406.73
559.953	7396.56
560.316	7398.82
560.679	7433.39
561.041	7455.09
561.404	7425.48
561.767	7457.8
562.129	7428.19
562.492	7524.92
562.854	7443.56
563.217	7441.98
563.579	7520.62
563.941	7524.24
564.304	7509.32
564.666	7565.59
565.028	7559.72
565.39	7532.6
565.753	7585.03
566.115	7617.34
566.477	7625.7
566.839	7634.97
567.201	7638.58
567.563	7699.37
567.925	7707.06
568.287	7723.78
568.648	7707.06
569.01	7781.86
569.372	7831.35
569.734	7765.81
570.095	7804.91
570.457	7876.54
570.819	7851.01
571.18	7802.65
571.542	7920.16
571.903	7846.49
572.265	7879.26
572.626	7938.24
572.987	7937.79
573.349	7986.6
573.71	7974.17
574.071	8047.16
574.432	7992.7
574.794	8076.99
575.155	8037.44
575.516	7979.14
575.877	8042.19
576.238	8056.65
576.599	8083.09
576.96	8124
577.32	8106.59
577.681	8131
578.042	8103.88
578.403	8178.01
578.763	8160.6
579.124	8229.53
579.485	8242.86
579.845	8266.14
580.206	8239.25
580.566	8230.89
580.927	8304.56
581.287	8298
581.648	8281.73
582.008	8370.54
582.368	8269.98
582.728	8376.64
583.089	8307.04
583.449	8323.09
583.809	8349.75
584.169	8382.07
584.529	8343.88
584.889	8416.64
585.249	8403.31
585.609	8363.76
585.969	8368.06
586.329	8415.74
586.688	8372.58
587.048	8427.04
587.408	8378
587.768	8420.94
588.127	8392.91
588.487	8403.76
588.846	8511.1
589.206	8432.46
589.565	8428.62
589.925	8533.25
590.284	8459.58
590.643	8423.42
591.003	8515.85
591.362	8453.93
591.721	8530.76
592.08	8531.89
592.44	8475.4
592.799	8548.17
593.158	8523.31
593.517	8489.86
593.876	8577.32
594.235	8526.7
594.593	8565.57
594.952	8590.42
595.311	8533.93
595.67	8618.22
596.029	8603.98
596.387	8631.33
596.746	8648.28
597.104	8580.03
597.463	8608.28
597.822	8630.87
598.18	8597.88
598.538	8602.63
598.897	8664.09
599.255	8539.35
599.613	8732.34
599.972	8637.43
600.33	8696.18
600.688	8678.56
601.046	8604.66
601.404	8708.61
601.762	8681.27
602.12	8690.31
602.478	8705.22
602.836	8763.3
603.194	8686.01
603.552	8629.74
603.91	8716.3
604.268	8732.34
604.625	8670.87
604.983	8684.66
605.341	8685.11
605.698	8693.92
606.056	8759.46
606.413	8781.61
606.771	8736.86
607.128	8772.57
607.485	8773.7
607.843	8786.35
608.2	8750.65
608.557	8794.94
608.914	8852.56
609.272	8852.56
609.629	8886.69
609.986	8927.14
610.343	8825.45
610.7	8867.48
611.057	8839
611.414	8939.57
611.771	8869.96
612.127	8822.28
612.484	8860.02
612.841	8997.42
613.198	8873.81
613.554	8876.29
613.911	8923.97
614.267	8945.67
614.624	8942.73
614.98	8940.47
615.337	9010.3
615.693	9014.82
616.05	9008.94
616.406	9003.75
616.762	8969.17
617.118	9030.64
617.475	9024.54
617.831	8987.48
618.187	9005.1
618.543	9027.47
618.899	9066.57
619.255	9020.7
619.611	9031.54
619.967	9032.67
620.323	9089.62
620.678	9030.86
621.034	9029.96
621.39	9045.78
621.746	9043.29
622.101	9116.29
622.457	9075.61
622.812	9077.19
623.168	9083.29
623.523	9012.56
623.879	9083.52
624.234	9027.93
624.589	9035.38
624.945	9048.04
625.3	9062.05
625.655	9049.17
626.01	9059.11
626.365	9056.85
626.72	9037.64
627.075	8999
627.43	9081.48
627.785	9036.74
628.14	9036.51
628.495	9045.1
628.85	9042.62
629.205	8983.41
629.559	9041.49
629.914	8947.7
630.269	8980.24
630.623	8980.7
630.978	8988.83
631.332	8974.14
631.687	8990.64
632.041	8906.8
632.396	8945.22
632.75	8878.33
633.104	8942.05
633.459	8862.06
633.813	8885.56
634.167	8890.98
634.521	8886.91
634.875	8896.63
635.229	8858.44
635.583	8809.85
635.937	8860.02
636.291	8854.37
636.645	8827.93
636.999	8801.04
637.352	8780.93
637.706	8742.96
638.06	8777.76
638.413	8759.01
638.767	8780.48
639.121	8800.14
639.474	8734.37
639.828	8678.11
640.181	8712.68
640.534	8750.87
640.888	8693.7
641.241	8658.9
641.594	8662.06
641.947	8654.38
642.301	8667.94
642.654	8636.07
643.007	8649.86
643.36	8655.51
643.713	8651.67
644.066	8622.29
644.419	8642.17
644.771	8550.2
645.124	8428.62
645.477	8469.07
645.83	8393.37
646.182	8350.88
646.535	8316.31
646.888	8349.07
647.24	8336.87
647.593	8345.91
647.945	8311.56
648.298	8284.44
648.65	8275.86
649.002	8226.37
649.355	8329.64
649.707	8306.82
650.059	8351.56
650.411	8460.71
650.763	8410.77
651.115	8533.48
651.467	8540.26
651.819	8515.62
652.171	8540.71
652.523	8448.05
652.875	8472.91
653.227	8446.92
653.578	8509.3
653.93	8441.05
654.282	8412.58
654.633	8389.98
654.985	8473.59
655.337	8412.35
655.688	8488.51
656.039	8495.74
656.391	8383.65
656.742	8452.12
657.094	8405.8
657.445	8473.82
657.796	8437.43
658.147	8463.65
658.498	8440.15
658.849	8473.36
659.2	8426.13
659.551	8466.81
659.902	8513.82
660.253	8416.64
660.604	8479.69
660.955	8457.55
661.306	8477.43
661.656	8440.82
662.007	8421.16
662.358	8445.57
662.708	8419.81
663.059	8450.31
663.409	8411.67
663.76	8509.75
664.11	8472.46
664.461	8415.06
664.811	8485.34
665.161	8439.92
665.511	8424.1
665.862	8419.35
666.212	8488.73
666.562	8439.47
666.912	8417.1
667.262	8446.47
667.612	8398.34
667.962	8405.8
668.312	8475.62
668.662	8446.25
669.011	8411.9
669.361	8379.13
669.711	8392.01
670.06	8350.43
670.41	8393.37
670.76	8365.8
671.109	8415.74
671.459	8361.5
671.808	8419.35
672.157	8380.26
672.507	8299.58
672.856	8346.59
673.205	8384.55
673.554	8382.75
673.904	8287.38
674.253	8387.27
674.602	8429.3
674.951	8270.43
675.3	8181.62
675.649	8272.01
675.998	8317.89
676.346	8267.04
676.695	8287.15
677.044	8261.39
677.393	8305.01
677.741	8275.18
678.09	8326.02
678.438	8180.72
678.787	8222.07
679.135	8264.1
679.484	8205.8
679.832	8251
680.181	8171.68
680.529	8215.07
680.877	8149.31
681.225	8173.49
681.573	8137.33
681.922	8097.1
682.27	8146.82
682.618	8101.85
682.966	8126.93
683.314	8127.39
683.661	8040.16
684.009	7991.34
684.357	8004.68
684.705	8013.49
685.053	8001.74
685.4	7982.98
685.748	7925.81
686.095	7959.71
686.443	7923.32
686.79	7898.24
687.138	7848.3
687.485	7956.54
687.832	7874.06
688.18	7888.07
688.527	7792.93
688.874	7806.94
689.221	7826.83
689.568	7725.81
689.915	7746.83
690.262	7728.98
690.609	7726.49
690.956	7706.61
691.303	7612.82
691.65	7592.71
691.997	7615.08
692.344	7512.26
692.69	7627.51
693.037	7547.51
693.383	7404.24
693.73	7561.52
694.077	7500.51
694.423	7453.96
694.769	7414.86
695.116	7402.66
695.462	7382.32
695.808	7400.62
696.155	7397.91
696.501	7283.79
696.847	7278.82
697.193	7269.33
697.539	7307.07
697.885	7263.45
698.231	7182.1
698.577	7259.16
698.923	7184.13
699.269	7224.36
699.614	7110.24
699.96	7046.06
700.306	7047.64
700.651	7028.88
700.997	6977.58
701.342	7014.65
701.688	6952.73
702.033	6995.21
702.379	6953.4
702.724	6896.01
703.069	6995.44
703.415	6883.8
703.76	6828.66
704.105	6854.2
704.45	6841.77
704.795	6844.03
705.14	6800.64
705.485	6732.17
705.83	6773.3
706.175	6754.31
706.52	6746.4
706.865	6735.56
707.209	6651.49
707.554	6666.41
707.899	6631.83
708.243	6633.64
708.588	6596.35
708.932	6562.68
709.277	6589.12
709.621	6551.83
709.966	6550.7
710.31	6550.7
710.654	6450.82
710.998	6496.69
711.342	6507.54
711.687	6480.2
712.031	6432.97
712.375	6411.72
712.719	6435.9
713.063	6429.12
713.407	6438.16
713.75	6390.71
714.094	6398.84
714.438	6297.6
714.782	6373.98
715.125	6361.56
715.469	6354.55
715.812	6312.97
716.156	6324.04
716.499	6242.69
716.843	6324.27
717.186	6295.34
717.53	6300.77
717.873	6318.17
718.216	6250.6
718.559	6278.62
718.902	6114.56
719.246	6227.77
719.589	6166.31
719.932	6140.09
720.275	6151.39
720.617	6163.82
720.96	6138.06
721.303	6139.64
721.646	6137.38
721.989	6187.55
722.331	6127.89
722.674	6089.7
723.016	6150.04
723.359	6072.75
723.701	6095.8
724.044	6082.02
724.386	6075.01
724.729	6134.44
725.071	6131.28
725.413	6064.84
725.755	6052.86
726.097	6064.16
726.439	5989.81
726.782	6003.37
727.124	6052.19
727.465	6072.52
727.807	6063.26
728.149	6042.69
728.491	5976.26
728.833	6013.09
729.175	5984.84
729.516	5941.91
729.858	6003.15
730.199	6011.96
730.541	6006.76
730.882	5996.37
731.224	6043.6
731.565	5937.84
731.906	5956.59
732.248	5978.52
732.589	5976.03
732.93	6021
733.271	5970.83
733.612	5971.74
733.953	5969.25
734.294	5998.85
734.635	5897.16
734.976	5954.33
735.317	5920.66
735.658	5924.05
735.999	5959.76
736.339	5902.81
736.68	5988.68
737.021	5949.36
737.361	5909.59
737.702	5929.02
738.042	5988.01
738.383	5971.96
738.723	5995.01
739.063	5902.58
739.404	6004.05
739.744	5987.33
740.084	5917.95
740.424	5989.81
740.764	5974.67
741.104	6039.53
741.444	5987.55
741.784	6005.41
742.124	5992.3
742.464	5987.78
742.804	5915.01
743.143	6025.52
743.483	6038.4
743.823	6006.99
744.162	6056.48
744.502	6088.57
744.841	6093.99
745.181	6083.6
745.52	6105.97
745.86	6117.04
746.199	6176.25
746.538	6131.51
746.877	6169.47
747.216	6262.12
747.556	6287.43
747.895	6326.08
748.234	6222.8
748.573	6291.05
748.911	6328.56
749.25	6344.38
749.589	6395.68
749.928	6428.22
750.267	6443.36
750.605	6470.25
750.944	6525.62
751.283	6537.14
751.621	6648.78
751.96	6648.55
752.298	6741.43
752.636	6775.1
752.975	6826.4
753.313	6837.93
753.651	6901.2
753.989	6969.22
754.327	7034.08
754.666	7109.11
755.004	7114.08
755.342	7249.44
755.679	7342.32
756.017	7425.93
756.355	7445.6
756.693	7546.16
757.031	7730.79
757.368	7712.25
757.706	7812.82
758.044	7879.26
758.381	7959.03
758.719	8035.86
759.056	8189.3
759.394	8281.96
759.731	8261.62
760.068	8415.06
760.405	8469.75
760.743	8604.89
761.08	8685.56
761.417	8747.93
761.754	8822.06
762.091	8950.41
762.428	9063.18
762.765	9128.26
763.102	9266.79
763.438	9377.07
763.775	9450.29
764.112	9484.19
764.449	9488.93
764.785	9660
765.122	9716.04
765.458	9756.95
765.795	9865.64
766.131	9976.6
766.467	9996.26
766.804	10150.16
767.14	10099.08
767.476	10267.22
767.812	10297.95
768.148	10367.1
768.485	10419.98
768.821	10523.93
769.157	10584.5
769.492	10593.31
769.828	10697.94
770.164	10659.52
770.5	10703.59
770.836	10823.13
771.171	10775.68
771.507	10855
771.842	10871.49
772.178	10972.96
772.513	10931.83
772.849	11019.06
773.184	11128.44
773.519	11117.82
773.855	11139.06
774.19	11113.3
774.525	11118.94
774.86	11283.69
775.195	11189.9
775.53	11283.46
775.865	11303.8
776.2	11221.09
776.535	11179.96
776.87	11316.23
777.205	11273.07
777.539	11185.38
777.874	11363.91
778.209	11266.74
778.543	11262.22
778.878	11179.06
779.212	11254.08
779.547	11304.02
779.881	11356.23
780.215	11205.04
780.55	11315.55
780.884	11239.85
781.218	11280.97
781.552	11359.62
781.886	11279.17
782.22	11256.34
782.554	11231.71
782.888	11201.2
783.222	11156.68
783.556	11212.95
783.889	11229.22
784.223	11088.89
784.557	11085.95
784.89	11145.61
785.224	11128.66
785.557	11148.32
785.891	11077.82
786.224	11124.82
786.558	11081.88
786.891	11057.25
787.224	10956.24
787.557	11075.33
787.891	11014.77
788.224	10979.51
788.557	10979.29
788.89	10994.88
789.223	11025.84
789.556	10913.53
789.888	10928.67
790.221	10901.78
790.554	10838.5
790.887	10792.4
791.219	10762.8
791.552	10796.24
791.884	10676.92
792.217	10760.54
792.549	10657.49
792.882	10641.67
793.214	10644.38
793.546	10700.2
793.879	10574.33
794.211	10585.85
794.543	10525.06
794.875	10461.56
795.207	10491.16
795.539	10487.32
795.871	10553.31
796.203	10459.53
796.535	10372.07
796.867	10405.97
797.198	10382.47
797.53	10306.54
797.862	10303.15
798.193	10386.53
798.525	10297.05
798.856	10256.82
799.188	10241.45
799.519	10119.65
799.85	10147.22
800.182	10218.63
800.513	10168.01
800.844	10096.37
801.175	10140.44
801.506	10070.16
801.837	10081.91
802.168	10026.32
802.499	10107.67
802.83	9923.72
803.161	10022.02
803.491	10001.23
803.822	9996.26
804.153	9923.04
804.483	9867.68
804.814	9856.61
805.145	9775.93
805.475	9877.85
805.805	9699.77
806.136	9804.4
806.466	9739.55
806.796	9733.9
807.126	9617.29
807.457	9655.25
807.787	9603.05
808.117	9624.52
808.447	9572.77
808.777	9570.74
809.107	9507.24
809.436	9572.54
809.766	9474.69
810.096	9517.63
810.426	9493.45
810.755	9428.82
811.085	9468.59
811.414	9470.17
811.744	9318.09
812.073	9424.98
812.403	9289.16
812.732	9247.13
813.061	9285.32
813.39	9266.79
813.719	9203.06
814.049	9299.56
814.378	9315.6
814.707	9208.71
815.036	9200.13
815.365	9157.41
815.693	9113.35
816.022	9121.94
816.351	9087.59
816.68	9077.19
817.008	9073.12
817.337	9016.4
817.665	9002.84
817.994	8961.49
818.322	9013.01
818.651	9008.04
818.979	8935.5
819.307	8993.58
819.636	8978.21
819.964	8946.8
820.292	8967.59
820.62	8947.93
820.948	8919.45
821.276	8938.44
821.604	8915.61
821.932	8902.73
822.259	8967.59
822.587	8917.42
822.915	8893.92
823.243	8890.3
823.57	8876.97
823.898	8935.95
824.225	8842.39
824.553	8895.05
824.88	8858.44
825.207	8958.55
825.535	8894.6
825.862	8844.43
826.189	8813.24
826.516	8888.5
826.843	8864.54
827.17	8893.92
827.497	8913.13
827.824	8907.48
828.151	8919.91
828.478	8849.85
828.805	8900.92
829.131	8874.48
829.458	8905.44
829.785	8829.29
830.111	8862.96
830.438	8876.29
830.764	8858.44
831.09	8898.89
831.417	8855.95
831.743	8900.7
832.069	8890.53
832.395	8849.17
832.722	8900.7
833.048	8847.37
833.374	8862.51
833.7	8764.88
834.026	8857.08
834.351	8814.15
834.677	8847.14
835.003	8819.34
835.329	8851.21
835.654	8816.18
835.98	8810.98
836.306	8769.4
836.631	8728.05
836.956	8815.5
837.282	8754.49
837.607	8796.97
837.932	8720.59
838.258	8732.34
838.583	8713.58
838.908	8634.72
839.233	8661.38
839.558	8645.79
839.883	8653.47
840.208	8591.78
840.533	8546.58
840.858	8600.82
841.182	8618.9
841.507	8587.03
841.832	8489.86
842.156	8581.38
842.481	8611.44
842.805	8472.01
843.13	8495.96
843.454	8464.55
843.778	8477.66
844.103	8408.06
844.427	8427.04
844.751	8351.33
845.075	8380.94
845.399	8360.6
845.723	8298.45
846.047	8329.87
846.371	8251.22
846.695	8194.28
847.019	8255.97
847.343	8140.94
847.666	8119.48
847.99	8070.21
848.313	8044.68
848.637	8006.48
848.96	8050.33
849.284	7990.89
849.607	7944.79
849.931	7890.78
850.254	7901.85
850.577	7874.74
850.9	7799.94
851.223	7830.67
851.546	7786.15
851.869	7709.09
852.192	7792.48
852.515	7608.98
852.838	7666.38
853.161	7696.66
853.483	7590.9
853.806	7575.76
854.129	7554.52
854.451	7498.7
854.774	7513.84
855.096	7492.83
855.419	7441.3
855.741	7380.29
856.063	7425.03
856.385	7402.43
856.708	7346.61
857.03	7326.05
857.352	7315.2
857.674	7307.52
857.996	7269.55
858.318	7234.08
858.64	7261.42
858.961	7182.33
859.283	7170.8
859.605	7182.78
859.926	7169.44
860.248	7227.07
860.57	7138.48
860.891	7119.28
861.212	7103.91
861.534	7089.67
861.855	7050.35
862.176	6998.6
862.498	7075.21
862.819	7104.36
863.14	7066.62
863.461	7028.66
863.782	6980.97
864.103	7020.97
864.424	6937.36
864.745	7020.75
865.065	6922.45
865.386	6900.07
865.707	6927.87
866.027	6913.86
866.348	6853.75
866.668	6883.58
866.989	6886.51
867.309	6814.2
867.63	6837.02
867.95	6809
868.27	6816.46
868.59	6786.86
868.91	6817.82
869.23	6797.25
869.55	6789.12
869.87	6792.51
870.19	6786.63
870.51	6743.47
870.83	6833.41
871.15	6766.97
871.469	6738.5
871.789	6718.16
872.109	6701.89
872.428	6654.2
872.748	6768.55
873.067	6672.51
873.386	6691.72
873.706	6671.15
874.025	6604.49
874.344	6629.8
874.663	6611.04
874.982	6606.3
875.301	6656.69
875.62	6599.74
875.939	6552.51
876.258	6623.47
876.577	6586.63
876.896	6544.6
877.214	6521.33
877.533	6522.46
877.852	6513.19
878.17	6502.34
878.489	6495.79
878.807	6457.82
879.125	6430.25
879.444	6425.06
879.762	6448.56
880.08	6448.79
880.398	6477.71
880.716	6411.05
881.034	6430.93
881.352	6431.61
881.67	6376.92
881.988	6347.09
882.306	6397.94
882.624	6267.1
882.941	6300.09
883.259	6261.45
883.577	6296.02
883.894	6304.83
884.212	6313.2
884.529	6300.09
884.846	6304.38
885.164	6261.22
885.481	6229.58
885.798	6250.6
886.115	6195.01
886.432	6185.97
886.75	6119.98
887.067	6131.51
887.383	6126.31
887.7	6124.27
888.017	6074.78
888.334	6170.83
888.651	6090.6
888.967	6099.64
889.284	6064.39
889.6	6028.01
889.917	6011.28
890.233	5995.01
890.55	5979.19
890.866	6020.1
891.182	5981.23
891.498	5916.37
891.815	5934.45
892.131	5917.27
892.447	5896.48
892.763	5927.67
893.079	5843.83
893.395	5823.04
893.71	5844.06
894.026	5859.65
894.342	5833.21
894.657	5772.42
894.973	5732.19
895.289	5748.92
895.604	5705.98
895.92	5722.48
896.235	5695.58
896.55	5710.05
896.865	5687
897.181	5602.48
897.496	5632.54
897.811	5638.64
898.126	5583.95
898.441	5583.72
898.756	5541.92
899.071	5496.72
899.386	5479.77
899.7	5443.61
900.015	5417.63
900.33	5409.49
900.644	5403.84
900.959	5433.22
901.273	5419.43
901.588	5377.4
901.902	5357.74
902.216	5295.6
902.531	5268.25
902.845	5307.35
903.159	5299.89
903.473	5243.39
903.787	5268.93
904.101	5186.9
904.415	5193
904.729	5228.03
905.042	5201.81
905.356	5120.91
905.67	5131.31
905.984	5140.8
906.297	5118.65
906.611	5082.27
906.924	5116.84
907.237	5011.31
907.551	5072.1
907.864	5061.48
908.177	4966.34
908.491	4985.55
908.804	4931.09
909.117	4942.38
909.43	4868.94
909.743	4912.78
910.056	4840.47
910.368	4856.06
910.681	4813.12
910.994	4818.09
911.307	4788.94
911.619	4802.5
911.932	4780.13
912.244	4713.01
912.557	4724.99
912.869	4708.72
913.181	4690.64
913.494	4716.18
913.806	4646.8
914.118	4685.44
914.43	4615.39
914.742	4595.5
915.054	4560.25
915.366	4597.31
915.678	4509.63
915.99	4540.13
916.302	4472.34
916.613	4476.63
916.925	4478.44
917.236	4485.22
917.548	4437.76
917.859	4412
918.171	4394.83
918.482	4381.72
918.794	4412.23
919.105	4389.63
919.416	4349.18
919.727	4285.68
920.038	4319.8
920.349	4280.48
920.66	4271.67
920.971	4249.3
921.282	4265.79
921.593	4234.38
921.903	4239.58
922.214	4160.48
922.525	4136.53
922.835	4171.56
923.146	4104.21
923.456	4126.13
923.767	4081.16
924.077	4134.04
924.387	4078.23
924.697	4082.75
925.008	4025.8
925.318	3999.58
925.628	4032.8
925.938	4031.9
926.248	3950.32
926.558	3951.22
926.867	3979.47
927.177	3916.87
927.487	3897.44
927.796	3891.56
928.106	3882.3
928.416	3844.79
928.725	3877.33
929.034	3847.72
929.344	3852.92
929.653	3830.77
929.962	3769.76
930.271	3767.73
930.581	3748.29
930.89	3778.57
931.199	3723.89
931.508	3710.1
931.817	3734.96
932.125	3682.3
932.434	3711.91
932.743	3666.26
933.051	3614.06
933.36	3644.11
933.669	3634.85
933.977	3656.09
934.286	3630.78
934.594	3588.97
934.902	3602.98
935.21	3553.72
935.519	3525.7
935.827	3524.34
936.135	3497.45
936.443	3509.65
936.751	3485.47
937.059	3458.36
937.367	3473.72
937.674	3420.84
937.982	3432.37
938.29	3420.39
938.597	3408.19
938.905	3366.83
939.213	3388.98
939.52	3365.02
939.827	3346.04
940.135	3350.56
940.442	3325.93
940.749	3344.69
941.056	3286.61
941.363	3275.31
941.67	3249.1
941.977	3242.32
942.284	3203.67
942.591	3234.86
942.898	3185.37
943.205	3219.72
943.511	3163.9
943.818	3200.28
944.125	3159.15
944.431	3144.01
944.738	3166.39
945.044	3122.77
945.35	3134.52
945.657	3081.19
945.963	3066.5
946.269	3065.6
946.575	3111.02
946.881	3037.35
947.187	3057.01
947.493	2998.03
947.799	3016.33
948.105	2956
948.41	3000.97
948.716	2978.14
949.022	2996.45
949.327	2983.79
949.633	2931.14
949.938	2917.8
950.244	2944.24
950.549	2903.12
950.854	2882.78
951.16	2919.39
951.465	2881.42
951.77	2848.2
952.075	2791.03
952.38	2815.21
952.685	2835.09
952.99	2786.28
953.294	2810.91
953.599	2788.54
953.904	2757.58
954.209	2753.06
954.513	2748.77
954.818	2756.45
955.122	2738.37
955.426	2753.74
955.731	2727.08
956.035	2688.43
956.339	2666.29
956.643	2670.81
956.948	2650.24
957.252	2655.44
957.556	2660.18
957.86	2612.05
958.163	2628.77
958.467	2558.49
958.771	2586.74
959.075	2583.35
959.378	2579.51
959.682	2574.31
959.985	2558.94
960.289	2579.96
960.592	2538.15
960.896	2542
961.199	2516.23
961.502	2533.63
961.805	2527.76
962.108	2488.21
962.411	2466.07
962.714	2455.9
963.017	2464.48
963.32	2425.61
963.623	2402.11
963.926	2411.38
964.228	2422.45
964.531	2403.47
964.833	2396.46
965.136	2376.12
965.438	2358.95
965.741	2346.07
966.043	2389
966.345	2405.73
966.648	2354.43
966.95	2320.98
967.252	2298.84
967.554	2315.79
967.856	2268.1
968.158	2302.91
968.46	2276.92
968.761	2266.75
969.063	2264.71
969.365	2251.38
969.666	2235.79
969.968	2218.61
970.269	2234.66
970.571	2226.75
970.872	2183.59
971.174	2184.49
971.475	2193.98
971.776	2155.34
972.077	2181.1
972.378	2156.24
972.679	2151.72
972.98	2161.67
973.281	2139.97
973.582	2150.82
973.883	2131.84
974.183	2102.01
974.484	2116.24
974.785	2118.05
975.085	2105.4
975.386	2109.01
975.686	2072.18
975.986	2102.01
976.287	2046.42
976.587	2028.56
976.887	2050.71
977.187	2056.58
977.487	2039.64
977.787	1997.83
978.087	2022.91
978.387	1977.26
978.687	1994.44
978.987	1971.84
979.286	1988.34
979.586	2000.99
979.885	1952.18
980.185	1946.3
980.484	1967.55
980.784	1946.76
981.083	1942.01
981.382	1934.33
981.682	1885.06
981.981	1878.06
982.28	1875.57
982.579	1871.05
982.878	1855.69
983.177	1901.33
983.475	1869.7
983.774	1866.53
984.073	1839.41
984.372	1832.41
984.67	1861.11
984.969	1836.48
985.267	1820.88
985.566	1827.89
985.864	1809.59
986.162	1794.22
986.461	1769.81
986.759	1779.08
987.057	1774.11
987.355	1759.19
987.653	1754.45
987.951	1751.73
988.249	1733.65
988.547	1759.87
988.844	1745.18
989.142	1724.84
989.44	1713.32
989.737	1695.01
990.035	1695.46
990.332	1734.33
990.63	1686.42
990.927	1691.62
991.224	1676.93
991.521	1708.34
991.819	1653.66
992.116	1654.56
992.413	1649.14
992.71	1647.56
993.006	1671.74
993.303	1644.17
993.6	1642.36
993.897	1611.62
994.193	1614.79
994.49	1605.3
994.787	1598.07
995.083	1575.69
995.379	1558.74
995.676	1588.57
995.972	1555.35
996.268	1558.07
996.565	1564.85
996.861	1532.08
997.157	1549.48
997.453	1514
997.749	1525.98
998.044	1509.03
998.34	1483.94
998.636	1500.89
998.932	1496.15
999.227	1494.57
999.523	1494.79
999.818	1481.23
1000.114	1484.17
1000.409	1492.98
1000.704	1417.96
1001	1451.85
1001.295	1445.07
1001.59	1428.13
1001.885	1428.8
1002.18	1427.45
1002.475	1429.71
1002.77	1422.25
1003.065	1402.82
1003.359	1424.96
1003.654	1394.91
1003.949	1356.72
1004.243	1363.04
1004.538	1358.52
1004.832	1346.32
1005.127	1354
1005.421	1338.19
1005.715	1321.46
1006.009	1348.13
1006.304	1316.72
1006.598	1303.16
1006.892	1317.17
1007.186	1282.37
1007.48	1300.67
1007.773	1267.9
1008.067	1276.72
1008.361	1271.97
1008.655	1284.18
1008.948	1264.51
1009.242	1255.48
1009.535	1231.52
1009.829	1237.4
1010.122	1240.56
1010.415	1200.56
1010.708	1201.92
1011.001	1220.67
1011.295	1229.04
1011.588	1194.23
1011.881	1205.53
1012.173	1189.26
1012.466	1189.26
1012.759	1175.48
1013.052	1170.51
1013.344	1163.73
1013.637	1158.98
1013.93	1139.77
1014.222	1147.23
1014.514	1117.63
1014.807	1148.81
1015.099	1158.08
1015.391	1118.3
1015.683	1119.43
1015.976	1133.44
1016.268	1098.87
1016.56	1089.38
1016.851	1109.04
1017.143	1085.08
1017.435	1100.68
1017.727	1102.49
1018.018	1087.57
1018.31	1083.28
1018.602	1087.12
1018.893	1058.64
1019.185	1074.24
1019.476	1045.76
1019.767	1052.99
1020.058	1035.37
1020.35	1022.04
1020.641	1010.06
1020.932	1012.77
1021.223	998.08
1021.514	1000.34
1021.804	997.86
1022.095	1004.41
1022.386	978.42
1022.677	990.85
1022.967	992.43
1023.258	965.54
1023.548	953.11
1023.839	969.61
1024.129	958.99
1024.419	927.8
1024.709	940.46
1025	914.47
1025.29	951.98
1025.58	930.74
1025.87	907.91
1026.16	920.57
1026.449	917.18
1026.739	930.06
1027.029	894.58
1027.319	895.94
1027.608	907.69
1027.898	906.11
1028.187	912.21
1028.477	876.5
1028.766	878.54
1029.055	847.8
1029.344	862.27
1029.634	827.46
1029.923	842.83
1030.212	841.02
1030.501	847.35
1030.79	850.29
1031.078	851.87
1031.367	831.98
1031.656	814.36
1031.945	828.37
1032.233	826.56
1032.522	832.44
1032.81	800.57
1033.099	815.04
1033.387	801.7
1033.675	787.01
1033.963	788.14
1034.251	766.9
1034.54	797.86
1034.828	788.37
1035.116	762.61
1035.403	763.74
1035.691	758.77
1035.979	766.22
1036.267	732.78
1036.554	757.64
1036.842	747.24
1037.129	750.63
1037.417	733.68
1037.704	744.98
1037.992	729.39
1038.279	704.76
1038.566	723.29
1038.853	723.29
1039.14	723.29
