Data from hue_250_FLMS001491_00007.txt Node
Date: Tue Feb 07 16:00:28 GMT 2017
User: dcchb
Spectrometer: FLMS00149
Trigger mode: 0
Integration Time (sec): 2.000000E-2
Scans to average: 10
Electric dark correction enabled: true
Nonlinearity correction enabled: false
Boxcar width: 0
XAxis mode: Wavelengths
Number of Pixels in Spectrum: 2048
>>>>>Begin Spectral Data<<<<<
341.393	-13.83
341.776	-13.83
342.16	-13.83
342.543	-61.28
342.927	-50.89
343.31	-70.55
343.693	-71.9
344.077	-59.48
344.46	-74.16
344.843	-41.4
345.226	-35.75
345.61	-16.77
345.993	-26.71
346.376	-7.5
346.759	8.77
347.142	4.48
347.525	41.99
347.908	51.26
348.291	84.7
348.674	88.54
349.057	124.47
349.44	143.68
349.823	144.13
350.206	156.56
350.588	193.85
350.971	194.3
351.354	221.19
351.737	233.85
352.119	251.93
352.502	231.36
352.884	259.39
353.267	253.28
353.65	279.5
354.032	283.34
354.414	274.98
354.797	303.45
355.179	328.76
355.562	285.6
355.944	327.86
356.326	318.14
356.709	324.24
357.091	312.72
357.473	323.56
357.855	338.71
358.238	353.39
358.62	318.14
359.002	339.38
359.384	345.26
359.766	323.56
360.148	335.99
360.53	312.04
360.912	333.73
361.294	306.16
361.676	324.92
362.057	319.27
362.439	324.47
362.821	326.73
363.203	321.76
363.584	302.55
363.966	311.59
364.348	332.15
364.729	316.11
365.111	292.61
365.493	312.49
365.874	296
366.256	324.47
366.637	301.87
367.019	296.9
367.4	306.16
367.781	313.17
368.163	304.58
368.544	317.46
368.925	295.32
369.306	293.06
369.688	301.87
370.069	316.11
370.45	289.22
370.831	306.16
371.212	304.13
371.593	312.94
371.974	299.38
372.355	308.88
372.736	304.13
373.117	301.87
373.498	280.63
373.879	303.9
374.26	316.56
374.641	297.58
375.021	310.68
375.402	288.76
375.783	297.12
376.163	328.54
376.544	311.36
376.925	296.9
377.305	294.87
377.686	308.88
378.066	298.03
378.447	322.66
378.827	302.1
379.208	302.55
379.588	329.21
379.968	325.15
380.349	322.66
380.729	331.47
381.109	327.41
381.489	318.37
381.87	362.66
382.25	341.87
382.63	347.29
383.01	351.36
383.39	330.34
383.77	332.83
384.15	322.21
384.53	312.49
384.91	330.34
385.29	317.92
385.67	316.56
386.049	316.11
386.429	318.82
386.809	323.79
387.189	326.73
387.568	341.19
387.948	339.16
388.328	345.71
388.707	352.72
389.087	355.65
389.466	347.07
389.846	348.65
390.225	347.52
390.605	328.99
390.984	346.62
391.363	377.8
391.743	332.38
392.122	371.93
392.501	381.19
392.881	362.21
393.26	354.52
393.639	370.8
394.018	366.05
394.397	351.81
394.776	367.86
395.155	382.32
395.534	358.59
395.913	348.2
396.292	364.24
396.671	387.74
397.05	371.25
397.429	383.9
397.808	385.03
398.186	365.6
398.565	381.42
398.944	389.1
399.323	384.35
399.701	395.88
400.08	391.59
400.458	387.74
400.837	405.14
401.215	409.44
401.594	405.14
401.972	393.17
402.351	395.65
402.729	391.81
403.107	406.05
403.486	406.27
403.864	401.3
404.242	407.86
404.62	429.78
404.999	420.51
405.377	423.45
405.755	446.73
406.133	424.35
406.511	440.4
406.889	448.99
407.267	444.69
407.645	467.97
408.023	438.82
408.401	460.74
408.779	478.36
409.156	462.54
409.534	505.93
409.912	488.31
410.29	481.07
410.667	519.94
411.045	505.48
411.422	490.57
411.8	492.83
412.178	507.51
412.555	507.51
412.933	518.36
413.31	550.68
413.687	533.95
414.065	541.19
414.442	542.54
414.819	560.62
415.197	552.26
415.574	564.01
415.951	581.19
416.328	579.6
416.705	584.12
417.082	601.07
417.46	602.2
417.837	601.07
418.214	599.26
418.591	600.17
418.967	603.33
419.344	639.94
419.721	634.97
420.098	624.12
420.475	662.77
420.852	656.89
421.228	646.95
421.605	639.26
421.982	665.48
422.358	661.41
422.735	682.43
423.111	691.01
423.488	712.48
423.864	722.42
424.241	724.23
424.617	739.15
424.994	755.42
425.37	763.78
425.746	761.97
426.123	780.28
426.499	783.21
426.875	790.22
427.251	810.78
427.627	789.09
428.003	766.49
428.379	816.66
428.756	818.69
429.132	847.62
429.507	868.41
429.883	851.01
430.259	892.14
430.635	903.89
431.011	912.7
431.387	903.66
431.763	913.83
432.138	920.84
432.514	944.79
432.89	947.73
433.265	954.96
433.641	970.1
434.016	987.73
434.392	1005.58
434.767	1080.16
435.143	1026.6
435.518	1054.17
435.894	1025.47
436.269	1095.3
436.644	1105.01
437.02	1114.28
437.395	1100.72
437.77	1137.33
438.145	1172.58
438.52	1185.24
438.895	1174.84
439.271	1176.65
439.646	1219.13
440.021	1218
440.395	1246.93
440.77	1252.81
441.145	1247.38
441.52	1258.91
441.895	1280.38
442.27	1302.3
442.645	1294.39
443.019	1340.26
443.394	1323.76
443.769	1337.1
444.143	1325.12
444.518	1356.76
444.892	1364.22
445.267	1371
445.641	1370.32
446.016	1397.66
446.39	1415.51
446.764	1424.55
447.139	1401.5
447.513	1426.36
447.887	1448.51
448.262	1474.95
448.636	1441.95
449.01	1477.21
449.384	1482.4
449.758	1482.63
450.132	1506.81
450.506	1512.46
450.88	1516.08
451.254	1526.92
451.628	1536.41
452.002	1575.74
452.376	1572.57
452.75	1600.37
453.123	1600.37
453.497	1610.99
453.871	1656.41
454.244	1675.39
454.618	1665.68
454.992	1719.69
455.365	1705.9
455.739	1729.18
456.112	1747.26
456.486	1722.17
456.859	1751.55
457.232	1789.06
457.606	1812.11
457.979	1846.24
458.352	1829.74
458.725	1864.09
459.099	1848.95
459.472	1907.48
459.845	1917.2
460.218	1916.74
460.591	1938.89
460.964	1960.81
461.337	2033.12
461.71	2012.11
462.083	2080.81
462.456	2043.75
462.829	2077.19
463.201	2101.15
463.574	2079.22
463.947	2160.13
464.32	2188.83
464.692	2156.74
465.065	2181.37
465.438	2251.42
465.81	2271.54
466.183	2255.04
466.555	2330.29
466.928	2313.12
467.3	2337.07
467.672	2347.01
468.045	2393.79
468.417	2381.82
468.789	2424.53
469.161	2427.24
469.534	2494.58
469.906	2535.03
470.278	2518.54
470.65	2588.14
471.022	2638.08
471.394	2664.75
471.766	2671.75
472.138	2707.91
472.51	2782.26
472.882	2802.37
473.253	2818.87
473.625	2860.67
473.997	2885.76
474.369	2880.79
474.74	2930.73
475.112	3006.43
475.484	3032.87
475.855	3045.3
476.227	3118.29
476.598	3178.18
476.97	3214.56
477.341	3221.57
477.713	3273.77
478.084	3317.61
478.455	3352.64
478.827	3426.31
479.198	3512.18
479.569	3473.09
479.94	3566.87
480.311	3601.44
480.682	3620.65
481.053	3736.81
481.424	3806.64
481.795	3796.69
482.166	3867.65
482.537	3937.48
482.908	4000.76
483.279	4017.93
483.65	4055.67
484.021	4123.01
484.391	4124.82
484.762	4194.42
485.133	4189.9
485.503	4300.64
485.874	4391.48
486.244	4365.94
486.615	4471.7
486.985	4488.65
487.356	4555.54
487.726	4582.66
488.097	4626.73
488.467	4736.78
488.837	4738.59
489.207	4801.19
489.578	4836.89
489.948	4879.15
490.318	4927.06
490.688	4916.21
491.058	5032.82
491.428	5064.01
491.798	5108.3
492.168	5185.58
492.538	5205.92
492.908	5276.66
493.278	5317.33
493.648	5328.63
494.017	5403.21
494.387	5458.57
494.757	5464.45
495.126	5546.93
495.496	5577.89
495.866	5584.22
496.235	5570.66
496.605	5619.7
496.974	5664.44
497.344	5673.93
497.713	5699.92
498.082	5719.58
498.452	5791.67
498.821	5759.58
499.19	5842.97
499.559	5874.15
499.928	5870.09
500.298	5902.63
500.667	5936.07
501.036	5994.15
501.405	6052.91
501.774	5999.12
502.143	6084.32
502.512	6052.45
502.88	6075.05
503.249	6072.57
503.618	6129.51
503.987	6101.49
504.356	6184.88
504.724	6122.96
505.093	6171.32
505.462	6268.95
505.83	6286.12
506.199	6287.7
506.567	6343.97
506.936	6308.94
507.304	6401.6
507.672	6392.78
508.041	6334.03
508.409	6415.61
508.777	6387.59
509.145	6473.69
509.514	6433.01
509.882	6473.69
510.25	6502.61
510.618	6465.78
510.986	6529.96
511.354	6581.93
511.722	6652.21
512.09	6675.71
512.458	6658.09
512.826	6666.67
513.193	6662.61
513.561	6700.8
513.929	6757.75
514.297	6747.12
514.664	6781.25
515.032	6744.87
515.4	6832.32
515.767	6813.79
516.135	6856.95
516.502	6800.23
516.869	6853.34
517.237	6853.11
517.604	6837.52
517.972	6909.83
518.339	6929.49
518.706	6883.17
519.073	6880.91
519.44	6903.5
519.808	6960.45
520.175	6999.77
520.542	7059.88
520.909	7062.37
521.276	7036.61
521.643	7037.29
522.009	7091.07
522.376	7076.83
522.743	7096.27
523.11	7132.65
523.477	7153.44
523.843	7122.93
524.21	7257.62
524.577	7210.16
524.943	7212.65
525.31	7265.53
525.676	7298.07
526.043	7322.7
526.409	7295.13
526.776	7345.75
527.142	7325.41
527.508	7406.54
527.874	7359.31
528.241	7410.84
528.607	7449.71
528.973	7433.66
529.339	7380.78
529.705	7476.82
530.071	7519.99
530.437	7447.9
530.803	7487.9
531.169	7482.25
531.535	7443.15
531.901	7496.71
532.267	7451.29
532.632	7526.31
532.998	7541.23
533.364	7513.21
533.73	7472.08
534.095	7542.13
534.461	7535.35
534.826	7518.63
535.192	7497.16
535.557	7598.63
535.923	7540.1
536.288	7470.04
536.653	7553.43
537.019	7519.08
537.384	7465.75
537.749	7527.44
538.114	7530.16
538.479	7519.99
538.845	7514.56
539.21	7458.52
539.575	7441.8
539.94	7478.41
540.305	7524.51
540.67	7452.42
541.034	7429.14
541.399	7524.28
541.764	7475.92
542.129	7512.53
542.494	7515.69
542.858	7468.24
543.223	7435.02
543.587	7509.82
543.952	7466.65
544.316	7451.97
544.681	7441.57
545.045	7409.25
545.41	7413.77
545.774	7470.72
546.138	7469.82
546.503	7384.62
546.867	7395.24
547.231	7388.46
547.595	7423.94
547.959	7459.2
548.324	7413.55
548.688	7408.8
549.052	7399.54
549.416	7412.87
549.779	7386.88
550.143	7376.71
550.507	7430.27
550.871	7346.21
551.235	7414.68
551.599	7418.52
551.962	7396.6
552.326	7384.4
552.689	7413.1
553.053	7349.37
553.417	7347.79
553.78	7446.32
554.143	7291.97
554.507	7437.73
554.87	7397.28
555.234	7418.52
555.597	7397.73
555.96	7412.42
556.323	7428.69
556.686	7452.64
557.05	7430.27
557.413	7386.66
557.776	7372.65
558.139	7435.92
558.502	7379.42
558.865	7405.41
559.228	7470.5
559.59	7444.28
559.953	7452.19
560.316	7559.98
560.679	7534.67
561.041	7509.59
561.404	7511.62
561.767	7554.79
562.129	7514.34
562.492	7577.16
562.854	7614.9
563.217	7560.44
563.579	7619.42
563.941	7630.27
564.304	7687.67
564.666	7649.7
565.028	7712.07
565.39	7718.17
565.753	7654.45
566.115	7742.8
566.477	7745.74
566.839	7785.29
567.201	7734.67
567.563	7807.44
567.925	7842.69
568.287	7792.3
568.648	7818.51
569.01	7890.37
569.372	7879.52
569.734	7844.5
570.095	7896.93
570.457	7937.38
570.819	7973.08
571.18	7937.38
571.542	8011.27
571.903	8006.53
572.265	8065.96
572.626	8086.07
572.987	8015.11
573.349	8092.17
573.71	8079.52
574.071	8139.4
574.432	8082.01
574.794	8158.16
575.155	8159.74
575.516	8141.89
575.877	8209.01
576.238	8157.26
576.599	8268.89
576.96	8283.36
577.32	8236.13
577.681	8319.06
578.042	8320.87
578.403	8268.21
578.763	8286.52
579.124	8290.59
579.485	8384.6
579.845	8360.42
580.206	8403.13
580.566	8401.77
580.927	8457.59
581.287	8457.14
581.648	8429.34
582.008	8511.82
582.368	8482.22
582.728	8497.81
583.089	8486.97
583.449	8552.28
583.809	8521.99
584.169	8579.39
584.529	8568.32
584.889	8573.97
585.249	8593.4
585.609	8561.54
585.969	8627.53
586.329	8626.17
586.688	8706.17
587.048	8685.83
587.408	8626.85
587.768	8662.1
588.127	8623.46
588.487	8641.99
588.846	8699.84
589.206	8643.12
589.565	8662.33
589.925	8790.69
590.284	8731.71
590.643	8710.46
591.003	8811.93
591.362	8798.82
591.721	8823
592.08	8738.94
592.44	8867.75
592.799	8843.57
593.158	8836.34
593.517	8800.18
593.876	8794.53
594.235	8850.12
594.593	8844.02
594.952	8889.22
595.311	8890.8
595.67	8851.48
596.029	8948.87
596.387	8936.45
596.746	8948.2
597.104	8914.3
597.463	8892.38
597.822	8928.99
598.18	8893.28
598.538	8932.83
598.897	8926.28
599.255	8970.34
599.613	8995.88
599.972	8967.18
600.33	8989.78
600.688	8923.79
601.046	8953.62
601.404	9043.11
601.762	9012.38
602.12	9046.73
602.478	9008.53
602.836	9034.97
603.194	8983.22
603.552	9031.36
603.91	8925.37
604.268	9020.74
604.625	8980.06
604.983	9051.25
605.341	9040.4
605.698	9071.58
606.056	9034.97
606.413	9071.13
606.771	9102.54
607.128	9149.32
607.485	9097.35
607.843	9093.28
608.2	9093.5
608.557	9171.47
608.914	9206.95
609.272	9154.07
609.629	9182.54
609.986	9200.17
610.343	9150.68
610.7	9236.78
611.057	9194.52
611.414	9171.02
611.771	9224.8
612.127	9267.06
612.484	9251.47
612.841	9292.14
613.198	9215.31
613.554	9238.36
613.911	9272.93
614.267	9272.93
614.624	9204.46
614.98	9353.38
615.337	9329.43
615.693	9280.84
616.05	9294.4
616.406	9304.12
616.762	9268.19
617.118	9329.43
617.475	9330.11
617.831	9361.07
618.187	9364.01
618.543	9354.74
618.899	9400.16
619.255	9394.51
619.611	9342.76
619.967	9352.25
620.323	9426.6
620.678	9379.15
621.034	9387.06
621.39	9382.76
621.746	9306.61
622.101	9504.57
622.457	9330.79
622.812	9433.83
623.168	9424.34
623.523	9470.9
623.879	9425.92
624.234	9358.36
624.589	9386.83
624.945	9366.27
625.3	9420.5
625.655	9434.96
626.01	9324.23
626.365	9388.41
626.72	9419.6
627.075	9392.93
627.43	9309.77
627.785	9374.17
628.14	9384.12
628.495	9302.09
628.85	9341.18
629.205	9336.66
629.559	9358.58
629.914	9352.03
630.269	9369.65
630.623	9350.9
630.978	9268.19
631.332	9339.37
631.687	9364.01
632.041	9334.4
632.396	9292.82
632.75	9275.65
633.104	9299.83
633.459	9197.68
633.813	9213.73
634.167	9270.22
634.521	9189.77
634.875	9193.84
635.229	9156.78
635.583	9182.32
635.937	9152.94
636.291	9115.65
636.645	9091.24
636.999	9144.58
637.352	9114.75
637.706	9100.28
638.06	9116.55
638.413	9058.7
638.767	9009.66
639.121	9003.11
639.474	9062.77
639.828	8986.61
640.181	9041.98
640.534	8966.28
640.888	9071.58
641.241	8945.49
641.594	9012.15
641.947	8968.54
642.301	9057.12
642.654	8999.04
643.007	8983.22
643.36	8992.94
643.713	8966.73
644.066	8988.2
644.419	8910.23
644.771	8903.45
645.124	8799.27
645.477	8764.02
645.83	8717.47
646.182	8637.92
646.535	8629.11
646.888	8678.6
647.24	8665.04
647.593	8715.66
647.945	8655.1
648.298	8581.2
648.65	8583.69
649.002	8627.75
649.355	8625.49
649.707	8600.86
650.059	8602.67
650.411	8768.54
650.763	8750.69
651.115	8834.98
651.467	8825.71
651.819	8834.98
652.171	8794.3
652.523	8792.04
652.875	8745.94
653.227	8703.68
653.578	8777.81
653.93	8775.77
654.282	8719.95
654.633	8759.5
654.985	8702.1
655.337	8786.85
655.688	8828.2
656.039	8791.36
656.391	8740.97
656.742	8690.58
657.094	8808.31
657.445	8759.95
657.796	8720.41
658.147	8737.58
658.498	8747.98
658.849	8715.21
659.2	8766.51
659.551	8752.5
659.902	8719.73
660.253	8755.66
660.604	8759.95
660.955	8685.6
661.306	8785.49
661.656	8665.94
662.007	8772.16
662.358	8714.53
662.708	8758.6
663.059	8683.12
663.409	8730.12
663.76	8789.11
664.11	8733.06
664.461	8703.68
664.811	8736.68
665.161	8794.75
665.511	8754.53
665.862	8826.17
666.212	8780.07
666.562	8756.11
666.912	8775.32
667.262	8741.42
667.612	8748.2
667.962	8779.39
668.312	8770.12
668.662	8766.05
669.011	8755.89
669.361	8762.21
669.711	8664.81
670.06	8683.57
670.41	8698.94
670.76	8674.98
671.109	8758.37
671.459	8766.51
671.808	8708.2
672.157	8734.87
672.507	8668.66
672.856	8693.29
673.205	8699.16
673.554	8610.8
673.904	8693.29
674.253	8664.81
674.602	8662.1
674.951	8511.15
675.3	8501.2
675.649	8647.87
675.998	8605.61
676.346	8644.02
676.695	8619.84
677.044	8569
677.393	8594.99
677.741	8594.08
678.09	8531.26
678.438	8509.79
678.787	8580.75
679.135	8497.59
679.484	8502.11
679.832	8552.5
680.181	8480.41
680.529	8468.44
680.877	8486.06
681.225	8414.65
681.573	8521.32
681.922	8481.99
682.27	8422.56
682.618	8446.29
682.966	8412.84
683.314	8376.91
683.661	8380.3
684.009	8338.72
684.357	8338.72
684.705	8299.4
685.053	8303.24
685.4	8280.87
685.748	8249.91
686.095	8233.64
686.443	8136.92
686.79	8202.45
687.138	8184.6
687.485	8236.35
687.832	8135.79
688.18	8188.89
688.527	8109.57
688.874	8079.52
689.221	8072.51
689.568	8020.09
689.915	8022.57
690.262	8007.43
690.609	7947.77
690.956	8005.17
691.303	7921.56
691.65	7920.65
691.997	7868.45
692.344	7866.87
692.69	7903.7
693.037	7838.4
693.383	7708
693.73	7796.81
694.077	7739.64
694.423	7710.49
694.769	7717.95
695.116	7708.23
695.462	7707.1
695.808	7582.36
696.155	7690.83
696.501	7650.15
696.847	7592.75
697.193	7566.76
697.539	7556.37
697.885	7487.67
698.231	7472.3
698.577	7493.77
698.923	7452.87
699.269	7425.3
699.614	7301.23
699.96	7375.13
700.306	7321.12
700.651	7302.14
700.997	7280.44
701.342	7182.37
701.688	7299.88
702.033	7135.36
702.379	7175.14
702.724	7191.86
703.069	7156.15
703.415	7066.44
703.76	7044.52
704.105	7102.14
704.45	7047.46
704.795	7039.09
705.14	7026.89
705.485	6991.64
705.83	6948.93
706.175	6949.61
706.52	6912.77
706.865	6921.81
707.209	6965.2
707.554	6877.97
707.899	6887.69
708.243	6828.7
708.588	6813.56
708.932	6811.08
709.277	6769.5
709.621	6750.06
709.966	6684.53
710.31	6771.31
710.654	6696.73
710.998	6701.48
711.342	6679.1
711.687	6673.45
712.031	6667.35
712.375	6609.05
712.719	6622.38
713.063	6619.22
713.407	6631.42
713.75	6585.1
714.094	6562.72
714.438	6593.68
714.782	6502.16
715.125	6526.79
715.469	6521.14
715.812	6509.62
716.156	6460.13
716.499	6455.61
716.843	6452.22
717.186	6444.31
717.53	6512.78
717.873	6479.79
718.216	6480.69
718.559	6433.91
718.902	6388.49
719.246	6346.68
719.589	6331.32
719.932	6326.57
720.275	6364.08
720.617	6317.31
720.96	6319.11
721.303	6342.62
721.646	6340.58
721.989	6315.05
722.331	6323.63
722.674	6301.49
723.016	6309.17
723.359	6352.56
723.701	6297.87
724.044	6288.61
724.386	6317.98
724.729	6328.83
725.071	6275.27
725.413	6291.32
725.755	6242.73
726.097	6226.91
726.439	6215.39
726.782	6205.67
727.124	6293.58
727.465	6217.65
727.807	6169.51
728.149	6223.52
728.491	6215.61
728.833	6229.17
729.175	6180.36
729.516	6073.47
729.858	6186.01
730.199	6185.33
730.541	6139.91
730.882	6177.42
731.224	6162.06
731.565	6116.63
731.906	6164.99
732.248	6196.63
732.589	6150.08
732.93	6151.66
733.271	6164.54
733.612	6141.27
733.953	6137.2
734.294	6127.25
734.635	6161.38
734.976	6119.12
735.317	6104.66
735.658	6138.1
735.999	6115.73
736.339	6126.8
736.68	6160.93
737.021	6162.73
737.361	6128.84
737.702	6144.43
738.042	6120.93
738.383	6120.47
738.723	6192.11
739.063	6117.54
739.404	6175.84
739.744	6158.21
740.084	6127.71
740.424	6169.51
740.764	6173.35
741.104	6175.84
741.444	6178.78
741.784	6114.37
742.124	6143.3
742.464	6145.33
742.804	6228.95
743.143	6197.99
743.483	6231.43
743.823	6216.74
744.162	6221.94
744.502	6277.76
744.841	6258.1
745.181	6341.26
745.52	6288.38
745.86	6336.74
746.199	6385.1
746.538	6361.6
746.877	6467.36
747.216	6468.94
747.556	6499.9
747.895	6462.16
748.234	6513.46
748.573	6526.57
748.911	6561.82
749.25	6630.97
749.589	6627.13
749.928	6707.58
750.267	6709.61
750.605	6770.4
750.944	6842.94
751.283	6842.26
751.621	6927.69
751.96	6969.04
752.298	7021.92
752.636	7113.89
752.975	7148.02
753.313	7141.92
753.651	7257.62
753.989	7356.6
754.327	7375.13
754.666	7469.82
755.004	7485.86
755.342	7657.84
755.679	7711.62
756.017	7750.71
756.355	7859.41
756.693	7903.48
757.031	8080.42
757.368	8141.89
757.706	8233.41
758.044	8323.81
758.381	8463.24
758.719	8548.21
759.056	8673.63
759.394	8705.27
759.731	8730.8
760.068	8864.81
760.405	9009.89
760.743	9071.13
761.08	9234.52
761.417	9337.34
761.754	9396.77
762.091	9477.9
762.428	9596.54
762.765	9693.49
763.102	9818.46
763.438	9906.14
763.775	9977.55
764.112	10102.06
764.449	10134.15
764.785	10279.91
765.122	10361.27
765.458	10398.55
765.795	10528.95
766.131	10686
766.467	10750.86
766.804	10743.86
767.14	10870.63
767.476	10919.44
767.812	10970.06
768.148	11092.55
768.485	11173.9
768.821	11243.73
769.157	11318.3
769.492	11430.84
769.828	11510.39
770.164	11569.14
770.5	11566.43
770.836	11625.41
771.171	11643.72
771.507	11765.75
771.842	11812.3
772.178	11786.31
772.513	11932.98
772.849	11989.7
773.184	11981.11
773.519	12000.77
773.855	12036.48
774.19	12134.1
774.525	12053.65
774.86	12124.84
775.195	12255.68
775.53	12255
775.865	12200.31
776.2	12282.35
776.535	12246.19
776.87	12245.74
777.205	12292.97
777.539	12290.26
777.874	12293.42
778.209	12222.24
778.543	12241.44
778.878	12367.54
779.212	12354.66
779.547	12248
779.881	12353.98
780.215	12392.17
780.55	12427.2
780.884	12279.41
781.218	12414.32
781.552	12423.81
781.886	12417.26
782.22	12306.3
782.554	12344.94
782.888	12224.04
783.222	12272.18
783.556	12248.68
783.889	12285.51
784.223	12187.89
784.557	12252.97
784.89	12284.61
785.224	12209.58
785.557	12105.18
785.891	12232.86
786.224	12169.58
786.558	12230.14
786.891	12119.19
787.224	12081
787.557	12056.14
787.891	12046.42
788.224	12042.58
788.557	12077.38
788.89	12105.18
789.223	12131.62
789.556	12014.11
789.888	11943.37
790.221	11964.61
790.554	11825.41
790.887	11894.33
791.219	11855.92
791.552	11900.44
791.884	11769.37
792.217	11751.51
792.549	11814.34
792.882	11724.4
793.214	11632.42
793.546	11665.41
793.879	11619.31
794.211	11591.74
794.543	11661.12
794.875	11586.55
795.207	11613.21
795.539	11575.7
795.871	11515.14
796.203	11434.69
796.535	11475.81
796.867	11416.15
797.198	11439.2
797.53	11374.8
797.862	11294.8
798.193	11350.39
798.525	11157.86
798.856	11299.1
799.188	11159.21
799.519	11195.6
799.85	11137.52
800.182	11077.41
800.513	11100
800.844	11029.5
801.175	11159.66
801.506	11113.34
801.837	10996.96
802.168	11021.81
802.499	11011.42
802.83	10963.74
803.161	10886.45
803.491	10868.37
803.822	10898.65
804.153	10772.56
804.483	10820.46
804.814	10746.12
805.145	10747.02
805.475	10732.56
805.805	10659.11
806.136	10661.6
806.466	10667.7
806.796	10659.79
807.126	10692.33
807.457	10675.84
807.787	10582.05
808.117	10576.4
808.447	10483.3
808.777	10556.29
809.107	10439.01
809.436	10455.73
809.766	10503.86
810.096	10427.03
810.426	10371.89
810.755	10362.4
811.085	10355.84
811.414	10330.99
811.744	10282.17
812.073	10290.53
812.403	10283.76
812.732	10256.19
813.061	10178.45
813.39	10159.24
813.719	10187.49
814.049	10184.77
814.378	10137.09
814.707	10112.23
815.036	10132.57
815.365	10004.89
815.693	10049.86
816.022	10004.67
816.351	9951.79
816.68	9948.62
817.008	9981.16
817.337	9914.05
817.665	9874.27
817.994	9918.34
818.322	9876.53
818.651	9857.55
818.979	9801.51
819.307	9872.01
819.636	9840.83
819.964	9778.46
820.292	9780.94
820.62	9760.83
820.948	9740.27
821.276	9807.16
821.604	9750.21
821.932	9739.14
822.259	9751.79
822.587	9689.42
822.915	9736.2
823.243	9711.79
823.57	9681.28
823.898	9742.98
824.225	9769.19
824.553	9703.43
824.88	9738.68
825.207	9776.88
825.535	9666.14
825.862	9706.37
826.189	9724.22
826.516	9762.41
826.843	9756.09
827.17	9833.82
827.497	9863.43
827.824	9808.51
828.151	9800.6
828.478	9761.96
828.805	9844.9
829.131	9779.81
829.458	9751.34
829.785	9674.96
830.111	9753.6
830.438	9780.72
830.764	9804.9
831.09	9801.73
831.417	9686.48
831.743	9706.82
832.069	9823.2
832.395	9720.38
832.722	9792.02
833.048	9708.85
833.374	9731.91
833.7	9669.76
834.026	9709.53
834.351	9692.13
834.677	9733.26
835.003	9726.71
835.329	9735.52
835.654	9669.08
835.98	9567.84
836.306	9614.62
836.631	9598.58
836.956	9640.83
837.282	9705.92
837.607	9558.12
837.932	9525.36
838.258	9573.72
838.583	9574.17
838.908	9529.65
839.233	9458.92
839.558	9447.84
839.883	9455.75
840.208	9411.69
840.533	9418.24
840.858	9381.18
841.182	9464.79
841.507	9420.73
841.832	9355.87
842.156	9285.59
842.481	9371.91
842.805	9309.09
843.13	9268.19
843.454	9265.93
843.778	9189.32
844.103	9158.36
844.427	9204.69
844.751	9238.36
845.075	9253.27
845.399	9134.86
845.723	9092.37
846.047	9113.16
846.371	9001.3
846.695	9090.57
847.019	8931.47
847.343	8976.67
847.666	8860.97
847.99	8882.44
848.313	8900.74
848.637	8793.17
848.96	8746.85
849.284	8733.51
849.607	8705.72
849.931	8689.22
850.254	8564.48
850.577	8583.01
850.9	8544.82
851.223	8526.74
851.546	8474.09
851.869	8428.44
852.192	8513.63
852.515	8497.59
852.838	8369.46
853.161	8362.68
853.483	8273.41
853.806	8316.58
854.129	8293.98
854.451	8247.2
854.774	8232.96
855.096	8220.53
855.419	8160.65
855.741	8161.1
856.063	8073.87
856.385	8104.15
856.708	8081.33
857.03	8056.02
857.352	8098.73
857.674	8021.22
857.996	7973.31
858.318	7931.27
858.64	7945.96
858.961	7940.31
859.283	7811.28
859.605	7862.35
859.926	7884.27
860.248	7827.55
860.57	7840.66
860.891	7796.36
861.212	7786.87
861.534	7738.06
861.855	7706.87
862.176	7734.67
862.498	7677.27
862.819	7738.06
863.14	7687.21
863.461	7721.79
863.782	7691.73
864.103	7689.02
864.424	7618.29
864.745	7588.91
865.065	7630.49
865.386	7559.76
865.707	7626.2
866.027	7554.56
866.348	7576.93
866.668	7538.74
866.989	7470.5
867.309	7525.18
867.63	7536.03
867.95	7473.43
868.27	7391.4
868.59	7395.47
868.91	7430.27
869.23	7426.88
869.55	7381.23
869.87	7413.1
870.19	7428.91
870.51	7409.25
870.83	7428.24
871.15	7316.38
871.469	7370.16
871.789	7352.31
872.109	7348.24
872.428	7320.22
872.748	7340.56
873.067	7305.08
873.386	7307.79
873.706	7284.06
874.025	7194.8
874.344	7227.11
874.663	7239.99
874.982	7257.39
875.301	7189.37
875.62	7182.14
875.939	7207.68
876.258	7199.99
876.577	7130.39
876.896	7141.92
877.214	7139.43
877.533	7191.63
877.852	7104.63
878.17	7104.4
878.489	7130.84
878.807	7109.83
879.125	7082.03
879.444	7054.01
879.762	7076.83
880.08	7080.22
880.398	6984.41
880.716	7055.14
881.034	6941.7
881.352	7008.81
881.67	7013.33
881.988	7031.86
882.306	6921.13
882.624	6950.74
882.941	6905.99
883.259	6911.64
883.577	6894.92
883.894	6847.91
884.212	6863.51
884.529	6875.94
884.846	6847.01
885.164	6849.72
885.481	6768.82
885.798	6874.13
886.115	6714.13
886.432	6755.49
886.75	6760.01
887.067	6724.3
887.383	6678.65
887.7	6724.3
888.017	6649.05
888.334	6695.37
888.651	6605.66
888.967	6636.85
889.284	6587.36
889.6	6583.06
889.917	6506.23
890.233	6526.34
890.55	6550.52
890.866	6569.95
891.182	6531.99
891.498	6396.63
891.815	6447.7
892.131	6385.1
892.447	6427.36
892.763	6364.99
893.079	6394.82
893.395	6369.28
893.71	6312.33
894.026	6367.93
894.342	6348.27
894.657	6257.87
894.973	6244.99
895.289	6221.71
895.604	6200.25
895.92	6152.56
896.235	6199.57
896.55	6152.11
896.865	6135.84
897.181	6143.98
897.496	6150.3
897.811	6116.41
898.126	6064.66
898.441	6106.69
898.756	6031.21
899.071	5972.68
899.386	5970.87
899.7	5966.81
900.015	5911.89
900.33	5911.44
900.644	5886.13
900.959	5901.95
901.273	5918.67
901.588	5837.32
901.902	5792.35
902.216	5747.6
902.531	5821.95
902.845	5758.22
903.159	5701.5
903.473	5694.95
903.787	5694.72
904.101	5663.54
904.415	5648.62
904.729	5655.85
905.042	5584.22
905.356	5536.76
905.67	5556.65
905.984	5538.57
906.297	5552.58
906.611	5511
906.924	5492.47
907.237	5489.3
907.551	5487.5
907.864	5436.2
908.177	5425.35
908.491	5420.38
908.804	5324.79
909.117	5319.37
909.43	5327.73
909.743	5306.71
910.056	5308.29
910.368	5295.64
910.681	5197.79
910.994	5238.24
911.307	5200.95
911.619	5226.49
911.932	5200.5
912.244	5155.3
912.557	5132.25
912.869	5066.49
913.181	5068.75
913.494	5054.74
913.806	5052.03
914.118	5042.54
914.43	4960.28
914.742	5010.67
915.054	4975.42
915.366	4937.91
915.678	4928.87
915.99	4892.71
916.302	4850.45
916.613	4867.63
916.925	4858.81
917.236	4817.46
917.548	4790.34
917.859	4810.23
918.171	4735.88
918.482	4770.23
918.794	4739.04
919.105	4723.9
919.416	4731.36
919.727	4664.47
920.038	4644.13
920.349	4645.49
920.66	4648.42
920.971	4640.29
921.282	4653.85
921.593	4544.24
921.903	4574.53
922.214	4555.09
922.525	4556.67
922.835	4515.09
923.146	4486.85
923.456	4446.17
923.767	4447.3
924.077	4426.06
924.387	4466.28
924.697	4371.59
925.008	4358.49
925.318	4389.22
925.628	4326.85
925.938	4379.28
926.248	4288.21
926.558	4302.22
926.867	4299.73
927.177	4271.48
927.487	4303.8
927.796	4213.41
928.106	4198.94
928.416	4247.76
928.725	4193.97
929.034	4153.75
929.344	4150.13
929.653	4146.97
929.962	4103.35
930.271	4054.31
930.581	4063.13
930.89	4076.46
931.199	3982.9
931.508	4048.44
931.817	3966.63
932.125	3975.22
932.434	3967.31
932.743	3970.47
933.051	3917.82
933.36	3856.81
933.669	3892.74
933.977	3914.43
934.286	3897.03
934.594	3854.77
934.902	3817.03
935.21	3831.72
935.519	3822.23
935.827	3817.26
936.135	3775.68
936.443	3782.46
936.751	3762.8
937.059	3713.76
937.367	3745.62
937.674	3718.96
937.982	3722.8
938.29	3666.98
938.597	3671.27
938.905	3628.79
939.213	3632.18
939.52	3621.33
939.827	3599.41
940.135	3626.75
940.442	3574.55
940.749	3570.71
941.056	3565.06
941.363	3545.18
941.67	3511.5
941.977	3497.04
942.284	3452.97
942.591	3483.48
942.898	3463.82
943.205	3470.6
943.511	3417.04
943.818	3419.53
944.125	3420.66
944.431	3372.52
944.738	3383.37
945.044	3356.71
945.35	3388.12
945.657	3300.66
945.963	3281.23
946.269	3285.97
946.575	3325.52
946.881	3295.24
947.187	3283.71
947.493	3241.68
947.799	3215.01
948.105	3206.65
948.41	3226.99
948.716	3206.43
949.022	3211.17
949.327	3129.82
949.633	3144.06
949.938	3135.69
950.244	3174.56
950.549	3134.34
950.854	3104.73
951.16	3135.47
951.465	3098.18
951.77	3056.83
952.075	3097.5
952.38	3056.6
952.685	3033.55
952.99	3007.79
953.294	2975.25
953.599	3012.76
953.904	2965.3
954.209	2980.9
954.513	2950.61
954.818	2942.03
955.122	2916.72
955.426	2917.85
955.731	2906.1
956.035	2908.81
956.339	2858.19
956.643	2870.39
956.948	2875.36
957.252	2829.94
957.556	2843.5
957.86	2808.7
958.163	2818.87
958.467	2805.31
958.771	2794.01
959.075	2782.71
959.378	2816.83
959.682	2771.64
959.985	2768.7
960.289	2747
960.592	2721.69
960.896	2747.23
961.199	2725.99
961.502	2697.51
961.805	2685.99
962.108	2688.02
962.411	2658.64
962.714	2659.55
963.017	2649.83
963.32	2638.98
963.623	2618.65
963.926	2625.65
964.228	2571.87
964.531	2598.99
964.833	2577.74
965.136	2562.83
965.438	2561.02
965.741	2533.68
966.043	2528.03
966.345	2519.89
966.648	2516.95
966.95	2492.77
967.252	2464.75
967.554	2467.92
967.856	2449.38
968.158	2459.33
968.46	2439.44
968.761	2421.59
969.063	2402.61
969.365	2405.54
969.666	2418.65
969.968	2389.27
970.269	2389.27
970.571	2373.45
970.872	2346.34
971.174	2350.86
971.475	2336.62
971.776	2372.78
972.077	2345.21
972.378	2306.56
972.679	2330.29
972.98	2301.82
973.281	2267.92
973.582	2262.05
973.883	2300.91
974.183	2266.79
974.484	2247.13
974.785	2243.97
975.085	2247.13
975.386	2211.2
975.686	2193.12
975.986	2224.08
976.287	2205.78
976.587	2203.97
976.887	2160.8
977.187	2164.87
977.487	2134.14
977.787	2167.13
978.087	2166.45
978.387	2152.9
978.687	2141.6
978.987	2134.36
979.286	2088.04
979.586	2076.29
979.885	2086
980.185	2094.37
980.484	2074.93
980.784	2044.88
981.083	2076.29
981.382	2074.03
981.682	2046.23
981.981	2040.36
982.28	2001.49
982.579	2014.82
982.878	2018.89
983.177	1992.22
983.475	1992.22
983.774	1959
984.073	1959
984.372	1959.68
984.67	1954.93
984.969	1954.03
985.267	1945.9
985.566	1935.27
985.864	1950.87
986.162	1887.14
986.461	1918.55
986.759	1913.58
987.057	1853.92
987.355	1855.28
987.653	1876.97
987.951	1857.54
988.249	1851.66
988.547	1845.11
988.844	1844.2
989.142	1849.63
989.44	1795.39
989.737	1839.23
990.035	1806.46
990.332	1747.93
990.63	1763.3
990.927	1775.28
991.224	1778.89
991.521	1802.85
991.819	1757.43
992.116	1754.26
992.413	1741.83
992.71	1739.12
993.006	1752.68
993.303	1721.27
993.6	1734.38
993.897	1695.73
994.193	1725.56
994.49	1724.21
994.787	1676.3
995.083	1709.07
995.379	1694.6
995.676	1677.43
995.972	1661.38
996.268	1666.81
996.565	1632.68
996.861	1630.65
997.157	1635.62
997.453	1638.78
997.749	1610.08
998.044	1617.32
998.34	1623.19
998.636	1602.4
998.932	1579.13
999.227	1555.4
999.523	1552.69
999.818	1514.27
1000.114	1540.03
1000.409	1526.7
1000.704	1564.89
1001	1519.69
1001.295	1522.63
1001.59	1521.5
1001.885	1498
1002.18	1473.14
1002.475	1500.71
1002.77	1487.15
1003.065	1491.9
1003.359	1493.25
1003.654	1435.85
1003.949	1415.29
1004.243	1443.76
1004.538	1409.86
1004.832	1418.45
1005.127	1407.83
1005.421	1425.68
1005.715	1397.44
1006.009	1401.5
1006.304	1383.65
1006.598	1385.23
1006.892	1387.72
1007.186	1392.92
1007.48	1355.4
1007.773	1359.02
1008.067	1349.53
1008.361	1349.98
1008.655	1331.22
1008.948	1317.89
1009.242	1336.87
1009.535	1338.45
1009.829	1306.36
1010.122	1321.28
1010.415	1289.19
1010.708	1261.17
1011.001	1290.09
1011.295	1273.14
1011.588	1258.46
1011.881	1265.01
1012.173	1253.94
1012.466	1237.44
1012.759	1219.36
1013.052	1240.15
1013.344	1178.91
1013.637	1220.49
1013.93	1216.2
1014.222	1193.37
1014.514	1215.29
1014.807	1175.97
1015.099	1181.17
1015.391	1180.94
1015.683	1179.59
1015.976	1196.76
1016.268	1135.52
1016.56	1177.1
1016.851	1168.74
1017.143	1137.55
1017.435	1128.52
1017.727	1120.15
1018.018	1111.34
1018.31	1093.49
1018.602	1126.48
1018.893	1098.91
1019.185	1096.88
1019.476	1086.71
1019.767	1093.94
1020.058	1063.21
1020.35	1070.66
1020.641	1053.04
1020.932	1051
1021.223	1060.72
1021.514	1045.35
1021.804	1040.38
1022.095	1038.57
1022.386	1024.79
1022.677	1042.87
1022.967	1009.42
1023.258	1024.11
1023.548	1001.74
1023.839	985.47
1024.129	1007.16
1024.419	992.93
1024.709	981.85
1025	986.6
1025.29	966.49
1025.58	932.59
1025.87	954.51
1026.16	954.96
1026.449	952.47
1026.739	954.28
1027.029	944.34
1027.319	976.2
1027.608	941.4
1027.898	924.23
1028.187	939.82
1028.477	921.97
1028.766	915.41
1029.055	898.24
1029.344	881.52
1029.634	910.44
1029.923	884.91
1030.212	885.36
1030.501	886.94
1030.79	872.03
1031.078	884.91
1031.367	848.97
1031.656	880.61
1031.945	832.48
1032.233	846.94
1032.522	834.06
1032.81	830.22
1033.099	828.64
1033.387	842.2
1033.675	821.4
1033.963	830.44
1034.251	800.16
1034.54	819.15
1034.828	811.24
1035.116	792.93
1035.403	785.02
1035.691	786.15
1035.979	775.98
1036.267	782.99
1036.554	811.46
1036.842	775.08
1037.129	772.59
1037.417	764.23
1037.704	760.62
1037.992	745.7
1038.279	752.93
1038.566	740.5
1038.853	740.5
1039.14	740.5
