Data from hue_170_FLMS001491_00073.txt Node
Date: Tue Feb 07 16:49:10 GMT 2017
User: dcchb
Spectrometer: FLMS00149
Trigger mode: 0
Integration Time (sec): 2.000000E-2
Scans to average: 10
Electric dark correction enabled: true
Nonlinearity correction enabled: false
Boxcar width: 0
XAxis mode: Wavelengths
Number of Pixels in Spectrum: 2048
>>>>>Begin Spectral Data<<<<<
341.393	-8.18
341.776	-8.18
342.16	-8.18
342.543	-57.67
342.927	-45.46
343.31	-82.53
343.693	-73.26
344.077	-53.83
344.46	-48.18
344.843	-67.61
345.226	-59.7
345.61	-32.36
345.993	-14.96
346.376	10.13
346.759	20.3
347.142	44.7
347.525	55.55
347.908	56
348.291	71.59
348.674	75.66
349.057	98.49
349.44	113.63
349.823	160.41
350.206	171.03
350.588	180.29
350.971	216.22
351.354	220.29
351.737	245.83
352.119	247.41
352.502	264.58
352.884	264.36
353.267	284.47
353.65	300.06
354.032	308.65
354.414	303.45
354.797	309.78
355.179	316.11
355.562	328.54
355.944	323.79
356.326	328.08
356.709	318.37
357.091	323.34
357.473	362.43
357.855	335.32
358.238	325.15
358.62	342.77
359.002	335.09
359.384	336.45
359.766	348.88
360.148	351.13
360.53	340.29
360.912	339.38
361.294	338.48
361.676	330.34
362.057	320.63
362.439	330.8
362.821	336.22
363.203	303
363.584	324.24
363.966	334.19
364.348	315.88
364.729	312.04
365.111	302.55
365.493	314.98
365.874	323.56
366.256	309.33
366.637	324.47
367.019	328.76
367.4	353.17
367.781	316.33
368.163	322.44
368.544	304.36
368.925	307.97
369.306	312.72
369.688	309.1
370.069	302.32
370.45	310.68
370.831	319.5
371.212	302.32
371.593	300.97
371.974	300.74
372.355	309.33
372.736	312.94
373.117	318.14
373.498	304.58
373.879	317.69
374.26	316.56
374.641	315.88
375.021	307.29
375.402	313.85
375.783	324.47
376.163	329.44
376.544	324.02
376.925	335.32
377.305	312.49
377.686	322.44
378.066	319.72
378.447	323.34
378.827	335.99
379.208	314.98
379.588	338.48
379.968	323.79
380.349	316.11
380.729	319.27
381.109	327.86
381.489	347.75
381.87	360.85
382.25	331.02
382.63	311.59
383.01	334.86
383.39	338.48
383.77	338.48
384.15	322.66
384.53	341.19
384.91	334.19
385.29	349.33
385.67	340.51
386.049	335.09
386.429	325.6
386.809	336.67
387.189	337.12
387.568	366.73
387.948	329.67
388.328	341.64
388.707	352.26
389.087	350.46
389.466	358.82
389.846	360.63
390.225	372.83
390.605	364.69
390.984	384.58
391.363	372.6
391.743	374.41
392.122	352.72
392.501	357.91
392.881	357.46
393.26	381.19
393.639	352.04
394.018	356.78
394.397	379.16
394.776	390.23
395.155	357.24
395.534	387.52
395.913	362.43
396.292	375.77
396.671	366.5
397.05	378.25
397.429	400.4
397.808	393.17
398.186	385.71
398.565	397.91
398.944	383.22
399.323	389.1
399.701	400.63
400.08	397.01
400.458	406.95
400.837	400.63
401.215	410.12
401.594	393.62
401.972	413.51
402.351	389.33
402.729	410.57
403.107	403.34
403.486	398.59
403.864	412.83
404.242	412.38
404.62	414.86
404.999	412.38
405.377	410.79
405.755	425.48
406.133	445.6
406.511	422.77
406.889	441.3
407.267	448.31
407.645	444.01
408.023	439.27
408.401	447.63
408.779	454.41
409.156	451.47
409.534	457.8
409.912	452.15
410.29	463.45
410.667	480.4
411.045	468.42
411.422	479.72
411.8	479.27
412.178	497.57
412.555	490.79
412.933	493.5
413.31	481.75
413.687	480.62
414.065	508.64
414.442	499.15
414.819	537.12
415.197	495.31
415.574	503
415.951	521.53
416.328	539.83
416.705	542.54
417.082	542.32
417.46	539.6
417.837	554.75
418.214	570.79
418.591	552.49
418.967	564.46
419.344	569.43
419.721	568.08
420.098	566.5
420.475	558.81
420.852	577.8
421.228	599.49
421.605	579.38
421.982	604.91
422.358	613.95
422.735	621.18
423.111	621.41
423.488	630.22
423.864	618.92
424.241	650.56
424.617	649.66
424.994	646.04
425.37	672.48
425.746	666.83
426.123	665.7
426.499	660.28
426.875	673.61
427.251	661.86
427.627	686.49
428.003	708.87
428.379	721.97
428.756	717
429.132	724.68
429.507	735.76
429.883	740.05
430.259	758.81
430.635	747.51
431.011	753.61
431.387	761.29
431.763	751.58
432.138	798.13
432.514	775.3
432.89	790.45
433.265	785.02
433.641	824.12
434.016	827.51
434.392	843.1
434.767	837.9
435.143	864.57
435.518	894.62
435.894	867.28
436.269	888.52
436.644	896.21
437.02	916.32
437.395	912.93
437.77	937.11
438.145	945.47
438.52	945.24
438.895	954.06
439.271	976.66
439.646	999.48
440.021	995.64
440.395	1006.71
440.77	973.04
441.145	1000.16
441.52	1022.3
441.895	1026.82
442.27	1042.64
442.645	1060.04
443.019	1086.26
443.394	1056.65
443.769	1092.81
444.143	1067.95
444.518	1091.45
444.892	1113.83
445.267	1081.29
445.641	1118.57
446.016	1127.84
446.39	1132.36
446.764	1141.85
447.139	1133.26
447.513	1150.21
447.887	1162.86
448.262	1163.77
448.636	1160.38
449.01	1164.9
449.384	1215.29
449.758	1205.12
450.132	1240.15
450.506	1219.36
450.88	1232.69
451.254	1252.13
451.628	1264.56
452.002	1276.53
452.376	1278.79
452.75	1286.7
453.123	1321.28
453.497	1311.34
453.871	1331.45
454.244	1362.63
454.618	1377.1
454.992	1366.93
455.365	1377.1
455.739	1436.08
456.112	1432.46
456.486	1437.89
456.859	1458.22
457.232	1475.85
457.606	1497.32
457.979	1522.18
458.352	1534.15
458.725	1525.79
459.099	1562.4
459.472	1592.46
459.845	1606.7
460.218	1623.87
460.591	1623.87
460.964	1611.21
461.337	1682.17
461.71	1718.33
462.083	1731.44
462.456	1722.17
462.829	1770.98
463.201	1765.11
463.574	1795.16
463.947	1845.56
464.32	1841.27
464.692	1892.11
465.065	1915.84
465.438	1919.91
465.81	1991.54
466.183	1980.24
466.555	2030.19
466.928	2025.67
467.3	2063.63
467.672	2131.43
468.045	2154.03
468.417	2165.32
468.789	2170.07
469.161	2230.41
469.534	2291.87
469.906	2337.52
470.278	2336.17
470.65	2395.15
471.022	2453
471.394	2476.5
471.766	2518.99
472.138	2551.3
472.51	2617.52
472.882	2669.49
473.253	2734.57
473.625	2742.03
473.997	2808.92
474.369	2876.49
474.74	2920.11
475.112	2995.36
475.484	3019.77
475.855	3129.82
476.227	3135.69
476.598	3266.31
476.97	3327.1
477.341	3346.31
477.713	3486.42
478.084	3510.15
478.455	3666.75
478.827	3676.02
479.198	3811.16
479.569	3838.27
479.94	3930.7
480.311	4054.31
480.682	4166.18
481.053	4250.69
481.424	4350.8
481.795	4382.89
482.166	4528.43
482.537	4580.18
482.908	4757.8
483.279	4810
483.65	4924.12
484.021	5090.9
484.391	5109.65
484.762	5182.87
485.133	5291.8
485.503	5445.69
485.874	5566.82
486.244	5688.85
486.615	5894.04
486.985	5927.26
487.356	6078.44
487.726	6139.68
488.097	6335.84
488.467	6396.17
488.837	6542.84
489.207	6685.43
489.578	6793.9
489.948	6942.37
490.318	7043.16
490.688	7077.96
491.058	7252.87
491.428	7392.31
491.798	7492.64
492.168	7692.86
492.538	7734.9
492.908	7907.32
493.278	8011.27
493.648	8058.73
494.017	8252.17
494.387	8289.68
494.757	8367.2
495.126	8540.52
495.496	8599.96
495.866	8692.84
496.235	8787.98
496.605	8935.32
496.974	9017.12
497.344	9098.7
497.713	9201.52
498.082	9262.09
498.452	9352.71
498.821	9406.49
499.19	9493.49
499.559	9562.42
499.928	9649.65
500.298	9751.34
500.667	9783.2
501.036	9898.23
501.405	10038.79
501.774	9954.72
502.143	10041.28
502.512	10072.46
502.88	10182.06
503.249	10124.44
503.618	10333.02
503.987	10337.54
504.356	10421.15
504.724	10407.82
505.093	10492.56
505.462	10532.34
505.83	10679
506.199	10676.74
506.567	10852.1
506.936	10763.29
507.304	10873.8
507.672	10907.24
508.041	10986.34
508.409	11018.2
508.777	11090.97
509.145	11220
509.514	11169.38
509.882	11305.2
510.25	11214.35
510.618	11289.38
510.986	11236.27
511.354	11413.44
511.722	11477.4
512.09	11488.02
512.458	11476.04
512.826	11570.5
513.193	11591.52
513.561	11581.57
513.929	11553.55
514.297	11766.65
514.664	11705.64
515.032	11776.6
515.4	11927.78
515.767	11895.69
516.135	11843.94
516.502	11768.91
516.869	11902.24
517.237	11887.1
517.604	11938.85
517.972	11964.84
518.339	11942.47
518.706	12050.94
519.073	11964.16
519.44	11989.02
519.808	12068.79
520.175	12080.54
520.542	12165.74
520.909	12167.32
521.276	12127.55
521.643	12151.28
522.009	12270.6
522.376	12283.25
522.743	12265.62
523.11	12379.97
523.477	12451.83
523.843	12357.37
524.21	12404.6
524.577	12526.41
524.943	12431.5
525.31	12416.13
525.676	12517.59
526.043	12582.9
526.409	12530.02
526.776	12584.94
527.142	12553.98
527.508	12609.34
527.874	12588.33
528.241	12608.67
528.607	12636.46
528.973	12620.19
529.339	12513.53
529.705	12603.92
530.071	12615.45
530.437	12643.47
530.803	12635.56
531.169	12661.32
531.535	12532.96
531.901	12556.92
532.267	12577.93
532.632	12558.72
532.998	12584.03
533.364	12544.94
533.73	12550.36
534.095	12570.47
534.461	12521.66
534.826	12460.19
535.192	12412.29
535.557	12509.69
535.923	12388.11
536.288	12210.71
536.653	12385.62
537.019	12218.17
537.384	12166.19
537.749	12293.87
538.114	12262.91
538.479	12150.37
538.845	12216.13
539.21	12085.29
539.575	12074.89
539.94	11994.22
540.305	12023.82
540.67	11877.61
541.034	11883.94
541.399	11929.59
541.764	11897.72
542.129	11845.97
542.494	11773.43
542.858	11829.48
543.223	11709.93
543.587	11694.79
543.952	11634.68
544.316	11660.67
544.681	11533.44
545.045	11505.19
545.41	11487.79
545.774	11539.99
546.138	11456.83
546.503	11450.05
546.867	11328.02
547.231	11434.23
547.595	11352.88
547.959	11304.97
548.324	11231.75
548.688	11197.18
549.052	11168.03
549.416	11092.32
549.779	11116.73
550.143	11084.41
550.507	11081.93
550.871	10998.99
551.235	10958.77
551.599	10982.72
551.962	10915.38
552.326	10857.53
552.689	10857.07
553.053	10790.86
553.417	10769.17
553.78	10789.05
554.143	10736.4
554.507	10729.84
554.87	10717.87
555.234	10739.56
555.597	10608.04
555.96	10629.28
556.323	10670.86
556.686	10627.25
557.05	10635.61
557.413	10535.05
557.776	10545.22
558.139	10569.17
558.502	10483.3
558.865	10543.64
559.228	10538.44
559.59	10524.2
559.953	10539.34
560.316	10494.6
560.679	10500.47
561.041	10490.3
561.404	10446.46
561.767	10473.13
562.129	10417.54
562.492	10405.11
562.854	10442.85
563.217	10343.19
563.579	10412.11
563.941	10491.89
564.304	10516.29
564.666	10485.33
565.028	10452.56
565.39	10512.9
565.753	10471.32
566.115	10485.56
566.477	10501.6
566.839	10427.03
567.201	10483.75
567.563	10470.42
567.925	10412.11
568.287	10408.27
568.648	10433.36
569.01	10451.89
569.372	10572.56
569.734	10479.91
570.095	10547.48
570.457	10579.34
570.819	10531.66
571.18	10515.16
571.542	10547.25
571.903	10530.08
572.265	10565.56
572.626	10539.34
572.987	10580.92
573.349	10587.93
573.71	10525.78
574.071	10545.67
574.432	10552.45
574.794	10633.35
575.155	10588.61
575.516	10618.89
575.877	10598.55
576.238	10606.23
576.599	10570.98
576.96	10556.97
577.32	10604.65
577.681	10616.18
578.042	10604.65
578.403	10598.1
578.763	10561.71
579.124	10673.35
579.485	10580.92
579.845	10665.67
580.206	10604.2
580.566	10639
580.927	10671.99
581.287	10633.58
581.648	10589.96
582.008	10665.44
582.368	10618.21
582.728	10565.56
583.089	10460.7
583.449	10556.06
583.809	10514.03
584.169	10528.49
584.529	10486.46
584.889	10566.46
585.249	10493.47
585.609	10409.18
585.969	10574.37
586.329	10517.42
586.688	10509.29
587.048	10524.43
587.408	10420.47
587.768	10411.89
588.127	10455.28
588.487	10400.81
588.846	10409.63
589.206	10345
589.565	10352.91
589.925	10399.46
590.284	10339.12
590.643	10346.35
591.003	10466.58
591.362	10414.37
591.721	10411.44
592.08	10377.09
592.44	10328.73
592.799	10382.06
593.158	10352.91
593.517	10398.78
593.876	10366.46
594.235	10300.25
594.593	10296.41
594.952	10316.75
595.311	10214.15
595.67	10323.53
596.029	10321.95
596.387	10279.24
596.746	10433.58
597.104	10278.56
597.463	10329.63
597.822	10239.01
598.18	10289.86
598.538	10250.76
598.897	10305.45
599.255	10236.75
599.613	10338.22
599.972	10265.45
600.33	10263.42
600.688	10227.49
601.046	10252.57
601.404	10316.52
601.762	10290.53
602.12	10300.93
602.478	10278.78
602.836	10266.81
603.194	10201.5
603.552	10257.77
603.91	10204.21
604.268	10263.64
604.625	10182.06
604.983	10215.28
605.341	10165.34
605.698	10260.7
606.056	10251.44
606.413	10209.18
606.771	10245.11
607.128	10272.46
607.485	10221.38
607.843	10221.38
608.2	10339.12
608.557	10361.27
608.914	10218.67
609.272	10332.57
609.629	10355.17
609.986	10341.38
610.343	10215.96
610.7	10292.34
611.057	10321.04
611.414	10318.56
611.771	10318.56
612.127	10354.26
612.484	10368.27
612.841	10392.68
613.198	10295.96
613.554	10409.18
613.911	10323.3
614.267	10402.4
614.624	10337.54
614.98	10398.55
615.337	10413.7
615.693	10372.79
616.05	10375.5
616.406	10446.46
616.762	10377.99
617.118	10402.17
617.475	10311.32
617.831	10462.28
618.187	10391.55
618.543	10436.29
618.899	10473.81
619.255	10539.34
619.611	10444.88
619.967	10494.82
620.323	10488.72
620.678	10428.16
621.034	10500.47
621.39	10536.86
621.746	10357.43
622.101	10546.8
622.457	10474.94
622.812	10451.43
623.168	10516.74
623.523	10504.99
623.879	10522.62
624.234	10458.67
624.589	10506.57
624.945	10435.39
625.3	10483.75
625.655	10493.92
626.01	10519.23
626.365	10474.48
626.72	10504.77
627.075	10461.15
627.43	10486.01
627.785	10415.73
628.14	10466.12
628.495	10432.23
628.85	10438.33
629.205	10405.79
629.559	10501.6
629.914	10436.07
630.269	10401.04
630.623	10362.17
630.978	10353.81
631.332	10408.95
631.687	10351.55
632.041	10344.77
632.396	10457.76
632.75	10313.36
633.104	10380.93
633.459	10283.08
633.813	10289.18
634.167	10305.45
634.521	10382.06
634.875	10228.16
635.229	10239.46
635.583	10283.53
635.937	10225.23
636.291	10218.45
636.645	10325.11
636.999	10197.43
637.352	10271.1
637.706	10188.16
638.06	10241.72
638.413	10273.81
638.767	10187.71
639.121	10187.94
639.474	10043.76
639.828	10067.94
640.181	10125.34
640.534	10096.64
640.888	10020.03
641.241	10039.24
641.594	10057.77
641.947	10114.49
642.301	10034.5
642.654	10104.55
643.007	10096.87
643.36	10057.09
643.713	10046.02
644.066	10067.26
644.419	9996.53
644.771	9919.02
645.124	9905.91
645.477	9882.18
645.83	9772.81
646.182	9767.84
646.535	9744.33
646.888	9756.99
647.24	9701.4
647.593	9813.03
647.945	9713.83
648.298	9700.04
648.65	9625.47
649.002	9682.64
649.355	9685.13
649.707	9717.67
650.059	9768.06
650.411	9854.84
650.763	9868.17
651.115	9917.89
651.467	9966.48
651.819	9926.7
652.171	9948.17
652.523	9921.5
652.875	9890.32
653.227	9969.86
653.578	9987.72
653.93	9944.33
654.282	9874.95
654.633	9845.57
654.985	9915.18
655.337	9915.18
655.688	9904.56
656.039	9949.98
656.391	9830.66
656.742	9922.41
657.094	9860.94
657.445	9978.45
657.796	9973.03
658.147	9960.6
658.498	9866.36
658.849	9985.91
659.2	9970.32
659.551	9891.9
659.902	10012.8
660.253	9936.19
660.604	9964.22
660.955	9902.97
661.306	10007.6
661.656	9939.36
662.007	9987.94
662.358	10001.28
662.708	9948.85
663.059	10010.09
663.409	9956.08
663.76	10059.81
664.11	9995.18
664.461	10050.54
664.811	10008.28
665.161	10017.32
665.511	10069.75
665.862	10066.36
666.212	10045.34
666.562	10028.85
666.912	10080.37
667.262	10005.34
667.612	10058.22
667.962	10051.44
668.312	10056.64
668.662	10050.31
669.011	9983.88
669.361	9991.11
669.711	9986.59
670.06	10038.11
670.41	9978
670.76	9923.31
671.109	9950.88
671.459	9940.26
671.808	9970.32
672.157	9983.88
672.507	9931
672.856	9909.3
673.205	9921.28
673.554	9976.42
673.904	9897.55
674.253	9926.25
674.602	9947.27
674.951	9767.61
675.3	9693.26
675.649	9850.09
675.998	9791.11
676.346	9813.71
676.695	9886.93
677.044	9823.43
677.393	9796.31
677.741	9858.23
678.09	9798.57
678.438	9741.62
678.787	9762.41
679.135	9832.69
679.484	9787.27
679.832	9734.84
680.181	9745.92
680.529	9700.95
680.877	9723.32
681.225	9720.15
681.573	9670.66
681.922	9653.94
682.27	9624.79
682.618	9636.09
682.966	9617.11
683.314	9636.31
683.661	9571.23
684.009	9499.14
684.357	9534.4
684.705	9486.94
685.053	9432.25
685.4	9445.81
685.748	9380.05
686.095	9465.47
686.443	9321.29
686.79	9375.76
687.138	9420.73
687.485	9352.93
687.832	9391.35
688.18	9427.96
688.527	9268.19
688.874	9268.41
689.221	9275.19
689.568	9211.69
689.915	9220.51
690.262	9176.89
690.609	9152.94
690.956	9112.71
691.303	9133.05
691.65	9011.7
691.997	9086.05
692.344	8979.83
692.69	8956.56
693.037	8918.14
693.383	8905.26
693.73	8940.51
694.077	8829.33
694.423	8840.18
694.769	8817.8
695.116	8805.6
695.462	8770.12
695.808	8749.56
696.155	8700.07
696.501	8682.67
696.847	8621.65
697.193	8632.95
697.539	8632.95
697.885	8575.78
698.231	8521.77
698.577	8548.21
698.923	8512.28
699.269	8379.17
699.614	8371.71
699.96	8365.84
700.306	8364.48
700.651	8298.27
700.997	8283.58
701.342	8303.69
701.688	8165.84
702.033	8208.56
702.379	8182.57
702.724	8145.05
703.069	8130.37
703.415	8068.9
703.76	8103.93
704.105	8040.2
704.45	7981.67
704.795	7977.83
705.14	7955
705.485	7923.14
705.83	7902.12
706.175	7896.93
706.52	7819.64
706.865	7777.15
707.209	7799.75
707.554	7814.89
707.899	7770.37
708.243	7697.61
708.588	7699.19
708.932	7661.45
709.277	7629.59
709.621	7650.38
709.966	7521.12
710.31	7633.2
710.654	7491.29
710.998	7568.35
711.342	7551.4
711.687	7543.94
712.031	7473.21
712.375	7448.8
712.719	7502.81
713.063	7463.04
713.407	7464.85
713.75	7412.42
714.094	7370.16
714.438	7361.8
714.782	7388.69
715.125	7317.96
715.469	7336.26
715.812	7322.25
716.156	7250.84
716.499	7223.27
716.843	7252.42
717.186	7255.81
717.53	7261.46
717.873	7258.98
718.216	7249.03
718.559	7204.51
718.902	7158.19
719.246	7148.47
719.589	7115.93
719.932	7103.95
720.275	7165.87
720.617	7187.79
720.96	7127.68
721.303	7126.1
721.646	7131.75
721.989	7123.39
722.331	7105.99
722.674	7090.17
723.016	7105.53
723.359	7098.53
723.701	7107.34
724.044	7095.82
724.386	7095.59
724.729	7027.57
725.071	7120.45
725.413	7083.84
725.755	7119.77
726.097	7004.97
726.439	6976.95
726.782	7010.17
727.124	7023.95
727.465	7008.13
727.807	6989.38
728.149	6981.92
728.491	6989.38
728.833	7007.23
729.175	6986.89
729.516	6974.92
729.858	6960.45
730.199	6944.41
730.541	7010.62
730.882	7019.21
731.224	7076.83
731.565	6941.92
731.906	6945.54
732.248	7001.13
732.589	6980.79
732.93	6970.17
733.271	6997.74
733.612	6955.48
733.953	6966.33
734.294	6976.72
734.635	6973.33
734.976	7011.3
735.317	7001.81
735.658	7011.75
735.999	7016.95
736.339	6972.66
736.68	7040.68
737.021	7002.26
737.361	6983.95
737.702	7097.17
738.042	7018.53
738.383	7071.86
738.723	7094.91
739.063	7081.81
739.404	7114.35
739.744	7098.3
740.084	7066.44
740.424	7138.53
740.764	7118.64
741.104	7117.51
741.444	7080.22
741.784	7126.32
742.124	7188.24
742.464	7166.1
742.804	7182.82
743.143	7215.14
743.483	7214.46
743.823	7285.42
744.162	7251.74
744.502	7299.43
744.841	7323.15
745.181	7434.79
745.52	7393.66
745.86	7411.97
746.199	7437.95
746.538	7525.64
746.877	7667.1
747.216	7649.7
747.556	7637.27
747.895	7724.27
748.234	7735.35
748.573	7701
748.911	7815.8
749.25	7878.17
749.589	7965.62
749.928	8006.07
750.267	8090.14
750.605	8135.11
750.944	8167.88
751.283	8253.75
751.621	8398.83
751.96	8484.25
752.298	8567.64
752.636	8620.3
752.975	8690.58
753.313	8757.47
753.651	8905.49
753.989	9020.29
754.327	9081.07
754.666	9202.2
755.004	9313.16
755.342	9496.88
755.679	9632.02
756.017	9663.43
756.355	9846.7
756.693	9951.33
757.031	10095.74
757.368	10175.06
757.706	10371.66
758.044	10533.47
758.381	10666.8
758.719	10881.93
759.056	10978.43
759.394	11117.41
759.731	11229.72
760.068	11394.91
760.405	11492.76
760.743	11612.31
761.08	11955.35
761.417	11969.13
761.754	12231.95
762.091	12401.67
762.428	12556.46
762.765	12675.78
763.102	12922.56
763.438	13032.38
763.775	13112.83
764.112	13388.76
764.449	13565.48
764.785	13746.71
765.122	13775.87
765.458	13904.45
765.795	14071.9
766.131	14236.42
766.467	14411.56
766.804	14507.6
767.14	14580.59
767.476	14864.88
767.812	14883.86
768.148	15089.05
768.485	15095.61
768.821	15149.84
769.157	15396.61
769.492	15461.47
769.828	15657.63
770.164	15729.71
770.5	15909.82
770.836	16016.71
771.171	16043.38
771.507	16058.97
771.842	16168.8
772.178	16252.41
772.513	16417.83
772.849	16517.94
773.184	16471.16
773.519	16596.58
773.855	16642.23
774.19	16825.73
774.525	16777.14
774.86	16918.83
775.195	16952.05
775.53	16990.25
775.865	17004.48
776.2	17040.64
776.535	17064.59
776.87	17115.21
777.205	17192.05
777.539	17142.56
777.874	17332.84
778.209	17216.91
778.543	17256.45
778.878	17288.99
779.212	17377.81
779.547	17292.38
779.881	17411.93
780.215	17331.71
780.55	17487.86
780.884	17341.65
781.218	17343.68
781.552	17424.36
781.886	17444.24
782.22	17477.46
782.554	17457.35
782.888	17385.49
783.222	17347.98
783.556	17312.95
783.889	17354.3
784.223	17336
784.557	17248.77
784.89	17423.45
785.224	17363.79
785.557	17198.6
785.891	17265.49
786.224	17265.04
786.558	17389.78
786.891	17185.27
787.224	17206.28
787.557	17180.97
787.891	17173.97
788.224	17263.91
788.557	17194.31
788.89	17210.13
789.223	17173.29
789.556	17069.79
789.888	17101.43
790.221	16990.25
790.554	16964.26
790.887	16905.5
791.219	16935.56
791.552	16886.97
791.884	16888.1
792.217	16852.4
792.549	16854.88
792.882	16774.66
793.214	16776.24
793.546	16768.1
793.879	16672.97
794.211	16500.99
794.543	16618.73
794.875	16606.98
795.207	16726.3
795.539	16539.41
795.871	16446.76
796.203	16441.11
796.535	16337.83
796.867	16321.56
797.198	16313.88
797.53	16349.81
797.862	16137.61
798.193	16275.91
798.525	16193.43
798.856	16239.53
799.188	16052.64
799.519	16007.67
799.85	15962.48
800.182	16009.48
800.513	16027.33
800.844	15993.21
801.175	16032.08
801.506	15908.69
801.837	15865.98
802.168	15835.47
802.499	15834.34
802.83	15740.33
803.161	15698.75
803.491	15757.28
803.822	15681.81
804.153	15640.68
804.483	15501.7
804.814	15506.67
805.145	15565.65
805.475	15568.81
805.805	15432.77
806.136	15439.78
806.466	15373.56
806.796	15411.08
807.126	15244.3
807.457	15271.65
807.787	15262.61
808.117	15125.89
808.447	15184.64
808.777	15141.48
809.107	15103.97
809.436	15041.82
809.766	15033.91
810.096	15034.14
810.426	15006.34
810.755	14982.84
811.085	14986.46
811.414	14922.73
811.744	14766.35
812.073	14829.17
812.403	14817.65
812.732	14732.45
813.061	14690.42
813.39	14643.41
813.719	14593.92
814.049	14696.07
814.378	14542.17
814.707	14528.16
815.036	14602.74
815.365	14560.93
815.693	14325.23
816.022	14461.95
816.351	14405.68
816.68	14359.81
817.008	14384.21
817.337	14340.15
817.665	14264.22
817.994	14266.7
818.322	14281.84
818.651	14183.09
818.979	14159.13
819.307	14258.11
819.636	14153.03
819.964	14093.15
820.292	14139.25
820.62	14186.03
820.948	13999.82
821.276	14068.97
821.604	14036.2
821.932	14003.43
822.259	14078.46
822.587	14079.36
822.915	14000.95
823.243	14051.79
823.57	13969.53
823.898	14010.66
824.225	13953.49
824.553	13993.26
824.88	14004.34
825.207	14057.44
825.535	14034.84
825.862	13996.2
826.189	14009.53
826.516	14066.25
826.843	14131.79
827.17	14054.28
827.497	14131.11
827.824	14149.19
828.151	14208.17
828.478	14075.75
828.805	14171.11
829.131	14026.71
829.458	14077.33
829.785	13997.56
830.111	14024.22
830.438	14148.74
830.764	14094.5
831.09	14180.15
831.417	14020.61
831.743	14084.33
832.069	14092.69
832.395	14013.6
832.722	14066.48
833.048	14016.76
833.374	14033.94
833.7	13994.84
834.026	13970.66
834.351	13976.99
834.677	14068.06
835.003	14128.63
835.329	13990.32
835.654	13953.26
835.98	13933.83
836.306	13942.87
836.631	13895.86
836.956	13917.33
837.282	13926.15
837.607	13853.15
837.932	13846.15
838.258	13837.79
838.583	13752.14
838.908	13743.1
839.233	13739.48
839.558	13681.18
839.883	13583.56
840.208	13588.75
840.533	13674.63
840.858	13662.2
841.182	13562.99
841.507	13545.82
841.832	13514.18
842.156	13557.34
842.481	13438.47
842.805	13480.28
843.13	13464.91
843.454	13396.22
843.778	13416.1
844.103	13333.62
844.427	13275.99
844.751	13284.35
845.075	13225.6
845.399	13222.43
845.723	13123
846.047	13163.91
846.371	13048.88
846.695	12984.93
847.019	12923.91
847.343	12882.1
847.666	12888.43
847.99	12746.74
848.313	12776.57
848.637	12760.75
848.96	12750.58
849.284	12711.71
849.607	12546.75
849.931	12523.02
850.254	12397.6
850.577	12434.21
850.9	12341.33
851.223	12355.56
851.546	12175.46
851.869	12139.53
852.192	12194.89
852.515	12100.66
852.838	11986.99
853.161	12015.23
853.483	11991.05
853.806	11887.78
854.129	11883.49
854.451	11890.27
854.774	11746.77
855.096	11788.57
855.419	11791.51
855.741	11695.7
856.063	11652.76
856.385	11620.22
856.708	11607.11
857.03	11613.89
857.352	11547.22
857.674	11520.56
857.996	11488.02
858.318	11342.03
858.64	11409.15
858.961	11338.19
859.283	11251.87
859.605	11274.46
859.926	11266.33
860.248	11248.25
860.57	11216.61
860.891	11272.66
861.212	11159.66
861.534	11170.74
861.855	11041.02
862.176	11084.41
862.498	11053
862.819	11069.5
863.14	11074.24
863.461	10954.7
863.782	10924.87
864.103	10934.81
864.424	10955.83
864.745	11001.02
865.065	10880.8
865.386	10900.91
865.707	10869.95
866.027	10877.19
866.348	10859.11
866.668	10801.93
866.989	10744.99
867.309	10735.49
867.63	10787.02
867.95	10808.71
868.27	10650.07
868.59	10716.29
868.91	10690.52
869.23	10656.63
869.55	10589.28
869.87	10628.83
870.19	10589.28
870.51	10625.44
870.83	10672.67
871.15	10562.17
871.469	10567.14
871.789	10582.96
872.109	10570.3
872.428	10410.76
872.748	10470.64
873.067	10537.53
873.386	10526.91
873.706	10438.33
874.025	10290.99
874.344	10382.74
874.663	10402.4
874.982	10348.61
875.301	10404.2
875.62	10326.69
875.939	10304.09
876.258	10271.55
876.577	10265
876.896	10242.17
877.214	10157.43
877.533	10253.25
877.852	10177.77
878.17	10190.42
878.489	10152.91
878.807	10151.33
879.125	10185
879.444	10158.79
879.762	10065.91
880.08	10148.62
880.398	10052.12
880.716	10076.75
881.034	10003.08
881.352	10078.79
881.67	9926.25
881.988	9995.85
882.306	9957.89
882.624	9957.89
882.941	9838.12
883.259	9797.44
883.577	9853.48
883.894	9794.95
884.212	9763.99
884.529	9876.31
884.846	9834.95
885.164	9739.81
885.481	9636.31
885.798	9651
886.115	9627.28
886.432	9638.57
886.75	9652.59
887.067	9664.11
887.383	9557.22
887.7	9600.16
888.017	9555.86
888.334	9558.58
888.651	9467.73
888.967	9488.07
889.284	9465.25
889.6	9405.81
889.917	9352.03
890.233	9406.26
890.55	9272.03
890.866	9249.66
891.182	9273.39
891.498	9256.89
891.815	9162.43
892.131	9167.85
892.447	9175.31
892.763	9110.68
893.079	9127.4
893.395	9074.07
893.71	9097.8
894.026	9050.34
894.342	8991.36
894.657	8949.33
894.973	8928.31
895.289	8990.91
895.604	8917.24
895.92	8887.41
896.235	8808.99
896.55	8760.86
896.865	8759.5
897.181	8701.42
897.496	8762.67
897.811	8720.86
898.126	8703.91
898.441	8712.72
898.756	8597.7
899.071	8569
899.386	8543.69
899.7	8505.27
900.015	8404.48
900.33	8365.84
900.644	8349.34
900.959	8389.57
901.273	8359.96
901.588	8307.31
901.902	8195
902.216	8259.18
902.531	8223.92
902.845	8153.64
903.159	8124.72
903.473	8143.47
903.787	8102.8
904.101	8089.24
904.415	8040.88
904.729	8018.96
905.042	7977.37
905.356	7929.92
905.67	7894.67
905.984	7825.51
906.297	7890.82
906.611	7839.98
906.924	7814.89
907.237	7712.98
907.551	7788.68
907.864	7724.05
908.177	7682.47
908.491	7681.11
908.804	7604.05
909.117	7555.01
909.43	7498.29
909.743	7519.08
910.056	7426.43
910.368	7411.29
910.681	7383.94
910.994	7396.6
911.307	7377.84
911.619	7341.46
911.932	7323.83
912.244	7200.9
912.557	7282.03
912.869	7225.98
913.181	7160.67
913.494	7154.12
913.806	7082.94
914.118	7098.75
914.43	7063.05
914.742	7009.49
915.054	7010.62
915.366	6950.74
915.678	6959.55
915.99	6898.76
916.302	6859.66
916.613	6833.22
916.925	6823.06
917.236	6836.61
917.548	6788.93
917.859	6764.53
918.171	6727.46
918.482	6717.52
918.794	6642.49
919.105	6669.84
919.416	6546.45
919.727	6613.34
920.038	6548.03
920.349	6543.97
920.66	6513.46
920.971	6541.71
921.282	6473.23
921.593	6486.34
921.903	6404.76
922.214	6347.59
922.525	6344.42
922.835	6345.78
923.146	6280.24
923.456	6255.84
923.767	6213.35
924.077	6263.3
924.387	6219.46
924.697	6160.93
925.008	6127.93
925.318	6106.01
925.628	6082.51
925.938	6087.71
926.248	6009.97
926.558	6010.42
926.867	6033.02
927.177	5982.85
927.487	5980.82
927.796	5902.18
928.106	5923.64
928.416	5924.32
928.725	5847.04
929.034	5842.52
929.344	5795.06
929.653	5851.33
929.962	5759.35
930.271	5753.93
930.581	5717.32
930.89	5682.29
931.199	5708.96
931.508	5632.35
931.817	5656.53
932.125	5582.18
932.434	5595.06
932.743	5506.71
933.051	5542.64
933.36	5503.32
933.669	5495.41
933.977	5423.54
934.286	5417.89
934.594	5412.47
934.902	5400.49
935.21	5337.67
935.519	5338.57
935.827	5335.18
936.135	5261.74
936.443	5266.03
936.751	5234.62
937.059	5210.22
937.367	5191.01
937.674	5231.23
937.982	5156.21
938.29	5164.12
938.597	5143.78
938.905	5077.56
939.213	5059.49
939.52	5020.16
939.827	5076.21
940.135	5052.03
940.442	5035.31
940.749	5026.49
941.056	5015.87
941.363	4920.73
941.67	4956.21
941.977	4933.84
942.284	4847.51
942.591	4827.18
942.898	4849.1
943.205	4834.41
943.511	4808.64
943.818	4802.54
944.125	4756.44
944.431	4737.69
944.738	4752.6
945.044	4702.88
945.35	4637.35
945.657	4687.29
945.963	4587.18
946.269	4594.87
946.575	4600.97
946.881	4570.01
947.187	4598.48
947.493	4540.86
947.799	4534.98
948.105	4449.33
948.41	4465.15
948.716	4453.4
949.022	4447.75
949.327	4396
949.633	4365.27
949.938	4381.31
950.244	4368.66
950.549	4335.66
950.854	4368.88
951.16	4359.17
951.465	4292.05
951.77	4292.5
952.075	4253.86
952.38	4260.86
952.685	4233.97
952.99	4167.98
953.294	4155.33
953.599	4177.93
953.904	4134.99
954.209	4033.3
954.513	4098.61
954.818	4102.45
955.122	4079.62
955.426	4047.08
955.731	4043.47
956.035	4010.25
956.339	4022.45
956.643	4026.97
956.948	3935.9
957.252	3971.6
957.556	3930.48
957.86	3912.17
958.163	3930.48
958.467	3914.43
958.771	3885.96
959.075	3846.18
959.378	3844.15
959.682	3803.7
959.985	3788.11
960.289	3764.83
960.592	3796.92
960.896	3770.71
961.199	3732.06
961.502	3725.06
961.805	3704.04
962.108	3667.66
962.411	3678.28
962.714	3690.48
963.017	3672.4
963.32	3646.64
963.623	3645.74
963.926	3627.21
964.228	3627.21
964.531	3576.13
964.833	3569.13
965.136	3556.7
965.438	3554.21
965.741	3539.98
966.043	3518.74
966.345	3497.27
966.648	3431.51
966.95	3483.03
967.252	3459.3
967.554	3428.79
967.856	3383.15
968.158	3381.11
968.46	3382.24
968.761	3340.66
969.063	3350.15
969.365	3305.63
969.666	3346.99
969.968	3297.05
970.269	3277.16
970.571	3273.54
970.872	3261.79
971.174	3247.78
971.475	3251.17
971.776	3215.69
972.077	3177.5
972.378	3167.11
972.679	3163.72
972.98	3140.21
973.281	3137.05
973.582	3144.73
973.883	3119.88
974.183	3105.41
974.484	3104.06
974.785	3067.45
975.085	3091.4
975.386	3068.35
975.686	3049.14
975.986	3036.94
976.287	3034
976.587	3012.53
976.887	2990.61
977.187	2956.94
977.487	2982.03
977.787	2938.19
978.087	2926.66
978.387	2893.89
978.687	2923.5
978.987	2911.52
979.286	2911.07
979.586	2852.54
979.885	2853.89
980.185	2828.36
980.484	2827.91
980.784	2798.53
981.083	2808.92
981.382	2806.21
981.682	2808.02
981.981	2767.79
982.28	2786.1
982.579	2716.95
982.878	2738.87
983.177	2731.64
983.475	2719.21
983.774	2684.86
984.073	2677.63
984.372	2645.31
984.67	2686.89
984.969	2645.76
985.267	2656.84
985.566	2650.96
985.864	2641.24
986.162	2613.67
986.461	2585.88
986.759	2552.21
987.057	2529.83
987.355	2558.31
987.653	2584.3
987.951	2514.24
988.249	2558.99
988.547	2493.45
988.844	2485.09
989.142	2495.94
989.44	2506.56
989.737	2473.79
990.035	2442.83
990.332	2442.61
990.63	2438.54
990.927	2435.37
991.224	2396.05
991.521	2404.19
991.819	2362.16
992.116	2399.22
992.413	2391.76
992.71	2362.61
993.006	2347.92
993.303	2333
993.6	2363.51
993.897	2314.02
994.193	2337.07
994.49	2276.73
994.787	2277.64
995.083	2293.68
995.379	2270.41
995.676	2272.67
995.972	2235.83
996.268	2206.91
996.565	2200.8
996.861	2179.56
997.157	2223.18
997.453	2194.48
997.749	2188.37
998.044	2200.58
998.34	2158.54
998.636	2141.37
998.932	2123.52
999.227	2108.83
999.523	2130.3
999.818	2098.89
1000.114	2079.45
1000.409	2067.7
1000.704	2046.91
1001	2023.41
1001.295	2036.29
1001.59	2046.01
1001.885	2027.02
1002.18	2000.81
1002.475	2007.14
1002.77	1968.04
1003.065	1967.82
1003.359	1957.65
1003.654	1966.46
1003.949	1914.94
1004.243	1934.6
1004.538	1908.61
1004.832	1901.15
1005.127	1900.47
1005.421	1900.7
1005.715	1854.37
1006.009	1872.22
1006.304	1841.04
1006.598	1832.68
1006.892	1808.95
1007.186	1835.84
1007.48	1820.93
1007.773	1791.32
1008.067	1836.75
1008.361	1809.18
1008.655	1757.43
1008.948	1766.69
1009.242	1779.12
1009.535	1775.28
1009.829	1742.96
1010.122	1688.73
1010.415	1707.03
1010.708	1719.69
1011.001	1706.58
1011.295	1674.72
1011.588	1663.42
1011.881	1648.5
1012.173	1681.5
1012.466	1632.23
1012.759	1630.65
1013.052	1638.33
1013.344	1608.5
1013.637	1624.55
1013.93	1576.87
1014.222	1597.2
1014.514	1590.88
1014.807	1593.14
1015.099	1580.48
1015.391	1538
1015.683	1548.62
1015.976	1540.03
1016.268	1512.46
1016.56	1505.45
1016.851	1509.07
1017.143	1533.7
1017.435	1522.86
1017.727	1486.7
1018.018	1478.11
1018.31	1471.78
1018.602	1480.6
1018.893	1413.71
1019.185	1419.36
1019.476	1401.73
1019.767	1428.85
1020.058	1397.21
1020.35	1381.16
1020.641	1387.49
1020.932	1403.99
1021.223	1377.55
1021.514	1343.65
1021.804	1363.54
1022.095	1342.52
1022.386	1330.77
1022.677	1358.79
1022.967	1308.62
1023.258	1326.25
1023.548	1304.78
1023.839	1302.75
1024.129	1301.84
1024.419	1278.57
1024.709	1303.88
1025	1261.62
1025.29	1243.99
1025.58	1238.8
1025.87	1250.32
1026.16	1219.59
1026.449	1218.46
1026.739	1229.08
1027.029	1202.41
1027.319	1197.67
1027.608	1179.14
1027.898	1184.56
1028.187	1173.03
1028.477	1151.34
1028.766	1173.94
1029.055	1158.57
1029.344	1153.37
1029.634	1130.78
1029.923	1143.2
1030.212	1141.62
1030.501	1112.7
1030.79	1125.35
1031.078	1108.4
1031.367	1121.74
1031.656	1078.12
1031.945	1066.6
1032.233	1072.02
1032.522	1086.93
1032.81	1060.72
1033.099	1052.13
1033.387	1060.72
1033.675	1064.34
1033.963	1020.27
1034.251	1037.9
1034.54	1045.13
1034.828	1000.38
1035.116	1016.2
1035.403	988.86
1035.691	989.99
1035.979	1005.35
1036.267	997.9
1036.554	984.34
1036.842	993.83
1037.129	955.19
1037.417	970.1
1037.704	982.53
1037.992	941.18
1038.279	942.08
1038.566	921.06
1038.853	921.06
1039.14	921.06
