Data from hue_280_FLMS001491_00038.txt Node
Date: Tue Feb 07 15:55:12 GMT 2017
User: dcchb
Spectrometer: FLMS00149
Trigger mode: 0
Integration Time (sec): 2.000000E-2
Scans to average: 10
Electric dark correction enabled: true
Nonlinearity correction enabled: false
Boxcar width: 0
XAxis mode: Wavelengths
Number of Pixels in Spectrum: 2048
>>>>>Begin Spectral Data<<<<<
341.393	10.07
341.776	10.07
342.16	10.07
342.543	-47.1
342.927	-43.26
343.31	-53.66
343.693	-81.68
344.077	-65.86
344.46	-72.87
344.843	-37.84
345.226	-54.79
345.61	-24.73
345.993	-17.05
346.376	2.39
346.759	24.08
347.142	30.86
347.525	39.45
347.908	48.04
348.291	60.92
348.674	101.82
349.057	100.92
349.44	152.67
349.823	154.93
350.206	156.28
350.588	202.16
350.971	190.18
351.354	224.53
351.737	213.68
352.119	229.05
352.502	265.88
352.884	267.92
353.267	257.3
353.65	276.05
354.032	304.07
354.414	290.74
354.797	311.31
355.179	326.45
355.562	305.2
355.944	314.7
356.326	296.62
356.709	304.98
357.091	332.32
357.473	321.47
357.855	292.55
358.238	328.48
358.62	333
359.002	328.03
359.384	334.13
359.766	342.27
360.148	351.98
360.53	340.01
360.912	319.89
361.294	334.13
361.676	332.1
362.057	324.41
362.439	339.1
362.821	331.87
363.203	323.28
363.584	319.44
363.966	301.14
364.348	326.22
364.729	321.47
365.111	291.87
365.493	324.64
365.874	309.72
366.256	316.73
366.637	290.51
367.019	304.53
367.4	338.88
367.781	313.11
368.163	319.89
368.544	318.31
368.925	336.39
369.306	302.72
369.688	316.28
370.069	318.08
370.45	313.79
370.831	316.05
371.212	318.99
371.593	321.25
371.974	316.73
372.355	286.22
372.736	306.33
373.117	309.05
373.498	318.99
373.879	329.38
374.26	315.6
374.641	312.44
375.021	321.25
375.402	309.95
375.783	320.57
376.163	321.47
376.544	327.35
376.925	347.91
377.305	314.47
377.686	330.06
378.066	315.83
378.447	317.18
378.827	325.32
379.208	326.67
379.588	340.91
379.968	327.12
380.349	356.5
380.729	338.42
381.109	337.75
381.489	323.73
381.87	337.97
382.25	333.23
382.63	325.77
383.01	352.89
383.39	333.68
383.77	360.57
384.15	355.82
384.53	361.02
384.91	347.01
385.29	343.85
385.67	357.41
386.049	337.75
386.429	347.69
386.809	353.56
387.189	362.83
387.568	353.11
387.948	347.01
388.328	356.73
388.707	360.8
389.087	350.17
389.466	374.58
389.846	373.68
390.225	365.32
390.605	373.45
390.984	376.84
391.363	383.39
391.743	379.33
392.122	374.81
392.501	361.02
392.881	391.3
393.26	358.08
393.639	380.91
394.018	381.59
394.397	389.95
394.776	380.91
395.155	379.55
395.534	389.95
395.913	385.2
396.292	405.31
396.671	401.7
397.05	383.85
397.429	387.01
397.808	408.48
398.186	394.92
398.565	400.79
398.944	392.21
399.323	415.48
399.701	399.21
400.08	412.32
400.458	431.98
400.837	407.12
401.215	414.35
401.594	452.09
401.972	422.71
402.351	429.27
402.729	437.4
403.107	426.33
403.486	445.09
403.864	452.54
404.242	452.77
404.62	447.57
404.999	437.18
405.377	447.12
405.755	445.09
406.133	480.57
406.511	469.49
406.889	468.14
407.267	481.92
407.645	506.55
408.023	462.26
408.401	478.98
408.779	494.35
409.156	511.53
409.534	491.19
409.912	517.4
410.29	524.18
410.667	512.66
411.045	543.16
411.422	507.23
411.8	524.86
412.178	527.8
412.555	539.55
412.933	553.11
413.31	553.78
413.687	554.91
414.065	573.45
414.442	571.86
414.819	599.21
415.197	607.57
415.574	613.9
415.951	619.77
416.328	620.22
416.705	628.59
417.082	631.07
417.46	618.42
417.837	646.89
418.214	664.06
418.591	645.53
418.967	685.98
419.344	694.8
419.721	702.26
420.098	669.94
420.475	684.4
420.852	679.66
421.228	718.53
421.605	713.1
421.982	735.48
422.358	733.67
422.735	730.5
423.111	735.02
423.488	782.25
423.864	758.53
424.241	774.57
424.617	798.75
424.994	807.11
425.37	785.19
425.746	819.54
426.123	818.86
426.499	824.51
426.875	840.78
427.251	840.11
427.627	865.64
428.003	876.26
428.379	894.34
428.756	867.9
429.132	895.92
429.507	900.67
429.883	925.98
430.259	936.83
430.635	935.02
431.011	955.81
431.387	956.03
431.763	973.89
432.138	983.15
432.514	1001.91
432.89	1029.03
433.265	1029.48
433.641	1047.11
434.016	1030.16
434.392	1081.68
434.767	1115.13
435.143	1097.05
435.518	1110.61
435.894	1126.88
436.269	1160.1
436.644	1180.66
437.02	1150.38
437.395	1164.62
437.77	1217.72
438.145	1200.32
438.52	1224.28
438.895	1229.93
439.271	1236.25
439.646	1301.11
440.021	1272.86
440.395	1295.23
440.77	1284.39
441.145	1293.65
441.52	1354.44
441.895	1334.33
442.27	1329.58
442.645	1336.82
443.019	1382.46
443.394	1355.12
443.769	1381.33
444.143	1323.03
444.518	1389.24
444.892	1400.32
445.267	1408.45
445.641	1417.04
446.016	1413.88
446.39	1432.63
446.764	1436.93
447.139	1444.16
447.513	1466.98
447.887	1436.47
448.262	1447.32
448.636	1479.18
449.01	1457.26
449.384	1508.34
449.758	1498.39
450.132	1504.04
450.506	1521.22
450.88	1525.51
451.254	1517.6
451.628	1542.91
452.002	1543.36
452.376	1546.53
452.75	1579.97
453.123	1591.5
453.497	1599.18
453.871	1601.21
454.244	1646.64
454.618	1648.67
454.992	1624.04
455.365	1640.31
455.739	1679.63
456.112	1680.99
456.486	1694.09
456.859	1742.91
457.232	1757.37
457.606	1743.36
457.979	1773.41
458.352	1823.58
458.725	1822.23
459.099	1800.31
459.472	1830.59
459.845	1838.72
460.218	1893.64
460.591	1848.21
460.964	1878.95
461.337	1937.93
461.71	1946.06
462.083	1954.88
462.456	1947.65
462.829	1962.79
463.201	2011.6
463.574	1994.2
463.947	2040.53
464.32	2057.02
464.692	2075.55
465.065	2078.26
465.438	2105.83
465.81	2133.4
466.183	2144.03
466.555	2189.22
466.928	2173.4
467.3	2186.06
467.672	2225.38
468.045	2263.8
468.417	2274.64
468.789	2248.2
469.161	2308.77
469.534	2305.15
469.906	2348.77
470.278	2350.35
470.65	2396.67
471.022	2417.24
471.394	2471.7
471.766	2478.25
472.138	2466.95
472.51	2517.35
472.882	2534.75
473.253	2563.45
473.625	2557.35
473.997	2674.41
474.369	2635.31
474.74	2650.23
475.112	2717.57
475.484	2739.49
475.855	2765.7
476.227	2781.07
476.598	2847.06
476.97	2821.52
477.341	2899.71
477.713	2954.85
478.084	2967.05
478.455	3062.65
478.827	3058.8
479.198	3116.2
479.569	3099.93
479.94	3205.24
480.311	3219.48
480.682	3257.44
481.053	3313.94
481.424	3309.19
481.795	3343.99
482.166	3425.57
482.537	3436.42
482.908	3508.51
483.279	3515.74
483.65	3553.71
484.021	3620.6
484.391	3644.1
484.762	3673.7
485.133	3725
485.503	3724.55
485.874	3814.49
486.244	3785.79
486.615	3870.53
486.985	3956.18
487.356	3973.81
487.726	3981.27
488.097	4006.35
488.467	4035.5
488.837	4080.7
489.207	4134.03
489.578	4206.34
489.948	4235.27
490.318	4238.66
490.688	4341.03
491.058	4364.31
491.428	4351.43
491.798	4429.62
492.168	4473.68
492.538	4418.99
492.908	4533.12
493.278	4557.75
493.648	4572.21
494.017	4599.1
494.387	4644.3
494.757	4708.7
495.126	4665.99
495.496	4722.71
495.866	4712.77
496.235	4799.1
496.605	4745.09
496.974	4832.09
497.344	4849.94
497.713	4884.97
498.082	4898.98
498.452	4967.45
498.821	4946.89
499.19	4913.22
499.559	4949.38
499.928	5032.76
500.298	5016.49
500.667	5057.85
501.036	5099.2
501.405	5116.38
501.774	5082.93
502.143	5108.24
502.512	5127
502.88	5182.82
503.249	5178.75
503.618	5214.68
503.987	5256.49
504.356	5231.85
504.724	5256.71
505.093	5298.52
505.462	5299.2
505.83	5329.03
506.199	5312.98
506.567	5373.55
506.936	5432.75
507.304	5447.89
507.672	5472.07
508.041	5457.16
508.409	5457.84
508.777	5495.12
509.145	5587.32
509.514	5529.93
509.882	5503.94
510.25	5543.94
510.618	5592.52
510.986	5608.12
511.354	5646.08
511.722	5643.37
512.09	5677.72
512.458	5702.8
512.826	5710.26
513.193	5755
513.561	5679.98
513.929	5774.44
514.297	5794.78
514.664	5832.06
515.032	5827.54
515.4	5828.45
515.767	5843.14
516.135	5864.38
516.502	5831.39
516.869	5888.79
517.237	5897.37
517.604	5902.12
517.972	5950.03
518.339	5976.02
518.706	5967.2
519.073	5938.28
519.44	6022.12
519.808	6014.66
520.175	6029.35
520.542	6105.05
520.909	6102.11
521.276	6096.24
521.643	6111.83
522.009	6117.93
522.376	6202.9
522.743	6194.54
523.11	6183.24
523.477	6233.86
523.843	6252.84
524.21	6301.2
524.577	6331.94
524.943	6370.13
525.31	6420.3
525.676	6453.06
526.043	6449
526.409	6471.82
526.776	6552.27
527.142	6473.63
527.508	6553.63
527.874	6474.08
528.241	6568.77
528.607	6585.04
528.973	6604.02
529.339	6626.85
529.705	6699.61
530.071	6714.53
530.437	6687.86
530.803	6804.92
531.169	6835.43
531.535	6766.28
531.901	6772.83
532.267	6846.05
532.632	6868.65
532.998	6803.34
533.364	6862.55
533.73	6954.97
534.095	6953.84
534.461	6920.62
534.826	6978.25
535.192	6982.77
535.557	7032.26
535.923	6984.35
536.288	7061.41
536.653	7085.82
537.019	7082.65
537.384	7033.84
537.749	7106.61
538.114	7113.84
538.479	7099.6
538.845	7073.84
539.21	7101.18
539.575	7107.51
539.94	7149.32
540.305	7207.4
540.67	7129.66
541.034	7190.22
541.399	7218.69
541.764	7181.41
542.129	7218.47
542.494	7200.16
542.858	7315.41
543.223	7281.29
543.587	7373.94
543.952	7314.96
544.316	7335.08
544.681	7396.77
545.045	7350.67
545.41	7374.85
545.774	7436.77
546.138	7442.19
546.503	7501.17
546.867	7422.98
547.231	7450.78
547.595	7443.77
547.959	7486.48
548.324	7491
548.688	7482.42
549.052	7552.7
549.416	7612.13
549.779	7599.7
550.143	7541.85
550.507	7546.6
550.871	7583.43
551.235	7566.93
551.599	7671.56
551.962	7646.48
552.326	7621.62
552.689	7693.26
553.053	7669.08
553.417	7656.42
553.78	7785.46
554.143	7738
554.507	7740.26
554.87	7771
555.234	7825.46
555.597	7824.1
555.96	7787.27
556.323	7855.74
556.686	7805.8
557.05	7867.26
557.413	7902.29
557.776	7825.68
558.139	7883.31
558.502	7952.91
558.865	7973.25
559.228	8024.55
559.59	8017.77
559.953	7978.45
560.316	8064.55
560.679	8044.21
561.041	8142.29
561.404	8111.55
561.767	8148.16
562.129	8109.52
562.492	8167.82
562.854	8200.59
563.217	8197.2
563.579	8173.7
563.941	8254.83
564.304	8285.11
564.666	8334.6
565.028	8353.35
565.39	8403.52
565.753	8410.75
566.115	8457.98
566.477	8470.41
566.839	8539.79
567.201	8496.85
567.563	8596.29
567.925	8564.2
568.287	8600.35
568.648	8664.53
569.01	8698.43
569.372	8728.03
569.734	8747.92
570.095	8745.89
570.457	8811.42
570.819	8816.62
571.18	8803.51
571.542	8877.18
571.903	8918.31
572.265	8936.16
572.626	8958.08
572.987	8914.24
573.349	8974.35
573.71	9013.9
574.071	9036.05
574.432	9127.57
574.794	9194.69
575.155	9211.64
575.516	9140.45
575.877	9254.12
576.238	9237.4
576.599	9337.28
576.96	9295.7
577.32	9329.83
577.681	9401.24
578.042	9437.62
578.403	9508.35
578.763	9541.12
579.124	9623.6
579.485	9655.69
579.845	9658.18
580.206	9688.23
580.566	9713.77
580.927	9787.89
581.287	9857.27
581.648	9836.03
582.008	9942.69
582.368	9990.82
582.728	10041.9
583.089	10116.7
583.449	10076.02
583.809	10139.3
584.169	10215.45
584.529	10238.73
584.889	10342.91
585.249	10309.23
585.609	10365.28
585.969	10525.5
586.329	10555.33
586.688	10631.03
587.048	10584.03
587.408	10638.49
587.768	10784.02
588.127	10790.35
588.487	10885.94
588.846	10997.35
589.206	10989.67
589.565	11090.68
589.925	11148.99
590.284	11187.86
590.643	11329.77
591.003	11338.59
591.362	11448.19
591.721	11467.17
592.08	11548.07
592.44	11579.03
592.799	11673.27
593.158	11746.48
593.517	11823.55
593.876	11910.32
594.235	11822.42
594.593	11962.3
594.952	12005.01
595.311	12114.61
595.67	12137.44
596.029	12289.3
596.387	12410.87
596.746	12375.85
597.104	12403.87
597.463	12460.82
597.822	12596.63
598.18	12545.11
598.538	12493.81
598.897	12692
599.255	12636.18
599.613	12915.49
599.972	12767.02
600.33	12919.34
600.688	12867.13
601.046	13048.82
601.404	13047.92
601.762	13029.16
602.12	13200.23
602.478	13264.86
602.836	13325.2
603.194	13283.62
603.552	13295.37
603.91	13247.69
604.268	13445.88
604.625	13422.83
604.983	13425.08
605.341	13489.26
605.698	13614.91
606.056	13642.93
606.413	13600.22
606.771	13761.57
607.128	13755.92
607.485	13725.42
607.843	13764.28
608.2	13874.79
608.557	13900.78
608.914	13857.16
609.272	13933.09
609.629	14018.97
609.986	14067.1
610.343	14105.97
610.7	14247.44
611.057	14125.18
611.414	14174.9
611.771	14171.28
612.127	14223.48
612.484	14308.45
612.841	14364.27
613.198	14363.59
613.554	14401.1
613.911	14449.01
614.267	14528.78
614.624	14424.38
614.98	14585.96
615.337	14570.59
615.693	14601.33
616.05	14544.38
616.406	14681.32
616.762	14636.35
617.118	14555.22
617.475	14620.08
617.831	14742.56
618.187	14716.35
618.543	14746.63
618.899	14757.03
619.255	14797.25
619.611	14764.71
619.967	14843.8
620.323	14914.31
620.678	14830.92
621.034	14862.56
621.39	14906.4
621.746	14864.6
622.101	15085.61
622.457	14952.28
622.812	15017.59
623.168	14978.49
623.523	15044.03
623.879	15056
624.234	14900.53
624.589	15001.09
624.945	15044.25
625.3	14989.34
625.655	14974.65
626.01	15021.43
626.365	15060.07
626.72	14996.79
627.075	14985.04
627.43	15073.18
627.785	14971.48
628.14	15123.35
628.495	15052.16
628.85	15061.65
629.205	15034.99
629.559	15129.9
629.914	15053.06
630.269	15027.75
630.623	15009.22
630.978	15061.43
631.332	15055.55
631.687	15093.06
632.041	14948.21
632.396	15105.27
632.75	14918.15
633.104	14980.75
633.459	14912.96
633.813	14879.06
634.167	14935.1
634.521	14934.42
634.875	14851.49
635.229	14869.79
635.583	14778.5
635.937	14833.64
636.291	14726.75
636.645	14877.25
636.999	14801.77
637.352	14877.48
637.706	14615.34
638.06	14811.49
638.413	14671.83
638.767	14762.9
639.121	14718.61
639.474	14653.08
639.828	14665.73
640.181	14683.13
640.534	14793.86
640.888	14670.93
641.241	14639.06
641.594	14549.58
641.947	14716.58
642.301	14609.23
642.654	14602.68
643.007	14612.4
643.36	14622.12
643.713	14600.2
644.066	14644.49
644.419	14550.48
644.771	14419.86
645.124	14446.53
645.477	14379.64
645.83	14207.89
646.182	14176.48
646.535	14197.04
646.888	14113.43
647.24	14139.64
647.593	14222.13
647.945	14117.95
648.298	14067.78
648.65	14148.23
649.002	14040.21
649.355	14121.11
649.707	14119.08
650.059	14178.74
650.411	14440.2
650.763	14308.23
651.115	14598.39
651.467	14500.76
651.819	14501.89
652.171	14494.89
652.523	14497.83
652.875	14469.8
653.227	14410.6
653.578	14511.38
653.93	14495.34
654.282	14369.47
654.633	14351.39
654.985	14485.4
655.337	14353.87
655.688	14399.3
656.039	14443.14
656.391	14397.71
656.742	14404.27
657.094	14397.94
657.445	14431.61
657.796	14378.28
658.147	14417.38
658.498	14388.22
658.849	14464.61
659.2	14421.89
659.551	14414.44
659.902	14460.31
660.253	14399.52
660.604	14526.3
660.955	14437.49
661.306	14532.63
661.656	14512.97
662.007	14529.46
662.358	14498.28
662.708	14555.22
663.059	14499.41
663.409	14468
663.76	14534.21
664.11	14480.65
664.461	14550.7
664.811	14498.73
665.161	14500.99
665.511	14403.14
665.862	14533.53
666.212	14586.41
666.562	14630.25
666.912	14585.96
667.262	14565.17
667.612	14615.56
667.962	14562.23
668.312	14641.32
668.662	14647.2
669.011	14559.07
669.361	14582.57
669.711	14478.16
670.06	14542.12
670.41	14541.44
670.76	14503.47
671.109	14546.64
671.459	14519.29
671.808	14462.8
672.157	14415.57
672.507	14348
672.856	14373.53
673.205	14439.3
673.554	14448.11
673.904	14387.55
674.253	14447.88
674.602	14403.82
674.951	14205.86
675.3	14138.29
675.649	14372.4
675.998	14415.79
676.346	14321.56
676.695	14452.63
677.044	14310.71
677.393	14279.07
677.741	14378.73
678.09	14301.67
678.438	14223.93
678.787	14201.79
679.135	14179.64
679.484	14112.3
679.832	14163.82
680.181	14193.2
680.529	14131.96
680.877	14146.87
681.225	14110.72
681.573	14137.61
681.922	14066.65
682.27	14053.09
682.618	14039.53
682.966	13974.45
683.314	14013.54
683.661	13910.5
684.009	13913.21
684.357	13850.38
684.705	13854
685.053	13909.82
685.4	13831.4
685.748	13776.49
686.095	13805.41
686.443	13737.39
686.79	13630.96
687.138	13639.54
687.485	13603.39
687.832	13557.74
688.18	13617.17
688.527	13430.96
688.874	13507.79
689.221	13449.49
689.568	13461.69
689.915	13358.19
690.262	13312.77
690.609	13351.19
690.956	13257.41
691.303	13299.44
691.65	13199.55
691.997	13145.09
692.344	13095.38
692.69	13058.09
693.037	13086.34
693.383	12893.12
693.73	13003.18
694.077	12978.32
694.423	12821.03
694.769	12886.12
695.116	12806.8
695.462	12784.42
695.808	12780.58
696.155	12750.3
696.501	12648.16
696.847	12675.95
697.193	12534.03
697.539	12613.58
697.885	12470.99
698.231	12407.26
698.577	12490.19
698.923	12441.16
699.269	12349.41
699.614	12264.44
699.96	12200.71
700.306	12214.04
700.651	12170.65
700.997	12061.5
701.342	12026.25
701.688	12007.95
702.033	11892.47
702.379	11910.32
702.724	11978.34
703.069	11960.04
703.415	11811.12
703.76	11780.61
704.105	11769.08
704.45	11740.16
704.795	11704
705.14	11617.22
705.485	11537.68
705.83	11559.37
706.175	11506.72
706.52	11485.47
706.865	11415.87
707.209	11426.04
707.554	11377
707.899	11401.18
708.243	11392.6
708.588	11304.69
708.932	11196.89
709.277	11185.37
709.621	11212.49
709.966	11160.29
710.31	11169.78
710.654	11061.76
710.998	11061.76
711.342	11031.48
711.687	11076.22
712.031	10964.81
712.375	10873.29
712.719	10988.31
713.063	10869.45
713.407	10950.8
713.75	10821.76
714.094	10855.66
714.438	10810.92
714.782	10758.04
715.125	10758.71
715.469	10789.22
715.812	10741.54
716.156	10640.3
716.499	10702.67
716.843	10671.71
717.186	10555.33
717.53	10662.9
717.873	10691.6
718.216	10648.66
718.559	10591.94
718.902	10514.2
719.246	10590.58
719.589	10488.66
719.932	10510.13
720.275	10499.96
720.617	10478.04
720.96	10434.88
721.303	10524.82
721.646	10519.4
721.989	10476.91
722.331	10455.9
722.674	10456.12
723.016	10408.44
723.359	10424.03
723.701	10401.66
724.044	10318.73
724.386	10297.48
724.729	10336.58
725.071	10400.31
725.413	10320.76
725.755	10328.67
726.097	10319.4
726.439	10272.17
726.782	10243.25
727.124	10311.49
727.465	10247.99
727.807	10254.09
728.149	10208.9
728.491	10267.2
728.833	10232.17
729.175	10165.96
729.516	10237.6
729.858	10175.45
730.199	10240.31
730.541	10181.78
730.882	10159.63
731.224	10237.82
731.565	10233.3
731.906	10170.26
732.248	10225.85
732.589	10146.98
732.93	10123.93
733.271	10136.58
733.612	10212.29
733.953	10222.91
734.294	10180.65
734.635	10156.92
734.976	10193.98
735.317	10202.8
735.658	10120.54
735.999	10219.75
736.339	10162.8
736.68	10187.88
737.021	10162.35
737.361	10185.85
737.702	10185.85
738.042	10204.83
738.383	10171.61
738.723	10210.25
739.063	10226.3
739.404	10213.87
739.744	10156.47
740.084	10246.19
740.424	10265.39
740.764	10266.75
741.104	10228.78
741.444	10322.12
741.784	10225.17
742.124	10314.66
742.464	10322.57
742.804	10238.5
743.143	10327.77
743.483	10387.2
743.823	10314.21
744.162	10363.7
744.502	10437.82
744.841	10410.25
745.181	10526.18
745.52	10437.37
745.86	10530.25
746.199	10594.65
746.538	10601.66
746.877	10740.41
747.216	10737.02
747.556	10740.64
747.895	10805.72
748.234	10821.54
748.573	10878.26
748.911	10998.93
749.25	11047.52
749.589	11083.68
749.928	11180.4
750.267	11181.53
750.605	11312.37
750.944	11287.06
751.283	11402.99
751.621	11538.13
751.96	11578.13
752.298	11708.07
752.636	11711.23
752.975	11792.36
753.313	11879.36
753.651	12034.84
753.989	12085.01
754.327	12201.84
754.666	12275.96
755.004	12377.88
755.342	12491.78
755.679	12647.93
756.017	12746.68
756.355	12811.77
756.693	12947.13
757.031	13121.36
757.368	13197.29
757.706	13422.83
758.044	13423.05
758.381	13642.25
758.719	13720.44
759.056	13923.6
759.394	13951.85
759.731	14062.58
760.068	14346.42
760.405	14417.38
760.743	14505.96
761.08	14684.94
761.417	14801.77
761.754	14911.6
762.091	15010.58
762.428	15223.23
762.765	15246.05
763.102	15555.42
763.438	15608.3
763.775	15735.31
764.112	15863.66
764.449	16061.17
764.785	16153.83
765.122	16226.82
765.458	16298.23
765.795	16437.44
766.131	16621.84
766.467	16730.76
766.804	16749.97
767.14	16886.46
767.476	16993.8
767.812	17059.57
768.148	17297.75
768.485	17314.47
768.821	17409.61
769.157	17423.62
769.492	17471.53
769.828	17682.15
770.164	17690.96
770.5	17750.39
770.836	17845.99
771.171	17880.56
771.507	17934.12
771.842	17928.7
772.178	18040.78
772.513	18042.82
772.849	18202.81
773.184	18192.87
773.519	18256.37
773.855	18152.87
774.19	18280.55
774.525	18408.46
774.86	18307.89
775.195	18433.99
775.53	18417.72
775.865	18422.47
776.2	18345.18
776.535	18413.43
776.87	18342.02
777.205	18397.84
777.539	18448.68
777.874	18510.83
778.209	18442.35
778.543	18462.69
778.878	18313.09
779.212	18395.12
779.547	18425.63
779.881	18563.93
780.215	18376.82
780.55	18500.66
780.884	18488.45
781.218	18329.36
781.552	18502.24
781.886	18302.7
782.22	18303.37
782.554	18334.33
782.888	18111.06
783.222	18164.85
783.556	18084.85
783.889	18175.24
784.223	18047.11
784.557	18105.64
784.89	18178.18
785.224	18058.64
785.557	18025.19
785.891	17995.59
786.224	17888.24
786.558	17986.32
786.891	17844.18
787.224	17836.49
787.557	17768.02
787.891	17809.83
788.224	17849.6
788.557	17863.61
788.89	17927.57
789.223	17862.26
789.556	17655.48
789.888	17688.93
790.221	17653.45
790.554	17504.07
790.887	17446.9
791.219	17481.25
791.552	17597.63
791.884	17432.44
792.217	17368.48
792.549	17293.46
792.882	17295.04
793.214	17126.46
793.546	17271.99
793.879	17115.16
794.211	17113.8
794.543	17109.96
794.875	17155.83
795.207	17099.79
795.539	17015.72
795.871	16975.73
796.203	16872.68
796.535	16842.62
796.867	16710.87
797.198	16751.78
797.53	16647.82
797.862	16603.53
798.193	16634.49
798.525	16563.31
798.856	16642.85
799.188	16407.38
799.519	16479.02
799.85	16297.55
800.182	16313.82
800.513	16344.78
800.844	16273.37
801.175	16340.94
801.506	16286.25
801.837	16169.42
802.168	16095.07
802.499	16017.79
802.83	15980.5
803.161	15981.4
803.491	15971.01
803.822	15915.64
804.153	15860.5
804.483	15770.33
804.814	15776.44
805.145	15818.69
805.475	15794.74
805.805	15618.25
806.136	15647.63
806.466	15580.96
806.796	15625.7
807.126	15475.88
807.457	15456.44
807.787	15501.19
808.117	15368.08
808.447	15395.88
808.777	15411.02
809.107	15295.54
809.436	15263.91
809.766	15266.62
810.096	15268.43
810.426	15113.63
810.755	15124.48
811.085	15185.94
811.414	15037.7
811.744	14967.87
812.073	15003.57
812.403	15047.19
812.732	14925.84
813.061	14889.68
813.39	14833.41
813.719	14807.87
814.049	14912.5
814.378	14738.27
814.707	14733.07
815.036	14752.06
815.365	14670.25
815.693	14571.5
816.022	14526.07
816.351	14515.23
816.68	14422.35
817.008	14491.72
817.337	14410.14
817.665	14361.11
817.994	14365.17
818.322	14449.24
818.651	14308
818.979	14225.06
819.307	14418.96
819.636	14317.94
819.964	14201.34
820.292	14256.02
820.62	14153.88
820.948	14218.51
821.276	14249.47
821.604	14200.66
821.932	14133.77
822.259	14145.74
822.587	14193.43
822.915	14142.35
823.243	14161.11
823.57	14171.96
823.898	14180.55
824.225	14047.67
824.553	14093.54
824.88	14101.23
825.207	14100.1
825.535	14168.57
825.862	14037.05
826.189	14105.07
826.516	14218.96
826.843	14155.69
827.17	14136.48
827.497	14252.18
827.824	14199.08
828.151	14231.17
828.478	14237.72
828.805	14235.91
829.131	14175.35
829.458	14163.14
829.785	14065.29
830.111	14156.14
830.438	14155.24
830.764	14126.08
831.09	14175.35
831.417	14174.22
831.743	14163.14
832.069	14148.23
832.395	14036.82
832.722	14129.93
833.048	14095.12
833.374	14122.24
833.7	13922.7
834.026	14038.4
834.351	13999.98
834.677	14039.31
835.003	14077.5
835.329	14057.38
835.654	13970.38
835.98	13952.53
836.306	13900.1
836.631	13832.53
836.956	13945.75
837.282	13990.04
837.607	13876.15
837.932	13837.28
838.258	13858.07
838.583	13828.92
838.908	13714.12
839.233	13796.83
839.558	13710.95
839.883	13604.06
840.208	13623.05
840.533	13643.61
840.858	13625.76
841.182	13582.82
841.507	13614.46
841.832	13571.3
842.156	13525.42
842.481	13534.69
842.805	13502.82
843.13	13399.32
843.454	13481.35
843.778	13332.66
844.103	13347.57
844.427	13299.21
844.751	13341.02
845.075	13203.4
845.399	13249.5
845.723	13111.87
846.047	13129.5
846.371	13074.81
846.695	12964.76
847.019	12905.32
847.343	12950.07
847.666	12818.32
847.99	12778.1
848.313	12755.95
848.637	12625.56
848.96	12679.34
849.284	12666.01
849.607	12493.58
849.931	12522.96
850.254	12355.51
850.577	12405.68
850.9	12366.13
851.223	12334.04
851.546	12244.32
851.869	12189.41
852.192	12240.71
852.515	12092.01
852.838	12154.38
853.161	12091.79
853.483	11990.55
853.806	12037.1
854.129	11975.41
854.451	11925.24
854.774	11776.09
855.096	11756.43
855.419	11790.33
855.741	11755.07
856.063	11695.86
856.385	11654.96
856.708	11616.09
857.03	11611.12
857.352	11585.36
857.674	11552.14
857.996	11527.96
858.318	11501.52
858.64	11508.53
858.961	11433.5
859.283	11320.28
859.605	11281.64
859.926	11300.39
860.248	11315.31
860.57	11258.81
860.891	11288.64
861.212	11147.18
861.534	11146.73
861.855	11175.65
862.176	11094.75
862.498	11082.1
862.819	11142.66
863.14	11033.06
863.461	10972.72
863.782	11021.53
864.103	11008.43
864.424	10954.42
864.745	11050.91
865.065	10936.34
865.386	10874.64
865.707	10874.64
866.027	10863.57
866.348	10827.41
866.668	10864.47
866.989	10794.19
867.309	10817.92
867.63	10751.26
867.95	10737.92
868.27	10644.82
868.59	10683.69
868.91	10691.37
869.23	10704.93
869.55	10706.29
869.87	10694.54
870.19	10546.06
870.51	10610.47
870.83	10637.59
871.15	10526.18
871.469	10555.56
871.789	10543.58
872.109	10472.39
872.428	10417.71
872.748	10568.89
873.067	10482.11
873.386	10548.32
873.706	10414.99
874.025	10440.3
874.344	10340.65
874.663	10365.73
874.982	10377.03
875.301	10410.7
875.62	10306.07
875.939	10276.92
876.258	10331.61
876.577	10268.33
876.896	10271.5
877.214	10223.36
877.533	10224.49
877.852	10179.75
878.17	10205.96
878.489	10191.72
878.807	10169.8
879.125	10117.83
879.444	10103.36
879.762	10113.76
880.08	10133.87
880.398	10060.88
880.716	10091.39
881.034	10045.29
881.352	10017.72
881.67	9954.67
881.988	10002.58
882.306	9954.22
882.624	9902.69
882.941	9866.31
883.259	9832.64
883.577	9851.39
883.894	9766.2
884.212	9793.09
884.529	9796.03
884.846	9782.02
885.164	9771.85
885.481	9727.1
885.798	9668.12
886.115	9638.29
886.432	9649.36
886.75	9624.73
887.067	9606.43
887.383	9589.48
887.7	9561.68
888.017	9495.92
888.334	9492.98
888.651	9491.63
888.967	9479.88
889.284	9464.06
889.6	9408.69
889.917	9387.22
890.233	9390.16
890.55	9345.19
890.866	9363.72
891.182	9234.46
891.498	9261.13
891.815	9237.85
892.131	9165.54
892.447	9151.75
892.763	9112.66
893.079	9114.24
893.395	9050.74
893.71	9098.19
894.026	9025.65
894.342	9020.23
894.657	9020.68
894.973	8986.33
895.289	8901.81
895.604	8908.37
895.92	8862.04
896.235	8849.16
896.55	8857.07
896.865	8819.33
897.181	8739.56
897.496	8793.79
897.811	8637.19
898.126	8661.82
898.441	8575.27
898.756	8621.14
899.071	8564.2
899.386	8579.79
899.7	8511.09
900.015	8415.5
900.33	8392.45
900.644	8441.94
900.959	8379.57
901.273	8408.27
901.588	8295.28
901.902	8347.93
902.216	8212.79
902.531	8247.82
902.845	8171.66
903.159	8129.4
903.473	8117.65
903.787	8163.75
904.101	8081.5
904.415	7997.2
904.729	7964.21
905.042	7954.27
905.356	7946.36
905.67	7925.57
905.984	7897.32
906.297	7881.95
906.611	7803.54
906.924	7828.62
907.237	7714.05
907.551	7710.66
907.864	7664.78
908.177	7693.94
908.491	7675.18
908.804	7653.71
909.117	7582.98
909.43	7539.36
909.743	7512.25
910.056	7582.98
910.368	7426.82
910.681	7424.34
910.994	7385.24
911.307	7346.15
911.619	7320.39
911.932	7357
912.244	7255.76
912.557	7260.73
912.869	7174.18
913.181	7111.13
913.494	7119.49
913.806	7098.25
914.118	7091.69
914.43	6986.38
914.742	7042.43
915.054	6947.52
915.366	6965.59
915.678	7003.11
915.99	6909.55
916.302	6826.39
916.613	6853.28
916.925	6792.72
917.236	6804.02
917.548	6761.76
917.859	6745.94
918.171	6721.53
918.482	6681.53
918.794	6661.42
919.105	6612.38
919.416	6633.63
919.727	6513.18
920.038	6557.69
920.349	6486.51
920.66	6424.82
920.971	6526.96
921.282	6421.88
921.593	6348.66
921.903	6362.45
922.214	6361.09
922.525	6346.17
922.835	6315.89
923.146	6307.31
923.456	6283.13
923.767	6239.74
924.077	6215.33
924.387	6230.7
924.697	6176.01
925.008	6107.76
925.318	6093.75
925.628	6122.9
925.938	6066.18
926.248	6028.44
926.558	5970.59
926.867	6020.76
927.177	6019.63
927.487	5922.46
927.796	5909.58
928.106	5827.77
928.416	5847.88
928.725	5860.76
929.034	5776.92
929.344	5838.39
929.653	5803.36
929.962	5741.9
930.271	5747.55
930.581	5705.06
930.89	5659.41
931.199	5611.28
931.508	5610.83
931.817	5591.39
932.125	5547.1
932.434	5566.31
932.743	5517.72
933.051	5543.71
933.36	5494.22
933.669	5444.28
933.977	5412.64
934.286	5365.64
934.594	5418.29
934.902	5376.03
935.21	5346.88
935.519	5353.21
935.827	5306.43
936.135	5313.43
936.443	5234.34
936.751	5262.14
937.059	5230.72
937.367	5259.42
937.674	5210.16
937.982	5161.35
938.29	5156.83
938.597	5130.61
938.905	5087.45
939.213	5080.9
939.52	4998.41
939.827	5022.59
940.135	4998.64
940.442	4982.82
940.749	4999.32
941.056	5011.75
941.363	4894.24
941.67	4904.86
941.977	4872.09
942.284	4855.59
942.591	4843.39
942.898	4888.59
943.205	4827.12
943.511	4774.69
943.818	4751.64
944.125	4713.9
944.431	4743.51
944.738	4672.77
945.044	4681.13
945.35	4662.6
945.657	4611.31
945.963	4622.83
946.269	4580.12
946.575	4534.02
946.881	4533.34
947.187	4561.14
947.493	4506.45
947.799	4480.01
948.105	4472.78
948.41	4433
948.716	4443.85
949.022	4401.59
949.327	4437.52
949.633	4372.67
949.938	4360.24
950.244	4327.24
950.549	4263.97
950.854	4294.48
951.16	4282.05
951.465	4253.8
951.77	4220.36
952.075	4165.89
952.38	4230.52
952.685	4176.29
952.99	4140.36
953.294	4118.44
953.599	4135.16
953.904	4101.71
954.209	4078.21
954.513	4064.2
954.818	4056.74
955.122	4065.78
955.426	3983.3
955.731	4016.97
956.035	3978.33
956.339	4007.03
956.643	3983.98
956.948	3960.25
957.252	3929.29
957.556	3931.55
957.86	3910.98
958.163	3874.6
958.467	3852.68
958.771	3845
959.075	3823.53
959.378	3812.23
959.682	3838.9
959.985	3807.94
960.289	3761.84
960.592	3742.18
960.896	3731.1
961.199	3710.76
961.502	3661.27
961.805	3667.6
962.108	3611.78
962.411	3655.62
962.714	3630.99
963.017	3623.31
963.32	3642.52
963.623	3604.1
963.926	3592.8
964.228	3547.6
964.531	3525.91
964.833	3561.16
965.136	3487.72
965.438	3507.83
965.741	3456.76
966.043	3477.78
966.345	3448.4
966.648	3399.13
966.95	3383.31
967.252	3375.41
967.554	3390.32
967.856	3389.42
968.158	3351.9
968.46	3358
968.761	3345.12
969.063	3332.24
969.365	3306.25
969.666	3268.06
969.968	3260.61
970.269	3220.16
970.571	3228.29
970.872	3226.71
971.174	3209.08
971.475	3211.79
971.776	3201.62
972.077	3146.71
972.378	3170.21
972.679	3173.83
972.98	3155.98
973.281	3136.09
973.582	3123.66
973.883	3101.29
974.183	3086.37
974.484	3075.07
974.785	3029.2
975.085	3021.29
975.386	3009.77
975.686	3033.49
975.986	3003.21
976.287	3019.93
976.587	2953.5
976.887	2949.88
977.187	2953.72
977.487	2930.22
977.787	2915.08
978.087	2901.97
978.387	2885.7
978.687	2899.49
978.987	2846.61
979.286	2859.49
979.586	2851.35
979.885	2794.4
980.185	2827.62
980.484	2802.77
980.784	2796.44
981.083	2772.26
981.382	2761.86
981.682	2748.98
981.981	2764.12
982.28	2741.98
982.579	2731.35
982.878	2725.25
983.177	2695.2
983.475	2694.29
983.774	2663.79
984.073	2687.74
984.372	2665.37
984.67	2617.23
984.969	2585.6
985.267	2629.89
985.566	2594.18
985.864	2601.64
986.162	2585.14
986.461	2584.69
986.759	2572.94
987.057	2504.24
987.355	2533.17
987.653	2494.75
987.951	2520.96
988.249	2498.59
988.547	2475.54
988.844	2475.99
989.142	2438.03
989.44	2401.87
989.737	2442.32
990.035	2451.14
990.332	2369.78
990.63	2439.61
990.927	2379.27
991.224	2393.28
991.521	2396.9
991.819	2387.18
992.116	2343.57
992.413	2356
992.71	2333.63
993.006	2326.39
993.303	2305.83
993.6	2279.39
993.897	2287.52
994.193	2290.69
994.49	2283.91
994.787	2253.4
995.083	2199.17
995.379	2229
995.676	2226.96
995.972	2228.77
996.268	2176.12
996.565	2213.85
996.861	2160.97
997.157	2161.43
997.453	2180.41
997.749	2146.96
998.044	2137.25
998.34	2108.32
998.636	2108.09
998.932	2100.18
999.227	2078.94
999.523	2073.74
999.818	2035.78
1000.114	2056.57
1000.409	2051.6
1000.704	2018.83
1001	2038.04
1001.295	2023.8
1001.59	2009.79
1001.885	1960.53
1002.18	1984.03
1002.475	1987.65
1002.77	1975.67
1003.065	1940.42
1003.359	1955.33
1003.654	1959.62
1003.949	1898.83
1004.243	1907.87
1004.538	1865.61
1004.832	1904.94
1005.127	1885.73
1005.421	1860.87
1005.715	1855.45
1006.009	1881.66
1006.304	1854.32
1006.598	1815.9
1006.892	1842.34
1007.186	1809.12
1007.48	1780.87
1007.773	1775.22
1008.067	1746.52
1008.361	1799.63
1008.655	1731.61
1008.948	1729.8
1009.242	1716.92
1009.535	1725.05
1009.829	1716.47
1010.122	1692.06
1010.415	1718.5
1010.708	1667.43
1011.001	1682.34
1011.295	1652.74
1011.588	1652.97
1011.881	1670.37
1012.173	1643.7
1012.466	1618.16
1012.759	1640.99
1013.052	1605.28
1013.344	1618.16
1013.637	1590.14
1013.93	1603.47
1014.222	1546.98
1014.514	1564.61
1014.807	1535.23
1015.099	1535.68
1015.391	1520.99
1015.683	1520.99
1015.976	1538.39
1016.268	1515.34
1016.56	1506.08
1016.851	1494.1
1017.143	1508.11
1017.435	1427.66
1017.727	1467.43
1018.018	1454.1
1018.31	1456.13
1018.602	1450.03
1018.893	1417.04
1019.185	1421.11
1019.476	1429.69
1019.767	1403.48
1020.058	1386.53
1020.35	1383.14
1020.641	1364.39
1020.932	1375.23
1021.223	1365.97
1021.514	1357.38
1021.804	1342.24
1022.095	1330.94
1022.386	1296.36
1022.677	1322.35
1022.967	1302.24
1023.258	1276.93
1023.548	1297.27
1023.839	1267.66
1024.129	1291.39
1024.419	1256.82
1024.709	1248.46
1025	1216.14
1025.29	1226.31
1025.58	1234.22
1025.87	1235.8
1026.16	1255.69
1026.449	1225.18
1026.739	1194.67
1027.029	1182.24
1027.319	1203.71
1027.608	1185.63
1027.898	1153.32
1028.187	1167.1
1028.477	1142.02
1028.766	1164.84
1029.055	1100.66
1029.344	1130.27
1029.634	1105.63
1029.923	1107.67
1030.212	1100.44
1030.501	1138.18
1030.79	1136.14
1031.078	1071.06
1031.367	1086.43
1031.656	1042.59
1031.945	1073.32
1032.233	1045.75
1032.522	1060.89
1032.81	1038.29
1033.099	1031.96
1033.387	1047.11
1033.675	1019.99
1033.963	1034.22
1034.251	1023.83
1034.54	1022.02
1034.828	1028.12
1035.116	999.2
1035.403	983.6
1035.691	989.03
1035.979	984.06
1036.267	963.49
1036.554	989.48
1036.842	959.65
1037.129	964.17
1037.417	961.01
1037.704	952.64
1037.992	930.27
1038.279	929.82
1038.566	912.65
1038.853	912.65
1039.14	912.65
