Data from hue_270_FLMS001491_00093.txt Node
Date: Tue Feb 07 15:57:56 GMT 2017
User: dcchb
Spectrometer: FLMS00149
Trigger mode: 0
Integration Time (sec): 2.000000E-2
Scans to average: 10
Electric dark correction enabled: true
Nonlinearity correction enabled: false
Boxcar width: 0
XAxis mode: Wavelengths
Number of Pixels in Spectrum: 2048
>>>>>Begin Spectral Data<<<<<
341.393	3.73
341.776	3.73
342.16	3.73
342.543	-67.46
342.927	-83.5
343.31	-73.56
343.693	-69.94
344.077	-48.02
344.46	-62.48
344.843	-53.9
345.226	-25.42
345.61	-43.28
345.993	-37.63
346.376	1.92
346.759	12.32
347.142	14.58
347.525	54.12
347.908	62.94
348.291	87.79
348.674	88.02
349.057	92.54
349.44	100.68
349.823	122.82
350.206	167.57
350.588	189.49
350.971	194.01
351.354	208.47
351.737	202.59
352.119	227.45
352.502	259.54
352.884	251.41
353.267	264.06
353.65	275.59
354.032	276.26
354.414	292.76
354.797	290.73
355.179	306.77
355.562	318.75
355.944	313.33
356.326	318.52
356.709	321.69
357.091	326.21
357.473	317.84
357.855	334.57
358.238	337.05
358.62	328.92
359.002	353.1
359.384	321.91
359.766	339.54
360.148	329.37
360.53	317.62
360.912	328.92
361.294	328.01
361.676	327.56
362.057	302.03
362.439	321.23
362.821	318.3
363.203	297.96
363.584	321.01
363.966	321.01
364.348	314
364.729	320.78
365.111	307
365.493	317.84
365.874	308.81
366.256	305.19
366.637	304.96
367.019	311.52
367.4	294.57
367.781	314.23
368.163	312.87
368.544	303.38
368.925	309.71
369.306	309.71
369.688	292.76
370.069	307.68
370.45	306.09
370.831	304.06
371.212	281.24
371.593	320.78
371.974	302.48
372.355	304.06
372.736	304.29
373.117	292.08
373.498	316.71
373.879	306.55
374.26	283.95
374.641	316.71
375.021	311.52
375.402	315.36
375.783	316.04
376.163	309.26
376.544	316.71
376.925	314.23
377.305	332.53
377.686	314.46
378.066	313.78
378.447	321.46
378.827	298.64
379.208	347.9
379.588	324.17
379.968	307.45
380.349	307
380.729	321.01
381.109	310.16
381.489	323.95
381.87	324.4
382.25	328.92
382.63	339.77
383.01	343.83
383.39	339.77
383.77	323.27
384.15	345.87
384.53	345.19
384.91	354.23
385.29	338.41
385.67	345.87
386.049	320.78
386.429	345.64
386.809	361.23
387.189	354.68
387.568	356.71
387.948	367.79
388.328	334.57
388.707	358.97
389.087	360.1
389.466	359.2
389.846	343.15
390.225	341.8
390.605	376.6
390.984	365.98
391.363	354.68
391.743	341.57
392.122	358.07
392.501	367.56
392.881	401.23
393.26	375.24
393.639	372.53
394.018	374.34
394.397	365.08
394.776	385.41
395.155	367.79
395.534	369.59
395.913	420.44
396.292	397.39
396.671	379.31
397.05	401.23
397.429	402.14
397.808	431.29
398.186	387.67
398.565	414.11
398.944	415.02
399.323	402.81
399.701	419.09
400.08	399.65
400.458	401.46
400.837	424.96
401.215	436.94
401.594	412.53
401.972	420.21
402.351	449.37
402.729	407.33
403.107	429.93
403.486	433.55
403.864	439.65
404.242	430.38
404.62	430.38
404.999	453.89
405.377	452.08
405.755	438.97
406.133	440.1
406.511	450.5
406.889	465.64
407.267	483.04
407.645	478.74
408.023	476.26
408.401	484.39
408.779	497.05
409.156	506.99
409.534	487.33
409.912	477.84
410.29	505.86
410.667	502.7
411.045	515.81
411.422	514
411.8	512.87
412.178	552.41
412.555	521.46
412.933	544.51
413.31	554.22
413.687	564.39
414.065	566.65
414.442	594.45
414.819	592.64
415.197	592.41
415.574	608.23
415.951	596.71
416.328	611.17
416.705	614.56
417.082	624.73
417.46	612.3
417.837	648.23
418.214	634.67
418.591	621.11
418.967	633.99
419.344	663.82
419.721	669.7
420.098	699.76
420.475	658.4
420.852	701.11
421.228	708.12
421.605	713.09
421.982	739.3
422.358	731.17
422.735	719.42
423.111	734.56
423.488	729.36
423.864	744.05
424.241	788.57
424.617	796.48
424.994	794.89
425.37	800.32
425.746	820.88
426.123	833.54
426.499	831.05
426.875	841.22
427.251	857.94
427.627	890.49
428.003	874.21
428.379	866.08
428.756	899.75
429.132	896.36
429.507	927.09
429.883	919.64
430.259	937.49
430.635	942.69
431.011	961.22
431.387	981.33
431.763	984.72
432.138	998.05
432.514	996.24
432.89	1010.71
433.265	1043.25
433.641	1057.94
434.016	1064.27
434.392	1080.76
434.767	1121.21
435.143	1115.79
435.518	1152.4
435.894	1141.33
436.269	1186.75
436.644	1228.78
437.02	1195.11
437.395	1235.56
437.77	1234.2
438.145	1255.45
438.52	1269.46
438.895	1296.35
439.271	1297.48
439.646	1329.12
440.021	1344.94
440.395	1341.55
440.77	1341.32
441.145	1357.82
441.52	1367.08
441.895	1358.27
442.27	1417.02
442.645	1407.76
443.019	1413.64
443.394	1430.36
443.769	1443.24
444.143	1445.95
444.518	1471.49
444.892	1470.58
445.267	1475.1
445.641	1492.73
446.016	1499.51
446.39	1536.8
446.764	1536.12
447.139	1504.71
447.513	1566.85
447.887	1553.74
448.262	1574.31
448.636	1570.24
449.01	1587.19
449.384	1614.08
449.758	1590.58
450.132	1644.82
450.506	1617.02
450.88	1664.93
451.254	1628.54
451.628	1661.54
452.002	1679.16
452.376	1695.89
452.75	1720.07
453.123	1733.85
453.497	1766.39
453.871	1742.21
454.244	1765.26
454.618	1763.68
454.992	1805.49
455.365	1783.57
455.739	1839.16
456.112	1864.7
456.486	1880.52
456.859	1880.29
457.232	1938.82
457.606	1894.98
457.979	1975.88
458.352	1983.34
458.725	1993.28
459.099	1987.41
459.472	2021.53
459.845	2024.01
460.218	2071.92
460.591	2065.82
460.964	2085.93
461.337	2104.24
461.71	2170.23
462.083	2211.81
462.456	2149.66
462.829	2177.46
463.201	2180.17
463.574	2225.14
463.947	2226.27
464.32	2280.05
464.692	2301.52
465.065	2351.92
465.438	2363.21
465.81	2364.57
466.183	2408.64
466.555	2445.25
466.928	2455.19
467.3	2398.69
467.672	2505.36
468.045	2510.56
468.417	2515.08
468.789	2554.4
469.161	2539.93
469.534	2622.42
469.906	2653.83
470.278	2671.23
470.65	2693.83
471.022	2755.52
471.394	2779.02
471.766	2809.76
472.138	2839.59
472.51	2880.72
472.882	2881.17
473.253	2903.77
473.625	2947.15
473.997	3003.42
474.369	3030.99
474.74	3043.2
475.112	3059.47
475.484	3122.06
475.855	3167.71
476.227	3187.83
476.598	3259.69
476.97	3307.6
477.341	3345.34
477.713	3398.44
478.084	3390.08
478.455	3435.5
478.827	3495.39
479.198	3591.66
479.569	3557.53
479.94	3639.79
480.311	3658.1
480.682	3775.61
481.053	3798.66
481.424	3852.44
481.795	3874.14
482.166	3934.92
482.537	3942.16
482.908	4023.06
483.279	4062.15
483.65	4134.69
484.021	4164.52
484.391	4217.18
484.762	4225.99
485.133	4251.3
485.503	4280.68
485.874	4412.88
486.244	4393.22
486.615	4504.4
486.985	4512.99
487.356	4588.69
487.726	4653.32
488.097	4718.18
488.467	4659.2
488.837	4817.16
489.207	4860.55
489.578	4883.37
489.948	4921.34
490.318	4986.2
490.688	4948.68
491.058	5050.38
491.428	5119.53
491.798	5170.37
492.168	5208.34
492.538	5253.53
492.908	5295.12
493.278	5323.14
493.648	5340.09
494.017	5420.08
494.387	5460.08
494.757	5477.26
495.126	5518.16
495.496	5486.97
495.866	5542.57
496.235	5616.91
496.605	5662.11
496.974	5676.8
497.344	5680.19
497.713	5738.49
498.082	5698.95
498.452	5827.08
498.821	5781.2
499.19	5793.86
499.559	5858.72
499.928	5867.08
500.298	5944.82
500.667	5912.73
501.036	5964.02
501.405	6003.34
501.774	6020.75
502.143	6011.71
502.512	6068.88
502.88	6102.55
503.249	6067.07
503.618	6109.33
503.987	6128.31
504.356	6158.14
504.724	6150.91
505.093	6188.65
505.462	6230.23
505.83	6219.38
506.199	6242.89
506.567	6308.42
506.936	6343.9
507.304	6416.89
507.672	6357.69
508.041	6335.54
508.409	6415.99
508.777	6434.29
509.145	6493.05
509.514	6507.06
509.882	6477
510.25	6468.19
510.618	6538.47
510.986	6528.53
511.354	6577.57
511.722	6592.48
512.09	6665.47
512.458	6608.75
512.826	6693.95
513.193	6647.17
513.561	6662.99
513.929	6691.46
514.297	6726.94
514.664	6750.9
515.032	6761.52
515.4	6809.65
515.767	6811.46
516.135	6780.5
516.502	6758.58
516.869	6864.57
517.237	6838.8
517.604	6827.96
517.972	6910.67
518.339	6880.16
518.706	6949.99
519.073	6894.62
519.44	6935.3
519.808	7015.52
520.175	6941.17
520.542	6995.41
520.909	6984.34
521.276	7039.93
521.643	7031.57
522.009	7027.72
522.376	7128.97
522.743	7065.24
523.11	7185.23
523.477	7171.68
523.843	7175.74
524.21	7227.27
524.577	7284.22
524.943	7189.53
525.31	7365.57
525.676	7341.39
526.043	7360.15
526.409	7401.95
526.776	7394.95
527.142	7418.67
527.508	7422.06
527.874	7403.08
528.241	7534.6
528.607	7476.75
528.973	7514.27
529.339	7510.42
529.705	7554.04
530.071	7515.17
530.437	7579.8
530.803	7621.16
531.169	7705.22
531.535	7668.16
531.901	7643.75
532.267	7662.51
532.632	7701.83
532.998	7725.56
533.364	7730.76
533.73	7697.09
534.095	7753.13
534.461	7774.37
534.826	7828.16
535.192	7841.71
535.557	7902.73
535.923	7853.69
536.288	7858.89
536.653	7847.36
537.019	7841.49
537.384	7865.67
537.749	7866.35
538.114	7837.42
538.479	7857.53
538.845	7853.47
539.21	7876.06
539.575	7886.01
539.94	7926.46
540.305	7962.39
540.67	7940.7
541.034	7889.4
541.399	7917.42
541.764	7956.97
542.129	7931.43
542.494	7935.72
542.858	7960.36
543.223	7988.38
543.587	8003.29
543.952	8034.25
544.316	7988.83
544.681	8009.39
545.045	8020.92
545.41	8016.85
545.774	8046.68
546.138	8026.34
546.503	8086
546.867	8083.06
547.231	8056.4
547.595	8083.29
547.959	8085.78
548.324	8067.47
548.688	8137.07
549.052	8168.71
549.416	8132.33
549.779	8122.16
550.143	8178.66
550.507	8209.61
550.871	8169.84
551.235	8128.03
551.599	8166.23
551.962	8155.83
552.326	8156.51
552.689	8193.34
553.053	8205.09
553.417	8150.63
553.78	8262.04
554.143	8218.43
554.507	8242.38
554.87	8224.08
555.234	8361.93
555.597	8245.09
555.96	8306.11
556.323	8315.37
556.686	8260.46
557.05	8349.72
557.413	8346.56
557.776	8408.25
558.139	8443.51
558.502	8434.92
558.865	8452.32
559.228	8405.54
559.59	8480.12
559.953	8498.19
560.316	8512.66
560.679	8511.75
561.041	8620.68
561.404	8589.94
561.767	8683.5
562.129	8641.24
562.492	8713.78
562.854	8660
563.217	8654.35
563.579	8737.28
563.941	8778.64
564.304	8755.81
564.666	8930.27
565.028	8807.11
565.39	8876.49
565.753	8872.42
566.115	8882.59
566.477	8962.14
566.839	8995.13
567.201	9022.93
567.563	9028.35
567.925	9029.48
568.287	9153.09
568.648	9126.43
569.01	9138.63
569.372	9221.34
569.734	9192.41
570.095	9138.4
570.457	9273.32
570.819	9308.57
571.18	9336.14
571.542	9356.93
571.903	9325.07
572.265	9399.19
572.626	9393.99
572.987	9450.03
573.349	9454.1
573.71	9502.91
574.071	9511.95
574.432	9537.04
574.794	9636.47
575.155	9611.16
575.516	9595.34
575.877	9685.96
576.238	9729.35
576.599	9853.64
576.96	9800.53
577.32	9806.63
577.681	9850.02
578.042	9817.26
578.403	9831.94
578.763	9934.09
579.124	9880.08
579.485	9995.1
579.845	9993.52
580.206	10051.37
580.566	9977.03
580.927	9985.84
581.287	10061.77
581.648	10081.88
582.008	10137.47
582.368	10196
582.728	10229
583.089	10252.05
583.449	10268.09
583.809	10258.83
584.169	10336.11
584.529	10328.43
584.889	10418.37
585.249	10291.14
585.609	10340.86
585.969	10484.13
586.329	10464.24
586.688	10459.27
587.048	10507.63
587.408	10433.06
587.768	10552.6
588.127	10564.58
588.487	10624.69
588.846	10654.52
589.206	10552.83
589.565	10648.65
589.925	10715.76
590.284	10733.16
590.643	10747.4
591.003	10727.97
591.362	10815.65
591.721	10845.25
592.08	10768.42
592.44	10889.32
592.799	10831.69
593.158	10952.14
593.517	10935.87
593.876	10942.65
594.235	10968.64
594.593	10943.78
594.952	10973.16
595.311	10980.84
595.67	11010.9
596.029	11060.39
596.387	11073.95
596.746	11160.5
597.104	11081.63
597.463	11066.26
597.822	11128.86
598.18	11142.64
598.538	11090.44
598.897	11200.95
599.255	11099.93
599.613	11289.76
599.972	11237.78
600.33	11196.43
600.688	11212.25
601.046	11260.38
601.404	11309.87
601.762	11303.77
602.12	11325.46
602.478	11291.12
602.836	11361.62
603.194	11300.38
603.552	11388.74
603.91	11349.19
604.268	11373.6
604.625	11337.89
604.983	11417.44
605.341	11386.25
605.698	11430.55
606.056	11431
606.413	11424.9
606.771	11416.31
607.128	11467.38
607.485	11501.05
607.843	11433.48
608.2	11453.37
608.557	11571.33
608.914	11492.01
609.272	11598.68
609.629	11553.71
609.986	11592.35
610.343	11524.78
610.7	11668.28
611.057	11538.34
611.414	11646.59
611.771	11645
612.127	11655.17
612.484	11665.34
612.841	11662.86
613.198	11624.89
613.554	11632.58
613.911	11716.19
614.267	11763.87
614.624	11627.38
614.98	11746.7
615.337	11719.58
615.693	11747.37
616.05	11781.27
616.406	11875.05
616.762	11814.04
617.118	11775.17
617.475	11877.99
617.831	11839.58
618.187	11829.41
618.543	11868.73
618.899	11885.45
619.255	11900.37
619.611	11848.84
619.967	11948.73
620.323	11935.17
620.678	11937.88
621.034	11850.87
621.39	11926.13
621.746	11770.42
622.101	11995.28
622.457	11947.82
622.812	11937.43
623.168	11969.29
623.523	11936.52
623.879	11963.64
624.234	11916.41
624.589	11950.99
624.945	11977.2
625.3	11978.56
625.655	11943.3
626.01	11941.27
626.365	11921.16
626.72	11883.19
627.075	11947.14
627.43	11855.39
627.785	11886.58
628.14	11961.61
628.495	11927.71
628.85	11894.49
629.205	11907.82
629.559	11913.47
629.914	11852.91
630.269	11925.45
630.623	11876.41
630.978	11760.71
631.332	11841.38
631.687	11907.37
632.041	11789.86
632.396	11812.01
632.75	11854.49
633.104	11757.09
633.459	11772.68
633.813	11726.36
634.167	11700.37
634.521	11764.55
634.875	11755.06
635.229	11702.4
635.583	11745.34
635.937	11644.33
636.291	11656.53
636.645	11689.3
636.999	11559.81
637.352	11609.75
637.706	11553.03
638.06	11613.14
638.413	11652.91
638.767	11540.37
639.121	11595.06
639.474	11526.59
639.828	11416.31
640.181	11532.69
640.534	11602.29
640.888	11518.91
641.241	11487.49
641.594	11427.16
641.947	11505.35
642.301	11500.15
642.654	11494.05
643.007	11492.69
643.36	11478.68
643.713	11373.6
644.066	11455.18
644.419	11474.39
644.771	11347.39
645.124	11215.19
645.477	11255.41
645.83	11239.37
646.182	11107.62
646.535	11098.35
646.888	11030.11
647.24	10988.3
647.593	11105.81
647.945	11095.64
648.298	11026.72
648.65	11000.73
649.002	11012.48
649.355	11043.44
649.707	11069.43
650.059	11118.24
650.411	11161.63
650.763	11204.56
651.115	11292.02
651.467	11266.26
651.819	11321.17
652.171	11252.7
652.523	11224
652.875	11311.23
653.227	11305.13
653.578	11308.52
653.93	11303.09
654.282	11254.96
654.633	11196.43
654.985	11214.06
655.337	11221.51
655.688	11255.18
656.039	11323.43
656.391	11217.9
656.742	11157.56
657.094	11233.04
657.445	11241.63
657.796	11267.39
658.147	11227.39
658.498	11191.46
658.849	11254.96
659.2	11218.8
659.551	11181.06
659.902	11224.45
660.253	11281.17
660.604	11238.91
660.955	11234.39
661.306	11210.44
661.656	11225.81
662.007	11273.26
662.358	11253.38
662.708	11195.98
663.059	11241.17
663.409	11241.17
663.76	11322.08
664.11	11252.02
664.461	11254.28
664.811	11252.92
665.161	11283.88
665.511	11242.08
665.862	11246.82
666.212	11292.7
666.562	11221.06
666.912	11294.05
667.262	11295.41
667.612	11179.03
667.962	11230.78
668.312	11234.39
668.662	11300.83
669.011	11254.96
669.361	11245.69
669.711	11219.48
670.06	11178.35
670.41	11104.68
670.76	11141.74
671.109	11232.59
671.459	11183.77
671.808	11173.83
672.157	11176.54
672.507	11082.99
672.856	11160.05
673.205	11056.77
673.554	11190.33
673.904	11117.56
674.253	11175.41
674.602	11071.46
674.951	10989.88
675.3	10894.97
675.649	11089.31
675.998	11092.02
676.346	11113.49
676.695	11066.94
677.044	11025.59
677.393	11018.81
677.741	11065.58
678.09	11000.73
678.438	11002.54
678.787	11027.85
679.135	10990.78
679.484	10863.78
679.832	11031.01
680.181	10921.63
680.529	10891.13
680.877	10917.57
681.225	10887.96
681.573	10921.18
681.922	10868.08
682.27	10742.66
682.618	10814.29
682.966	10799.83
683.314	10819.26
683.661	10701.07
684.009	10683.67
684.357	10656.56
684.705	10674.86
685.053	10696.78
685.4	10621.53
685.748	10606.61
686.095	10605.26
686.443	10579.27
686.79	10435.32
687.138	10539.72
687.485	10492.72
687.832	10521.19
688.18	10521.87
688.527	10432.61
688.874	10420.63
689.221	10417.47
689.568	10328.88
689.915	10311.71
690.262	10355.09
690.609	10221.54
690.956	10241.65
691.303	10185.61
691.65	10124.37
691.997	10167.76
692.344	10109
692.69	10136.12
693.037	10093.41
693.383	10039.4
693.73	10075.78
694.077	9946.52
694.423	9965.73
694.769	9945.84
695.116	9889.57
695.462	9830.59
695.808	9900.42
696.155	9865.39
696.501	9739.97
696.847	9708.11
697.193	9676.69
697.539	9719.86
697.885	9577.04
698.231	9632.4
698.577	9542.23
698.923	9572.97
699.269	9517.83
699.614	9428.11
699.96	9391.5
700.306	9376.36
700.651	9336.36
700.997	9363.26
701.342	9395.57
701.688	9299.98
702.033	9278.74
702.379	9239.64
702.724	9256.59
703.069	9286.87
703.415	9090.04
703.76	9174.11
704.105	9088.69
704.45	9106.31
704.795	9084.62
705.14	8994.68
705.485	9024.28
705.83	8983.61
706.175	9001.68
706.52	8962.82
706.865	8875.81
707.209	8933.21
707.554	8797.17
707.899	8885.53
708.243	8849.82
708.588	8732.99
708.932	8780.45
709.277	8722.14
709.621	8683.95
709.966	8633.33
710.31	8673.11
710.654	8560.11
710.998	8536.61
711.342	8591.53
711.687	8601.92
712.031	8462.94
712.375	8520.34
712.719	8504.52
713.063	8530.06
713.407	8493.9
713.75	8427.46
714.094	8475.14
714.438	8409.38
714.782	8454.13
715.125	8347.46
715.469	8377.29
715.812	8312.66
716.156	8319.22
716.499	8313.57
716.843	8364.19
717.186	8337.52
717.53	8337.07
717.873	8332.1
718.216	8275.83
718.559	8258.2
718.902	8194.7
719.246	8180.24
719.589	8189.5
719.932	8175.72
720.275	8210.07
720.617	8173.91
720.96	8185.66
721.303	8190.63
721.646	8205.09
721.989	8146.11
722.331	8121.26
722.674	8095.27
723.016	8182.72
723.359	8114.48
723.701	8143.63
724.044	8065.66
724.386	7932.33
724.729	8044.2
725.071	8017.3
725.413	8048.04
725.755	8050.52
726.097	7942.95
726.439	7967.59
726.782	7980.92
727.124	8038.09
727.465	7987.93
727.807	7939.57
728.149	7944.31
728.491	8010.98
728.833	7965.78
729.175	7981.15
729.516	7948.83
729.858	7937.08
730.199	7936.4
730.541	7935.5
730.882	7915.16
731.224	7963.97
731.565	7880.81
731.906	7948.15
732.248	7946.34
732.589	7901.6
732.93	7860.47
733.271	7866.8
733.612	7886.46
733.953	7935.95
734.294	7892.56
734.635	7875.16
734.976	7832
735.317	7861.6
735.658	7820.92
735.999	7890.75
736.339	7827.48
736.68	7875.61
737.021	7857.08
737.361	7883.75
737.702	7839.23
738.042	7870.64
738.383	7905.44
738.723	7883.52
739.063	7842.84
739.404	7884.43
739.744	7911.09
740.084	7899.34
740.424	7929.62
740.764	7936.85
741.104	7920.81
741.444	7932.33
741.784	7965.33
742.124	7979.34
742.464	8018.66
742.804	7973.69
743.143	7976.63
743.483	8026.79
743.823	8008.49
744.162	7988.83
744.502	8104.76
744.841	8068.15
745.181	8115.15
745.52	8133.91
745.86	8135.27
746.199	8139.79
746.538	8228.15
746.877	8286.45
747.216	8290.74
747.556	8337.29
747.895	8384.75
748.234	8388.37
748.573	8479.89
748.911	8519.44
749.25	8526.22
749.589	8551.75
749.928	8733.22
750.267	8719.43
750.605	8807.34
750.944	8817.73
751.283	8890.05
751.621	8956.49
751.96	8967.56
752.298	9124.62
752.636	9193.09
752.975	9226.09
753.313	9251.85
753.651	9427.66
753.989	9469.69
754.327	9577.26
754.666	9609.58
755.004	9741.78
755.342	9884.6
755.679	10000.08
756.017	10052.28
756.355	10163.69
756.693	10252.27
757.031	10392.83
757.368	10493.17
757.706	10705.82
758.044	10830.11
758.381	10979.94
758.719	11124.34
759.056	11224
759.394	11367.05
759.731	11525.46
760.068	11648.17
760.405	11761.84
760.743	11927.93
761.08	12069.17
761.417	12183.07
761.754	12395.49
762.091	12486.11
762.428	12652.66
762.765	12776.95
763.102	12991.64
763.438	13090.62
763.775	13186.66
764.112	13419.65
764.449	13626.42
764.785	13735.57
765.122	13776.93
765.458	13921.55
765.795	14136.92
766.131	14311.38
766.467	14442.67
766.804	14438.6
767.14	14585.04
767.476	14778.03
767.812	14822.77
768.148	15011.7
768.485	15070.9
768.821	15156.55
769.157	15317.68
769.492	15558.12
769.828	15669.08
770.164	15585.47
770.5	15781.84
770.836	15914.5
771.171	15944.1
771.507	15993.14
771.842	16093.7
772.178	16206.69
772.513	16296.63
772.849	16370.53
773.184	16366.91
773.519	16571.88
773.855	16553.12
774.19	16706.57
774.525	16703.4
774.86	16745.66
775.195	16883.51
775.53	16914.24
775.865	16974.81
776.2	16975.94
776.535	16870.86
776.87	17052.09
777.205	17088.7
777.539	17089.38
777.874	17261.35
778.209	17110.4
778.543	17154.46
778.878	17137.29
779.212	17285.99
779.547	17245.08
779.881	17356.94
780.215	17312.2
780.55	17398.98
780.884	17361.69
781.218	17424.97
781.552	17423.38
781.886	17319.66
782.22	17320.56
782.554	17444.17
782.888	17363.27
783.222	17259.55
783.556	17286.44
783.889	17283.95
784.223	17154.24
784.557	17223.16
784.89	17327.12
785.224	17286.21
785.557	17188.59
785.891	17248.25
786.224	17132.77
786.558	17249.38
786.891	17127.8
787.224	17086.44
787.557	17163.73
787.891	17098.87
788.224	17162.6
788.557	17099.32
788.89	17099.55
789.223	17189.49
789.556	17024.07
789.888	17097.74
790.221	17006.22
790.554	16919.67
790.887	16918.31
791.219	16864.75
791.552	16865.43
791.884	16770.07
792.217	16834.02
792.549	16729.84
792.882	16722.84
793.214	16689.84
793.546	16743.18
793.879	16604.87
794.211	16551.54
794.543	16608.94
794.875	16606.23
795.207	16638.55
795.539	16538.44
795.871	16611.2
796.203	16396.52
796.535	16208.95
796.867	16385.67
797.198	16417.08
797.53	16402.39
797.862	16194.26
798.193	16316.75
798.525	16120.59
798.856	16277.88
799.188	15956.08
799.519	15927.15
799.85	15862.07
800.182	15962.63
800.513	16052.35
800.844	15887.15
801.175	15920.37
801.506	15895.06
801.837	15913.59
802.168	15858
802.499	15823.43
802.83	15787.95
803.161	15661.85
803.491	15692.81
803.822	15674.5
804.153	15600.83
804.483	15465.47
804.814	15400.16
805.145	15480.38
805.475	15438.13
805.805	15433.38
806.136	15453.94
806.466	15380.27
806.796	15405.13
807.126	15299.37
807.457	15249.43
807.787	15203.56
808.117	15162.65
808.447	15166.27
808.777	15138.02
809.107	15127.4
809.436	15022.77
809.766	15089.89
810.096	15048.98
810.426	14888.99
810.755	14971.7
811.085	15004.69
811.414	14973.5
811.744	14843.79
812.073	14834.3
812.403	14743.68
812.732	14777.58
813.061	14720.63
813.39	14613.97
813.719	14663
814.049	14695.32
814.378	14691.93
814.707	14501.43
815.036	14584.36
815.365	14464.82
815.693	14495.33
816.022	14429.34
816.351	14331.26
816.68	14290.36
817.008	14401.54
817.337	14237.48
817.665	14152.28
817.994	14208.1
818.322	14267.53
818.651	14234.99
818.979	14178.05
819.307	14211.04
819.636	14176.46
819.964	14073.87
820.292	14150.7
820.62	14110.25
820.948	14046.75
821.276	14097.14
821.604	14044.94
821.932	14063.92
822.259	14070.25
822.587	14085.62
822.915	14021.89
823.243	14079.52
823.57	14036.35
823.898	14085.17
824.225	13972.17
824.553	14034.09
824.88	14115.45
825.207	14156.35
825.535	14035
825.862	14033.87
826.189	14036.35
826.516	14089.91
826.843	14140.76
827.17	14133.53
827.497	14163.81
827.824	14139.4
828.151	14154.54
828.478	14089.69
828.805	14234.77
829.131	14046.52
829.458	14102.79
829.785	14046.07
830.111	14071.38
830.438	14097.82
830.764	14104.83
831.09	14121.55
831.417	14001.1
831.743	14106.63
832.069	14091.27
832.395	14044.94
832.722	14018.05
833.048	13964.94
833.374	14093.75
833.7	13960.88
834.026	13992.06
834.351	14086.3
834.677	13967.2
835.003	13988.67
835.329	13916.13
835.654	13941.22
835.98	13870.26
836.306	13920.88
836.631	13870.71
836.956	13902.12
837.282	13871.61
837.607	13791.16
837.932	13754.55
838.258	13816.92
838.583	13699.87
838.908	13774.44
839.233	13796.13
839.558	13721.56
839.883	13646.99
840.208	13654.9
840.533	13566.99
840.858	13598.4
841.182	13620.32
841.507	13534.22
841.832	13510.04
842.156	13498.97
842.481	13443.38
842.805	13501.23
843.13	13406.99
843.454	13450.15
843.778	13452.64
844.103	13326.32
844.427	13295.81
844.751	13314.34
845.075	13276.15
845.399	13284.06
845.723	13101.46
846.047	13153.44
846.371	13112.31
846.695	13033.22
847.019	12909.38
847.343	12906.44
847.666	12812.21
847.99	12816.05
848.313	12794.8
848.637	12722.94
848.96	12653.79
849.284	12650.63
849.607	12603.85
849.931	12539.44
850.254	12381.26
850.577	12316.4
850.9	12275.95
851.223	12316.17
851.546	12284.99
851.869	12228.27
852.192	12201.15
852.515	12150.08
852.838	12109.4
853.161	12125.9
853.483	12028.95
853.806	11976.07
854.129	11913.25
854.451	11970.42
854.774	11903.75
855.096	11742.63
855.419	11794.83
855.741	11753.02
856.063	11750.09
856.385	11629.41
856.708	11577.21
857.03	11574.72
857.352	11614.5
857.674	11505.12
857.996	11437.78
858.318	11492.01
858.64	11499.02
858.961	11472.81
859.283	11329.53
859.605	11291.57
859.926	11364.11
860.248	11296.09
860.57	11197.78
860.891	11205.92
861.212	11219.25
861.534	11174.96
861.855	11153.49
862.176	11185.81
862.498	11094.51
862.819	11137
863.14	11086.38
863.461	11006.6
863.782	11007.06
864.103	11001.18
864.424	10994.4
864.745	10985.13
865.065	10868.3
865.386	10869.66
865.707	10861.75
866.027	10845.03
866.348	10817.91
866.668	10926.15
866.989	10798.93
867.309	10737.68
867.63	10751.02
867.95	10777.46
868.27	10740.85
868.59	10663.79
868.91	10684.35
869.23	10642.32
869.55	10667.63
869.87	10703.11
870.19	10668.08
870.51	10709.44
870.83	10647.97
871.15	10564.81
871.469	10541.08
871.789	10616.33
872.109	10612.49
872.428	10493.62
872.748	10523.9
873.067	10545.82
873.386	10479.84
873.706	10477.13
874.025	10478.71
874.344	10413.85
874.663	10336.11
874.982	10328.88
875.301	10395.55
875.62	10382.44
875.939	10341.76
876.258	10367.52
876.577	10292.72
876.896	10297.24
877.214	10295.21
877.533	10274.19
877.852	10178.15
878.17	10234.42
878.489	10203.69
878.807	10184.48
879.125	10153.52
879.444	10176.34
879.762	10118.72
880.08	10119.17
880.398	10045.05
880.716	10101.09
881.034	10053.63
881.352	10020.41
881.67	10008.21
881.988	10022.45
882.306	9975.44
882.624	9882.34
882.941	9898.61
883.259	9878.05
883.577	9827.65
883.894	9870.59
884.212	9905.62
884.529	9761.89
884.846	9777.93
885.164	9730.03
885.481	9655.68
885.798	9722.12
886.115	9664.72
886.432	9650.03
886.75	9632.4
887.067	9624.49
887.383	9570.93
887.7	9677.82
888.017	9511.05
888.334	9515.34
888.651	9544.72
888.967	9517.38
889.284	9485.97
889.6	9415.91
889.917	9359.19
890.233	9433.54
890.55	9347.44
890.866	9362.35
891.182	9294.11
891.498	9278.06
891.815	9300.43
892.131	9184.5
892.447	9214.11
892.763	9104.96
893.079	9105.86
893.395	9125.75
893.71	9090.04
894.026	9088.91
894.342	9022.02
894.657	8977.05
894.973	8923.49
895.289	8943.83
895.604	8950.84
895.92	8848.92
896.235	8795.14
896.55	8822.25
896.865	8772.99
897.181	8725.99
897.496	8797.17
897.811	8697.06
898.126	8632.2
898.441	8660.22
898.756	8608.02
899.071	8597.4
899.386	8539.1
899.7	8500.23
900.015	8449.38
900.33	8446.9
900.644	8388.37
900.959	8402.6
901.273	8356.5
901.588	8300.69
901.902	8307.92
902.216	8305.21
902.531	8272.66
902.845	8234.25
903.159	8152.89
903.473	8140.46
903.787	8024.08
904.101	8069.28
904.415	8042.39
904.729	7969.39
905.042	7952.9
905.356	7910.19
905.67	7913.35
905.984	7889.85
906.297	7870.41
906.611	7778.89
906.924	7802.39
907.237	7792.68
907.551	7751.32
907.864	7687.14
908.177	7725.33
908.491	7640.36
908.804	7650.08
909.117	7545.68
909.43	7554.04
909.743	7498.9
910.056	7537.77
910.368	7440.82
910.681	7431.56
910.994	7364.67
911.307	7368.73
911.619	7281.05
911.932	7307.49
912.244	7210.32
912.557	7233.6
912.869	7189.08
913.181	7163.09
913.494	7118.57
913.806	7092.36
914.118	7058.23
914.43	7045.58
914.742	7080.83
915.054	6962.87
915.366	6998.35
915.678	6893.72
915.99	6890.78
916.302	6881.51
916.613	6867.28
916.925	6799.03
917.236	6849.2
917.548	6806.94
917.859	6734.17
918.171	6715.42
918.482	6681.75
918.794	6658.02
919.105	6659.82
919.416	6619.37
919.727	6627.51
920.038	6539.15
920.349	6528.75
920.66	6518.59
920.971	6532.6
921.282	6476.78
921.593	6427.97
921.903	6386.16
922.214	6334.41
922.525	6378.48
922.835	6384.13
923.146	6314.07
923.456	6287.86
923.767	6235.66
924.077	6222.77
924.387	6189.78
924.697	6213.73
925.008	6188.65
925.318	6087.86
925.628	6127.41
925.938	6104.13
926.248	6039.5
926.558	6014.42
926.867	6048.99
927.177	5999.96
927.487	5936
927.796	5919.96
928.106	5939.17
928.416	5828.66
928.725	5870.47
929.034	5822.11
929.344	5827.3
929.653	5764.48
929.962	5716.35
930.271	5764.03
930.581	5684.94
930.89	5655.78
931.199	5646.74
931.508	5642.9
931.817	5662.34
932.125	5633.86
932.434	5614.65
932.743	5529.69
933.051	5515.22
933.36	5515.67
933.669	5484.94
933.977	5442.68
934.286	5457.14
934.594	5433.19
934.902	5405.62
935.21	5421.89
935.519	5358.62
935.827	5333.98
936.135	5302.35
936.443	5274.1
936.751	5263.48
937.059	5257.6
937.367	5183.48
937.674	5236.36
937.982	5195
938.29	5154.55
938.597	5189.13
938.905	5131.73
939.213	5048.12
939.52	5072.97
939.827	5024.61
940.135	5033.88
940.442	4987.78
940.749	5023.26
941.056	4955.01
941.363	4912.98
941.67	4916.37
941.977	4912.75
942.284	4842.25
942.591	4855.13
942.898	4783.72
943.205	4798.4
943.511	4828.23
943.818	4834.11
944.125	4739.88
944.431	4728.35
944.738	4700.55
945.044	4699.88
945.35	4651.29
945.657	4612.65
945.963	4610.16
946.269	4573.33
946.575	4564.74
946.881	4569.94
947.187	4573.1
947.493	4523.16
947.799	4555.02
948.105	4490.39
948.41	4455.59
948.716	4521.58
949.022	4414.46
949.327	4459.66
949.633	4397.74
949.938	4353.67
950.244	4344.86
950.549	4338.53
950.854	4325.87
951.16	4316.61
951.465	4309.6
951.77	4280.68
952.075	4268.02
952.38	4237.74
952.685	4257.63
952.99	4173.56
953.294	4189.61
953.599	4128.59
953.904	4169.95
954.209	4129.95
954.513	4096.95
954.818	4072.55
955.122	4064.19
955.426	4023.28
955.731	3979.44
956.035	4014.7
956.339	4041.81
956.643	3989.61
956.948	3956.39
957.252	3944.64
957.556	3931.31
957.86	3929.5
958.163	3874.14
958.467	3880.91
958.771	3855.83
959.075	3872.33
959.378	3814.48
959.682	3842.05
959.985	3811.99
960.289	3796.17
960.592	3781.03
960.896	3753.01
961.199	3752.1
961.502	3714.82
961.805	3714.37
962.108	3704.65
962.411	3679.79
962.714	3649.28
963.017	3683.86
963.32	3647.02
963.623	3621.49
963.926	3644.08
964.228	3594.82
964.531	3548.49
964.833	3578.1
965.136	3500.59
965.438	3499.46
965.741	3494.94
966.043	3475.5
966.345	3452.23
966.648	3484.77
966.95	3479.8
967.252	3391.89
967.554	3430.08
967.856	3386.69
968.158	3358.22
968.46	3389.85
968.761	3351.66
969.063	3327.94
969.365	3300.14
969.666	3333.13
969.968	3296.75
970.269	3316.18
970.571	3249.97
970.872	3248.84
971.174	3214.94
971.475	3226.47
971.776	3229.41
972.077	3225.79
972.378	3175.85
972.679	3188.28
972.98	3118.68
973.281	3142.63
973.582	3121.39
973.883	3082.52
974.183	3058.34
974.484	3093.14
974.785	3059.92
975.085	3104.44
975.386	3046.36
975.686	3052.46
975.986	3027.83
976.287	3035.74
976.587	3009.07
976.887	2976.76
977.187	2988.28
977.487	2969.75
977.787	2934.95
978.087	2937.66
978.387	2903.77
978.687	2908.29
978.987	2888.4
979.286	2850.89
979.586	2872.13
979.885	2869.64
980.185	2834.61
980.484	2829.19
980.784	2813.6
981.083	2819.93
981.382	2783.09
981.682	2746.48
981.981	2780.15
982.28	2737.67
982.579	2729.98
982.878	2720.95
983.177	2728.4
983.475	2698.12
983.774	2698.57
984.073	2669.2
984.372	2651.34
984.67	2640.27
984.969	2656.09
985.267	2664.22
985.566	2621.74
985.864	2588.75
986.162	2607.28
986.461	2582.64
986.759	2570.67
987.057	2562.53
987.355	2556.2
987.653	2518.01
987.951	2541.74
988.249	2483.66
988.547	2498.8
988.844	2514.85
989.142	2513.49
989.44	2471.69
989.737	2442.08
990.035	2465.58
990.332	2426.26
990.63	2412.03
990.927	2408.64
991.224	2398.47
991.521	2363.21
991.819	2386.94
992.116	2359.6
992.413	2387.62
992.71	2369.54
993.006	2330.45
993.303	2319.83
993.6	2310.79
993.897	2282.54
994.193	2309.2
994.49	2284.57
994.787	2265.82
995.083	2230.56
995.379	2221.07
995.676	2194.63
995.972	2231.69
996.268	2216.78
996.565	2181.98
996.861	2182.65
997.157	2192.15
997.453	2155.76
997.749	2178.59
998.044	2149.44
998.34	2113.28
998.636	2132.71
998.932	2092.04
999.227	2116.67
999.523	2098.14
999.818	2077.12
1000.114	2046.84
1000.409	2060.4
1000.704	2049.32
1001	2040.96
1001.295	2027.86
1001.59	2019.72
1001.885	1972.94
1002.18	2009.1
1002.475	1977.91
1002.77	1960.74
1003.065	1963.23
1003.359	1936.33
1003.654	1920.97
1003.949	1923
1004.243	1934.75
1004.538	1907.86
1004.832	1910.35
1005.127	1890.68
1005.421	1869.22
1005.715	1861.31
1006.009	1860.4
1006.304	1829.9
1006.598	1845.04
1006.892	1846.84
1007.186	1807.98
1007.48	1819.95
1007.773	1791.03
1008.067	1777.69
1008.361	1747.41
1008.655	1760.97
1008.948	1743.34
1009.242	1748.99
1009.535	1738.82
1009.829	1746.73
1010.122	1703.8
1010.415	1716.45
1010.708	1682.78
1011.001	1680.29
1011.295	1652.72
1011.588	1667.41
1011.881	1676
1012.173	1653.4
1012.466	1631.93
1012.759	1608.88
1013.052	1602.56
1013.344	1611.14
1013.637	1586.51
1013.93	1596.91
1014.222	1579.28
1014.514	1553.29
1014.807	1570.69
1015.099	1565.27
1015.391	1501.77
1015.683	1520.07
1015.976	1516.23
1016.268	1497.93
1016.56	1490.02
1016.851	1496.12
1017.143	1519.62
1017.435	1476.46
1017.727	1479.62
1018.018	1437.59
1018.31	1422
1018.602	1423.8
1018.893	1425.16
1019.185	1395.78
1019.476	1413.86
1019.767	1389.68
1020.058	1412.51
1020.35	1384.48
1020.641	1361.43
1020.932	1374.09
1021.223	1340.42
1021.514	1358.04
1021.804	1353.52
1022.095	1323.69
1022.386	1328.89
1022.677	1316.69
1022.967	1324.82
1023.258	1314.43
1023.548	1292.51
1023.839	1284.37
1024.129	1288.21
1024.419	1252.96
1024.709	1267.88
1025	1264.71
1025.29	1240.31
1025.58	1217.48
1025.87	1203.92
1026.16	1219.06
1026.449	1223.81
1026.739	1177.26
1027.029	1193.75
1027.319	1207.09
1027.608	1178.39
1027.898	1172.51
1028.187	1159.4
1028.477	1159.63
1028.766	1142.68
1029.055	1147.65
1029.344	1117.37
1029.634	1122.57
1029.923	1130.93
1030.212	1115.56
1030.501	1126.19
1030.79	1098.39
1031.078	1097.94
1031.367	1081.44
1031.656	1081.44
1031.945	1067.66
1032.233	1079.86
1032.522	1043.48
1032.81	1078.28
1033.099	1054.32
1033.387	1029.01
1033.675	1036.24
1033.963	1008.45
1034.251	1033.53
1034.54	1003.93
1034.828	1010.26
1035.116	991.05
1035.403	982.01
1035.691	988.11
1035.979	1004.83
1036.267	972.97
1036.554	969.35
1036.842	955.34
1037.129	946.75
1037.417	950.82
1037.704	944.49
1037.992	952.86
1038.279	928.22
1038.566	918.96
1038.853	918.96
1039.14	918.96
