Data from hue_10_FLMS001491_49.txt Node
Date: Mon Feb 06 15:31:59 GMT 2017
User: dcchb
Spectrometer: FLMS00149
Trigger mode: 0
Integration Time (sec): 2.000000E-2
Scans to average: 10
Electric dark correction enabled: true
Nonlinearity correction enabled: false
Boxcar width: 0
XAxis mode: Wavelengths
Number of Pixels in Spectrum: 2048
>>>>>Begin Spectral Data<<<<<
341.393	-25.37
341.776	-25.37
342.16	-25.37
342.543	-55.2
342.927	-52.26
343.31	-80.28
343.693	-75.53
344.077	-54.29
344.46	-43.45
344.843	-66.72
345.226	-40.28
345.61	-13.84
345.993	-17.23
346.376	-8.42
346.759	-1.86
347.142	29.1
347.525	38.13
347.908	53.5
348.291	81.52
348.674	92.37
349.057	107.29
349.44	120.39
349.823	137.12
350.206	153.61
350.588	185.7
350.971	210.79
351.354	226.15
351.737	247.39
352.119	265.93
352.502	264.8
352.884	277.9
353.267	304.57
353.65	297.56
354.032	288.75
354.414	295.98
354.797	309.54
355.179	321.29
355.562	318.58
355.944	309.31
356.326	327.17
356.709	332.36
357.091	335.08
357.473	333.27
357.855	314.29
358.238	333.72
358.62	324.91
359.002	332.14
359.384	315.64
359.766	321.29
360.148	342.08
360.53	341.4
360.912	342.53
361.294	328.07
361.676	328.97
362.057	328.52
362.439	336.43
362.821	340.95
363.203	344.34
363.584	320.61
363.966	320.61
364.348	337.56
364.729	307.05
365.111	321.29
365.493	319.71
365.874	314.06
366.256	322.42
366.637	328.75
367.019	325.81
367.4	310.44
367.781	311.12
368.163	294.85
368.544	317
368.925	315.64
369.306	324.68
369.688	321.97
370.069	319.03
370.45	312.48
370.831	297.34
371.212	334.85
371.593	312.48
371.974	296.66
372.355	305.7
372.736	312.93
373.117	323.78
373.498	285.59
373.879	323.55
374.26	314.06
374.641	314.96
375.021	302.99
375.402	308.41
375.783	337.56
376.163	335.98
376.544	314.96
376.925	311.35
377.305	310.22
377.686	321.52
378.066	322.42
378.447	320.84
378.827	337.34
379.208	323.55
379.588	335.53
379.968	321.52
380.349	331.69
380.729	324.91
381.109	333.72
381.489	331.46
381.87	333.95
382.25	326.26
382.63	337.56
383.01	331.46
383.39	339.37
383.77	330.33
384.15	350.44
384.53	323.78
384.91	337.56
385.29	340.5
385.67	327.84
386.049	327.62
386.429	352.48
386.809	335.75
387.189	357.22
387.568	350.67
387.948	345.7
388.328	336.88
388.707	328.75
389.087	331.69
389.466	362.19
389.846	357
390.225	354.06
390.605	353.38
390.984	355.19
391.363	367.84
391.743	353.15
392.122	352.7
392.501	340.5
392.881	372.82
393.26	363.55
393.639	362.65
394.018	357.67
394.397	389.31
394.776	351.12
395.155	373.27
395.534	374.17
395.913	356.77
396.292	375.75
396.671	374.85
397.05	359.71
397.429	353.15
397.808	368.07
398.186	366.49
398.565	372.36
398.944	379.59
399.323	366.71
399.701	379.14
400.08	367.84
400.458	371.91
400.837	400.84
401.215	403.1
401.594	376.2
401.972	368.52
402.351	358.8
402.729	377.11
403.107	381.4
403.486	378.24
403.864	397.67
404.242	381.85
404.62	415.75
404.999	388.18
405.377	404
405.755	379.82
406.133	396.09
406.511	404.23
406.889	406.26
407.267	402.64
407.645	422.98
408.023	406.94
408.401	406.03
408.779	415.75
409.156	398.35
409.534	411.91
409.912	423.89
410.29	423.44
410.667	420.05
411.045	439.03
411.422	412.14
411.8	420.5
412.178	424.79
412.555	443.1
412.933	434.06
413.31	441.29
413.687	436.32
414.065	457.33
414.442	444.23
414.819	435.64
415.197	449.2
415.574	454.62
415.951	459.14
416.328	449.2
416.705	446.49
417.082	464.79
417.46	481.06
417.837	471.57
418.214	475.19
418.591	460.5
418.967	454.39
419.344	504.34
419.721	472.02
420.098	502.76
420.475	478.57
420.852	484
421.228	494.17
421.605	497.11
421.982	503.21
422.358	497.11
422.735	487.61
423.111	509.31
423.488	490.55
423.864	516.77
424.241	538.91
424.617	528.97
424.994	525.81
425.37	505.69
425.746	516.99
426.123	540.95
426.499	517.67
426.875	538.69
427.251	551.57
427.627	528.29
428.003	554.05
428.379	546.6
428.756	539.82
429.132	548.63
429.507	545.69
429.883	557.44
430.259	578.01
430.635	560.38
431.011	556.99
431.387	569.87
431.763	578.91
432.138	581.17
432.514	606.48
432.89	577.78
433.265	602.19
433.641	608.29
434.016	588.85
434.392	618.68
434.767	614.16
435.143	605.35
435.518	620.94
435.894	622.75
436.269	631.57
436.644	643.77
437.02	630.44
437.395	642.41
437.77	631.11
438.145	658.68
438.52	666.82
438.895	684.22
439.271	647.38
439.646	680.38
440.021	667.27
440.395	681.96
440.77	676.31
441.145	696.42
441.52	697.33
441.895	689.42
442.27	701.85
442.645	674.28
443.019	701.17
443.394	713.15
443.769	721.96
444.143	721.51
444.518	704.33
444.892	709.53
445.267	732.81
445.641	715.18
446.016	732.81
446.39	707.72
446.764	727.83
447.139	705.91
447.513	724.67
447.887	739.59
448.262	733.94
448.636	748.85
449.01	747.27
449.384	784.1
449.758	749.53
450.132	769.87
450.506	763.99
450.88	773.93
451.254	795.63
451.628	796.53
452.002	789.98
452.376	782.97
452.75	808.06
453.123	786.82
453.497	827.27
453.871	840.83
454.244	822.52
454.618	819.81
454.992	834.95
455.365	830.2
455.739	848.73
456.112	844.44
456.486	881.95
456.859	844.22
457.232	884.21
457.606	858
457.979	850.99
458.352	910.43
458.725	910.65
459.099	918.11
459.472	921.28
459.845	933.93
460.218	959.01
460.591	921.28
460.964	950.43
461.337	956.98
461.71	971.9
462.083	978.9
462.456	993.59
462.829	996.53
463.201	994.95
463.574	1040.14
463.947	1021.61
464.32	1040.59
464.692	1033.14
465.065	1037.88
465.438	1050.99
465.81	1078.56
466.183	1091.67
466.555	1113.81
466.928	1127.6
467.3	1114.49
467.672	1125.56
468.045	1143.42
468.417	1158.78
468.789	1172.57
469.161	1178.22
469.534	1186.8
469.906	1249.4
470.278	1239.91
470.65	1257.54
471.022	1296.63
471.394	1267.25
471.766	1307.25
472.138	1290.31
472.51	1336.18
472.882	1349.96
473.253	1376.86
473.625	1401.71
473.997	1427.25
474.369	1433.8
474.74	1413.47
475.112	1510.86
475.484	1483.75
475.855	1511.99
476.227	1535.95
476.598	1553.12
476.97	1601.03
477.341	1621.37
477.713	1634.02
478.084	1671.99
478.455	1702.5
478.827	1733.68
479.198	1751.76
479.569	1780.69
479.94	1821.14
480.311	1858.2
480.682	1879.67
481.053	1942.49
481.424	1955.15
481.795	1994.24
482.166	2006.9
482.537	2054.8
482.908	2074.24
483.279	2123.05
483.65	2177.06
484.021	2229.72
484.391	2272.88
484.762	2283.27
485.133	2296.15
485.503	2340.45
485.874	2354.91
486.244	2436.26
486.615	2480.78
486.985	2492.99
487.356	2588.8
487.726	2583.6
488.097	2659.76
488.467	2685.97
488.837	2712.41
489.207	2774.56
489.578	2788.57
489.948	2825.18
490.318	2877.16
490.688	2903.37
491.058	2964.61
491.428	2978.17
491.798	3035.8
492.168	3123.25
492.538	3105.4
492.908	3135.45
493.278	3184.72
493.648	3199.41
494.017	3258.61
494.387	3266.98
494.757	3326.86
495.126	3349.46
495.496	3394.2
495.866	3385.62
496.235	3379.52
496.605	3491.6
496.974	3483.02
497.344	3530.02
497.713	3550.36
498.082	3589
498.452	3602.33
498.821	3656.12
499.19	3706.96
499.559	3680.3
499.928	3719.39
500.298	3733.4
500.667	3758.04
501.036	3769.79
501.405	3827.41
501.774	3837.81
502.143	3868.32
502.512	3904.7
502.88	3887.98
503.249	3920.97
503.618	3940.63
503.987	3989.67
504.356	3983.57
504.724	4044.58
505.093	4059.05
505.462	4021.31
505.83	4038.93
506.199	4115.54
506.567	4141.53
506.936	4139.27
507.304	4198.93
507.672	4216.78
508.041	4203.45
508.409	4237.57
508.777	4266.72
509.145	4310.79
509.514	4324.12
509.882	4309.89
510.25	4327.74
510.618	4344.91
510.986	4381.98
511.354	4400.28
511.722	4357.8
512.09	4459.71
512.458	4393.95
512.826	4460.62
513.193	4480.28
513.561	4516.89
513.929	4553.5
514.297	4534.29
514.664	4580.39
515.032	4565.93
515.4	4541.29
515.767	4641.18
516.135	4620.61
516.502	4590.11
516.869	4685.02
517.237	4681.85
517.604	4653.83
517.972	4712.59
518.339	4675.53
518.706	4705.13
519.073	4736.54
519.44	4718.46
519.808	4804.79
520.175	4758.46
520.542	4824
520.909	4881.17
521.276	4798.01
521.643	4866.03
522.009	4937.67
522.376	4959.81
522.743	4912.81
523.11	4996.42
523.477	4981.96
523.843	4986.93
524.21	5093.37
524.577	5054.95
524.943	5077.1
525.31	5087.72
525.676	5099.24
526.043	5153.48
526.409	5212.24
526.776	5197.55
527.142	5271.9
527.508	5264.21
527.874	5305.11
528.241	5329.07
528.607	5341.72
528.973	5346.47
529.339	5423.98
529.705	5420.59
530.071	5422.85
530.437	5468.05
530.803	5510.76
531.169	5507.82
531.535	5542.17
531.901	5561.15
532.267	5560.93
532.632	5585.33
532.998	5648.61
533.364	5667.14
533.73	5679.12
534.095	5682.73
534.461	5790.53
534.826	5763.41
535.192	5808.38
535.557	5855.38
535.923	5831.43
536.288	5858.77
536.653	5886.79
537.019	5853.35
537.384	5892.44
537.749	5925.21
538.114	5922.73
538.479	5967.24
538.845	6039.11
539.21	5988.26
539.575	6007.24
539.94	6022.84
540.305	6122.72
540.67	6082.5
541.034	6116.84
541.399	6144.64
541.764	6161.59
542.129	6183.74
542.494	6217.41
542.858	6256.05
543.223	6184.41
543.587	6252.43
543.952	6291.76
544.316	6379.44
544.681	6402.49
545.045	6367.23
545.41	6430.51
545.774	6449.27
546.138	6422.83
546.503	6491.07
546.867	6509.38
547.231	6559.55
547.595	6567.91
547.959	6552.31
548.324	6579.21
548.688	6590.96
549.052	6639.09
549.416	6681.8
549.779	6683.84
550.143	6699.2
550.507	6799.54
550.871	6757.05
551.235	6770.39
551.599	6789.37
551.962	6764.29
552.326	6856.71
552.689	6865.07
553.053	6899.88
553.417	6929.7
553.78	6995.47
554.143	6969.03
554.507	7001.57
554.87	7033.66
555.234	7039.31
555.597	7009.25
555.96	7041.79
556.323	7110.72
556.686	7115.91
557.05	7117.72
557.413	7175.57
557.776	7188
558.139	7213.54
558.502	7243.59
558.865	7249.24
559.228	7313.65
559.59	7248.57
559.953	7312.07
560.316	7361.33
560.679	7318.17
561.041	7385.74
561.404	7409.01
561.767	7459.63
562.129	7429.58
562.492	7535.34
562.854	7522.46
563.217	7531.5
563.579	7568.78
563.941	7613.08
564.304	7650.14
564.666	7711.15
565.028	7654.66
565.39	7700.53
565.753	7756.58
566.115	7752.73
566.477	7831.6
566.839	7828.89
567.201	7804.94
567.563	7886.97
567.925	7898.72
568.287	7958.6
568.648	7963.35
569.01	7970.58
569.372	8048.55
569.734	7999.06
570.095	8048.32
570.457	8101.43
570.819	8198.82
571.18	8205.38
571.542	8245.38
571.903	8302.1
572.265	8309.33
572.626	8377.35
572.987	8374.64
573.349	8411.93
573.71	8502.32
574.071	8552.71
574.432	8583.45
574.794	8698.7
575.155	8650.11
575.516	8683.11
575.877	8774.4
576.238	8863.67
576.599	9000.16
576.96	8953.15
577.32	9081.06
577.681	9148.86
578.042	9280.83
578.403	9295.29
578.763	9394.72
579.124	9535.51
579.485	9654.38
579.845	9661.61
580.206	9810.98
580.566	9938.44
580.927	10087.36
581.287	10189.73
581.648	10277.19
582.008	10440.57
582.368	10575.03
582.728	10742.26
583.089	10972.31
583.449	11050.5
583.809	11221.8
584.169	11423.82
584.529	11521.9
584.889	11746.08
585.249	11921.21
585.609	12105.16
585.969	12383.12
586.329	12638.48
586.688	12818.82
587.048	13054.06
587.408	13225.36
587.768	13492.47
588.127	13763.65
588.487	13954.83
588.846	14296.29
589.206	14415.16
589.565	14753.91
589.925	15063.05
590.284	15337.39
590.643	15669.81
591.003	15887.44
591.362	16275.45
591.721	16552.05
592.08	16809.67
592.44	17260.28
592.799	17540.05
593.158	17820.94
593.517	18111.56
593.876	18423.87
594.235	18786.57
594.593	19056.39
594.952	19642.82
595.311	19659.99
595.67	20063.6
596.029	20516.24
596.387	20877.36
596.746	21199.84
597.104	21458.36
597.463	21763.21
597.822	22195.52
598.18	22479.8
598.538	22838.67
598.897	23182.38
599.255	23385.09
599.613	24097.61
599.972	24187.78
600.33	24552.74
600.688	24776.47
601.046	25294.19
601.404	25604.24
601.762	25899.83
602.12	26367.16
602.478	26713.82
602.836	26991.55
603.194	27025.67
603.552	27470.41
603.91	27773.68
604.268	28179.99
604.625	28345.64
604.983	28736.82
605.341	28850.94
605.698	29287.08
606.056	29631.03
606.413	29933.62
606.771	30235.98
607.128	30618.12
607.485	30556.43
607.843	31002.52
608.2	31377.65
608.557	31697.87
608.914	31865.09
609.272	32248.14
609.629	32630.95
609.986	32851.74
610.343	32950.72
610.7	33477.48
611.057	33537.82
611.414	33746.17
611.771	34021.65
612.127	34297.57
612.484	34393.62
612.841	34744.57
613.198	34835.19
613.554	35121.51
613.911	35313.37
614.267	35634.26
614.624	35732.79
614.98	35917.87
615.337	36313.34
615.693	36406.44
616.05	36593.78
616.406	36994.68
616.762	37000.1
617.118	37149.02
617.475	37183.15
617.831	37548.11
618.187	37672.17
618.543	37899.74
618.899	38232.84
619.255	38323.68
619.611	38268.99
619.967	38669.44
620.323	38730.68
620.678	38690
621.034	38844.12
621.39	38960.28
621.746	39123.43
622.101	39617.66
622.457	39352.13
622.812	39527.94
623.168	39723.64
623.523	39835.73
623.879	40038.66
624.234	39797.77
624.589	40219.45
624.945	40178.77
625.3	40398.66
625.655	40521.82
626.01	40531.76
626.365	40618.54
626.72	40723.62
627.075	40681.36
627.43	40886.33
627.785	40860.56
628.14	40970.62
628.495	41155.02
628.85	41075.93
629.205	41072.54
629.559	41163.38
629.914	41049.71
630.269	41227.11
630.623	41246.99
630.978	41147.34
631.332	41466.2
631.687	41605.4
632.041	41363.6
632.396	41524.5
632.75	41422.36
633.104	41536.48
633.459	41463.03
633.813	41440.44
634.167	41490.38
634.521	41442.47
634.875	41653.31
635.229	41490.38
635.583	41435.46
635.937	41438.63
636.291	41479.98
636.645	41538.29
636.999	41501.23
637.352	41696.02
637.706	41397.05
638.06	41663.71
638.413	41589.13
638.767	41565.18
639.121	41703.48
639.474	41424.17
639.828	41597.95
640.181	41555.69
640.534	41487.44
640.888	41547.78
641.241	41377.16
641.594	41443.6
641.947	41562.01
642.301	41343.94
642.654	41500.55
643.007	41577.38
643.36	41554.11
643.713	41572.86
644.066	41578.29
644.419	41527.89
644.771	41114.79
645.124	40690.17
645.477	40578.31
645.83	40525.43
646.182	40408.37
646.535	40153.69
646.888	40379.22
647.24	40150.07
647.593	40550.74
647.945	40271.2
648.298	40007.71
648.65	40005.45
649.002	40037.99
649.355	40155.95
649.707	40228.49
650.059	40366.79
650.411	40740.34
650.763	40731.3
651.115	41133.1
651.467	41152.99
651.819	41106.43
652.171	40912.09
652.523	40993.22
652.875	41106.43
653.227	40903.5
653.578	41166.54
653.93	40946.66
654.282	40851.75
654.633	40811.07
654.985	40759.1
655.337	40794.8
655.688	40767.46
656.039	40901.24
656.391	40613.11
656.742	40818.53
657.094	40837.51
657.445	40842.71
657.796	40803.84
658.147	40650.4
658.498	40571.53
658.849	40794.35
659.2	40814.46
659.551	40703.28
659.902	40745.76
660.253	40608.14
660.604	40705.54
660.955	40535.6
661.306	40733.34
661.656	40616.73
662.007	40605.43
662.358	40475.26
662.708	40660.34
663.059	40683.85
663.409	40305.32
663.76	40703.05
664.11	40618.31
664.461	40650.85
664.811	40562.27
665.161	40659.44
665.511	40518.2
665.862	40560.01
666.212	40642.72
666.562	40810.4
666.912	40555.49
667.262	40520.46
667.612	40612.21
667.962	40600.01
668.312	40449.73
668.662	40795.93
669.011	40495.83
669.361	40485.21
669.711	40407.92
670.06	40443.85
670.41	40392.55
670.76	40303.06
671.109	40409.95
671.459	40470.74
671.808	40328.6
672.157	40531.31
672.507	40169.28
672.856	40251.31
673.205	40245.66
673.554	40417.19
673.904	40220.13
674.253	40545.32
674.602	40389.16
674.951	39706.92
675.3	39503.99
675.649	40171.54
675.998	40036.4
676.346	40130.87
676.695	40261.48
677.044	40034.6
677.393	40017.87
677.741	40145.1
678.09	39986.46
678.438	39856.3
678.787	39957.99
679.135	39928.16
679.484	39608.85
679.832	39889.97
680.181	39663.31
680.529	39785.34
680.877	39661.05
681.225	39682.06
681.573	39819.24
681.922	39528.17
682.27	39394.84
682.618	39589.41
682.966	39352.81
683.314	39434.39
683.661	39280.04
684.009	39048.63
684.357	39154.39
684.705	39139.03
685.053	39068.07
685.4	39088.63
685.748	38910.11
686.095	38796.21
686.443	38662.2
686.79	38855.65
687.138	38826.49
687.485	38754.18
687.832	38686.61
688.18	38633.5
688.527	38458.59
688.874	38342.44
689.221	38415.88
689.568	38241.88
689.915	38200.07
690.262	38144.48
690.609	37966.18
690.956	37854.77
691.303	37945.61
691.65	37796.69
691.997	37650.93
692.344	37473.53
692.69	37545.4
693.037	37495.45
693.383	37250.94
693.73	37322.8
694.077	37098.63
694.423	37152.41
694.769	37004.85
695.116	36999.2
695.462	36915.81
695.808	36773.89
696.155	36768.47
696.501	36549.94
696.847	36438.76
697.193	36213.68
697.539	36545.65
697.885	36200.12
698.231	35986.57
698.577	36144.3
698.923	36019.56
699.269	35832.9
699.614	35670.64
699.96	35692.56
700.306	35723.52
700.651	35568.95
700.997	35384.78
701.342	35330.54
701.688	35432.46
702.033	35220.49
702.379	35255.51
702.724	35062.3
703.069	35072.92
703.415	34598.58
703.76	34632.71
704.105	34838.8
704.45	34644.46
704.795	34436.1
705.14	34375.54
705.485	34366.27
705.83	34242.21
706.175	34222.09
706.52	34122.44
706.865	34094.19
707.209	33966.28
707.554	33830.47
707.899	33895.32
708.243	33782.78
708.588	33755.21
708.932	33452.62
709.277	33339.86
709.621	33444.49
709.966	33307.77
710.31	33343.93
710.654	32974.44
710.998	33129.92
711.342	33098.73
711.687	32971.51
712.031	32986.65
712.375	32744.62
712.719	32956.59
713.063	32761.12
713.407	32764.96
713.75	32616.94
714.094	32605.64
714.438	32507.11
714.782	32369.04
715.125	32489.71
715.469	32380.34
715.812	32137.18
716.156	32084.07
716.499	32045.2
716.843	32195.93
717.186	32013.11
717.53	32110.29
717.873	32076.61
718.216	31983.96
718.559	31798.88
718.902	31541.71
719.246	31731.09
719.589	31612.9
719.932	31429.63
720.275	31385.11
720.617	31313.7
720.96	31367.93
721.303	31270.08
721.646	31354.37
721.989	31160.71
722.331	31297.65
722.674	31218.11
723.016	31146.7
723.359	31176.3
723.701	31078
724.044	30801.39
724.386	30675.52
724.729	30774.95
725.071	30850.43
725.413	30824.22
725.755	30580.38
726.097	30529.54
726.439	30373.38
726.782	30389.65
727.124	30601.62
727.465	30381.74
727.807	30253.61
728.149	30278.24
728.491	30208.41
728.833	30299.71
729.175	30135.42
729.516	30126.61
729.858	30143.56
730.199	30109.43
730.541	30078.93
730.882	29923.22
731.224	30019.27
731.565	29713.29
731.906	29880.51
732.248	29850.46
732.589	29710.35
732.93	29566.85
733.271	29707.18
733.612	29591.71
733.953	29671.93
734.294	29527.53
734.635	29490.69
734.976	29544.93
735.317	29228.78
735.658	29349.23
735.999	29454.08
736.339	29228.33
736.68	29363.47
737.021	29251.38
737.361	29162.11
737.702	29278.27
738.042	29042.8
738.383	29039.63
738.723	29144.49
739.063	28856.36
739.404	28931.61
739.744	28847.55
740.084	28767.1
740.424	28895.23
740.764	28820.65
741.104	28866.08
741.444	28688
741.784	28636.93
742.124	28685.29
742.464	28619.53
742.804	28501.57
743.143	28450.95
743.483	28448.24
743.823	28247.56
744.162	28328.24
744.502	28396.03
744.841	28305.64
745.181	28319.65
745.52	28170.05
745.86	28216.83
746.199	28055.03
746.538	28115.81
746.877	28163.04
747.216	28092.54
747.556	28100.45
747.895	28055.25
748.234	28029.49
748.573	27866.56
748.911	27851.41
749.25	27882.15
749.589	27751.3
749.928	27851.87
750.267	27731.19
750.605	27797.63
750.944	27683.06
751.283	27597.64
751.621	27653
751.96	27470.86
752.298	27455.04
752.636	27502.72
752.975	27342.28
753.313	27283.75
753.651	27382.73
753.989	27192.67
754.327	27089.63
754.666	26944.09
755.004	26985.67
755.342	27043.75
755.679	27010.31
756.017	26793.36
756.355	26852.34
756.693	26780.93
757.031	26888.95
757.368	26666.59
757.706	26649.86
758.044	26650.99
758.381	26661.84
758.719	26481.06
759.056	26461.85
759.394	26405.58
759.731	26191.8
760.068	26181.4
760.405	26121.74
760.743	25967.4
761.08	26048.98
761.417	25930.79
761.754	25847.4
762.091	25764.69
762.428	25793.39
762.765	25617.35
763.102	25564.47
763.438	25517.46
763.775	25429.78
764.112	25417.58
764.449	25526.96
764.785	25326.96
765.122	25126.74
765.458	25001.32
765.795	24963.81
766.131	24918.61
766.467	24863.47
766.804	24907.09
767.14	24707.77
767.476	24647.43
767.812	24544.16
768.148	24615.79
768.485	24442.92
768.821	24397.04
769.157	24214
769.492	24221
769.828	24194.79
770.164	23971.06
770.5	23938.07
770.836	23959.54
771.171	23794.8
771.507	23905.98
771.842	23441.81
772.178	23535.6
772.513	23503.05
772.849	23499.66
773.184	23303.29
773.519	23216.06
773.855	23162.05
774.19	23061.94
774.525	22997.3
774.86	23029.62
775.195	22894.93
775.53	22839.12
775.865	22725.67
776.2	22506.92
776.535	22425.34
776.87	22466.02
777.205	22317.55
777.539	22346.47
777.874	22254.95
778.209	22083.43
778.543	22126.14
778.878	21878.01
779.212	22016.99
779.547	21878.69
779.881	21838.01
780.215	21619.49
780.55	21618.58
780.884	21499.72
781.218	21426.5
781.552	21435.09
781.886	21315.77
782.22	21214.98
782.554	21225.6
782.888	20937.02
783.222	20845.5
783.556	20819.28
783.889	20946.29
784.223	20604.15
784.557	20544.26
784.89	20536.35
785.224	20486.41
785.557	20442.57
785.891	20258.39
786.224	20391.5
786.558	20226.08
786.891	20097.49
787.224	20031.06
787.557	19927.1
787.891	19943.37
788.224	19881.45
788.557	19826.54
788.89	19732.53
789.223	19744.28
789.556	19596.49
789.888	19608.92
790.221	19512.88
790.554	19371.64
790.887	19408.47
791.219	19330.06
791.552	19292.32
791.884	19107.24
792.217	19129.61
792.549	19006
792.882	18899.56
793.214	18815.49
793.546	18809.62
793.879	18749.51
794.211	18593.13
794.543	18759.22
794.875	18649.4
795.207	18627.02
795.539	18510.42
795.871	18421.15
796.203	18259.8
796.535	18221.84
796.867	18165.12
797.198	18189.75
797.53	18147.94
797.862	17984.56
798.193	18031.11
798.525	17877.44
798.856	17940.26
799.188	17764.9
799.519	17655.07
799.85	17616.2
800.182	17614.85
800.513	17592.93
800.844	17453.04
801.175	17404.01
801.506	17487.62
801.837	17342.31
802.168	17285.36
802.499	17203.78
802.83	17152.03
803.161	17135.09
803.491	17142.09
803.822	17021.42
804.153	16964.92
804.483	16793.4
804.814	16869.1
805.145	16808.99
805.475	16792.5
805.805	16686.06
806.136	16682.22
806.466	16650.58
806.796	16652.84
807.126	16502.79
807.457	16512.73
807.787	16512.05
808.117	16449
808.447	16420.3
808.777	16355.45
809.107	16257.37
809.436	16245.39
809.766	16271.38
810.096	16171.5
810.426	16086.75
810.755	16090.37
811.085	15996.59
811.414	15975.57
811.744	15958.39
812.073	15824.39
812.403	15807.66
812.732	15676.59
813.061	15684.28
813.39	15575.58
813.719	15666.65
814.049	15631.17
814.378	15569.93
814.707	15592.98
815.036	15383.95
815.365	15461.01
815.693	15350.95
816.022	15222.14
816.351	15262.59
816.68	15131.98
817.008	15232.76
817.337	15117.51
817.665	15048.36
817.994	15106.44
818.322	15077.29
818.651	14949.83
818.979	14914.13
819.307	15032.54
819.636	14903.96
819.964	14865.09
820.292	14943.96
820.62	14879.55
820.948	14905.99
821.276	14876.39
821.604	14876.39
821.932	14860.8
822.259	14835.03
822.587	14827.8
822.915	14850.63
823.243	14901.02
823.57	14722.95
823.898	14827.12
824.225	14749.84
824.553	14742.83
824.88	14790.29
825.207	14765.2
825.535	14728.37
825.862	14719.33
826.189	14641.37
826.516	14748.26
826.843	14815.83
827.17	14745.77
827.497	14830.06
827.824	14741.02
828.151	14712.33
828.478	14742.15
828.805	14757.75
829.131	14701.7
829.458	14687.92
829.785	14613.8
830.111	14696.05
830.438	14719.78
830.764	14760.01
831.09	14673.23
831.417	14621.93
831.743	14728.37
832.069	14654.47
832.395	14608.15
832.722	14655.6
833.048	14596.85
833.374	14552.1
833.7	14555.27
834.026	14543.74
834.351	14502.39
834.677	14567.92
835.003	14560.92
835.329	14522.27
835.654	14528.83
835.98	14436.85
836.306	14424.87
836.631	14414.71
836.956	14490.41
837.282	14433.46
837.607	14324.54
837.932	14288.38
838.258	14302.84
838.583	14247.7
838.908	14238.89
839.233	14229.17
839.558	14176.75
839.883	14132.23
840.208	14068.27
840.533	14187.37
840.858	14073.92
841.182	14071.89
841.507	14054.04
841.832	13990.31
842.156	13998.45
842.481	13935.17
842.805	14018.11
843.13	13915.06
843.454	13892.91
843.778	13825.12
844.103	13812.91
844.427	13765.68
844.751	13792.58
845.075	13713.26
845.399	13746.25
845.723	13595.74
846.047	13591
846.371	13480.94
846.695	13484.11
847.019	13403.66
847.343	13392.36
847.666	13229.88
847.99	13253.61
848.313	13205.7
848.637	13095.42
848.96	13200.73
849.284	13079.37
849.607	12986.95
849.931	12880.96
850.254	12875.54
850.577	12815.43
850.9	12779.04
851.223	12710.8
851.546	12662.21
851.869	12568.43
852.192	12612.95
852.515	12454.08
852.838	12458.37
853.161	12409.56
853.483	12395.78
853.806	12323.01
854.129	12282.11
854.451	12262.45
854.774	12168.66
855.096	12064.03
855.419	12113.3
855.741	12067.87
856.063	12028.78
856.385	11992.85
856.708	11955.56
857.03	11917.82
857.352	11917.6
857.674	11830.14
857.996	11836.47
858.318	11796.24
858.64	11801.89
858.961	11714.66
859.283	11671.05
859.605	11664.27
859.926	11699.07
860.248	11593.99
860.57	11518.96
860.891	11597.83
861.212	11467.44
861.534	11411.39
861.855	11540.88
862.176	11492.52
862.498	11494.1
862.819	11488.23
863.14	11353.54
863.461	11334.33
863.782	11299.99
864.103	11272.42
864.424	11347.89
864.745	11284.17
865.065	11296.14
865.386	11130.95
865.707	11175.24
866.027	11201
866.348	11179.08
866.668	11098.86
866.989	11185.19
867.309	11035.59
867.63	11111.52
867.95	11016.83
868.27	11001.46
868.59	10999.2
868.91	10991.52
869.23	11019.77
869.55	10888.92
869.87	11008.02
870.19	10913.1
870.51	11025.19
870.83	10956.94
871.15	10883.27
871.469	10812.99
871.789	10889.83
872.109	10829.49
872.428	10778.64
872.748	10825.65
873.067	10782.94
873.386	10791.98
873.706	10757.85
874.025	10787.23
874.344	10717.85
874.663	10656.61
874.982	10699.78
875.301	10611.19
875.62	10599.44
875.939	10588.82
876.258	10592.21
876.577	10502.94
876.896	10483.28
877.214	10507.46
877.533	10535.26
877.852	10476.28
878.17	10481.7
878.489	10495.03
878.807	10471.98
879.125	10437.86
879.444	10434.7
879.762	10360.58
880.08	10378.2
880.398	10279
880.716	10362.83
881.034	10373.91
881.352	10291.88
881.67	10313.12
881.988	10247.81
882.306	10224.99
882.624	10223.4
882.941	10188.6
883.259	10115.16
883.577	10152.44
883.894	10077.42
884.212	10074.71
884.529	10086.91
884.846	10049.4
885.164	10027.93
885.481	9991.32
885.798	10001.94
886.115	9966.91
886.432	9891.66
886.75	9899.8
887.067	9852.57
887.383	9818.89
887.7	9931.21
888.017	9833.81
888.334	9750.2
888.651	9731.44
888.967	9740.03
889.284	9693.93
889.6	9668.84
889.917	9607.6
890.233	9567.83
890.55	9582.29
890.866	9629.75
891.182	9527.83
891.498	9564.21
891.815	9462.97
892.131	9446.02
892.447	9403.99
892.763	9390.66
893.079	9359.92
893.395	9376.42
893.71	9262.3
894.026	9265.91
894.342	9289.87
894.657	9176.65
894.973	9233.15
895.289	9149.76
895.604	9158.35
895.92	9085.35
896.235	9051.91
896.55	9017.11
896.865	9042.19
897.181	9005.58
897.496	9037.9
897.811	8916.09
898.126	8901.86
898.441	8831.12
898.756	8864.12
899.071	8800.39
899.386	8870.22
899.7	8725.82
900.015	8708.42
900.33	8661.64
900.644	8630.45
900.959	8627.74
901.273	8639.26
901.588	8599.94
901.902	8587.29
902.216	8479.49
902.531	8464.35
902.845	8453.73
903.159	8408.76
903.473	8323.79
903.787	8391.14
904.101	8292.61
904.415	8367.41
904.729	8272.95
905.042	8236.11
905.356	8212.61
905.67	8179.84
905.984	8166.06
906.297	8089.67
906.611	8029.34
906.924	8103.69
907.237	7980.3
907.551	7987.3
907.864	7978.94
908.177	7918.38
908.491	7967.64
908.804	7851.49
909.117	7817.14
909.43	7840.42
909.743	7729.01
910.056	7776.01
910.368	7680.42
910.681	7670.7
910.994	7700.31
911.307	7561.33
911.619	7558.61
911.932	7515.45
912.244	7459.63
912.557	7485.17
912.869	7461.22
913.181	7416.47
913.494	7390.26
913.806	7355.91
914.118	7330.15
914.43	7285.85
914.742	7316.14
915.054	7197.72
915.366	7244.05
915.678	7143.48
915.99	7105.97
916.302	7087.21
916.613	7037.27
916.925	7026.43
917.236	7020.1
917.548	6963.6
917.859	6957.5
918.171	6911.4
918.482	6888.12
918.794	6869.59
919.105	6855.58
919.416	6746.43
919.727	6742.14
920.038	6799.76
920.349	6701.46
920.66	6729.48
920.971	6681.58
921.282	6632.76
921.593	6602.48
921.903	6597.51
922.214	6550.28
922.525	6509.38
922.835	6540.11
923.146	6464.18
923.456	6480.9
923.767	6429.38
924.077	6423.73
924.387	6381.47
924.697	6340.12
925.008	6313.9
925.318	6284.75
925.628	6303.51
925.938	6262.83
926.248	6214.47
926.558	6197.07
926.867	6149.39
927.177	6121.82
927.487	6094.47
927.796	6026.9
928.106	6061.48
928.416	6042.04
928.725	6011.76
929.034	5991.2
929.344	5980.13
929.653	5915.04
929.962	5868.26
930.271	5868.49
930.581	5842.73
930.89	5828.04
931.199	5814.25
931.508	5776.06
931.817	5783.52
932.125	5730.64
932.434	5719.34
932.743	5705.33
933.051	5622.85
933.36	5601.15
933.669	5583.3
933.977	5603.64
934.286	5537.2
934.594	5485.22
934.902	5522.06
935.21	5523.19
935.519	5447.94
935.827	5466.47
936.135	5442.29
936.443	5399.8
936.751	5398.45
937.059	5351.44
937.367	5328.84
937.674	5309.86
937.982	5307.15
938.29	5226.47
938.597	5273.93
938.905	5178.34
939.213	5232.35
939.52	5163.42
939.827	5133.37
940.135	5127.49
940.442	5117.78
940.749	5090.43
941.056	5076.42
941.363	5009.76
941.67	5018.57
941.977	4992.13
942.284	5008.17
942.591	4983.54
942.898	4948.29
943.205	4916.42
943.511	4878.91
943.818	4860.15
944.125	4854.28
944.431	4753.49
944.738	4786.48
945.044	4788.52
945.35	4780.38
945.657	4767.5
945.963	4748.07
946.269	4694.96
946.575	4678.69
946.881	4646.83
947.187	4647.73
947.493	4625.58
947.799	4619.26
948.105	4573.16
948.41	4549.2
948.716	4590.11
949.022	4537.23
949.327	4543.1
949.633	4474.18
949.938	4503.55
950.244	4434.18
950.549	4417.23
950.854	4387.17
951.16	4367.29
951.465	4351.69
951.77	4300.4
952.075	4321.19
952.38	4282.54
952.685	4334.29
952.99	4272.15
953.294	4273.28
953.599	4244.58
953.904	4205.48
954.209	4220.85
954.513	4185.82
954.818	4118.48
955.122	4152.38
955.426	4165.71
955.731	4107.86
956.035	4104.24
956.339	4104.24
956.643	4045.94
956.948	4014.98
957.252	4029.44
957.556	4039.61
957.86	4006.39
958.163	3967.07
958.467	3968.88
958.771	3933.63
959.075	3926.39
959.378	3897.92
959.682	3908.54
959.985	3847.07
960.289	3848.88
960.592	3843.91
960.896	3847.3
961.199	3799.39
961.502	3771.14
961.805	3732.27
962.108	3773.4
962.411	3723.69
962.714	3727.3
963.017	3670.58
963.32	3668.32
963.623	3658.15
963.926	3673.07
964.228	3631.71
964.531	3629.9
964.833	3574.31
965.136	3594.43
965.438	3609.57
965.741	3534.54
966.043	3519.17
966.345	3544.71
966.648	3490.93
966.95	3509
967.252	3470.81
967.554	3469.68
967.856	3463.81
968.158	3408.89
968.46	3464.26
968.761	3442.11
969.063	3411.15
969.365	3370.02
969.666	3390.59
969.968	3334.55
970.269	3368.22
970.571	3297.03
970.872	3293.19
971.174	3282.57
971.475	3273.53
971.776	3250.03
972.077	3273.3
972.378	3235.79
972.679	3236.02
972.98	3205.73
973.281	3191.72
973.582	3260.87
973.883	3135.23
974.183	3182.46
974.484	3167.09
974.785	3138.62
975.085	3122.35
975.386	3120.09
975.686	3101.56
975.986	3062.46
976.287	3072.63
976.587	3029.02
976.887	3040.54
977.187	3038.73
977.487	2978.4
977.787	2952.63
978.087	2961
978.387	2988.79
978.687	2939.98
978.987	2906.99
979.286	2941.56
979.586	2896.59
979.885	2891.62
980.185	2896.82
980.484	2872.86
980.784	2868.12
981.083	2829.25
981.382	2815.24
981.682	2789.25
981.981	2772.53
982.28	2815.46
982.579	2822.47
982.878	2769.81
983.177	2751.51
983.475	2731.62
983.774	2756.26
984.073	2716.93
984.372	2665.18
984.67	2691.17
984.969	2700.66
985.267	2690.72
985.566	2680.55
985.864	2641.68
986.162	2641
986.461	2614.79
986.759	2631.96
987.057	2598.75
987.355	2595.81
987.653	2574.79
987.951	2558.07
988.249	2559.88
988.547	2558.07
988.844	2525.98
989.142	2529.59
989.44	2465.64
989.737	2467.68
990.035	2476.49
990.332	2494.12
990.63	2469.48
990.927	2434
991.224	2414.57
991.521	2436.26
991.819	2411.63
992.116	2401.69
992.413	2398.52
992.71	2396.49
993.006	2358.75
993.303	2362.37
993.6	2361.92
993.897	2332.31
994.193	2382.71
994.49	2320.56
994.787	2304.06
995.083	2270.39
995.379	2295.7
995.676	2250.96
995.972	2295.48
996.268	2260.9
996.565	2268.36
996.861	2230.17
997.157	2208.47
997.453	2212.54
997.749	2221.13
998.044	2170.73
998.34	2187
998.636	2144.07
998.932	2152.66
999.227	2168.47
999.523	2144.75
999.818	2113.56
1000.114	2081.24
1000.409	2107.46
1000.704	2087.35
1001	2082.6
1001.295	2088.93
1001.59	2083.05
1001.885	2053.45
1002.18	2010.29
1002.475	2000.79
1002.77	2031.3
1003.065	1992.66
1003.359	2005.31
1003.654	1983.85
1003.949	1965.09
1004.243	1965.77
1004.538	1954.69
1004.832	1949.72
1005.127	1939.33
1005.421	1933.23
1005.715	1912.44
1006.009	1900.01
1006.304	1886.9
1006.598	1891.65
1006.892	1848.03
1007.186	1854.13
1007.48	1855.94
1007.773	1826.56
1008.067	1817.3
1008.361	1809.16
1008.655	1817.07
1008.948	1808.94
1009.242	1779.56
1009.535	1733.46
1009.829	1768.26
1010.122	1761.93
1010.415	1730.75
1010.708	1736.85
1011.001	1715.6
1011.295	1721.71
1011.588	1708.83
1011.881	1674.48
1012.173	1687.58
1012.466	1697.75
1012.759	1670.41
1013.052	1657.98
1013.344	1666.57
1013.637	1622.5
1013.93	1643.06
1014.222	1625.21
1014.514	1585.44
1014.807	1604.87
1015.099	1576.17
1015.391	1556.96
1015.683	1598.55
1015.976	1557.19
1016.268	1572.56
1016.56	1523.29
1016.851	1519.68
1017.143	1492.79
1017.435	1511.32
1017.727	1516.97
1018.018	1495.27
1018.31	1470.41
1018.602	1486.91
1018.893	1474.71
1019.185	1441.94
1019.476	1448.04
1019.767	1447.36
1020.058	1492.11
1020.35	1437.87
1020.641	1442.62
1020.932	1423.41
1021.223	1387.48
1021.514	1417.31
1021.804	1380.92
1022.095	1390.87
1022.386	1392.68
1022.677	1360.81
1022.967	1360.81
1023.258	1322.17
1023.548	1313.81
1023.839	1333.69
1024.129	1321.26
1024.419	1302.51
1024.709	1284.43
1025	1287.59
1025.29	1263.64
1025.58	1274.26
1025.87	1260.25
1026.16	1243.75
1026.449	1238.1
1026.739	1237.88
1027.029	1249.63
1027.319	1239.46
1027.608	1219.8
1027.898	1194.26
1028.187	1192.91
1028.477	1175.51
1028.766	1185
1029.055	1160.59
1029.344	1207.6
1029.634	1172.12
1029.923	1146.35
1030.212	1135.51
1030.501	1140.48
1030.79	1128.73
1031.078	1111.1
1031.367	1118.11
1031.656	1118.78
1031.945	1081.5
1032.233	1115.85
1032.522	1077.2
1032.81	1093.93
1033.099	1091.89
1033.387	1076.3
1033.675	1061.38
1033.963	1060.93
1034.251	1057.09
1034.54	1036.98
1034.828	1045.57
1035.116	1031.33
1035.403	1025.45
1035.691	1010.31
1035.979	997.43
1036.267	1006.02
1036.554	992.01
1036.842	968.28
1037.129	1003.53
1037.417	960.14
1037.704	971.67
1037.992	972.8
1038.279	954.95
1038.566	980.93
1038.853	980.93
1039.14	980.93
