Data from hue_10_FLMS001491_16.txt Node
Date: Mon Feb 06 15:31:30 GMT 2017
User: dcchb
Spectrometer: FLMS00149
Trigger mode: 0
Integration Time (sec): 2.000000E-2
Scans to average: 10
Electric dark correction enabled: true
Nonlinearity correction enabled: false
Boxcar width: 0
XAxis mode: Wavelengths
Number of Pixels in Spectrum: 2048
>>>>>Begin Spectral Data<<<<<
341.393	-5.3
341.776	-5.3
342.16	-5.3
342.543	-66.76
342.927	-78.29
343.31	-46.65
343.693	-59.76
344.077	-87.1
344.46	-81.9
344.843	-54.56
345.226	-57.27
345.61	-24.28
345.993	-41.45
346.376	5.1
346.759	29.73
347.142	22.95
347.525	42.61
347.908	55.27
348.291	73.35
348.674	104.53
349.057	119.45
349.44	120.35
349.823	151.54
350.206	184.3
350.588	198.54
350.971	210.07
351.354	218.43
351.737	238.31
352.119	234.25
352.502	265.88
352.884	263.85
353.267	263.17
353.65	291.42
354.032	302.04
354.414	312.66
354.797	310.85
355.179	319.67
355.562	319.67
355.944	335.71
356.326	361.25
356.709	348.14
357.091	328.93
357.473	353.79
357.855	320.34
358.238	355.6
358.62	342.72
359.002	327.12
359.384	344.98
359.766	349.5
360.148	364.19
360.53	344.07
360.912	319.44
361.294	343.17
361.676	314.02
362.057	333.23
362.439	329.16
362.821	325.09
363.203	328.03
363.584	334.81
363.966	313.79
364.348	309.95
364.729	305.43
365.111	326.67
365.493	303.62
365.874	317.41
366.256	324.19
366.637	322.15
367.019	302.49
367.4	322.6
367.781	309.72
368.163	320.34
368.544	309.95
368.925	312.66
369.306	322.38
369.688	342.27
370.069	320.12
370.45	299.33
370.831	308.59
371.212	320.12
371.593	312.89
371.974	315.15
372.355	314.92
372.736	308.14
373.117	303.62
373.498	322.38
373.879	306.79
374.26	321.93
374.641	316.95
375.021	315.37
375.402	321.25
375.783	302.94
376.163	298.42
376.544	328.71
376.925	320.34
377.305	345.43
377.686	313.79
378.066	314.7
378.447	318.31
378.827	310.4
379.208	312.89
379.588	314.02
379.968	292.77
380.349	349.5
380.729	317.86
381.109	319.67
381.489	324.19
381.87	336.39
382.25	342.49
382.63	343.17
383.01	311.31
383.39	308.59
383.77	316.5
384.15	327.12
384.53	333.23
384.91	334.13
385.29	334.58
385.67	333.45
386.049	350.63
386.429	340.01
386.809	355.6
387.189	354.47
387.568	357.86
387.948	333.68
388.328	347.01
388.707	343.39
389.087	342.72
389.466	350.4
389.846	352.89
390.225	355.6
390.605	376.16
390.984	348.82
391.363	364.86
391.743	336.62
392.122	365.54
392.501	361.47
392.881	362.6
393.26	357.41
393.639	369.83
394.018	352.66
394.397	368.93
394.776	361.47
395.155	352.43
395.534	349.5
395.913	358.54
396.292	373.9
396.671	374.35
397.05	378.65
397.429	371.42
397.808	356.28
398.186	351.98
398.565	373.9
398.944	370.06
399.323	385.88
399.701	358.99
400.08	368.48
400.458	380.91
400.837	370.29
401.215	388.37
401.594	375.48
401.972	377.97
402.351	394.02
402.729	393.34
403.107	402.38
403.486	394.24
403.864	376.84
404.242	389.72
404.62	380.68
404.999	386.78
405.377	398.76
405.755	369.83
406.133	390.85
406.511	399.44
406.889	395.6
407.267	412.32
407.645	424.75
408.023	396.27
408.401	397.86
408.779	392.21
409.156	404.41
409.534	397.63
409.912	454.13
410.29	429.27
410.667	430.4
411.045	424.52
411.422	420.68
411.8	414.58
412.178	422.71
412.555	426.56
412.933	424.75
413.31	432.88
413.687	450.06
414.065	455.03
414.442	435.14
414.819	458.87
415.197	452.77
415.574	440.79
415.951	454.58
416.328	432.66
416.705	464.97
417.082	449.61
417.46	466.78
417.837	472.43
418.214	463.17
418.591	469.04
418.967	459.32
419.344	470.17
419.721	474.01
420.098	455.93
420.475	492.54
420.852	497.06
421.228	506.78
421.605	471.98
421.982	467.69
422.358	488.02
422.735	506.55
423.111	496.84
423.488	497.97
423.864	499.1
424.241	485.09
424.617	492.77
424.994	514.46
425.37	526.44
425.746	491.41
426.123	511.75
426.499	515.14
426.875	528.25
427.251	521.47
427.627	525.76
428.003	515.14
428.379	537.06
428.756	542.94
429.132	544.97
429.507	546.55
429.883	562.37
430.259	556.27
430.635	554.69
431.011	547.91
431.387	551.98
431.763	565.31
432.138	559.21
432.514	572.54
432.89	575.48
433.265	558.98
433.641	577.29
434.016	582.94
434.392	611.86
434.767	593.33
435.143	625.65
435.518	624.74
435.894	609.83
436.269	610.05
436.644	610.73
437.02	618.64
437.395	631.3
437.77	624.52
438.145	660.67
438.52	635.36
438.895	660.67
439.271	667.45
439.646	674.91
440.021	664.06
440.395	679.66
440.77	667.68
441.145	662.26
441.52	690.28
441.895	695.25
442.27	687.11
442.645	676.95
443.019	678.98
443.394	693.44
443.769	675.36
444.143	666.32
444.518	711.97
444.892	690.96
445.267	688.92
445.641	684.63
446.016	723.27
446.39	702.26
446.764	718.07
447.139	715.36
447.513	729.83
447.887	751.29
448.262	720.56
448.636	738.86
449.01	739.77
449.384	718.98
449.758	750.84
450.132	740.22
450.506	758.3
450.88	743.61
451.254	746.55
451.628	757.85
452.002	778.86
452.376	794
452.75	752.42
453.123	790.16
453.497	794.91
453.871	797.85
454.244	815.02
454.618	814.12
454.992	813.44
455.365	792.87
455.739	829.71
456.112	830.84
456.486	823.61
456.859	848.69
457.232	841.23
457.606	836.26
457.979	862.03
458.352	880.33
458.725	871.29
459.099	872.65
459.472	916.94
459.845	904.74
460.218	895.24
460.591	886.66
460.964	923.72
461.337	938.63
461.71	952.64
462.083	956.49
462.456	945.86
462.829	963.72
463.201	984.96
463.574	966.2
463.947	994.45
464.32	998.07
464.692	1024.05
465.065	1020.89
465.438	1013.66
465.81	1031.29
466.183	1063.15
466.555	1053.21
466.928	1090.72
467.3	1070.38
467.672	1099.08
468.045	1097.27
468.417	1111.74
468.789	1122.13
469.161	1142.02
469.534	1156.93
469.906	1183.6
470.278	1173.43
470.65	1179.08
471.022	1208.23
471.394	1223.82
471.766	1227.89
472.138	1264.95
472.51	1304.73
472.882	1303.37
473.253	1310.38
473.625	1344.72
473.997	1351.73
474.369	1369.13
474.74	1379.07
475.112	1429.69
475.484	1433.54
475.855	1496.58
476.227	1470.82
476.598	1515.57
476.97	1524.83
477.341	1571.39
477.713	1586.75
478.084	1612.06
478.455	1656.13
478.827	1670.37
479.198	1678.73
479.569	1733.87
479.94	1754.43
480.311	1770.02
480.682	1829.01
481.053	1876.46
481.424	1918.72
481.795	1915.56
482.166	1983.13
482.537	1973.18
482.908	2026.51
483.279	2064.71
483.65	2076
484.021	2149.9
484.391	2176.12
484.762	2196.68
485.133	2203.91
485.503	2255.44
485.874	2295.66
486.244	2328.88
486.615	2382.89
486.985	2404.81
487.356	2455.66
487.726	2471.25
488.097	2563.9
488.467	2526.84
488.837	2615.65
489.207	2638.02
489.578	2657.01
489.948	2717.8
490.318	2760.05
490.688	2780.62
491.058	2875.08
491.428	2844.35
491.798	2936.55
492.168	2964.34
492.538	2975.42
492.908	3028.97
493.278	3040.05
493.648	3077.56
494.017	3104.45
494.387	3184.22
494.757	3149.65
495.126	3219.48
495.496	3211.34
495.866	3248.86
496.235	3301.06
496.605	3351.9
496.974	3374.5
497.344	3406.37
497.713	3380.6
498.082	3433.03
498.452	3474.61
498.821	3449.53
499.19	3530.2
499.559	3580.6
499.928	3573.14
500.298	3601.39
500.667	3615.17
501.036	3639.81
501.405	3672.8
501.774	3631.9
502.143	3687.94
502.512	3743.08
502.88	3756.86
503.249	3760.03
503.618	3802.29
503.987	3825.56
504.356	3856.75
504.724	3842.06
505.093	3861.95
505.462	3908.95
505.83	3942.62
506.199	3956.63
506.567	3952.79
506.936	3995.5
507.304	3989.4
507.672	4035.28
508.041	4057.87
508.409	4055.61
508.777	4080.47
509.145	4106.23
509.514	4119.11
509.882	4127.25
510.25	4131.09
510.618	4181.71
510.986	4174.03
511.354	4239.11
511.722	4226.23
512.09	4278.21
512.458	4260.13
512.826	4284.99
513.193	4258.09
513.561	4305.55
513.929	4330.41
514.297	4372.89
514.664	4388.94
515.032	4379.45
515.4	4418.54
515.767	4432.55
516.135	4412.44
516.502	4400.01
516.869	4430.52
517.237	4510.52
517.604	4433.91
517.972	4524.3
518.339	4517.75
518.706	4495.83
519.073	4587.58
519.44	4560.23
519.808	4604.3
520.175	4612.89
520.542	4624.19
520.909	4672.32
521.276	4658.54
521.643	4680.23
522.009	4726.78
522.376	4724.3
522.743	4708.7
523.11	4781.92
523.477	4778.98
523.843	4837.06
524.21	4881.13
524.577	4850.4
524.943	4893.56
525.31	4889.26
525.676	4931.75
526.043	4943.73
526.409	4975.14
526.776	5018.07
527.142	5058.75
527.508	5054.68
527.874	5063.27
528.241	5093.1
528.607	5042.71
528.973	5173.32
529.339	5159.54
529.705	5199.76
530.071	5238.86
530.437	5269.14
530.803	5282.47
531.169	5315.92
531.535	5320.89
531.901	5383.26
532.267	5316.15
532.632	5358.4
532.998	5409.93
533.364	5447.44
533.73	5436.14
534.095	5507.1
534.461	5500.77
534.826	5516.14
535.192	5585.52
535.557	5538.74
535.923	5577.61
536.288	5608.79
536.653	5642.01
537.019	5689.47
537.384	5639.53
537.749	5715.68
538.114	5689.24
538.479	5707.55
538.845	5753.87
539.21	5789.81
539.575	5829.13
539.94	5822.12
540.305	5808.34
540.67	5820.31
541.034	5868.67
541.399	5931.27
541.764	5955
542.129	5958.61
542.494	5969.46
542.858	6029.57
543.223	6042.91
543.587	6092.4
543.952	6042.23
544.316	6094.88
544.681	6056.92
545.045	6097.14
545.41	6182.34
545.774	6218.49
546.138	6169.46
546.503	6250.36
546.867	6191.6
547.231	6269.79
547.595	6257.36
547.959	6359.51
548.324	6341.88
548.688	6412.61
549.052	6433.63
549.416	6406.96
549.779	6472.05
550.143	6404.7
550.507	6507.07
550.871	6478.37
551.235	6521.99
551.599	6510.92
551.962	6587.3
552.326	6597.69
552.689	6682.89
553.053	6641.76
553.417	6628.2
553.78	6700.97
554.143	6640.18
554.507	6683.34
554.87	6734.87
555.234	6726.5
555.597	6710.01
555.96	6789.1
556.323	6820.29
556.686	6857.8
557.05	6803.34
557.413	6786.16
557.776	6856.44
558.139	6918.59
558.502	6908.42
558.865	6973.73
559.228	6988.87
559.59	7026.38
559.953	6989.55
560.316	7026.38
560.679	7114.06
561.041	7093.27
561.404	7154.74
561.767	7163.55
562.129	7121.75
562.492	7259.82
562.854	7166.27
563.217	7186.15
563.579	7223.21
563.941	7275.19
564.304	7298.47
564.666	7362.42
565.028	7341.4
565.39	7331.01
565.753	7396.77
566.115	7408.07
566.477	7496.88
566.839	7517.22
567.201	7487.84
567.563	7577.55
567.925	7626.82
568.287	7578.91
568.648	7573.04
569.01	7629.76
569.372	7702.75
569.734	7711.56
570.095	7742.97
570.457	7805.57
570.819	7841.5
571.18	7872.01
571.542	7965.34
571.903	7928.73
572.265	7926.7
572.626	7991.1
572.987	8008.5
573.349	8064.32
573.71	8114.49
574.071	8213.24
574.432	8257.31
574.794	8327.14
575.155	8299.57
575.516	8374.14
575.877	8391.32
576.238	8502.5
576.599	8550.64
576.96	8620.01
577.32	8643.29
577.681	8780.01
578.042	8874.02
578.403	8903.85
578.763	8974.35
579.124	9068.82
579.485	9180
579.845	9287.34
580.206	9339.77
580.566	9471.74
580.927	9575.92
581.287	9686.65
581.648	9733.43
582.008	9944.5
582.368	10089.13
582.728	10182.91
583.089	10337.71
583.449	10506.97
583.809	10560.53
584.169	10781.99
584.529	10950.35
584.889	11101.98
585.249	11278.47
585.609	11464.23
585.969	11675.07
586.329	11824
586.688	12002.3
587.048	12238.22
587.408	12427.6
587.768	12652
588.127	12895.61
588.487	13105.32
588.846	13440.23
589.206	13517.06
589.565	13711.63
589.925	14084.28
590.284	14279.53
590.643	14496.47
591.003	14746.18
591.362	15049.67
591.721	15308.65
592.08	15591.36
592.44	15825.93
592.799	16112.92
593.158	16520.37
593.517	16700.93
593.876	16920.13
594.235	17177.3
594.593	17523.73
594.952	17900.45
595.311	18148.35
595.67	18470.15
596.029	18841.21
596.387	19219.51
596.746	19463.34
597.104	19589.44
597.463	19925.93
597.822	20258.35
598.18	20468.97
598.538	20704.22
598.897	21140.81
599.255	21360.24
599.613	21821.25
599.972	21997.06
600.33	22380.1
600.688	22497.16
601.046	22922.91
601.404	23219.63
601.762	23378.72
602.12	23801.08
602.478	24056.44
602.836	24368.53
603.194	24585.24
603.552	24794.73
603.91	25043.08
604.268	25419.8
604.625	25528.04
604.983	25955.6
605.341	26043.96
605.698	26497.28
606.056	26798.29
606.413	26903.15
606.771	27326.41
607.128	27501.1
607.485	27663.13
607.843	27840.3
608.2	28281.87
608.557	28531.35
608.914	28672.37
609.272	28992.36
609.629	29181.73
609.986	29531.78
610.343	29409.98
610.7	29957.08
611.057	30037.98
611.414	30238.88
611.771	30565.65
612.127	30768.13
612.484	30834.57
612.841	31177.39
613.198	31290.83
613.554	31472.75
613.911	31669.35
614.267	32021.66
614.624	31997.93
614.98	32334.42
615.337	32641.08
615.693	32541.87
616.05	32824.57
616.406	33062.08
616.762	33075.19
617.118	33383.88
617.475	33417.33
617.831	33613.25
618.187	33715.62
618.543	33978.89
618.899	34223.63
619.255	34242.62
619.611	34359.45
619.967	34603.51
620.323	34785.43
620.678	34740.46
621.034	34819.1
621.39	35008.25
621.746	35033.78
622.101	35570.94
622.457	35308.35
622.812	35384.06
623.168	35611.39
623.523	35825.17
623.879	36004.6
624.234	35811.61
624.589	36032.85
624.945	36069.69
625.3	36126.41
625.655	36194.88
626.01	36390.36
626.365	36482.33
626.72	36473.29
627.075	36515.1
627.43	36470.81
627.785	36523.01
628.14	36696.79
628.495	36733.4
628.85	36726.17
629.205	36785.37
629.559	36986.5
629.914	36944.69
630.269	37040.74
630.623	36930.46
630.978	36926.16
631.332	37100.62
631.687	37287.51
632.041	37183.1
632.396	37113.73
632.75	37054.75
633.104	37190.11
633.459	37149.43
633.813	37230.79
634.167	37207.74
634.521	37066.5
634.875	37394.17
635.229	37245.25
635.583	37068.76
635.937	37289.77
636.291	37348.07
636.645	37242.99
636.999	37358.01
637.352	37320.95
637.706	37161.64
638.06	37291.58
638.413	37141.07
638.767	37161.41
639.121	37289.09
639.474	37060.62
639.828	37153.95
640.181	37222.88
640.534	37267.17
640.888	37184.69
641.241	37130.68
641.594	37119.6
641.947	37207.06
642.301	37214.06
642.654	37216.78
643.007	37245.02
643.36	37254.06
643.713	37069.66
644.066	37261.97
644.419	37045.93
644.771	36732.95
645.124	36501.99
645.477	36528.66
645.83	36309
646.182	36188.78
646.535	36185.84
646.888	36264.48
647.24	35948.33
647.593	36133.87
647.945	36042.57
648.298	36086.18
648.65	35901.33
649.002	35940.2
649.355	35996.02
649.707	35892.97
650.059	36153.75
650.411	36448.21
650.763	36627.64
651.115	36892.72
651.467	36843.45
651.819	36843
652.171	36741.31
652.523	36729.78
652.875	36768.88
653.227	36584.48
653.578	36791.7
653.93	36694.53
654.282	36568.66
654.633	36592.61
654.985	36696.79
655.337	36585.61
655.688	36634.87
656.039	36765.49
656.391	36371.15
656.742	36568.21
657.094	36491.82
657.445	36674.42
657.796	36496.34
658.147	36535.66
658.498	36389.68
658.849	36524.14
659.2	36456.57
659.551	36465.61
659.902	36383.13
660.253	36459.28
660.604	36533.18
660.955	36373.18
661.306	36444.14
661.656	36339.51
662.007	36482.11
662.358	36355.33
662.708	36350.13
663.059	36372.5
663.409	36196.24
663.76	36474.87
664.11	36292.51
664.461	36368.89
664.811	36460.19
665.161	36473.97
665.511	36345.61
665.862	36494.76
666.212	36484.82
666.562	36420.41
666.912	36425.16
667.262	36373.63
667.612	36384.93
667.962	36337.02
668.312	36396.91
668.662	36488.43
669.011	36335.89
669.361	36327.76
669.711	36384.48
670.06	36226.07
670.41	36225.16
670.76	36130.25
671.109	36342
671.459	36332.51
671.808	36294.54
672.157	36230.81
672.507	36052.96
672.856	36097.71
673.205	36222
673.554	36377.93
673.904	36058.16
674.253	36450.24
674.602	36091.61
674.951	35627.89
675.3	35473.09
675.649	35987.66
675.998	36095
676.346	35977.71
676.695	36134.32
677.044	35843.03
677.393	36035.56
677.741	36115.56
678.09	35842.12
678.438	35841.9
678.787	35938.62
679.135	35918.28
679.484	35623.15
679.832	35993.98
680.181	35634.9
680.529	35745.18
680.877	35649.81
681.225	35575.91
681.573	35819.75
681.922	35431.74
682.27	35437.84
682.618	35418.63
682.966	35243.27
683.314	35339.54
683.661	35277.84
684.009	34954.69
684.357	34959.66
684.705	35008.47
685.053	35027.68
685.4	35061.35
685.748	34882.15
686.095	34864.3
686.443	34622.95
686.79	34733.23
687.138	34830.17
687.485	34741.81
687.832	34687.35
688.18	34742.49
688.527	34461.14
688.874	34435.83
689.221	34472.67
689.568	34354.03
689.915	34121.26
690.262	34243.29
690.609	34135.95
690.956	34087.82
691.303	34004.66
691.65	33885.79
691.997	33869.07
692.344	33738.68
692.69	33719.01
693.037	33714.27
693.383	33458.23
693.73	33548.17
694.077	33291.23
694.423	33421.17
694.769	33343.88
695.116	33177.79
695.462	33031.12
695.808	32989.77
696.155	33089.2
696.501	32741.41
696.847	32733.5
697.193	32653.96
697.539	32619.61
697.885	32471.59
698.231	32234.31
698.577	32305.49
698.923	32322.22
699.269	32139.4
699.614	32007.2
699.96	31873.19
700.306	31944.37
700.651	31900.76
700.997	31741.67
701.342	31646.98
701.688	31632.97
702.033	31586.87
702.379	31441.33
702.724	31293.54
703.069	31536.7
703.415	31163.6
703.76	31046.32
704.105	31209.93
704.45	31138.07
704.795	30903.5
705.14	30882.48
705.485	30723.84
705.83	30606.33
706.175	30703.27
706.52	30605.88
706.865	30467.8
707.209	30658.98
707.554	30256.05
707.899	30364.98
708.243	30283.62
708.588	30205.66
708.932	30032.56
709.277	29936.52
709.621	30096.06
709.966	29827.82
710.31	29927.25
710.654	29752.79
710.998	29688.84
711.342	29625.34
711.687	29659.23
712.031	29531.55
712.375	29427.38
712.719	29410.88
713.063	29354.38
713.407	29448.39
713.75	29270.77
714.094	29360.49
714.438	29303.31
714.782	29271
715.125	29031.91
715.469	29093.6
715.812	28903.32
716.156	28625.82
716.499	28864.9
716.843	28830.78
717.186	28649.77
717.53	28680.73
717.873	28635.76
718.216	28723.44
718.559	28468.98
718.902	28325.03
719.246	28471.47
719.589	28292.04
719.932	28221.53
720.275	28119.61
720.617	28118.94
720.96	28038.71
721.303	28172.27
721.646	28091.14
721.989	27834.65
722.331	28060.86
722.674	27916
723.016	27966.17
723.359	27896.79
723.701	27817.7
724.044	27678.72
724.386	27668.1
724.729	27703.13
725.071	27481.89
725.413	27535.22
725.755	27571.15
726.097	27494.09
726.439	27328.67
726.782	27249.13
727.124	27420.42
727.465	27294.55
727.807	27320.54
728.149	27266.08
728.491	27126.19
728.833	27244.61
729.175	27064.73
729.516	27115.8
729.858	27094.1
730.199	27030.38
730.541	26910.38
730.882	26882.36
731.224	26927.78
731.565	26753.55
731.906	26762.14
732.248	26794.45
732.589	26648.01
732.93	26622.93
733.271	26646.43
733.612	26679.88
733.953	26627
734.294	26476.27
734.635	26445.31
734.976	26521.92
735.317	26301.13
735.658	26314.92
735.999	26314.92
736.339	26275.37
736.68	26347.91
737.021	26203.51
737.361	26180.46
737.702	26218.42
738.042	26140.46
738.383	26096.62
738.723	26166.44
739.063	26057.97
739.404	26014.13
739.744	26083.28
740.084	25813.69
740.424	25889.39
740.764	25923.06
741.104	25992.66
741.444	25740.69
741.784	25729.62
742.124	25769.62
742.464	25685.33
742.804	25727.36
743.143	25598.1
743.483	25703.63
743.823	25646.23
744.162	25587.02
744.502	25673.58
744.841	25387.71
745.181	25549.74
745.52	25358.56
745.86	25509.06
746.199	25271.1
746.538	25405.56
746.877	25351.78
747.216	25257.54
747.556	25250.99
747.895	25297.77
748.234	25082.41
748.573	25290.08
748.911	25210.09
749.25	25088.51
749.589	24974.84
749.928	25047.6
750.267	25117.43
750.605	24889.42
750.944	24863.2
751.283	24816.2
751.621	24871.34
751.96	24768.29
752.298	24642.42
752.636	24771
752.975	24524.45
753.313	24499.82
753.651	24556.32
753.989	24527.17
754.327	24472.48
754.666	24394.74
755.004	24360.84
755.342	24394.51
755.679	24391.35
756.017	24217.34
756.355	24164.24
756.693	24014.41
757.031	24072.26
757.368	24020.74
757.706	23882.21
758.044	23909.33
758.381	23901.19
758.719	23892.38
759.056	23795.43
759.394	23716.34
759.731	23617.13
760.068	23627.3
760.405	23555.21
760.743	23489.68
761.08	23515.22
761.417	23374.2
761.754	23407.87
762.091	23229.8
762.428	23242.68
762.765	23095.57
763.102	23188.67
763.438	23025.96
763.775	22910.71
764.112	22984.61
764.449	22929.92
764.785	22866.87
765.122	22711.39
765.458	22648.12
765.795	22551.85
766.131	22532.87
766.467	22534
766.804	22439.99
767.14	22286.32
767.476	22273.67
767.812	22190.73
768.148	22196.38
768.485	22124.07
768.821	21898.76
769.157	21883.17
769.492	21788.93
769.828	21865.99
770.164	21619.67
770.5	21545.1
770.836	21514.59
771.171	21428.94
771.507	21338.78
771.842	21209.96
772.178	21155.5
772.513	21209.96
772.849	21137.65
773.184	21059.23
773.519	21040.7
773.855	20867.38
774.19	20749.41
774.525	20809.52
774.86	20808.39
775.195	20649.08
775.53	20627.16
775.865	20491.57
776.2	20391.68
776.535	20207.73
776.87	20283.89
777.205	20095.42
777.539	20065.81
777.874	20127.51
778.209	19944.91
778.543	19895.88
778.878	19873.5
779.212	19731.36
779.547	19516.22
779.881	19624.7
780.215	19502.67
780.55	19534.3
780.884	19367.3
781.218	19287.98
781.552	19345.16
781.886	19243.91
782.22	19208.21
782.554	19166.85
782.888	18924.83
783.222	18950.36
783.556	18795.11
783.889	18743.36
784.223	18610.71
784.557	18618.85
784.89	18637.15
785.224	18524.61
785.557	18327.55
785.891	18304.96
786.224	18361.9
786.558	18328.23
786.891	18142.25
787.224	18046.21
787.557	18030.16
787.891	18069.48
788.224	18040.78
788.557	17990.84
788.89	17851.41
789.223	17794.24
789.556	17705.88
789.888	17669.27
790.221	17537.97
790.554	17400.8
790.887	17524.64
791.219	17437.41
791.552	17313.12
791.884	17098.66
792.217	17216.62
792.549	17149.51
792.882	16983.64
793.214	16956.74
793.546	17029.96
793.879	16866.58
794.211	16740.7
794.543	16908.16
794.875	16737.31
795.207	16899.8
795.539	16632.68
795.871	16623.19
796.203	16549.75
796.535	16383.88
796.867	16361.73
797.198	16311.79
797.53	16329.87
797.862	16226.82
798.193	16227.27
798.525	16171.45
798.856	16166.26
799.188	15936.43
799.519	15951.8
799.85	15855.3
800.182	15830.67
800.513	15927.17
800.844	15691.92
801.175	15754.06
801.506	15752.26
801.837	15733.5
802.168	15610.34
802.499	15465.26
802.83	15521.98
803.161	15395.88
803.491	15419.83
803.822	15468.19
804.153	15312.27
804.483	15269.33
804.814	15184.36
805.145	15162.67
805.475	15125.83
805.805	15031.6
806.136	15111.82
806.466	14964.71
806.796	14931.94
807.126	14804.03
807.457	14893.07
807.787	14847.19
808.117	14841.32
808.447	14721.55
808.777	14810.36
809.107	14763.81
809.436	14660.31
809.766	14638.16
810.096	14545.96
810.426	14483.36
810.755	14508.22
811.085	14489.01
811.414	14429.35
811.744	14276.14
812.073	14279.3
812.403	14305.06
812.732	14189.58
813.061	14147.78
813.39	14117.72
813.719	14058.06
814.049	14143.94
814.378	14106.65
814.707	14012.41
815.036	13993.88
815.365	13839.31
815.693	13788.69
816.022	13835.7
816.351	13802.7
816.68	13750.27
817.008	13783.95
817.337	13661.46
817.665	13639.54
817.994	13653.55
818.322	13616.27
818.651	13586.66
818.979	13530.62
819.307	13501.47
819.636	13481.58
819.964	13427.57
820.292	13525.42
820.62	13409.04
820.948	13423.28
821.276	13436.61
821.604	13358.87
821.932	13420.57
822.259	13421.02
822.587	13470.51
822.915	13324.3
823.243	13447.68
823.57	13316.61
823.898	13339.21
824.225	13327.69
824.553	13305.09
824.88	13295.37
825.207	13326.78
825.535	13317.07
825.862	13332.88
826.189	13233.45
826.516	13346.89
826.843	13368.82
827.17	13270.51
827.497	13348.25
827.824	13302.38
828.151	13383.28
828.478	13231.87
828.805	13390.28
829.131	13259.21
829.458	13263.96
829.785	13231.64
830.111	13193.23
830.438	13295.37
830.764	13297.4
831.09	13274.58
831.417	13259.44
831.743	13207.46
832.069	13252.89
832.395	13239.33
832.722	13292.88
833.048	13115.94
833.374	13197.97
833.7	13113.68
834.026	13183.96
834.351	13129.05
834.677	13143.51
835.003	13238.88
835.329	13144.64
835.654	13130.18
835.98	13056.96
836.306	13036.62
836.631	13024.64
836.956	13033.68
837.282	13065.77
837.607	12956.17
837.932	12951.2
838.258	12911.65
838.583	12912.33
838.908	12889.96
839.233	12846.12
839.558	12849.96
839.883	12790.53
840.208	12815.84
840.533	12755.5
840.858	12841.82
841.182	12786.68
841.507	12740.13
841.832	12642.28
842.156	12618.1
842.481	12633.47
842.805	12571.1
843.13	12546.24
843.454	12503.98
843.778	12454.94
844.103	12458.56
844.427	12405.68
844.751	12496.52
845.075	12405.68
845.399	12407.26
845.723	12296.53
846.047	12302.63
846.371	12217.88
846.695	12196.64
847.019	12054.73
847.343	12079.13
847.666	11983.31
847.99	11951
848.313	11879.14
848.637	11873.04
848.96	11846.6
849.284	11748.29
849.607	11736.09
849.931	11709.65
850.254	11655.19
850.577	11566.83
850.9	11470.33
851.223	11490.22
851.546	11383.33
851.869	11348.3
852.192	11381.75
852.515	11259.49
852.838	11198.02
853.161	11238.48
853.483	11177.46
853.806	11158.03
854.129	11104.02
854.451	11065.37
854.774	11052.72
855.096	11004.58
855.419	11024.02
855.741	10916.22
856.063	10902.67
856.385	10778.15
856.708	10839.39
857.03	10767.98
857.352	10815.44
857.674	10789
857.996	10648.89
858.318	10697.02
858.64	10672.16
858.961	10650.02
859.283	10533.86
859.605	10547.42
859.926	10534.99
860.248	10441.66
860.57	10482.11
860.891	10410.7
861.212	10403.47
861.534	10414.09
861.855	10366.63
862.176	10363.92
862.498	10442.34
862.819	10339.52
863.14	10296.35
863.461	10212.97
863.782	10215.23
864.103	10241.44
864.424	10227.2
864.745	10202.34
865.065	10116.47
865.386	10118.51
865.707	10154.89
866.027	10078.96
866.348	10136.13
866.668	10038.06
866.989	10026.53
867.309	9988.34
867.63	10022.46
867.95	10026.3
868.27	9922.58
868.59	9968.68
868.91	9993.08
869.23	9942.01
869.55	9887.32
869.87	9920.54
870.19	9879.64
870.51	9933.43
870.83	9906.08
871.15	9825.86
871.469	9816.37
871.789	9845.74
872.109	9825.86
872.428	9783.37
872.748	9778.18
873.067	9739.31
873.386	9740.66
873.706	9740.44
874.025	9646.2
874.344	9724.39
874.663	9702.47
874.982	9640.55
875.301	9649.59
875.62	9637.16
875.939	9596.71
876.258	9530.95
876.577	9558.97
876.896	9487.79
877.214	9501.12
877.533	9508.8
877.852	9427.9
878.17	9500.22
878.489	9527.79
878.807	9464.74
879.125	9448.24
879.444	9413.89
879.762	9440.33
880.08	9382.48
880.398	9412.76
880.716	9330.5
881.034	9312.2
881.352	9329.37
881.67	9363.72
881.988	9290.28
882.306	9288.47
882.624	9245.99
882.941	9205.53
883.259	9204.86
883.577	9140.45
883.894	9190.62
884.212	9114.69
884.529	9105.2
884.846	9052.09
885.164	9069.04
885.481	9039.21
885.798	9117.63
886.115	8971.42
886.432	8955.6
886.75	8960.57
887.067	9018.65
887.383	8832.89
887.7	8905.88
888.017	8911.08
888.334	8926.45
888.651	8880.35
888.967	8841.93
889.284	8770.97
889.6	8707.69
889.917	8669.73
890.233	8771.2
890.55	8665.66
890.866	8688.03
891.182	8617.3
891.498	8625.66
891.815	8571.2
892.131	8563.74
892.447	8514.93
892.763	8468.38
893.079	8511.77
893.395	8407.36
893.71	8446.01
894.026	8427.02
894.342	8385.44
894.657	8319.23
894.973	8311.1
895.289	8298.44
895.604	8243.53
895.92	8224.77
896.235	8260.02
896.55	8247.82
896.865	8153.81
897.181	8216.41
897.496	8120.82
897.811	8152.23
898.126	8070.42
898.441	8036.53
898.756	8020.26
899.071	7932.57
899.386	7990.2
899.7	7943.87
900.015	7842.41
900.33	7881.73
900.644	7825.01
900.959	7814.61
901.273	7761.73
901.588	7779.81
901.902	7699.36
902.216	7696.65
902.531	7631.11
902.845	7633.15
903.159	7595.63
903.473	7560.15
903.787	7558.12
904.101	7478.8
904.415	7481.74
904.729	7470.67
905.042	7461.85
905.356	7415.98
905.67	7417.11
905.984	7373.72
906.297	7334.17
906.611	7335.3
906.924	7284.46
907.237	7298.69
907.551	7182.54
907.864	7202.2
908.177	7138.92
908.491	7051.92
908.804	7120.62
909.117	7080.39
909.43	7005.37
909.743	7025.48
910.056	6994.75
910.368	6957.01
910.681	6924.01
910.994	6897.57
911.307	6877.23
911.619	6854.64
911.932	6872.26
912.244	6790.46
912.557	6793.17
912.869	6739.16
913.181	6719.27
913.494	6702.55
913.806	6658.48
914.118	6674.3
914.43	6636.56
914.742	6561.54
915.054	6621.42
915.366	6510.92
915.678	6490.35
915.99	6408.09
916.302	6482.44
916.613	6405.83
916.925	6364.25
917.236	6404.7
917.548	6322.67
917.859	6354.54
918.171	6333.52
918.482	6265.73
918.794	6211.72
919.105	6214.43
919.416	6204.03
919.727	6103.92
920.038	6143.24
920.349	6107.99
920.66	6006.75
920.971	6103.02
921.282	6067.54
921.593	5998.16
921.903	5946.86
922.214	6011.49
922.525	6001.78
922.835	5966.3
923.146	5838.39
923.456	5849.24
923.767	5852.4
924.077	5825.28
924.387	5822.57
924.697	5754.55
925.008	5771.27
925.318	5702.35
925.628	5724.5
925.938	5650.6
926.248	5637.04
926.558	5638.4
926.867	5573.31
927.177	5564.27
927.487	5542.35
927.796	5534.22
928.106	5502.81
928.416	5461
928.725	5470.27
929.034	5435.24
929.344	5398.63
929.653	5436.14
929.962	5366.54
930.271	5335.13
930.581	5368.8
930.89	5288.35
931.199	5278.41
931.508	5272.76
931.817	5250.16
932.125	5224.62
932.434	5181.01
932.743	5127
933.051	5127.22
933.36	5145.3
933.669	5111.63
933.977	5064.63
934.286	5069.82
934.594	5068.02
934.902	5053.33
935.21	4971.97
935.519	4921.13
935.827	4912.54
936.135	4938.08
936.443	4903.05
936.751	4892.88
937.059	4862.82
937.367	4798.87
937.674	4786.67
937.982	4780.11
938.29	4783.28
938.597	4789.15
938.905	4787.57
939.213	4728.36
939.52	4672.09
939.827	4692.43
940.135	4645.2
940.442	4628.48
940.749	4637.75
941.056	4637.97
941.363	4576.73
941.67	4581.93
941.977	4571.31
942.284	4477.07
942.591	4535.15
942.898	4471.65
943.205	4490.63
943.511	4441.14
943.818	4466
944.125	4387.81
944.431	4417.41
944.738	4386.23
945.044	4375.61
945.35	4309.17
945.657	4329.96
945.963	4286.12
946.269	4263.29
946.575	4269.39
946.881	4279.56
947.187	4201.6
947.493	4223.52
947.799	4153.92
948.105	4196.17
948.41	4173.58
948.716	4105.33
949.022	4101.71
949.327	4089.96
949.633	4070.53
949.938	4055.84
950.244	4082.51
950.549	3982.4
950.854	3996.41
951.16	3986.91
951.465	4007.71
951.77	3983.98
952.075	3930.42
952.38	3938.1
952.685	3932.91
952.99	3875.28
953.294	3890.87
953.599	3859.46
953.904	3845.9
954.209	3779.46
954.513	3838.44
954.818	3806.35
955.122	3749.18
955.426	3771.33
955.731	3746.7
956.035	3747.6
956.339	3684.32
956.643	3713.48
956.948	3682.74
957.252	3674.83
957.556	3659.24
957.86	3648.39
958.163	3663.53
958.467	3567.04
958.771	3610.65
959.075	3589.86
959.378	3554.16
959.682	3546.02
959.985	3509.19
960.289	3513.26
960.592	3471.45
960.896	3468.96
961.199	3466.25
961.502	3443.2
961.805	3437.1
962.108	3388.96
962.411	3426.25
962.714	3358.68
963.017	3396.65
963.32	3368.17
963.623	3351.9
963.926	3334.5
964.228	3292.92
964.531	3326.37
964.833	3311
965.136	3269.42
965.438	3261.96
965.741	3252.24
966.043	3275.97
966.345	3231.45
966.648	3214.05
966.95	3196.43
967.252	3188.97
967.554	3155.98
967.856	3178.12
968.158	3111.01
968.46	3129.99
968.761	3141.51
969.063	3108.75
969.365	3104.23
969.666	3104
969.968	3038.69
970.269	3060.16
970.571	3021.06
970.872	3019.71
971.174	2977.68
971.475	2992.82
971.776	2990.1
972.077	2971.8
972.378	2955.3
972.679	2952.82
972.98	2918.02
973.281	2908.98
973.582	2901.52
973.883	2873.05
974.183	2899.49
974.484	2871.92
974.785	2849.77
975.085	2843.89
975.386	2861.75
975.686	2841.86
975.986	2819.71
976.287	2795.31
976.587	2751.92
976.887	2766.16
977.187	2769.77
977.487	2746.5
977.787	2737.23
978.087	2715.99
978.387	2692.94
978.687	2666.05
978.987	2697.68
979.286	2655.88
979.586	2685.48
979.885	2621.53
980.185	2647.29
980.484	2600.74
980.784	2638.93
981.083	2604.8
981.382	2614.3
981.682	2575.2
981.981	2580.85
982.28	2520.29
982.579	2537.01
982.878	2536.33
983.177	2518.7
983.475	2480.97
983.774	2527.97
984.073	2473.51
984.372	2489.33
984.67	2499.27
984.969	2451.59
985.267	2469.67
985.566	2426.73
985.864	2436
986.162	2414.3
986.461	2386.96
986.759	2379.95
987.057	2344.92
987.355	2377.47
987.653	2360.97
987.951	2384.92
988.249	2339.73
988.547	2348.77
988.844	2335.21
989.142	2314.19
989.44	2298.37
989.737	2283.46
990.035	2265.15
990.332	2284.81
990.63	2277.81
990.927	2269.45
991.224	2254.08
991.521	2250.92
991.819	2224.25
992.116	2185.38
992.413	2202.1
992.71	2175.44
993.006	2165.72
993.303	2177.92
993.6	2170.92
993.897	2142.22
994.193	2138.6
994.49	2115.33
994.787	2110.35
995.083	2096.12
995.379	2084.82
995.676	2102.67
995.972	2101.31
996.268	2067.42
996.565	2061.54
996.861	2047.3
997.157	2045.72
997.453	2010.47
997.749	2019.74
998.044	1998.72
998.34	2020.64
998.636	2014.76
998.932	2033.75
999.227	1998.49
999.523	2005.05
999.818	1943.13
1000.114	1916.69
1000.409	1920.3
1000.704	1913.98
1001	1927.99
1001.295	1888.44
1001.59	1897.25
1001.885	1900.64
1002.18	1866.52
1002.475	1867.65
1002.77	1851.83
1003.065	1861.55
1003.359	1854.99
1003.654	1847.08
1003.949	1848.44
1004.243	1813.64
1004.538	1797.37
1004.832	1781.32
1005.127	1767.99
1005.421	1800.76
1005.715	1745.39
1006.009	1765.5
1006.304	1736.13
1006.598	1750.82
1006.892	1734.32
1007.186	1708.1
1007.48	1697.94
1007.773	1680.08
1008.067	1689.35
1008.361	1688.67
1008.655	1662
1008.948	1660.65
1009.242	1654.55
1009.535	1629.24
1009.829	1610.71
1010.122	1590.14
1010.415	1626.07
1010.708	1622.23
1011.001	1572.74
1011.295	1586.07
1011.588	1557.37
1011.881	1549.46
1012.173	1567.09
1012.466	1577.49
1012.759	1515.34
1013.052	1541.1
1013.344	1526.64
1013.637	1506.75
1013.93	1493.2
1014.222	1510.82
1014.514	1498.84
1014.807	1458.17
1015.099	1491.39
1015.391	1461.33
1015.683	1472.18
1015.976	1433.76
1016.268	1454.55
1016.56	1413.42
1016.851	1402.8
1017.143	1429.69
1017.435	1394.44
1017.727	1413.88
1018.018	1394.44
1018.31	1370.49
1018.602	1378.4
1018.893	1357.83
1019.185	1358.28
1019.476	1362.35
1019.767	1358.28
1020.058	1316.48
1020.35	1328.23
1020.641	1315.57
1020.932	1310.38
1021.223	1299.98
1021.514	1294.78
1021.804	1299.75
1022.095	1294.78
1022.386	1273.31
1022.677	1225.63
1022.967	1255.01
1023.258	1248.46
1023.548	1251.39
1023.839	1253.2
1024.129	1235.35
1024.419	1217.04
1024.709	1225.63
1025	1205.97
1025.29	1205.75
1025.58	1197.61
1025.87	1158.97
1026.16	1172.75
1026.449	1136.82
1026.739	1152.19
1027.029	1138.18
1027.319	1104.73
1027.608	1133.66
1027.898	1124.84
1028.187	1101.57
1028.477	1090.72
1028.766	1072.64
1029.055	1111.28
1029.344	1114
1029.634	1079.19
1029.923	1082.81
1030.212	1080.55
1030.501	1082.81
1030.79	1071.96
1031.078	1050.72
1031.367	1057.5
1031.656	1053.88
1031.945	1017.73
1032.233	1019.54
1032.522	1010.95
1032.81	1029.25
1033.099	1011.4
1033.387	1009.37
1033.675	991.97
1033.963	965.75
1034.251	1003.04
1034.54	974.34
1034.828	958.52
1035.116	944.74
1035.403	962.36
1035.691	943.38
1035.979	922.59
1036.267	948.12
1036.554	937.73
1036.842	893.44
1037.129	907.9
1037.417	930.5
1037.704	926.43
1037.992	890.27
1038.279	893.44
1038.566	894.34
1038.853	894.34
1039.14	894.34
