Data from hue_180_FLMS001491_00057.txt Node
Date: Tue Feb 07 16:47:11 GMT 2017
User: dcchb
Spectrometer: FLMS00149
Trigger mode: 0
Integration Time (sec): 2.000000E-2
Scans to average: 10
Electric dark correction enabled: true
Nonlinearity correction enabled: false
Boxcar width: 0
XAxis mode: Wavelengths
Number of Pixels in Spectrum: 2048
>>>>>Begin Spectral Data<<<<<
341.393	-2.44
341.776	-2.44
342.16	-2.44
342.543	-66.62
342.927	-60.3
343.31	-71.59
343.693	-76.79
344.077	-58.49
344.46	-52.61
344.843	-54.19
345.226	-41.99
345.61	-53.06
345.993	-22.78
346.376	-0.86
346.759	8.4
347.142	39.82
347.525	58.35
347.908	64
348.291	76.88
348.674	84.11
349.057	100.83
349.44	142.86
349.823	156.87
350.206	167.72
350.588	184.67
350.971	207.27
351.354	235.29
351.737	229.64
352.119	238.68
352.502	268.28
352.884	279.13
353.267	263.76
353.65	300.15
354.032	305.35
354.414	307.83
354.797	308.06
355.179	318.9
355.562	313.71
355.944	319.81
356.326	349.19
356.709	332.46
357.091	349.19
357.473	330.43
357.855	327.04
358.238	347.83
358.62	315.29
359.002	331.33
359.384	344.89
359.766	355.29
360.148	321.39
360.53	343.54
360.912	338.79
361.294	342.18
361.676	314.61
362.057	344.89
362.439	327.49
362.821	315.97
363.203	318.23
363.584	327.49
363.966	327.04
364.348	331.11
364.729	334.72
365.111	327.72
365.493	305.8
365.874	315.51
366.256	318
366.637	325.68
367.019	302.86
367.4	311.9
367.781	313.71
368.163	310.09
368.544	308.06
368.925	298.11
369.306	318.68
369.688	302.63
370.069	310.32
370.45	287.49
370.831	316.42
371.212	311.22
371.593	310.77
371.974	316.64
372.355	319.13
372.736	312.8
373.117	308.51
373.498	315.51
373.879	313.03
374.26	309.64
374.641	315.06
375.021	312.12
375.402	301.28
375.783	342.63
376.163	314.16
376.544	320.26
376.925	315.97
377.305	322.29
377.686	326.59
378.066	310.32
378.447	317.1
378.827	319.36
379.208	306.47
379.588	326.59
379.968	327.27
380.349	339.92
380.729	326.81
381.109	343.99
381.489	336.53
381.87	333.82
382.25	333.14
382.63	338.56
383.01	347.83
383.39	340.15
383.77	341.73
384.15	347.38
384.53	338.56
384.91	348.73
385.29	315.29
385.67	332.01
386.049	332.01
386.429	362.52
386.809	333.59
387.189	334.72
387.568	339.92
387.948	356.42
388.328	350.32
388.707	367.26
389.087	372.91
389.466	369.52
389.846	353.93
390.225	360.71
390.605	356.87
390.984	370.65
391.363	360.48
391.743	349.41
392.122	378.11
392.501	363.65
392.881	379.24
393.26	358.45
393.639	360.03
394.018	384.21
394.397	370.43
394.776	377.89
395.155	375.63
395.534	384.89
395.913	369.07
396.292	386.92
396.671	376.53
397.05	383.76
397.429	393.25
397.808	377.43
398.186	398.68
398.565	388.51
398.944	376.3
399.323	373.59
399.701	393.25
400.08	397.77
400.458	415.85
400.837	395.74
401.215	408.39
401.594	428.96
401.972	405.23
402.351	394.38
402.729	392.8
403.107	405.46
403.486	413.82
403.864	417.88
404.242	442.52
404.62	451.33
404.999	431.67
405.377	446.13
405.755	425.12
406.133	440.48
406.511	448.17
406.889	436.19
407.267	473.25
407.645	443.87
408.023	470.09
408.401	477.32
408.779	484.1
409.156	504.89
409.534	506.7
409.912	508.28
410.29	506.02
410.667	502.4
411.045	499.24
411.422	508.96
411.8	525.45
412.178	527.49
412.555	534.04
412.933	536.75
413.31	545.11
413.687	559.35
414.065	545.34
414.442	569.07
414.819	582.63
415.197	591.67
415.574	583.98
415.951	601.61
416.328	602.74
416.705	598.22
417.082	603.19
417.46	620.37
417.837	620.82
418.214	640.93
418.591	634.15
418.967	643.64
419.344	683.19
419.721	647.71
420.098	655.62
420.475	673.02
420.852	687.03
421.228	718.89
421.605	699.46
421.982	743.75
422.358	733.81
422.735	736.07
423.111	726.8
423.488	781.94
423.864	777.65
424.241	772.23
424.617	795.5
424.994	797.76
425.37	790.08
425.746	832.79
426.123	828.72
426.499	844.31
426.875	834.82
427.251	844.77
427.627	878.21
428.003	878.44
428.379	887.7
428.756	916.18
429.132	932.67
429.507	928.15
429.883	928.83
430.259	938.77
430.635	948.94
431.011	968.38
431.387	992.56
431.763	999.34
432.138	987.36
432.514	1025.1
432.89	1036.17
433.265	1051.77
433.641	1059.9
434.016	1073.01
434.392	1072.1
434.767	1073.69
435.143	1106
435.518	1158.43
435.894	1152.78
436.269	1176.06
436.644	1186.23
437.02	1216.96
437.395	1215.6
437.77	1236.17
438.145	1255.83
438.52	1280.46
438.895	1273.46
439.271	1289.5
439.646	1319.56
440.021	1353.23
440.395	1332.21
440.77	1380.12
441.145	1403.4
441.52	1411.08
441.895	1435.71
442.27	1412.43
442.645	1435.71
443.019	1459.44
443.394	1475.48
443.769	1503.96
444.143	1479.55
444.518	1497.18
444.892	1513.67
445.267	1528.82
445.641	1565.65
446.016	1541.7
446.39	1566.33
446.764	1576.05
447.139	1568.36
447.513	1612.2
447.887	1614.46
448.262	1623.05
448.636	1642.49
449.01	1663.5
449.384	1690.62
449.758	1688.59
450.132	1711.41
450.506	1755.7
450.88	1741.47
451.254	1769.49
451.628	1774.91
452.002	1789.15
452.376	1817.85
452.75	1811.29
453.123	1825.98
453.497	1862.37
453.871	1893.78
454.244	1906.21
454.618	1918.86
454.992	1977.62
455.365	1962.7
455.739	1996.83
456.112	1995.7
456.486	2024.62
456.859	2066.65
457.232	2094.9
457.606	2099.42
457.979	2137.61
458.352	2181
458.725	2184.17
459.099	2229.81
459.472	2287.44
459.845	2300.09
460.218	2316.82
460.591	2303.03
460.964	2346.65
461.337	2396.36
461.71	2428
462.083	2455.57
462.456	2487.66
462.829	2506.87
463.201	2560.43
463.574	2542.12
463.947	2554.1
464.32	2680.88
464.692	2665.06
465.065	2709.58
465.438	2716.36
465.81	2790.93
466.183	2812.4
466.555	2851.94
466.928	2851.94
467.3	2893.75
467.672	2935.56
468.045	2978.5
468.417	3027.31
468.789	3085.61
469.161	3119.28
469.534	3173.97
469.906	3241.99
470.278	3263.91
470.65	3288.32
471.022	3359.95
471.394	3411.7
471.766	3481.98
472.138	3501.87
472.51	3560.63
472.882	3608.31
473.253	3705.48
473.625	3718.81
473.997	3862.99
474.369	3871.13
474.74	3962.65
475.112	4009.65
475.484	4067.51
475.855	4240.61
476.227	4173.27
476.598	4405.35
476.97	4381.62
477.341	4519.25
477.713	4599.24
478.084	4621.62
478.455	4789.29
478.827	4820.48
479.198	4907.71
479.569	4954.71
479.94	5152
480.311	5148.16
480.682	5303.41
481.053	5422.72
481.424	5518.09
481.795	5598.31
482.166	5719.67
482.537	5776.16
482.908	5948.36
483.279	6007.12
483.65	6198.75
484.021	6194
484.391	6310.16
484.762	6435.13
485.133	6468.35
485.503	6562.58
485.874	6728.23
486.244	6847.55
486.615	6981.1
486.985	7003.25
487.356	7220.42
487.726	7296.35
488.097	7427.19
488.467	7457.25
488.837	7549.67
489.207	7683.23
489.578	7866.05
489.948	7913.96
490.318	8012.26
490.688	8139.72
491.058	8203.22
491.428	8344.91
491.798	8434.4
492.168	8614.51
492.538	8566.6
492.908	8753.94
493.278	8904.89
493.648	8898.79
494.017	9005.46
494.387	9136.3
494.757	9118.22
495.126	9261.27
495.496	9299.01
495.866	9342.62
496.235	9509.62
496.605	9622.61
496.974	9601.15
497.344	9706.91
497.713	9802.72
498.082	9834.59
498.452	9891.08
498.821	9931.08
499.19	10005.88
499.559	10149.61
499.928	10172.2
500.298	10229.15
500.667	10272.77
501.036	10247.23
501.405	10384.85
501.774	10275.7
502.143	10473.89
502.512	10524.29
502.88	10556.6
503.249	10559.09
503.618	10590.72
503.987	10605.87
504.356	10658.75
504.724	10765.64
505.093	10786.43
505.462	10822.36
505.83	10830.94
506.199	10946.65
506.567	11037.94
506.936	10960.88
507.304	11100.99
507.672	11134.44
508.041	11120.65
508.409	11273.64
508.777	11295.11
509.145	11273.64
509.514	11251.72
509.882	11300.08
510.25	11344.38
510.618	11425.73
510.986	11362.91
511.354	11373.75
511.722	11503.24
512.09	11546.63
512.458	11570.36
512.826	11601.77
513.193	11600.64
513.561	11569.68
513.929	11668.44
514.297	11743.46
514.664	11809.22
515.032	11752.95
515.4	11879.5
515.767	11836.57
516.135	11827.53
516.502	11739.17
516.869	11982.1
517.237	11808.09
517.604	11789.11
517.972	11950.69
518.339	11953.63
518.706	11951.14
519.073	11911.82
519.44	11859.84
519.808	12017.81
520.175	11963.57
520.542	12006.28
520.909	12034.3
521.276	12022.78
521.643	12041.76
522.009	12149.78
522.376	12168.54
522.743	12203.79
523.11	12262.54
523.477	12277.01
523.843	12309.32
524.21	12297.8
524.577	12367.63
524.943	12340.28
525.31	12315.42
525.676	12360.4
526.043	12342.77
526.409	12391.81
526.776	12510.45
527.142	12479.04
527.508	12413.73
527.874	12510.45
528.241	12507.28
528.607	12429.32
528.973	12495.98
529.339	12360.62
529.705	12473.39
530.071	12494.18
530.437	12437.68
530.803	12370.79
531.169	12461.18
531.535	12366.5
531.901	12416.89
532.267	12399.94
532.632	12331.47
532.998	12265.93
533.364	12366.95
533.73	12313.16
534.095	12306.61
534.461	12256.67
534.826	12183.45
535.192	12208.08
535.557	12254.64
535.923	12180.29
536.288	12128.09
536.653	12156.11
537.019	12005.38
537.384	12157.91
537.749	11927.41
538.114	11989.56
538.479	11889
538.845	11967.41
539.21	11875.66
539.575	11838.38
539.94	11781.65
540.305	11819.39
540.67	11757.02
541.034	11665.05
541.399	11690.81
541.764	11693.75
542.129	11604.93
542.494	11647.42
542.858	11571.04
543.223	11478.38
543.587	11463.7
543.952	11398.39
544.316	11411.04
544.681	11296.69
545.045	11223.02
545.41	11294.43
545.774	11273.64
546.138	11209.92
546.503	11122.24
546.867	11067.77
547.231	11155.23
547.595	11009.7
547.959	11013.31
548.324	11015.35
548.688	10906.65
549.052	10892.19
549.416	10947.1
549.779	10792.75
550.143	10785.52
550.507	10795.92
550.871	10741.91
551.235	10693.77
551.599	10715.69
551.962	10648.58
552.326	10591.18
552.689	10616.26
553.053	10468.69
553.417	10466.89
553.78	10583.04
554.143	10443.84
554.507	10458.3
554.87	10368.58
555.234	10405.42
555.597	10354.35
555.96	10303.05
556.323	10303.5
556.686	10281.13
557.05	10315.93
557.413	10314.12
557.776	10295.59
558.139	10253.11
558.502	10253.33
558.865	10199.55
559.228	10197.51
559.59	10223.5
559.953	10123.62
560.316	10223.28
560.679	10076.84
561.041	10157.74
561.404	10174.46
561.767	10170.17
562.129	10135.14
562.492	10233.22
562.854	10115.93
563.217	10110.29
563.579	10178.53
563.941	10163.62
564.304	10168.81
564.666	10225.54
565.028	10169.72
565.39	10136.72
565.753	10091.75
566.115	10121.58
566.477	10120.45
566.839	10082.94
567.201	10115.71
567.563	10155.93
567.925	10228.25
568.287	10165.42
568.648	10182.37
569.01	10214.46
569.372	10180.34
569.734	10140.34
570.095	10210.62
570.457	10185.31
570.819	10105.31
571.18	10174.92
571.542	10203.84
571.903	10254.24
572.265	10158.42
572.626	10181.7
572.987	10180.57
573.349	10213.33
573.71	10225.99
574.071	10212.2
574.432	10176.27
574.794	10219.43
575.155	10209.27
575.516	10152.09
575.877	10162.04
576.238	10202.49
576.599	10264.18
576.96	10182.37
577.32	10208.36
577.681	10259.89
578.042	10243.39
578.403	10192.09
578.763	10209.04
579.124	10239.1
579.485	10202.03
579.845	10249.72
580.206	10233.45
580.566	10209.72
580.927	10186.67
581.287	10303.05
581.648	10179.89
582.008	10293.78
582.368	10180.34
582.728	10212.2
583.089	10169.27
583.449	10192.77
583.809	10168.14
584.169	10156.39
584.529	10172.66
584.889	10241.36
585.249	10113.45
585.609	10120
585.969	10206.55
586.329	10100.34
586.688	10091.08
587.048	10042.72
587.408	10095.37
587.768	10054.24
588.127	10129.04
588.487	10016.28
588.846	10096.95
589.206	10047.91
589.565	10035.26
589.925	10049.27
590.284	9980.8
590.643	10031.42
591.003	9998.42
591.362	10023.73
591.721	9957.29
592.08	9962.72
592.44	10003.85
592.799	9983.73
593.158	9984.19
593.517	9878.65
593.876	9950.29
594.235	9967.46
594.593	9994.58
594.952	9900.8
595.311	9909.61
595.67	9931.53
596.029	10032.55
596.387	9960.23
596.746	9955.49
597.104	9908.03
597.463	9939.44
597.822	9949.16
598.18	9875.94
598.538	9873.68
598.897	9804.53
599.255	9799.78
599.613	9998.65
599.972	9866.22
600.33	9857.64
600.688	9800.46
601.046	9859.22
601.404	9889.27
601.762	9868.94
602.12	9877.97
602.478	9901.25
602.836	9904.87
603.194	9813.8
603.552	9910.29
603.91	9811.31
604.268	9915.04
604.625	9821.03
604.983	9868.71
605.341	9822.83
605.698	9879.78
606.056	9887.92
606.413	9828.94
606.771	9892.44
607.128	9874.13
607.485	9811.31
607.843	9818.09
608.2	9876.17
608.557	9870.97
608.914	9783.74
609.272	9907.8
609.629	9874.58
609.986	9913
610.343	9809.5
610.7	9897.64
611.057	9889.73
611.414	9907.35
611.771	9882.49
612.127	9916.84
612.484	9888.6
612.841	9933.57
613.198	9934.47
613.554	9890.18
613.911	10009.27
614.267	9964.98
614.624	9924.08
614.98	9985.32
615.337	9981.47
615.693	9984.41
616.05	9941.48
616.406	10034.81
616.762	9941.25
617.118	9985.09
617.475	9969.27
617.831	10090.4
618.187	10014.69
618.543	10013.11
618.899	10021.02
619.255	9951.42
619.611	10028.25
619.967	10077.29
620.323	10110.96
620.678	9999.1
621.034	10124.75
621.39	10024.64
621.746	9981.7
622.101	10107.8
622.457	10074.13
622.812	10065.09
623.168	10130.4
623.523	10115.03
623.879	10090.4
624.234	10000.46
624.589	10094.69
624.945	10033.68
625.3	10089.95
625.655	10110.74
626.01	10036.84
626.365	10106.22
626.72	9947.8
627.075	10027.12
627.43	9977.63
627.785	10003.4
628.14	10087.69
628.495	10079.33
628.85	10027.12
629.205	9914.58
629.559	9995.71
629.914	9951.42
630.269	10007.46
630.623	9963.62
630.978	9969.72
631.332	9982.15
631.687	9999.1
632.041	9944.19
632.396	9953.9
632.75	9931.08
633.104	9907.35
633.459	9901.7
633.813	9824.19
634.167	9853.12
634.521	9930.63
634.875	9837.07
635.229	9934.24
635.583	9799.33
635.937	9821.48
636.291	9792.55
636.645	9787.81
636.999	9735.15
637.352	9819.67
637.706	9717.75
638.06	9760.24
638.413	9711.2
638.767	9695.15
639.121	9788.03
639.474	9647.25
639.828	9644.08
640.181	9677.53
640.534	9659.45
640.888	9679.79
641.241	9589.85
641.594	9624.65
641.947	9638.88
642.301	9621.71
642.654	9552.79
643.007	9650.41
643.36	9574.93
643.713	9567.25
644.066	9611.54
644.419	9546.01
644.771	9479.79
645.124	9421.49
645.477	9435.95
645.83	9331.32
646.182	9286.8
646.535	9306.24
646.888	9304.66
647.24	9189.86
647.593	9298.1
647.945	9263.53
648.298	9209.52
648.65	9242.96
649.002	9208.16
649.355	9276.41
649.707	9283.41
650.059	9320.48
650.411	9367.71
650.763	9456.97
651.115	9486.8
651.467	9428.72
651.819	9466.69
652.171	9492.45
652.523	9456.52
652.875	9428.5
653.227	9409.51
653.578	9447.48
653.93	9493.8
654.282	9392.56
654.633	9395.28
654.985	9426.69
655.337	9519.57
655.688	9424.2
656.039	9464.2
656.391	9385.33
656.742	9436.18
657.094	9475.27
657.445	9519.34
657.796	9416.29
658.147	9476.63
658.498	9471.21
658.849	9554.37
659.2	9374.03
659.551	9509.85
659.902	9502.17
660.253	9498.1
660.604	9488.61
660.955	9434.37
661.306	9473.01
661.656	9517.08
662.007	9442.96
662.358	9482.28
662.708	9558.66
663.059	9511.88
663.409	9393.47
663.76	9516.4
664.11	9456.74
664.461	9438.44
664.811	9476.86
665.161	9470.08
665.511	9494.26
665.862	9474.82
666.212	9458.78
666.562	9503.07
666.912	9473.01
667.262	9483.63
667.612	9485.44
667.962	9497.65
668.312	9493.8
668.662	9551.2
669.011	9487.25
669.361	9534.93
669.711	9447.7
670.06	9511.66
670.41	9466.23
670.76	9415.84
671.109	9488.15
671.459	9488.15
671.808	9475.27
672.157	9457.42
672.507	9393.24
672.856	9424.88
673.205	9428.5
673.554	9427.14
673.904	9445.9
674.253	9455.16
674.602	9427.82
674.951	9206.81
675.3	9246.13
675.649	9287.48
675.998	9335.84
676.346	9355.28
676.695	9322.06
677.044	9269.18
677.393	9388.04
677.741	9463.97
678.09	9280.93
678.438	9315.05
678.787	9286.35
679.135	9295.17
679.484	9211.55
679.832	9233.92
680.181	9185.56
680.529	9243.19
680.877	9139.92
681.225	9183.3
681.573	9259.46
681.922	9183.3
682.27	9171.33
682.618	9127.71
682.966	9103.08
683.314	9086.36
683.661	9080.03
684.009	9030.31
684.357	9036.64
684.705	8989.64
685.053	9015.85
685.4	9039.58
685.748	8935.17
686.095	8933.14
686.443	8892.24
686.79	8943.54
687.138	8899.02
687.485	8883.65
687.832	8780.38
688.18	8795.52
688.527	8790.09
688.874	8784.67
689.221	8765.69
689.568	8679.81
689.915	8660.61
690.262	8697.67
690.609	8588.29
690.956	8588.07
691.303	8570.66
691.65	8535.64
691.997	8571.79
692.344	8489.08
692.69	8491.34
693.037	8473.04
693.383	8331.57
693.73	8405.02
694.077	8416.32
694.423	8310.33
694.769	8325.7
695.116	8287.06
695.462	8289.32
695.808	8247.74
696.155	8304.68
696.501	8197.34
696.847	8121.18
697.193	8054.29
697.539	8038.25
697.885	8111.47
698.231	8015.65
698.577	8054.07
698.923	8036.67
699.269	7944.24
699.614	7922.32
699.96	7906.73
700.306	7862.66
700.651	7909.89
700.997	7772.04
701.342	7800.74
701.688	7753.51
702.033	7673.29
702.379	7700.18
702.724	7692.72
703.069	7705.6
703.415	7585.38
703.76	7604.14
704.105	7592.61
704.45	7586.51
704.795	7528.66
705.14	7429.68
705.485	7400.53
705.83	7399.17
706.175	7424.25
706.52	7389.23
706.865	7344.26
707.209	7399.17
707.554	7347.65
707.899	7314.2
708.243	7286.18
708.588	7265.61
708.932	7254.31
709.277	7196.01
709.621	7193.07
709.966	7156.46
710.31	7134.32
710.654	7096.35
710.998	7090.7
711.342	7068.11
711.687	7025.17
712.031	7014.1
712.375	7059.97
712.719	7023.59
713.063	6978.84
713.407	7071.95
713.75	6994.89
714.094	6971.84
714.438	6950.37
714.782	6950.82
715.125	6957.37
715.469	6918.28
715.812	6944.27
716.156	6847.32
716.499	6840.09
716.843	6874.44
717.186	6839.64
717.53	6844.61
717.873	6888.45
718.216	6811.39
718.559	6798.06
718.902	6782.69
719.246	6774.55
719.589	6792.18
719.932	6744.05
720.275	6762.35
720.617	6731.39
720.96	6722.58
721.303	6767.77
721.646	6783.14
721.989	6719.19
722.331	6761.45
722.674	6665.86
723.016	6684.39
723.359	6715.8
723.701	6665.18
724.044	6631.51
724.386	6600.55
724.729	6612.98
725.071	6639.19
725.413	6656.82
725.755	6687.32
726.097	6596.25
726.439	6588.12
726.782	6577.95
727.124	6648.23
727.465	6618.17
727.807	6584.5
728.149	6653.43
728.491	6601.9
728.833	6630.6
729.175	6608.68
729.516	6619.08
729.858	6604.39
730.199	6610.94
730.541	6601.22
730.882	6542.92
731.224	6627.21
731.565	6612.98
731.906	6583.6
732.248	6605.07
732.589	6565.52
732.93	6593.77
733.271	6521.45
733.612	6565.52
733.953	6595.8
734.294	6626.99
734.635	6567.33
734.976	6586.54
735.317	6558.06
735.658	6587.44
735.999	6620.66
736.339	6564.62
736.68	6583.6
737.021	6577.27
737.361	6548.8
737.702	6620.66
738.042	6617.72
738.383	6631.05
738.723	6684.39
739.063	6626.99
739.404	6625.18
739.744	6648.23
740.084	6608.91
740.424	6679.64
740.764	6699.75
741.104	6717.38
741.444	6658.4
741.784	6647.55
742.124	6754.89
742.464	6748.79
742.804	6730.71
743.143	6825.63
743.483	6769.58
743.823	6766.87
744.162	6809.81
744.502	6863.82
744.841	6870.14
745.181	6935.68
745.52	6861.33
745.86	6976.81
746.199	6949.69
746.538	7037.15
746.877	7097.93
747.216	7109.69
747.556	7149.91
747.895	7204.82
748.234	7237.59
748.573	7290.92
748.911	7350.58
749.25	7457.47
749.589	7391.26
749.928	7471.26
750.267	7585.61
750.605	7650.01
750.944	7673.29
751.283	7745.15
751.621	7868.08
751.96	7959.16
752.298	8007.06
752.636	8122.31
752.975	8155.31
753.313	8259.03
753.651	8367.51
753.989	8458.8
754.327	8580.38
754.666	8595.3
755.004	8771.34
755.342	8819.25
755.679	9040.93
756.017	9081.61
756.355	9261.72
756.693	9355.28
757.031	9497.87
757.368	9636.17
757.706	9731.31
758.044	9904.87
758.381	10028.93
758.719	10129.27
759.056	10329.71
759.394	10583.72
759.731	10565.64
760.068	10765.86
760.405	10922.92
760.743	11050.15
761.08	11259.86
761.417	11440.65
761.754	11627.08
762.091	11719.73
762.428	11896.23
762.765	11981.65
763.102	12259.38
763.438	12367.17
763.775	12500.28
764.112	12697.11
764.449	12869.53
764.785	12999.02
765.122	13122.18
765.458	13240.37
765.795	13455.28
766.131	13628.61
766.467	13628.84
766.804	13869.51
767.14	13992.44
767.476	14110.18
767.812	14238.31
768.148	14469.49
768.485	14431.98
768.821	14627
769.157	14762.59
769.492	14875.58
769.828	14963.49
770.164	15036.48
770.5	15176.37
770.836	15245.07
771.171	15422.46
771.507	15376.36
771.842	15502.01
772.178	15663.81
772.513	15840.53
772.849	15893.41
773.184	15888.89
773.519	16141.99
773.855	16090.47
774.19	16071.03
774.525	16198.71
774.86	16298.14
775.195	16401.19
775.53	16438.03
775.865	16468.08
776.2	16424.24
776.535	16391.02
776.87	16513.05
777.205	16631.02
777.539	16563.45
777.874	16789.66
778.209	16756.89
778.543	16727.51
778.878	16725.48
779.212	16792.37
779.547	16750.11
779.881	16942.2
780.215	16868.07
780.55	16901.52
780.884	16905.13
781.218	16955.75
781.552	17044.79
781.886	16932.93
782.22	16989.88
782.554	16993.04
782.888	16875.98
783.222	16982.87
783.556	16816.1
783.889	16916.89
784.223	16782.43
784.557	16869.2
784.89	16978.13
785.224	16897.9
785.557	16829.43
785.891	16859.49
786.224	16868.53
786.558	16821.29
786.891	16763.22
787.224	16742.65
787.557	16677.57
787.891	16802.99
788.224	16704.91
788.557	16743.78
788.89	16725.7
789.223	16805.93
789.556	16669.89
789.888	16618.36
790.221	16641.64
790.554	16515.31
790.887	16623.79
791.219	16461.53
791.552	16508.53
791.884	16439.38
792.217	16422.66
792.549	16490
792.882	16307.64
793.214	16298.82
793.546	16357.35
793.879	16364.58
794.211	16205.49
794.543	16355.32
794.875	16153.06
795.207	16352.83
795.539	16194.42
795.871	16222.89
796.203	16102.44
796.535	15981.54
796.867	16026.29
797.198	15996.01
797.53	16021.32
797.862	15915.33
798.193	15911.71
798.525	15892.51
798.856	15908.55
799.188	15731.83
799.519	15725.5
799.85	15698.39
800.182	15713.98
800.513	15743.13
800.844	15588.33
801.175	15607.99
801.506	15658.84
801.837	15501.1
802.168	15518.5
802.499	15441.22
802.83	15414.1
803.161	15378.62
803.491	15364.38
803.822	15455.23
804.153	15286.65
804.483	15181.11
804.814	15170.04
805.145	15253.88
805.475	15163.03
805.805	15132.07
806.136	15098.63
806.466	15219.76
806.796	15125.07
807.126	14912.42
807.457	14926.2
807.787	14999.2
808.117	14929.37
808.447	14805.53
808.777	14875.13
809.107	14874.45
809.436	14805.75
809.766	14758.07
810.096	14757.62
810.426	14669.94
810.755	14688.7
811.085	14628.58
811.414	14678.07
811.744	14563.73
812.073	14480.34
812.403	14585.42
812.732	14454.13
813.061	14446.89
813.39	14372.09
813.719	14375.71
814.049	14425.43
814.378	14264.3
814.707	14302.49
815.036	14297.52
815.365	14211.65
815.693	14108.37
816.022	14109.05
816.351	14041.71
816.68	14041.71
817.008	14093.91
817.337	13997.41
817.665	14035.83
817.994	13944.53
818.322	13928.72
818.651	13937.98
818.979	13860.47
819.307	13942.95
819.636	13933.91
819.964	13810.3
820.292	13923.07
820.62	13847.14
820.948	13827.48
821.276	13842.39
821.604	13805.78
821.932	13887.81
822.259	13813.24
822.587	13861.82
822.915	13756.06
823.243	13814.59
823.57	13821.37
823.898	13796.29
824.225	13754.71
824.553	13759.91
824.88	13775.73
825.207	13877.19
825.535	13760.36
825.862	13905.67
826.189	13680.36
826.516	13862.28
826.843	13882.84
827.17	13872.9
827.497	13897.76
827.824	13852.56
828.151	13893.69
828.478	13840.58
828.805	13902.05
829.131	13834.25
829.458	13851.88
829.785	13831.77
830.111	13834.25
830.438	13919.9
830.764	13862.28
831.09	13869.73
831.417	13752.9
831.743	13849.4
832.069	13790.87
832.395	13833.58
832.722	13927.13
833.048	13770.53
833.374	13819.79
833.7	13673.81
834.026	13744.77
834.351	13857.98
834.677	13740.25
835.003	13713.81
835.329	13781.15
835.654	13763.75
835.98	13620.02
836.306	13721.72
836.631	13628.38
836.956	13651.66
837.282	13632.45
837.607	13535.05
837.932	13629.97
838.258	13566.24
838.583	13459.58
838.908	13521.49
839.233	13564.43
839.558	13492.57
839.883	13416.86
840.208	13351.33
840.533	13410.76
840.858	13390.88
841.182	13373.48
841.507	13370.09
841.832	13228.4
842.156	13249.41
842.481	13323.31
842.805	13249.64
843.13	13247.6
843.454	13241.73
843.778	13152.69
844.103	13083.31
844.427	13058.23
844.751	13149.53
845.075	13027.27
845.399	13036.54
845.723	12958.57
846.047	12975.75
846.371	12815.3
846.695	12896.2
847.019	12712.02
847.343	12679.93
847.666	12601.52
847.99	12616.66
848.313	12549.99
848.637	12494.4
848.96	12490.56
849.284	12448.08
849.607	12377.12
849.931	12274.3
850.254	12276.56
850.577	12121.76
850.9	12109.1
851.223	12084.7
851.546	12040.18
851.869	11966.06
852.192	11993.17
852.515	11946.62
852.838	11908.88
853.161	11799.73
853.483	11800.41
853.806	11764.48
854.129	11747.53
854.451	11686.51
854.774	11611.26
855.096	11689
855.419	11653.52
855.741	11550.7
856.063	11524.03
856.385	11466.86
856.708	11405.39
857.03	11430.25
857.352	11414.88
857.674	11378.05
857.996	11256.24
858.318	11204.27
858.64	11261.22
858.961	11257.6
859.283	11167.66
859.605	11135.79
859.926	11118.85
860.248	11085.63
860.57	11046.98
860.891	11066.87
861.212	11030.26
861.534	10918.85
861.855	10980.77
862.176	10927.21
862.498	10960.88
862.819	10956.36
863.14	10862.36
863.461	10844.28
863.782	10790.72
864.103	10760.44
864.424	10731.29
864.745	10821.45
865.065	10722.7
865.386	10630.05
865.707	10666.43
866.027	10686.99
866.348	10675.69
866.668	10675.02
866.989	10619.2
867.309	10571.97
867.63	10669.59
867.95	10589.37
868.27	10488.35
868.59	10470.28
868.91	10538.97
869.23	10491.29
869.55	10495.36
869.87	10458.3
870.19	10431.86
870.51	10489.94
870.83	10454.46
871.15	10420.56
871.469	10404.06
871.789	10393.67
872.109	10353.67
872.428	10293.78
872.748	10346.66
873.067	10246.78
873.386	10273.44
873.706	10285.65
874.025	10242.26
874.344	10167.01
874.663	10282.03
874.982	10170.4
875.301	10221.92
875.62	10172.66
875.939	10113.67
876.258	10204.52
876.577	10068.48
876.896	10068.93
877.214	10035.03
877.533	10097.63
877.852	10049.04
878.17	10023.51
878.489	10005.43
878.807	9963.17
879.125	9983.73
879.444	9913.68
879.762	9940.35
880.08	10032.77
880.398	9908.71
880.716	9940.35
881.034	9845.89
881.352	9878.2
881.67	9835.04
881.988	9793.91
882.306	9798.2
882.624	9688.15
882.941	9702.84
883.259	9743.97
883.577	9734.93
883.894	9647.47
884.212	9702.16
884.529	9664.42
884.846	9619
885.164	9660.35
885.481	9635.27
885.798	9558.44
886.115	9527.25
886.432	9510.53
886.75	9518.44
887.067	9534.25
887.383	9464.43
887.7	9485.67
888.017	9390.08
888.334	9337.2
888.651	9340.59
888.967	9373.58
889.284	9273.24
889.6	9246.13
889.917	9221.04
890.233	9182.4
890.55	9114.83
890.866	9169.07
891.182	9086.36
891.498	9091.1
891.815	9095.62
892.131	9008.62
892.447	9034.83
892.763	9005.23
893.079	9011.78
893.395	8921.62
893.71	8896.53
894.026	8878.45
894.342	8885.01
894.657	8753.26
894.973	8741.28
895.289	8843.65
895.604	8739.47
895.92	8651.11
896.235	8711.23
896.55	8717.33
896.865	8691.79
897.181	8535.19
897.496	8621.74
897.811	8557.33
898.126	8482.98
898.441	8473.94
898.756	8437.79
899.071	8409.99
899.386	8405.25
899.7	8404.12
900.015	8305.13
900.33	8335.19
900.644	8275.08
900.959	8261.75
901.273	8221.52
901.588	8166.83
901.902	8216.78
902.216	8112.37
902.531	8167.51
902.845	8029.66
903.159	8030.79
903.473	7972.04
903.787	7961.64
904.101	7904.92
904.415	7932.94
904.729	7931.13
905.042	7871.93
905.356	7886.61
905.67	7865.15
905.984	7796
906.297	7722.55
906.611	7695.21
906.924	7677.81
907.237	7670.12
907.551	7677.13
907.864	7614.53
908.177	7497.7
908.491	7500.41
908.804	7486.4
909.117	7398.72
909.43	7384.71
909.743	7339.74
910.056	7318.27
910.368	7372.05
910.681	7332.28
910.994	7275.78
911.307	7241.43
911.619	7181.32
911.932	7205.05
912.244	7146.97
912.557	7107.88
912.869	7075.34
913.181	7075.34
913.494	6999.41
913.806	7027.65
914.118	6993.98
914.43	6902.23
914.742	6937.94
915.054	6880.77
915.366	6834.89
915.678	6831.05
915.99	6793.76
916.302	6739.53
916.613	6754.67
916.925	6728.23
917.236	6713.76
917.548	6639.87
917.859	6671.73
918.171	6641
918.482	6603.48
918.794	6566.2
919.105	6586.76
919.416	6474
919.727	6510.83
920.038	6459.99
920.349	6444.84
920.66	6428.35
920.971	6421.34
921.282	6347.22
921.593	6337.05
921.903	6285.98
922.214	6297.5
922.525	6266.09
922.835	6212.31
923.146	6202.14
923.456	6150.16
923.767	6136.6
924.077	6094.57
924.387	6104.06
924.697	6060.67
925.008	6091.86
925.318	6003.5
925.628	5995.82
925.938	6002.82
926.248	5919.89
926.558	5959.21
926.867	5903.16
927.177	5895.93
927.487	5853
927.796	5802.83
928.106	5841.47
928.416	5777.29
928.725	5734.13
929.034	5734.35
929.344	5743.39
929.653	5733
929.962	5716.73
930.271	5649.16
930.581	5647.35
930.89	5595.15
931.199	5569.39
931.508	5543.63
931.817	5551.31
932.125	5593.12
932.434	5546.11
932.743	5432.44
933.051	5451.88
933.36	5422.95
933.669	5394.7
933.977	5398.09
934.286	5327.13
934.594	5361.94
934.902	5280.81
935.21	5270.86
935.519	5250.3
935.827	5257.98
936.135	5266.57
936.443	5191.32
936.751	5164.43
937.059	5157.42
937.367	5094.6
937.674	5157.65
937.982	5109.96
938.29	5125.78
938.597	5096.18
938.905	4969.4
939.213	5023.64
939.52	4989.97
939.827	4976.63
940.135	4951.78
940.442	4910.65
940.749	4954.71
941.056	4971.89
941.363	4880.37
941.67	4848.28
941.977	4816.19
942.284	4807.37
942.591	4785.45
942.898	4754.72
943.205	4741.61
943.511	4729.18
943.818	4725.79
944.125	4687.15
944.431	4634.27
944.738	4678.56
945.044	4648.73
945.35	4607.6
945.657	4589.53
945.963	4568.28
946.269	4495.52
946.575	4521.28
946.881	4527.15
947.187	4492.58
947.493	4488.51
947.799	4468.63
948.105	4424.11
948.41	4422.07
948.716	4361.06
949.022	4318.57
949.327	4407.38
949.633	4325.13
949.938	4286.48
950.244	4309.53
950.549	4304.34
950.854	4266.6
951.16	4230.67
951.465	4265.69
951.77	4242.42
952.075	4176.88
952.38	4183.66
952.685	4138.46
952.99	4109.99
953.294	4092.36
953.599	4156.09
953.904	4093.49
954.209	4091.23
954.513	4072.7
954.818	4040.16
955.122	3988.86
955.426	3984.8
955.731	3982.31
956.035	3908.19
956.339	3942.09
956.643	3930.56
956.948	3888.3
957.252	3897.12
957.556	3901.18
957.86	3867.96
958.163	3869.32
958.467	3845.82
958.771	3804.91
959.075	3816.89
959.378	3828.87
959.682	3771.47
959.985	3769.66
960.289	3780.06
960.592	3761.3
960.896	3715.65
961.199	3720.17
961.502	3689.21
961.805	3689.44
962.108	3651.47
962.411	3601.08
962.714	3615.77
963.017	3595.43
963.32	3603.11
963.623	3537.8
963.926	3586.84
964.228	3500.74
964.531	3523.79
964.833	3510.91
965.136	3501.87
965.438	3468.43
965.741	3465.94
966.043	3472.49
966.345	3450.12
966.648	3418.26
966.95	3393.17
967.252	3397.02
967.554	3366.28
967.856	3359.5
968.158	3325.15
968.46	3359.73
968.761	3324.93
969.063	3294.65
969.365	3325.38
969.666	3284.7
969.968	3245.15
970.269	3190.01
970.571	3229.11
970.872	3222.1
971.174	3175.78
971.475	3214.65
971.776	3178.26
972.077	3155.67
972.378	3157.47
972.679	3112.5
972.98	3094.2
973.281	3128.1
973.582	3096.01
973.883	3045.84
974.183	3090.36
974.484	3049
974.785	3028.44
975.085	3058.04
975.386	3000.19
975.686	2997.48
975.986	2975.56
976.287	2985.95
976.587	2950.47
976.887	2943.69
977.187	2931.72
977.487	2910.02
977.787	2907.08
978.087	2895.11
978.387	2873.41
978.687	2844.26
978.987	2844.71
979.286	2857.82
979.586	2816.47
979.885	2817.82
980.185	2785.05
980.484	2790.25
980.784	2770.59
981.083	2786.64
981.382	2750.7
981.682	2741.67
981.981	2727.43
982.28	2697.37
982.579	2693.76
982.878	2734.43
983.177	2695.34
983.475	2705.51
983.774	2676.36
984.073	2651.27
984.372	2611.73
984.67	2649.69
984.969	2583.7
985.267	2617.15
985.566	2585.74
985.864	2596.13
986.162	2571.73
986.461	2552.74
986.759	2565.62
987.057	2533.54
987.355	2510.71
987.653	2527.43
987.951	2481.33
988.249	2518.62
988.547	2510.03
988.844	2477.04
989.142	2462.12
989.44	2407.21
989.737	2394.1
990.035	2421.45
990.332	2407.21
990.63	2393.2
990.927	2428.91
991.224	2394.78
991.521	2386.87
991.819	2338.29
992.116	2326.31
992.413	2337.61
992.71	2361.56
993.006	2356.82
993.303	2310.94
993.6	2304.61
993.897	2298.51
994.193	2266.65
994.49	2265.75
994.787	2246.31
995.083	2252.64
995.379	2236.37
995.676	2197.72
995.972	2206.54
996.268	2225.97
996.565	2169.25
996.861	2189.14
997.157	2134.9
997.453	2152.75
997.749	2154.11
998.044	2138.97
998.34	2145.97
998.636	2131.06
998.932	2123.15
999.227	2078.18
999.523	2099.42
999.818	2059.42
1000.114	2049.03
1000.409	2044.96
1000.704	2037.28
1001	2015.13
1001.295	2033.89
1001.59	1997.96
1001.885	1985.3
1002.18	1997.28
1002.475	1973.1
1002.77	1966.77
1003.065	1959.09
1003.359	1897.85
1003.654	1945.3
1003.949	1919.09
1004.243	1907.79
1004.538	1914.34
1004.832	1877.73
1005.127	1866.89
1005.421	1874.57
1005.715	1862.82
1006.009	1876.38
1006.304	1849.26
1006.598	1838.19
1006.892	1868.02
1007.186	1829.82
1007.48	1791.41
1007.773	1780.79
1008.067	1769.26
1008.361	1760.67
1008.655	1737.62
1008.948	1727.23
1009.242	1757.51
1009.535	1737.4
1009.829	1748.24
1010.122	1702.6
1010.415	1699.43
1010.708	1696.04
1011.001	1651.52
1011.295	1684.52
1011.588	1696.27
1011.881	1662.15
1012.173	1626.44
1012.466	1615.14
1012.759	1654.01
1013.052	1627.12
1013.344	1611.75
1013.637	1588.02
1013.93	1604.52
1014.222	1585.31
1014.514	1552.77
1014.807	1563.17
1015.099	1542.6
1015.391	1555.03
1015.683	1534.24
1015.976	1485.2
1016.268	1508.7
1016.56	1513.22
1016.851	1466.44
1017.143	1480.68
1017.435	1489.49
1017.727	1455.15
1018.018	1427.8
1018.31	1457.18
1018.602	1429.61
1018.893	1440
1019.185	1441.13
1019.476	1413.79
1019.767	1401.59
1020.058	1416.28
1020.35	1394.13
1020.641	1355.49
1020.932	1391.42
1021.223	1378.99
1021.514	1363.17
1021.804	1321.36
1022.095	1337.18
1022.386	1328.6
1022.677	1311.65
1022.967	1334.7
1023.258	1311.19
1023.548	1287.47
1023.839	1275.49
1024.129	1264.42
1024.419	1268.03
1024.709	1248.82
1025	1263.74
1025.29	1264.42
1025.58	1222.16
1025.87	1224.19
1026.16	1221.48
1026.449	1230.97
1026.739	1200.46
1027.029	1212.44
1027.319	1172.21
1027.608	1190.97
1027.898	1158.2
1028.187	1191.65
1028.477	1162.95
1028.766	1166.57
1029.055	1139.45
1029.344	1124.08
1029.634	1129.5
1029.923	1101.48
1030.212	1159.56
1030.501	1136.28
1030.79	1108.49
1031.078	1072.78
1031.367	1092.89
1031.656	1089.51
1031.945	1089.96
1032.233	1095.61
1032.522	1070.07
1032.81	1064.87
1033.099	1070.75
1033.387	1037.53
1033.675	1039.34
1033.963	1044.31
1034.251	1056.06
1034.54	1014.48
1034.828	990.07
1035.116	1000.24
1035.403	993.91
1035.691	992.33
1035.979	983.29
1036.267	982.84
1036.554	974.03
1036.842	958.89
1037.129	960.47
1037.417	939
1037.704	940.36
1037.992	932.67
1038.279	933.13
1038.566	919.11
1038.853	919.11
1039.14	919.11
