Data from hue_100_FLMS001491_00018.txt Node
Date: Tue Feb 07 17:02:43 GMT 2017
User: dcchb
Spectrometer: FLMS00149
Trigger mode: 0
Integration Time (sec): 2.000000E-2
Scans to average: 10
Electric dark correction enabled: true
Nonlinearity correction enabled: false
Boxcar width: 0
XAxis mode: Wavelengths
Number of Pixels in Spectrum: 2048
>>>>>Begin Spectral Data<<<<<
341.393	-14.19
341.776	-14.19
342.16	-14.19
342.543	-63.23
342.927	-64.81
343.31	-78.37
343.693	-55.55
344.077	-65.72
344.46	-63.91
344.843	-45.15
345.226	-41.09
345.61	-25.27
345.993	-26.4
346.376	-1.54
346.759	9.53
347.142	37.1
347.525	14.05
347.908	70.1
348.291	68.06
348.674	94.96
349.057	109.19
349.44	146.03
349.823	140.15
350.206	161.62
350.588	172.02
350.971	203.2
351.354	227.61
351.737	235.29
352.119	238.68
352.502	259.02
352.884	298.79
353.267	280.26
353.65	303.09
354.032	302.18
354.414	330.2
354.797	313.48
355.179	310.54
355.562	316.64
355.944	332.01
356.326	328.17
356.709	322.07
357.091	317.77
357.473	342.86
357.855	343.76
358.238	330.43
358.62	388.28
359.002	361.39
359.384	342.86
359.766	338.56
360.148	339.47
360.53	337.43
360.912	324.78
361.294	327.94
361.676	320.49
362.057	337.43
362.439	351.45
362.821	346.93
363.203	315.06
363.584	340.6
363.966	329.98
364.348	316.87
364.729	320.03
365.111	328.62
365.493	332.91
365.874	331.11
366.256	323.2
366.637	318.23
367.019	304.89
367.4	310.99
367.781	321.62
368.163	334.04
368.544	321.62
368.925	318.23
369.306	325.68
369.688	308.51
370.069	302.18
370.45	330.43
370.831	328.62
371.212	295.4
371.593	333.82
371.974	314.16
372.355	313.03
372.736	309.64
373.117	322.07
373.498	309.64
373.879	344.67
374.26	314.38
374.641	307.83
375.021	323.88
375.402	312.8
375.783	326.36
376.163	322.07
376.544	336.98
376.925	337.89
377.305	336.98
377.686	346.02
378.066	339.02
378.447	332.91
378.827	353.71
379.208	302.63
379.588	338.11
379.968	326.14
380.349	341.28
380.729	301.05
381.109	359.58
381.489	337.43
381.87	339.69
382.25	352.35
382.63	344.44
383.01	353.48
383.39	351.22
383.77	354.16
384.15	354.38
384.53	348.96
384.91	341.05
385.29	356.87
385.67	369.3
386.049	350.77
386.429	354.16
386.809	357.1
387.189	355.74
387.568	355.97
387.948	363.65
388.328	348.06
388.707	354.61
389.087	372.91
389.466	395.06
389.846	366.81
390.225	374.04
390.605	372.91
390.984	359.13
391.363	387.6
391.743	374.04
392.122	372.24
392.501	378.34
392.881	402.74
393.26	383.76
393.639	384.89
394.018	386.92
394.397	379.92
394.776	388.28
395.155	405
395.534	405.91
395.913	386.92
396.292	388.05
396.671	416.3
397.05	422.63
397.429	392.57
397.808	403.2
398.186	401.84
398.565	404.33
398.944	398.68
399.323	412.69
399.701	402.74
400.08	425.12
400.458	427.6
400.837	430.54
401.215	401.61
401.594	412.46
401.972	416.98
402.351	418.56
402.729	421.05
403.107	443.19
403.486	424.44
403.864	436.42
404.242	424.44
404.62	444.55
404.999	440.26
405.377	450.65
405.755	472.35
406.133	455.17
406.511	434.83
406.889	461.05
407.267	444.32
407.645	446.58
408.023	464.89
408.401	472.57
408.779	452.91
409.156	486.58
409.534	457.43
409.912	465.34
410.29	489.52
410.667	467.6
411.045	479.58
411.422	500.37
411.8	480.48
412.178	502.63
412.555	514.15
412.933	504.21
413.31	513.25
413.687	494.49
414.065	520.48
414.442	515.28
414.819	542.4
415.197	518.9
415.574	518.9
415.951	546.92
416.328	525
416.705	530.88
417.082	537.43
417.46	535.17
417.837	542.18
418.214	557.99
418.591	540.37
418.967	542.18
419.344	556.64
419.721	548.28
420.098	567.94
420.475	580.82
420.852	559.35
421.228	560.71
421.605	560.71
421.982	571.55
422.358	587.6
422.735	575.62
423.111	591.67
423.488	595.96
423.864	584.89
424.241	631.89
424.617	610.87
424.994	598.67
425.37	608.84
425.746	633.92
426.123	625.56
426.499	611.78
426.875	619.01
427.251	636.41
427.627	644.55
428.003	644.77
428.379	654.49
428.756	656.07
429.132	684.09
429.507	661.27
429.883	694.49
430.259	697.43
430.635	703.53
431.011	682.06
431.387	717.54
431.763	721.61
432.138	729.29
432.514	702.85
432.89	702.4
433.265	757.31
433.641	755.73
434.016	759.34
434.392	758.67
434.767	771.77
435.143	772
435.518	785.56
435.894	774.49
436.269	790.98
436.644	785.11
437.02	784.43
437.395	799.12
437.77	810.42
438.145	830.75
438.52	839.12
438.895	840.47
439.271	809.29
439.646	881.6
440.021	854.71
440.395	854.48
440.77	843.64
441.145	868.04
441.52	897.65
441.895	881.83
442.27	892.22
442.645	894.48
443.019	915.05
443.394	899.45
443.769	896.06
444.143	946.91
444.518	941.94
444.892	929.74
445.267	938.77
445.641	932.45
446.016	952.33
446.39	955.72
446.764	961.6
447.139	984.65
447.513	970.19
447.887	961.82
448.262	964.76
448.636	966.8
449.01	1013.8
449.384	1004.54
449.758	1005.89
450.132	1011.77
450.506	1032.56
450.88	1026
451.254	1036.17
451.628	1040.02
452.002	1053.8
452.376	1063.29
452.75	1089.73
453.123	1099
453.497	1102.39
453.871	1121.82
454.244	1141.26
454.618	1139.22
454.992	1185.32
455.365	1163.63
455.739	1172.44
456.112	1173.12
456.486	1206.79
456.859	1215.6
457.232	1233
457.606	1228.48
457.979	1233.68
458.352	1272.1
458.725	1267.35
459.099	1311.42
459.472	1317.97
459.845	1315.49
460.218	1332.21
460.591	1367.69
460.964	1358.2
461.337	1381.7
461.71	1447.01
462.083	1463.96
462.456	1429.84
462.829	1467.35
463.201	1470.96
463.574	1491.3
463.947	1484.98
464.32	1520.45
464.692	1546.89
465.065	1555.48
465.438	1582.15
465.81	1620.34
466.183	1677.29
466.555	1692.43
466.928	1684.07
467.3	1666.44
467.672	1718.19
468.045	1796.38
468.417	1782.59
468.789	1823.27
469.161	1831.18
469.534	1878.19
469.906	1919.31
470.278	1931.29
470.65	1967.67
471.022	2022.14
471.394	2076.6
471.766	2081.34
472.138	2138.74
472.51	2215.8
472.882	2211.06
473.253	2288.34
473.625	2315.24
473.997	2364.5
474.369	2412.86
474.74	2446.53
475.112	2526.53
475.484	2547.77
475.855	2645.4
476.227	2656.47
476.598	2772.4
476.97	2824.6
477.341	2870.93
477.713	2979.17
478.084	2973.3
478.455	3140.52
478.827	3163.35
479.198	3294.65
479.569	3365.15
479.94	3447.86
480.311	3530.8
480.682	3639.72
481.053	3723.79
481.424	3863.9
481.795	3947.51
482.166	4058.47
482.537	4165.13
482.908	4227.95
483.279	4393.37
483.65	4523.09
484.021	4588.4
484.391	4738.22
484.762	4843.3
485.133	4935.28
485.503	5053.69
485.874	5224.54
486.244	5354.48
486.615	5505.21
486.985	5616.84
487.356	5763.51
487.726	5949.26
488.097	6132.99
488.467	6177.28
488.837	6385.19
489.207	6483.71
489.578	6649.81
489.948	6803.93
490.318	6974.1
490.688	7066.75
491.058	7229.91
491.428	7414.99
491.798	7543.35
492.168	7853.17
492.538	7892.72
492.908	8045.25
493.278	8259.03
493.648	8339.26
494.017	8538.8
494.387	8636.88
494.757	8784.44
495.126	8920.03
495.496	9052.46
495.866	9138.11
496.235	9339.46
496.605	9524.54
496.974	9570.19
497.344	9757.98
497.713	9917.75
498.082	10063.28
498.452	10137.18
498.821	10235.93
499.19	10344.86
499.559	10535.58
499.928	10682.93
500.298	10791.17
500.667	10940.32
501.036	10861
501.405	11152.74
501.774	11230.93
502.143	11340.31
502.512	11436.58
502.88	11569.46
503.249	11624.82
503.618	11742.78
503.987	11844.93
504.356	11983.46
504.724	12051.02
505.093	12126.73
505.462	12256.9
505.83	12249.66
506.199	12409.21
506.567	12587.73
506.936	12637.9
507.304	12756.32
507.672	12807.62
508.041	12929.87
508.409	13016.88
508.777	13048.06
509.145	13230.43
509.514	13225.01
509.882	13328.51
510.25	13319.69
510.618	13457.77
510.986	13418.9
511.354	13621.15
511.722	13740.92
512.09	13831.32
512.458	13875.61
512.826	13898.89
513.193	13999.45
513.561	14003.74
513.929	14135.04
514.297	14188.14
514.664	14224.3
515.032	14292.1
515.4	14383.39
515.767	14389.04
516.135	14473.33
516.502	14365.09
516.869	14688.47
517.237	14631.07
517.604	14577.96
517.972	14716.72
518.339	14747.45
518.706	14739.54
519.073	14836.26
519.44	14811.4
519.808	14934.56
520.175	14929.14
520.542	15056.37
520.909	15091.85
521.276	15099.76
521.643	15233.31
522.009	15177.27
522.376	15329.13
522.743	15328.45
523.11	15384.27
523.477	15514.66
523.843	15510.82
524.21	15523.7
524.577	15651.38
524.943	15689.35
525.31	15730.25
525.676	15885.73
526.043	15901.32
526.409	15920.75
526.776	16027.42
527.142	15911.71
527.508	15937.02
527.874	16003.92
528.241	16054.08
528.607	16003.69
528.973	16085.5
529.339	16036.46
529.705	16184.25
530.071	16202.55
530.437	16212.72
530.803	16219.95
531.169	16252.72
531.535	16182.89
531.901	16111.94
532.267	16199.62
532.632	16272.38
532.998	16225.15
533.364	16202.55
533.73	16195.55
534.095	16214.76
534.461	16283.68
534.826	16240.75
535.192	16199.39
535.557	16324.13
535.923	16256.79
536.288	16244.14
536.653	16248.43
537.019	16049.56
537.384	16168.66
537.749	16181.54
538.114	16097.25
538.479	16104.03
538.845	16111.26
539.21	15985.16
539.575	16053.41
539.94	16037.59
540.305	16043.69
540.67	16069.22
541.034	15986.74
541.399	15945.16
541.764	15906.06
542.129	15808.44
542.494	15853.86
542.858	15852.73
543.223	15775.45
543.587	15804.6
543.952	15755.79
544.316	15644.83
544.681	15634.66
545.045	15669.91
545.41	15782.68
545.774	15616.35
546.138	15521.22
546.503	15503.36
546.867	15464.72
547.231	15630.82
547.595	15530.93
547.959	15451.84
548.324	15431.28
548.688	15466.75
549.052	15372.52
549.416	15363.25
549.779	15372.29
550.143	15231.51
550.507	15290.04
550.871	15291.84
551.235	15242.13
551.599	15259.75
551.962	15209.36
552.326	15217.27
552.689	15169.36
553.053	15074
553.417	15071.74
553.78	15196.7
554.143	15057.73
554.507	15093.88
554.87	15029.93
555.234	15053.88
555.597	14894.11
555.96	14918.75
556.323	14954.9
556.686	14919.88
557.05	15021.34
557.413	15028.12
557.776	14956.49
558.139	14938.41
558.502	14938.86
558.865	14949.71
559.228	14987.9
559.59	15013.43
559.953	14944.51
560.316	15049.59
560.679	15037.84
561.041	14993.32
561.404	15044.62
561.767	15113.09
562.129	14936.6
562.492	15114.22
562.854	15048.23
563.217	14996.48
563.579	15013.43
563.941	15095.24
564.304	15130.04
564.666	15207.33
565.028	15132.3
565.39	15168.01
565.753	15125.97
566.115	15137.5
566.477	15136.14
566.839	15173.43
567.201	15190.83
567.563	15216.37
567.925	15333.2
568.287	15281.67
568.648	15342.01
569.01	15338.85
569.372	15413.87
569.734	15341.79
570.095	15307.89
570.457	15452.29
570.819	15409.58
571.18	15402.8
571.542	15377.27
571.903	15448.22
572.265	15569.12
572.626	15464.49
572.987	15466.75
573.349	15485.74
573.71	15533.19
574.071	15569.12
574.432	15627.88
574.794	15625.39
575.155	15481.67
575.516	15519.86
575.877	15536.58
576.238	15620.87
576.599	15722.11
576.96	15593.53
577.32	15640.54
577.681	15655.9
578.042	15695.22
578.403	15666.07
578.763	15621.78
579.124	15669.69
579.485	15736.13
579.845	15726.86
580.206	15681.89
580.566	15638.05
580.927	15578.39
581.287	15730.02
581.648	15573.87
582.008	15686.18
582.368	15682.12
582.728	15705.84
583.089	15577.71
583.449	15643.92
583.809	15541.1
584.169	15595.11
584.529	15490.03
584.889	15683.7
585.249	15551.05
585.609	15503.14
585.969	15651.61
586.329	15528.9
586.688	15548.33
587.048	15525.74
587.408	15441.44
587.768	15490.48
588.127	15500.2
588.487	15488.9
588.846	15602.12
589.206	15392.41
589.565	15473.08
589.925	15521.22
590.284	15462.23
590.643	15461.78
591.003	15440.09
591.362	15538.84
591.721	15386.98
592.08	15440.31
592.44	15413.2
592.799	15382.91
593.158	15373.88
593.517	15341.56
593.876	15400.77
594.235	15372.75
594.593	15363.71
594.952	15421.33
595.311	15365.29
595.67	15395.34
596.029	15504.49
596.387	15519.63
596.746	15434.66
597.104	15407.77
597.463	15316.7
597.822	15322.58
598.18	15293.43
598.538	15304.05
598.897	15396.47
599.255	15250.49
599.613	15367.1
599.972	15309.7
600.33	15381.33
600.688	15285.52
601.046	15317.61
601.404	15323.26
601.762	15297.04
602.12	15277.61
602.478	15414.33
602.836	15363.48
603.194	15251.39
603.552	15408
603.91	15258.85
604.268	15315.12
604.625	15274.67
604.983	15380.88
605.341	15258.4
605.698	15363.71
606.056	15432.86
606.413	15359.19
606.771	15379.3
607.128	15459.52
607.485	15345.85
607.843	15337.94
608.2	15452.97
608.557	15432.18
608.914	15365.74
609.272	15480.54
609.629	15483.25
609.986	15495.91
610.343	15326.87
610.7	15516.47
611.057	15475.34
611.414	15449.13
611.771	15456.13
612.127	15434.21
612.484	15484.83
612.841	15585.62
613.198	15563.7
613.554	15467.21
613.911	15597.82
614.267	15626.75
614.624	15572.29
614.98	15574.32
615.337	15706.52
615.693	15692.51
616.05	15603.47
616.406	15763.24
616.762	15586.75
617.118	15666.98
617.475	15662.46
617.831	15737.48
618.187	15720.31
618.543	15746.3
618.899	15832.62
619.255	15770.25
619.611	15811.38
619.967	15934.54
620.323	15861.32
620.678	15714.66
621.034	15805.05
621.39	15791.27
621.746	15759.18
622.101	15853.86
622.457	15833.52
622.812	15810.25
623.168	15776.12
623.523	15723.47
623.879	15850.25
624.234	15687.99
624.589	15788.1
624.945	15839.85
625.3	15807.08
625.655	15849.8
626.01	15802.11
626.365	15765.28
626.72	15766.18
627.075	15792.4
627.43	15760.53
627.785	15744.94
628.14	15731.38
628.495	15783.58
628.85	15722.34
629.205	15762.79
629.559	15778.84
629.914	15668.33
630.269	15734.54
630.623	15677.37
630.978	15692.29
631.332	15678.05
631.687	15693.42
632.041	15657.03
632.396	15706.75
632.75	15596.02
633.104	15572.29
633.459	15578.16
633.813	15501.33
634.167	15502.23
634.521	15546.3
634.875	15569.12
635.229	15388.34
635.583	15399.86
635.937	15402.12
636.291	15360.99
636.645	15436.02
636.999	15394.21
637.352	15440.31
637.706	15236.48
638.06	15400.09
638.413	15363.93
638.767	15385.4
639.121	15320.77
639.474	15190.38
639.828	15271.96
640.181	15221.11
640.534	15248.68
640.888	15194.9
641.241	15131.62
641.594	15142.47
641.947	15146.31
642.301	15127.1
642.654	15191.06
643.007	15147.21
643.36	15185.63
643.713	15068.8
644.066	15199.42
644.419	15078.06
644.771	15016.37
645.124	14941.8
645.477	14798.07
645.83	14751.74
646.182	14627.91
646.535	14648.02
646.888	14685.08
647.24	14601.69
647.593	14610.28
647.945	14678.3
648.298	14562.82
648.65	14605.08
649.002	14514.46
649.355	14580.45
649.707	14533.67
650.059	14793.33
650.411	14925.98
650.763	14885.53
651.115	14916.94
651.467	14880.78
651.819	14954.9
652.171	14914
652.523	14939.31
652.875	14933.89
653.227	14842.82
653.578	14963.49
653.93	14831.06
654.282	14858.41
654.633	14742.93
654.985	14838.07
655.337	14888.46
655.688	14875.13
656.039	14959.2
656.391	14870.39
656.742	14883.49
657.094	14883.72
657.445	14965.07
657.796	14928.01
658.147	14816.15
658.498	14878.52
658.849	14821.57
659.2	14827.22
659.551	14946.32
659.902	14955.36
660.253	14964.85
660.604	14993.32
660.955	14974.34
661.306	15032.64
661.656	14942.7
662.007	14981.57
662.358	15066.76
662.708	15010.04
663.059	14989.25
663.409	14907.9
663.76	15022.92
664.11	14983.6
664.461	14991.51
664.811	15084.84
665.161	15071.51
665.511	14934.56
665.862	14981.57
666.212	15001.46
666.562	15077.84
666.912	14961.23
667.262	14952.42
667.612	15032.87
667.962	14983.38
668.312	14894.57
668.662	14988.57
669.011	14926.2
669.361	14997.61
669.711	14989.03
670.06	14982.02
670.41	14949.71
670.76	14901.35
671.109	14939.54
671.459	14931.85
671.808	14941.8
672.157	14890.95
672.507	14824.06
672.856	14874
673.205	14875.58
673.554	14911.51
673.904	14878.3
674.253	14982.25
674.602	14903.61
674.951	14643.05
675.3	14595.59
675.649	14812.31
675.998	14798.75
676.346	14805.98
676.695	14862.25
677.044	14631.97
677.393	14690.28
677.741	14756.04
678.09	14609.83
678.438	14634.69
678.787	14667.23
679.135	14688.24
679.484	14524.63
679.832	14575.25
680.181	14382.72
680.529	14461.13
680.877	14471.53
681.225	14422.94
681.573	14587.91
681.922	14377.97
682.27	14342.94
682.618	14348.37
682.966	14359.21
683.314	14333.68
683.661	14318.08
684.009	14309.04
684.357	14229.05
684.705	14140.24
685.053	14227.92
685.4	14150.18
685.748	14117.64
686.095	14110.86
686.443	13973.23
686.79	13992.22
687.138	14023.4
687.485	14066.34
687.832	13982.05
688.18	13886
688.527	13852.11
688.874	13823.86
689.221	13798.78
689.568	13755.16
689.915	13710.87
690.262	13710.42
690.609	13667.25
690.956	13682.62
691.303	13568.95
691.65	13533.7
691.997	13577.31
692.344	13442.63
692.69	13475.17
693.037	13492.34
693.383	13310.43
693.73	13358.79
694.077	13206.7
694.423	13313.36
694.769	13198.11
695.116	13130.54
695.462	13118.57
695.808	13076.31
696.155	13140.49
696.501	12967.39
696.847	12968.29
697.193	12818.46
697.539	12889.65
697.885	12787.73
698.231	12758.8
698.577	12728.97
698.923	12702.08
699.269	12615.98
699.614	12542.09
699.96	12522.42
700.306	12488.08
700.651	12416.89
700.997	12337.57
701.342	12409.89
701.688	12279.95
702.033	12272.49
702.379	12329.44
702.724	12232.26
703.069	12288.98
703.415	12068.65
703.76	12084.24
704.105	12007.64
704.45	12006.51
704.795	11993.63
705.14	11938.71
705.485	11887.41
705.83	11859.17
706.175	11871.59
706.52	11743.24
706.865	11720.41
707.209	11678.61
707.554	11670.92
707.899	11648.1
708.243	11591.15
708.588	11569
708.932	11519.29
709.277	11510.7
709.621	11498.05
709.966	11354.32
710.31	11412.4
710.654	11346.86
710.998	11358.39
711.342	11294.43
711.687	11289.01
712.031	11267.32
712.375	11210.82
712.719	11197.26
713.063	11124.95
713.407	11145.29
713.75	11108.68
714.094	11135.57
714.438	11013.09
714.782	11041.56
715.125	11053.31
715.469	11028.45
715.812	11025.97
716.156	10917.5
716.499	10933.54
716.843	10912.3
717.186	10812.87
717.53	10934.9
717.873	10864.62
718.216	10853.32
718.559	10774
718.902	10769.02
719.246	10813.32
719.589	10770.15
719.932	10742.81
720.275	10803.83
720.617	10781.68
720.96	10740.55
721.303	10703.04
721.646	10757.95
721.989	10671.17
722.331	10702.81
722.674	10631.18
723.016	10755.47
723.359	10631.4
723.701	10750.72
724.044	10563.38
724.386	10593.44
724.729	10681.57
725.071	10614.45
725.413	10625.07
725.755	10522.93
726.097	10524.06
726.439	10482.25
726.782	10457.85
727.124	10549.14
727.465	10498.75
727.807	10517.28
728.149	10559.09
728.491	10495.13
728.833	10462.59
729.175	10504.85
729.516	10475.47
729.858	10426.66
730.199	10442.93
730.541	10539.65
730.882	10429.6
731.224	10467.79
731.565	10420.11
731.906	10428.24
732.248	10518.18
732.589	10380.79
732.93	10342.82
733.271	10411.52
733.612	10367.68
733.953	10392.09
734.294	10388.92
734.635	10361.13
734.976	10398.19
735.317	10378.75
735.658	10383.5
735.999	10395.25
736.339	10391.18
736.68	10384.4
737.021	10416.72
737.361	10338.98
737.702	10435.93
738.042	10366.78
738.383	10413.1
738.723	10417.4
739.063	10405.42
739.404	10529.03
739.744	10495.81
740.084	10517.73
740.424	10461.24
740.764	10469.82
741.104	10521.35
741.444	10451.29
741.784	10444.97
742.124	10529.71
742.464	10532.42
742.804	10587.56
743.143	10566.77
743.483	10662.13
743.823	10571.29
744.162	10670.5
744.502	10701.46
744.841	10708.69
745.181	10761.79
745.52	10772.87
745.86	10870.27
746.199	10923.6
746.538	10875.46
746.877	11031.39
747.216	11012.86
747.556	11056.25
747.895	11126.98
748.234	11134.89
748.573	11309.12
748.911	11241.78
749.25	11318.61
749.589	11327.88
749.928	11474.77
750.267	11544.37
750.605	11620.53
750.944	11670.24
751.283	11698.72
751.621	11865.72
751.96	11920.63
752.298	12033.62
752.636	12145.26
752.975	12207.63
753.313	12311.36
753.651	12458.02
753.989	12555.64
754.327	12608.3
754.666	12828.41
755.004	12933.49
755.342	13076.53
755.679	13178.45
756.017	13234.27
756.355	13474.94
756.693	13578.22
757.031	13814.59
757.368	13860.69
757.706	13988.6
758.044	14177.07
758.381	14381.81
758.719	14516.5
759.056	14809.82
759.394	14925.75
759.731	14928.46
760.068	15184.5
760.405	15202.81
760.743	15524.38
761.08	15634.43
761.417	15797.14
761.754	15961.66
762.091	16162.56
762.428	16221.99
762.765	16401.42
763.102	16661.53
763.438	16729.77
763.775	16855.42
764.112	17085.02
764.449	17230.78
764.785	17465.57
765.122	17468.06
765.458	17718.45
765.795	17785.79
766.131	18036.18
766.467	18146.01
766.804	18242.05
767.14	18306.68
767.476	18543.28
767.812	18555.49
768.148	18738.76
768.485	18843.61
768.821	19035.02
769.157	19191.63
769.492	19293.32
769.828	19347.78
770.164	19448.57
770.5	19481.56
770.836	19600.2
771.171	19535.57
771.507	19789.35
771.842	19810.82
772.178	19922.23
772.513	20068.44
772.849	20033.41
773.184	20163.35
773.519	20246.74
773.855	20330.81
774.19	20350.92
774.525	20442.67
774.86	20436.12
775.195	20534.42
775.53	20559.05
775.865	20524.93
776.2	20567.64
776.535	20552.72
776.87	20557.24
777.205	20635.88
777.539	20631.59
777.874	20847.18
778.209	20676.79
778.543	20676.33
778.878	20546.39
779.212	20759.72
779.547	20689.89
779.881	20706.62
780.215	20648.31
780.55	20811.92
780.884	20716.11
781.218	20805.37
781.552	20819.38
781.886	20747.75
782.22	20756.11
782.554	20624.58
782.888	20680.85
783.222	20589.11
783.556	20510.92
783.889	20519.73
784.223	20353.63
784.557	20412.16
784.89	20510.01
785.224	20457.58
785.557	20472.5
785.891	20389.56
786.224	20371.26
786.558	20432.27
786.891	20252.17
787.224	20274.54
787.557	20179.62
787.891	20268.44
788.224	20236.35
788.557	20289
788.89	20274.99
789.223	20274.31
789.556	20138.72
789.888	20128.78
790.221	20086.29
790.554	19849.24
790.887	19981.21
791.219	19846.98
791.552	19857.6
791.884	19818.5
792.217	19798.62
792.549	19690.82
792.882	19630.03
793.214	19603.37
793.546	19593.2
793.879	19577.83
794.211	19498.74
794.543	19577.83
794.875	19462.58
795.207	19603.59
795.539	19442.92
795.871	19447.21
796.203	19197.96
796.535	19167.45
796.867	19242.7
797.198	19118.86
797.53	19105.98
797.862	18876.61
798.193	19085.42
798.525	18976.94
798.856	18935.36
799.188	18856.5
799.519	18789.15
799.85	18617.86
800.182	18670.29
800.513	18710.51
800.844	18508.03
801.175	18516.84
801.506	18497.86
801.837	18445.21
802.168	18392.33
802.499	18395.94
802.83	18264.19
803.161	18218.32
803.491	18312.1
803.822	18328.37
804.153	18250.64
804.483	18016.29
804.814	17951.66
805.145	17976.97
805.475	18028.49
805.805	18005.67
806.136	17895.62
806.466	17884.09
806.796	17853.81
807.126	17771.1
807.457	17761.38
807.787	17639.8
808.117	17603.2
808.447	17569.98
808.777	17650.88
809.107	17530.43
809.436	17465.57
809.766	17489.07
810.096	17407.72
810.426	17297.21
810.755	17379.7
811.085	17287.27
811.414	17309.64
811.744	17127.95
812.073	17185.35
812.403	17227.84
812.732	17038.69
813.061	17100.84
813.39	17070.78
813.719	17051.57
814.049	17099.71
814.378	16967.05
814.707	16870.33
815.036	16944
815.365	16843.67
815.693	16731.13
816.022	16807.06
816.351	16690.68
816.68	16599.83
817.008	16626.5
817.337	16542.66
817.665	16500.63
817.994	16555.99
818.322	16498.82
818.651	16400.74
818.979	16322.78
819.307	16523.22
819.636	16368.88
819.964	16241.65
820.292	16314.19
820.62	16312.16
820.948	16257.02
821.276	16343.34
821.604	16196.45
821.932	16329.56
822.259	16242.1
822.587	16251.37
822.915	16211.14
823.243	16291.59
823.57	16135.44
823.898	16155.32
824.225	16132.73
824.553	16139.05
824.88	16168.88
825.207	16242.33
825.535	16177.7
825.862	16298.37
826.189	16246.39
826.516	16291.14
826.843	16302.21
827.17	16241.65
827.497	16287.75
827.824	16228.99
828.151	16291.59
828.478	16238.49
828.805	16380.18
829.131	16299.95
829.458	16254.53
829.785	16210.92
830.111	16239.16
830.438	16372.72
830.764	16294.53
831.09	16316.68
831.417	16169.33
831.743	16219.28
832.069	16349.44
832.395	16258.37
832.722	16231.25
833.048	16182.89
833.374	16195.77
833.7	16096.34
834.026	16187.41
834.351	16121.43
834.677	16166.17
835.003	16113.97
835.329	16079.39
835.654	16007.31
835.98	15968.66
836.306	16038.26
836.631	15934.76
836.956	15993.52
837.282	15995.33
837.607	15918.95
837.932	15851.38
838.258	15895.44
838.583	15892.96
838.908	15769.8
839.233	15834.88
839.558	15790.81
839.883	15744.94
840.208	15705.62
840.533	15650.48
840.858	15704.26
841.182	15676.01
841.507	15618.84
841.832	15492.29
842.156	15555.11
842.481	15479.41
842.805	15519.41
843.13	15362.58
843.454	15391.28
843.778	15356.7
844.103	15347.89
844.427	15292.75
844.751	15325.74
845.075	15338.62
845.399	15201.45
845.723	15145.18
846.047	15135.24
846.371	15055.92
846.695	15082.58
847.019	14978.18
847.343	14829.48
847.666	14765.98
847.99	14684.4
848.313	14704.06
848.637	14645.53
848.96	14551.98
849.284	14579.32
849.607	14408.48
849.931	14410.51
850.254	14263.17
850.577	14306.56
850.9	14141.59
851.223	14137.3
851.546	14089.62
851.869	13999
852.192	13953.35
852.515	13854.14
852.838	13863.41
853.161	13900.24
853.483	13692.79
853.806	13690.3
854.129	13750.42
854.451	13603.3
854.774	13586.8
855.096	13509.74
855.419	13500.93
855.741	13455.73
856.063	13426.13
856.385	13398.56
856.708	13346.36
857.03	13298.68
857.352	13315.17
857.674	13255.51
857.996	13265.68
858.318	13150.21
858.64	13116.99
858.961	13079.7
859.283	13057.33
859.605	13022.52
859.926	12985.01
860.248	12950.44
860.57	12939.36
860.891	12881.06
861.212	12788.63
861.534	12810.55
861.855	12734.17
862.176	12816.2
862.498	12793.6
862.819	12725.58
863.14	12708.86
863.461	12693.27
863.782	12650.56
864.103	12665.92
864.424	12592.93
864.745	12601.29
865.065	12467.06
865.386	12502.76
865.707	12470.9
866.027	12507.51
866.348	12438.81
866.668	12406.95
866.989	12436.1
867.309	12369.21
867.63	12345.48
867.95	12338.25
868.27	12348.19
868.59	12266.39
868.91	12345.93
869.23	12197.24
869.55	12204.69
869.87	12193.17
870.19	12142.32
870.51	12123.11
870.83	12155.2
871.15	12167.41
871.469	12149.78
871.789	12151.14
872.109	12169.21
872.428	12006.28
872.748	12054.64
873.067	12041.99
873.386	12015.32
873.706	11989.11
874.025	11939.62
874.344	11884.93
874.663	11904.81
874.982	11943.46
875.301	11886.96
875.62	11820.3
875.939	11866.4
876.258	11835.21
876.577	11806.06
876.896	11718.15
877.214	11744.59
877.533	11815.55
877.852	11671.6
878.17	11649.68
878.489	11670.7
878.807	11636.35
879.125	11587.08
879.444	11632.96
879.762	11593.64
880.08	11585.95
880.398	11458.27
880.716	11549.57
881.034	11503.69
881.352	11500.08
881.67	11499.18
881.988	11450.36
882.306	11408.33
882.624	11333.53
882.941	11311.16
883.259	11282.68
883.577	11275.9
883.894	11298.28
884.212	11256.92
884.529	11312.74
884.846	11224.61
885.164	11204.27
885.481	11101.45
885.798	11176.7
886.115	11134.89
886.432	11115
886.75	11097.83
887.067	11137.15
887.383	11023.26
887.7	11062.12
888.017	11000.43
888.334	10899.87
888.651	10956.36
888.967	10866.2
889.284	10826.88
889.6	10793.2
889.917	10778.06
890.233	10734.68
890.55	10730.38
890.866	10725.41
891.182	10679.08
891.498	10675.24
891.815	10631.18
892.131	10578.07
892.447	10529.71
892.763	10545.3
893.079	10425.76
893.395	10377.17
893.71	10370.17
894.026	10369.04
894.342	10412.42
894.657	10252.43
894.973	10232.32
895.289	10223.95
895.604	10197.74
895.92	10076.16
896.235	10047.01
896.55	10021.93
896.865	10060.79
897.181	10030.51
897.496	10058.08
897.811	9932.21
898.126	9940.12
898.441	9933.79
898.756	9851.76
899.071	9787.58
899.386	9821.25
899.7	9701.48
900.015	9630.98
900.33	9666
900.644	9616.29
900.959	9647.02
901.273	9627.36
901.588	9540.81
901.902	9469.4
902.216	9480.47
902.531	9436.63
902.845	9415.16
903.159	9363.64
903.473	9262.62
903.787	9205.68
904.101	9250.19
904.415	9189.41
904.729	9149.41
905.042	9151.44
905.356	9120.71
905.67	9120.71
905.984	9101.5
906.297	8990.99
906.611	9024.21
906.924	8979.47
907.237	8922.97
907.551	8952.35
907.864	8822.64
908.177	8787.83
908.491	8774.05
908.804	8779.02
909.117	8689.53
909.43	8611.57
909.743	8635.3
910.056	8572.7
910.368	8556.2
910.681	8485.92
910.994	8487.05
911.307	8462.19
911.619	8398.24
911.932	8443.89
912.244	8247.96
912.557	8310.56
912.869	8310.11
913.181	8207.28
913.494	8209.32
913.806	8189.66
914.118	8169.09
914.43	8083.45
914.742	8026.5
915.054	8031.47
915.366	8002.77
915.678	7935.88
915.99	7932.72
916.302	7899.27
916.613	7871.47
916.925	7826.96
917.236	7821.08
917.548	7750.12
917.859	7749.22
918.171	7703.79
918.482	7654.53
918.794	7599.62
919.105	7578.15
919.416	7538.38
919.727	7543.8
920.038	7561.88
920.349	7485.5
920.66	7508.77
920.971	7407.98
921.282	7413.41
921.593	7366.18
921.903	7312.17
922.214	7292.73
922.525	7317.59
922.835	7213.64
923.146	7170.02
923.456	7187.88
923.767	7171.83
924.077	7158.27
924.387	7072.62
924.697	7130.7
925.008	7069.91
925.318	7057.26
925.628	6976.58
925.938	6953.53
926.248	6868.11
926.558	6864.27
926.867	6916.92
927.177	6883.48
927.487	6799.64
927.796	6763.48
928.106	6729.58
928.416	6692.97
928.725	6751.96
929.034	6680.09
929.344	6716.02
929.653	6568.46
929.962	6594.45
930.271	6550.83
930.581	6511.74
930.89	6454.11
931.199	6414.79
931.508	6416.14
931.817	6431.29
932.125	6378.63
932.434	6396.71
932.743	6314.68
933.051	6346.77
933.36	6281.23
933.669	6242.59
933.977	6217.73
934.286	6247.11
934.594	6231.52
934.902	6136.6
935.21	6109.71
935.519	6105.87
935.827	6100.45
936.135	6071.3
936.443	5989.04
936.751	5995.14
937.059	5983.39
937.367	5903.84
937.674	5911.53
937.982	5876.5
938.29	5894.35
938.597	5861.36
938.905	5801.02
939.213	5784.3
939.52	5751.3
939.827	5732.1
940.135	5623.62
940.442	5701.81
940.749	5645.32
941.056	5628.59
941.363	5648.93
941.67	5609.61
941.977	5601.25
942.284	5544.3
942.591	5511.76
942.898	5468.37
943.205	5489.39
943.511	5449.84
943.818	5407.58
944.125	5370.52
944.431	5424.98
944.738	5359.22
945.044	5366.23
945.35	5304.31
945.657	5252.33
945.963	5261.6
946.269	5221.37
946.575	5209.62
946.881	5215.5
947.187	5174.82
947.493	5197.19
947.799	5151.55
948.105	5090.08
948.41	5053.92
948.716	5070.87
949.022	5037.88
949.327	4986.8
949.633	4959.01
949.938	4979.12
950.244	4980.7
950.549	4970.08
950.854	4920.14
951.16	4885.34
951.465	4871.78
951.77	4858.9
952.075	4804.89
952.38	4810.54
952.685	4776.19
952.99	4740.93
953.294	4695.74
953.599	4727.15
953.904	4688.73
954.209	4707.49
954.513	4712.01
954.818	4650.54
955.122	4626.81
955.426	4628.85
955.731	4584.55
956.035	4558.34
956.339	4517.21
956.643	4580.26
956.948	4521.28
957.252	4533.03
957.556	4500.49
957.86	4453.71
958.163	4424.11
958.467	4384.33
958.771	4380.94
959.075	4409.64
959.378	4406.71
959.682	4369.87
959.985	4361.96
960.289	4302.98
960.592	4272.25
960.896	4288.74
961.199	4231.57
961.502	4216.2
961.805	4164.68
962.108	4210.55
962.411	4156.77
962.714	4103.21
963.017	4144.57
963.32	4161.97
963.623	4123.78
963.926	4054.63
964.228	4072.93
964.531	4062.53
964.833	4036.55
965.136	4028.41
965.438	4021.63
965.741	3945.7
966.043	3950.45
966.345	3937.34
966.648	3895.76
966.95	3900.28
967.252	3893.73
967.554	3883.33
967.856	3860.28
968.158	3840.85
968.46	3823.44
968.761	3795.87
969.063	3810.79
969.365	3791.13
969.666	3769.89
969.968	3741.19
970.269	3740.73
970.571	3763.56
970.872	3695.76
971.174	3687.86
971.475	3646.95
971.776	3649.89
972.077	3617.8
972.378	3601.3
972.679	3614.64
972.98	3596.11
973.281	3573.96
973.582	3545.26
973.883	3528.76
974.183	3498.03
974.484	3540.97
974.785	3491.93
975.085	3462.78
975.386	3479.05
975.686	3446.05
975.986	3410.35
976.287	3415.32
976.587	3373.06
976.887	3368.32
977.187	3384.81
977.487	3329.45
977.787	3300.29
978.087	3325.6
978.387	3307.3
978.687	3265.95
978.987	3274.98
979.286	3223.01
979.586	3249.22
979.885	3252.16
980.185	3219.62
980.484	3185.95
980.784	3176.46
981.083	3155.89
981.382	3163.58
981.682	3131.71
981.981	3116.8
982.28	3076.8
982.579	3086.51
982.878	3097.36
983.177	3085.84
983.475	3038.61
983.774	3006.29
984.073	3016.69
984.372	2986.86
984.67	2990.25
984.969	2971.26
985.267	3006.52
985.566	2936.91
985.864	2957.48
986.162	2943.69
986.461	2954.31
986.759	2909.57
987.057	2885.84
987.355	2880.19
987.653	2896.69
987.951	2859.4
988.249	2829.8
988.547	2864.83
988.844	2805.39
989.142	2829.8
989.44	2747.99
989.737	2700.99
990.035	2792.29
990.332	2791.61
990.63	2728.11
990.927	2726.07
991.224	2725.62
991.521	2703.47
991.819	2687.2
992.116	2630.03
992.413	2670.48
992.71	2644.04
993.006	2677.71
993.303	2619.63
993.6	2628.67
993.897	2623.7
994.193	2589.58
994.49	2595.45
994.787	2571.95
995.083	2533.08
995.379	2533.08
995.676	2536.92
995.972	2495.12
996.268	2507.55
996.565	2501.22
996.861	2482.46
997.157	2456.93
997.453	2486.98
997.749	2469.13
998.044	2433.2
998.34	2410.83
998.636	2411.96
998.932	2382.35
999.227	2341.45
999.523	2362.24
999.818	2360.88
1000.114	2353.43
1000.409	2312.07
1000.704	2326.08
1001	2300.32
1001.295	2280.43
1001.59	2284.28
1001.885	2252.64
1002.18	2251.96
1002.475	2243.6
1002.77	2200.89
1003.065	2214.67
1003.359	2192.98
1003.654	2183.04
1003.949	2175.13
1004.243	2169.7
1004.538	2129.48
1004.832	2178.74
1005.127	2110.95
1005.421	2100.1
1005.715	2097.84
1006.009	2091.74
1006.304	2078.86
1006.598	2057.62
1006.892	2045.19
1007.186	2066.88
1007.48	2012.42
1007.773	2018.07
1008.067	1997.96
1008.361	2025.98
1008.655	1952.99
1008.948	1973.78
1009.242	1982.59
1009.535	1959.99
1009.829	1941.69
1010.122	1936.04
1010.415	1908.47
1010.708	1875.47
1011.001	1907.56
1011.295	1864.4
1011.588	1876.6
1011.881	1866.66
1012.173	1843.16
1012.466	1813.1
1012.759	1834.57
1013.052	1860.78
1013.344	1810.16
1013.637	1805.87
1013.93	1762.26
1014.222	1788.92
1014.514	1778.3
1014.807	1745.53
1015.099	1745.99
1015.391	1751.63
1015.683	1715.7
1015.976	1744.86
1016.268	1684.97
1016.56	1694.91
1016.851	1672.31
1017.143	1689.26
1017.435	1627.57
1017.727	1626.89
1018.018	1644.97
1018.31	1633.67
1018.602	1638.42
1018.893	1634.12
1019.185	1598.19
1019.476	1576.05
1019.767	1595.71
1020.058	1580.34
1020.35	1562.94
1020.641	1521.36
1020.932	1558.87
1021.223	1535.82
1021.514	1519.1
1021.804	1499.66
1022.095	1511.42
1022.386	1475.48
1022.677	1491.75
1022.967	1483.85
1023.258	1449.27
1023.548	1421.7
1023.839	1435.48
1024.129	1445.65
1024.419	1425.99
1024.709	1405.43
1025	1392.32
1025.29	1376.28
1025.58	1395.49
1025.87	1381.7
1026.16	1378.54
1026.449	1375.6
1026.739	1336.5
1027.029	1334.92
1027.319	1309.61
1027.608	1307.13
1027.898	1308.03
1028.187	1284.53
1028.477	1285.43
1028.766	1296.96
1029.055	1259.9
1029.344	1275.94
1029.634	1271.42
1029.923	1275.04
1030.212	1242.5
1030.501	1218.54
1030.79	1231.87
1031.078	1211.99
1031.367	1219.45
1031.656	1199.11
1031.945	1175.6
1032.233	1191.2
1032.522	1206.34
1032.81	1174.7
1033.099	1180.58
1033.387	1156.4
1033.675	1153.01
1033.963	1115.04
1034.251	1142.39
1034.54	1143.29
1034.828	1101.03
1035.116	1086.79
1035.403	1114.36
1035.691	1087.47
1035.979	1085.89
1036.267	1069.17
1036.554	1047.25
1036.842	1047.25
1037.129	1068.71
1037.417	1062.39
1037.704	1049.51
1037.992	1049.28
1038.279	1035.27
1038.566	1036.63
1038.853	1036.63
1039.14	1036.63
