Data from hue_00_FLMS001491_57.txt Node
Date: Mon Feb 06 15:29:55 GMT 2017
User: dcchb
Spectrometer: FLMS00149
Trigger mode: 0
Integration Time (sec): 2.000000E-2
Scans to average: 10
Electric dark correction enabled: true
Nonlinearity correction enabled: false
Boxcar width: 0
XAxis mode: Wavelengths
Number of Pixels in Spectrum: 2048
>>>>>Begin Spectral Data<<<<<
341.393	-26.47
341.776	-26.47
342.16	-26.47
342.543	-63.3
342.927	-79.35
343.31	-80.7
343.693	-75.51
344.077	-73.92
344.46	-57.88
344.843	-48.39
345.226	-44.09
345.61	-31.89
345.993	-16.75
346.376	5.4
346.759	19.18
347.142	12.63
347.525	27.54
347.908	69.12
348.291	71.16
348.674	121.1
349.057	103.02
349.44	124.49
349.823	154.54
350.206	157.26
350.588	204.71
350.971	213.98
351.354	226.63
351.737	228.21
352.119	230.47
352.502	267.08
352.884	263.69
353.267	272.96
353.65	288.33
354.032	277.25
354.414	307.76
354.797	317.48
355.179	319.51
355.562	313.18
355.944	311.83
356.326	329.23
356.709	318.38
357.091	329
357.473	328.1
357.855	343.92
358.238	351.15
358.62	324.93
359.002	331.94
359.384	319.29
359.766	317.03
360.148	332.17
360.53	343.69
360.912	342.79
361.294	327.42
361.676	334.88
362.057	313.18
362.439	330.81
362.821	314.09
363.203	313.86
363.584	318.83
363.966	317.25
364.348	326.97
364.729	311.6
365.111	321.55
365.493	321.77
365.874	310.25
366.256	301.66
366.637	290.59
367.019	292.85
367.4	301.66
367.781	302.56
368.163	297.14
368.544	303.01
368.925	308.66
369.306	333.52
369.688	326.97
370.069	322.9
370.45	296.24
370.831	304.82
371.212	301.43
371.593	303.92
371.974	306.18
372.355	310.92
372.736	322.68
373.117	298.72
373.498	297.14
373.879	321.09
374.26	303.69
374.641	300.53
375.021	335.78
375.402	297.59
375.783	309.57
376.163	303.01
376.544	321.55
376.925	313.18
377.305	294.43
377.686	324.26
378.066	324.93
378.447	316.57
378.827	308.44
379.208	312.28
379.588	322.9
379.968	317.7
380.349	314.54
380.729	310.02
381.109	309.79
381.489	340.53
381.87	344.14
382.25	342.34
382.63	340.3
383.01	341.43
383.39	348.21
383.77	323.35
384.15	332.62
384.53	338.27
384.91	344.37
385.29	340.3
385.67	346.18
386.049	338.49
386.429	347.53
386.809	337.14
387.189	349.79
387.568	337.59
387.948	335.33
388.328	328.32
388.707	365.61
389.087	348.66
389.466	333.75
389.846	341.88
390.225	336.91
390.605	338.95
390.984	325.61
391.363	357.93
391.743	340.75
392.122	354.09
392.501	344.14
392.881	352.05
393.26	370.81
393.639	372.39
394.018	346.4
394.397	354.31
394.776	373.3
395.155	350.7
395.534	344.82
395.913	369.23
396.292	360.19
396.671	339.62
397.05	358.83
397.429	369.91
397.808	350.7
398.186	372.62
398.565	367.42
398.944	362.67
399.323	366.06
399.701	366.74
400.08	358.38
400.458	374.65
400.837	381.2
401.215	376.46
401.594	370.13
401.972	379.85
402.351	378.04
402.729	384.37
403.107	384.59
403.486	387.98
403.864	388.21
404.242	403.58
404.62	385.05
404.999	378.94
405.377	397.7
405.755	378.94
406.133	404.25
406.511	391.15
406.889	401.54
407.267	400.19
407.645	419.17
408.023	415.55
408.401	401.09
408.779	418.49
409.156	427.08
409.534	416.23
409.912	414.88
410.29	426.63
410.667	420.98
411.045	431.82
411.422	434.54
411.8	428.44
412.178	434.99
412.555	432.95
412.933	433.18
413.31	436.34
413.687	446.06
414.065	440.41
414.442	425.27
414.819	467.08
415.197	432.05
415.574	454.65
415.951	434.76
416.328	458.72
416.705	453.75
417.082	448.1
417.46	451.26
417.837	492.39
418.214	479.51
418.591	484.93
418.967	466.17
419.344	471.6
419.721	485.61
420.098	470.24
420.475	470.92
420.852	470.69
421.228	503.24
421.605	498.49
421.982	515.66
422.358	497.13
422.735	507.76
423.111	516.34
423.488	495.1
423.864	533.29
424.241	514.08
424.617	521.54
424.994	521.54
425.37	521.77
425.746	519.96
426.123	511.82
426.499	527.64
426.875	535.32
427.251	535.1
427.627	543.46
428.003	566.06
428.379	545.95
428.756	538.94
429.132	539.17
429.507	564.02
429.883	560.86
430.259	571.48
430.635	575.1
431.011	594.08
431.387	577.36
431.763	600.41
432.138	610.8
432.514	598.83
432.89	594.98
433.265	581.65
433.641	611.93
434.016	620.29
434.392	624.81
434.767	642.67
435.143	635.44
435.518	641.54
435.894	641.76
436.269	630.01
436.644	660.75
437.02	655.32
437.395	662.78
437.77	658.03
438.145	682.21
438.52	679.05
438.895	661.42
439.271	668.2
439.646	689.22
440.021	686.06
440.395	699.61
440.77	674.08
441.145	701.87
441.52	718.82
441.895	699.61
442.27	693.29
442.645	712.95
443.019	718.14
443.394	724.7
443.769	765.6
444.143	717.24
444.518	727.18
444.892	726.96
445.267	748.88
445.641	735.09
446.016	747.52
446.39	764.47
446.764	762.44
447.139	742.78
447.513	757.47
447.887	756.34
448.262	759.95
448.636	759.05
449.01	792.49
449.384	747.07
449.758	753.62
450.132	788.88
450.506	776.9
450.88	783.68
451.254	807.18
451.628	798.37
452.002	801.98
452.376	789.1
452.75	796.11
453.123	831.36
453.497	831.59
453.871	836.79
454.244	847.18
454.618	844.47
454.992	837.69
455.365	852.15
455.739	867.07
456.112	863.45
456.486	854.19
456.859	896.45
457.232	895.32
457.606	883.79
457.979	913.39
458.352	901.64
458.725	900.74
459.099	917.69
459.472	941.19
459.845	940.29
460.218	973.73
460.591	965.37
460.964	981.64
461.337	972.15
461.71	976.67
462.083	997.01
462.456	1013.73
462.829	971.02
463.201	1014.63
463.574	1007.4
463.947	1037.23
464.32	1034.52
464.692	1065.93
465.065	1063.9
465.438	1069.1
465.81	1070
466.183	1080.85
466.555	1111.35
466.928	1104.35
467.3	1096.21
467.672	1136.89
468.045	1150.45
468.417	1151.13
468.789	1175.31
469.161	1190.22
469.534	1207.4
469.906	1195.87
470.278	1242.88
470.65	1229.32
471.022	1271.12
471.394	1283.55
471.766	1294.4
472.138	1285.59
472.51	1318.81
472.882	1360.61
473.253	1358.58
473.625	1379.6
473.997	1421.86
474.369	1424.79
474.74	1426.6
475.112	1452.14
475.484	1485.58
475.855	1506.6
476.227	1505.02
476.598	1546.82
476.97	1575.52
477.341	1571.91
477.713	1592.02
478.084	1632.7
478.455	1690.55
478.827	1718.57
479.198	1759.7
479.569	1723.32
479.94	1808.29
480.311	1787.04
480.682	1842.64
481.053	1906.59
481.424	1909.3
481.795	1938.68
482.166	1989.75
482.537	2032.69
482.908	2032.46
483.279	2063.65
483.65	2123.08
484.021	2155.4
484.391	2177.09
484.762	2160.59
485.133	2182.74
485.503	2242.17
485.874	2292.79
486.244	2308.84
486.615	2386.12
486.985	2370.53
487.356	2452.79
487.726	2468.38
488.097	2490.98
488.467	2518.1
488.837	2568.49
489.207	2580.92
489.578	2653.69
489.948	2681.26
490.318	2735.72
490.688	2714.93
491.058	2774.36
491.428	2824.08
491.798	2859.56
492.168	2882.16
492.538	2872.66
492.908	2944.98
493.278	2976.39
493.648	3001.47
494.017	3026.56
494.387	3036.73
494.757	3069.95
495.126	3099.1
495.496	3158.08
495.866	3167.8
496.235	3215.48
496.605	3234.91
496.974	3244.86
497.344	3264.52
497.713	3280.79
498.082	3357.4
498.452	3405.76
498.821	3357.4
499.19	3423.16
499.559	3436.49
499.928	3463.38
500.298	3476.26
500.667	3505.64
501.036	3492.76
501.405	3539.54
501.774	3521.24
502.143	3600.1
502.512	3596.04
502.88	3601.46
503.249	3626.77
503.618	3659.76
503.987	3635.36
504.356	3691.4
504.724	3724.62
505.093	3736.6
505.462	3721.68
505.83	3751.96
506.199	3725.98
506.567	3860.44
506.936	3821.11
507.304	3868.57
507.672	3892.75
508.041	3874.9
508.409	3891.62
508.777	3928.46
509.145	3963.71
509.514	3951.96
509.882	3985.18
510.25	4016.36
510.618	4024.27
510.986	4006.87
511.354	4034.22
511.722	4096.59
512.09	4091.16
512.458	4091.62
512.826	4108.56
513.193	4116.02
513.561	4109.24
513.929	4159.18
514.297	4218.39
514.664	4203.7
515.032	4223.59
515.4	4243.25
515.767	4249.13
516.135	4280.99
516.502	4286.86
516.869	4330.71
517.237	4309.69
517.604	4279.86
517.972	4305.62
518.339	4384.26
518.706	4356.47
519.073	4344.72
519.44	4383.81
519.808	4478.05
520.175	4430.82
520.542	4502
520.909	4461.55
521.276	4473.98
521.643	4497.03
522.009	4577.03
522.376	4576.8
522.743	4543.58
523.11	4607.99
523.477	4656.12
523.843	4639.62
524.21	4676.46
524.577	4697.48
524.943	4752.62
525.31	4748.1
525.676	4747.19
526.043	4791.03
526.409	4768.66
526.776	4831.26
527.142	4851.14
527.508	4878.49
527.874	4920.52
528.241	4923.01
528.607	4946.06
528.973	5018.37
529.339	4974.08
529.705	5038.94
530.071	5054.53
530.437	5067.18
530.803	5104.47
531.169	5147.63
531.535	5123.23
531.901	5159.38
532.267	5150.34
532.632	5250.23
532.998	5227.86
533.364	5279.61
533.73	5228.76
534.095	5301.08
534.461	5339.27
534.826	5335.88
535.192	5362.99
535.557	5394.18
535.923	5417
536.288	5441.18
536.653	5477.12
537.019	5437.79
537.384	5482.31
537.749	5485.7
538.114	5501.75
538.479	5494.52
538.845	5550.11
539.21	5568.19
539.575	5554.18
539.94	5615.87
540.305	5664.46
540.67	5670.78
541.034	5666.94
541.399	5757.11
541.764	5701.29
542.129	5774.74
542.494	5758.01
542.858	5793.27
543.223	5808.63
543.587	5863.55
543.952	5860.38
544.316	5872.36
544.681	5877.11
545.045	5864.22
545.41	5922.53
545.774	5966.37
546.138	6038.91
546.503	6003.43
546.867	6015.86
547.231	6048.17
547.595	6070.32
547.959	6118.45
548.324	6136.31
548.688	6167.04
549.052	6179.24
549.416	6157.55
549.779	6201.16
550.143	6220.15
550.507	6261.5
550.871	6287.94
551.235	6293.59
551.599	6375.62
551.962	6354.83
552.326	6364.1
552.689	6409.75
553.053	6321.39
553.417	6357.32
553.78	6426.24
554.143	6430.31
554.507	6487.94
554.87	6516.18
555.234	6513.92
555.597	6427.83
555.96	6530.87
556.323	6531.33
556.686	6625.79
557.05	6606.13
557.413	6609.97
557.776	6613.36
558.139	6693.36
558.502	6693.13
558.865	6738.78
559.228	6781.94
559.59	6782.84
559.953	6753.24
560.316	6829.62
560.679	6842.05
561.041	6886.57
561.404	6927.25
561.767	6910.3
562.129	6826.46
562.492	6966.12
562.854	7000.92
563.217	6994.14
563.579	7016.74
563.941	7081.14
564.304	7067.13
564.666	7108.03
565.028	7112.78
565.39	7103.97
565.753	7218.99
566.115	7174.02
566.477	7227.35
566.839	7238.43
567.201	7336.73
567.563	7331.98
567.925	7405.43
568.287	7383.05
568.648	7381.92
569.01	7452.88
569.372	7422.6
569.734	7448.82
570.095	7523.84
570.457	7562.71
570.819	7534.01
571.18	7593.44
571.542	7615.14
571.903	7611.75
572.265	7714.8
572.626	7737.62
572.987	7775.59
573.349	7819.2
573.71	7808.81
574.071	7898.3
574.432	7926.54
574.794	7981.68
575.155	8033.21
575.516	8077.27
575.877	8179.42
576.238	8172.64
576.599	8336.25
576.96	8300.32
577.32	8377.38
577.681	8515.45
578.042	8509.58
578.403	8581.44
578.763	8699.63
579.124	8731.49
579.485	8810.14
579.845	8954.76
580.206	8989.79
580.566	9132.84
580.927	9217.58
581.287	9349.33
581.648	9482.89
582.008	9543.45
582.368	9632.94
582.728	9774.4
583.089	9902.76
583.449	10047.39
583.809	10172.13
584.169	10322.64
584.529	10519.47
584.889	10668.39
585.249	10826.81
585.609	10981.15
585.969	11194.71
586.329	11355.83
586.688	11504.53
587.048	11718.53
587.408	11884.86
587.768	12030.16
588.127	12339.31
588.487	12506.76
588.846	12840.99
589.206	12907.43
589.565	13054.77
589.925	13455.89
590.284	13622.44
590.643	13859.04
591.003	14147.4
591.362	14362.53
591.721	14560.49
592.08	14893.14
592.44	15122.06
592.799	15348.72
593.158	15642.72
593.517	15906.22
593.876	16165.65
594.235	16433.21
594.593	16609.7
594.952	17070.26
595.311	17239.52
595.67	17564.26
596.029	17878.6
596.387	18166.27
596.746	18498.47
597.104	18700.5
597.463	18995.4
597.822	19261.61
598.18	19450.76
598.538	19778.66
598.897	20107.01
599.255	20252.77
599.613	20700.9
599.972	20968.01
600.33	21277.83
600.688	21445.74
601.046	21875.33
601.404	22149.9
601.762	22333.62
602.12	22721.18
602.478	22927.5
602.836	23150.32
603.194	23376.98
603.552	23626.92
603.91	23856.29
604.268	24249.05
604.625	24317.98
604.983	24672.09
605.341	24779.21
605.698	25105.07
606.056	25427.1
606.413	25605.63
606.771	25852.63
607.128	26245.84
607.485	26267.98
607.843	26447.19
608.2	26807.85
608.557	27072.71
608.914	27345.47
609.272	27593.14
609.629	27891.44
609.986	28046.92
610.343	28202.39
610.7	28540.69
611.057	28539.79
611.414	28860.91
611.771	28993.11
612.127	29286.21
612.484	29370.5
612.841	29692.75
613.198	29650.27
613.554	29893.65
613.911	30150.82
614.267	30238.5
614.624	30321.89
614.98	30741.08
615.337	31005.94
615.693	31083.22
616.05	31196.67
616.406	31384.68
616.762	31394.63
617.118	31643.21
617.475	31715.97
617.831	32038.9
618.187	32039.81
618.543	32174.27
618.899	32370.42
619.255	32532
619.611	32574.03
619.967	32821.93
620.323	32919.56
620.678	32931.54
621.034	33018.99
621.39	33131.53
621.746	33082.27
622.101	33574.91
622.457	33325.88
622.812	33457.17
623.168	33739.65
623.523	33771.51
623.879	34042.01
624.234	33872.53
624.589	33938.51
624.945	34150.49
625.3	34177.15
625.655	34311.16
626.01	34422.8
626.365	34507.09
626.72	34405.62
627.075	34521.1
627.43	34603.58
627.785	34545.05
628.14	34685.39
628.495	34897.59
628.85	34874.08
629.205	34744.37
629.559	34937.58
629.914	35013.29
630.269	35045.38
630.623	34995.44
630.978	35048.77
631.332	35173.28
631.687	35186.39
632.041	35110.01
632.396	35198.82
632.75	35133.06
633.104	35232.49
633.459	35074.08
633.813	35132.38
634.167	35143
634.521	35242.43
634.875	35302.32
635.229	35170.35
635.583	35009.9
635.937	35219.16
636.291	35233.62
636.645	35162.89
636.999	35186.17
637.352	35260.29
637.706	35091.93
638.06	35340.06
638.413	35293.96
638.767	35133.74
639.121	35167.86
639.474	35137.8
639.828	35057.81
640.181	35176.67
640.534	35199.95
640.888	35145.71
641.241	35184.58
641.594	35128.31
641.947	35120.4
642.301	35100.74
642.654	35034.08
643.007	35246.28
643.36	35094.42
643.713	34999.73
644.066	35263.23
644.419	35019.84
644.771	34798.15
645.124	34484.49
645.477	34503.47
645.83	34273.19
646.182	34248.34
646.535	33994.33
646.888	34107.55
647.24	34027.78
647.593	34239.98
647.945	34182.8
648.298	33939.64
648.65	33927.44
649.002	33757.5
649.355	34154.33
649.707	34043.37
650.059	34118.17
650.411	34478.84
650.763	34481.55
651.115	34838.38
651.467	34706.86
651.819	34671.38
652.171	34755.67
652.523	34671.15
652.875	34589.34
653.227	34572.85
653.578	34793.41
653.93	34599.06
654.282	34496.01
654.633	34487.43
654.985	34425.73
655.337	34588.21
655.688	34524.49
656.039	34568.1
656.391	34347.77
656.742	34516.13
657.094	34504.38
657.445	34495.11
657.796	34561.32
658.147	34522.91
658.498	34467.99
658.849	34530.82
659.2	34439.52
659.551	34302.8
659.902	34539.18
660.253	34380.08
660.604	34472.06
660.955	34310.71
661.306	34381.67
661.656	34389.35
662.007	34347.54
662.358	34331.72
662.708	34303.48
663.059	34315
663.409	34192.07
663.76	34354.32
664.11	34341.22
664.461	34419.63
664.811	34261.67
665.161	34197.04
665.511	34261.22
665.862	34296.02
666.212	34304.61
666.562	34296.25
666.912	34221.67
667.262	34125.85
667.612	34154.78
667.962	34272.74
668.312	33981.23
668.662	34320.2
669.011	34153.42
669.361	34148.23
669.711	34223.48
670.06	34162.92
670.41	34184.84
670.76	34071.39
671.109	34116.59
671.459	34252.86
671.808	34074.56
672.157	34211.28
672.507	33863.94
672.856	34033.43
673.205	34134.89
673.554	34110.26
673.904	34040.66
674.253	34063.93
674.602	33940.1
674.951	33459.66
675.3	33420.11
675.649	33902.81
675.998	33854
676.346	33962.47
676.695	33909.59
677.044	33691.97
677.393	33827.33
677.741	33923.6
678.09	33697.16
678.438	33757.95
678.787	33730.84
679.135	33683.83
679.484	33520.9
679.832	33547.79
680.181	33331.3
680.529	33632.53
680.877	33554.8
681.225	33410.17
681.573	33650.61
681.922	33433.22
682.27	33212.43
682.618	33315.03
682.966	33267.12
683.314	33155.03
683.661	33219.66
684.009	32890.86
684.357	32962.72
684.705	32861.25
685.053	32999.33
685.4	32939.22
685.748	32668.72
686.095	32854.93
686.443	32677.76
686.79	32592.34
687.138	32695.38
687.485	32735.83
687.832	32612.9
688.18	32693.35
688.527	32416.97
688.874	32397.99
689.221	32242.29
689.568	32360.25
689.915	32252.46
690.262	32065.34
690.609	32116.87
690.956	31930.43
691.303	31921.84
691.65	31764.33
691.997	31858.34
692.344	31512.36
692.69	31619.48
693.037	31665.13
693.383	31404.34
693.73	31468.75
694.077	31270.34
694.423	31304.46
694.769	31162.09
695.116	31143.33
695.462	31045.71
695.808	31007.74
696.155	30958.93
696.501	30734.3
696.847	30877.35
697.193	30479.4
697.539	30701.54
697.885	30403.01
698.231	30443.69
698.577	30379.51
698.923	30281.44
699.269	30169.57
699.614	29975
699.96	29914.67
700.306	30014.32
700.651	29910.37
700.997	29750.6
701.342	29571.4
701.688	29671.28
702.033	29609.59
702.379	29539.76
702.724	29478.52
703.069	29524.85
703.415	29158.75
703.76	29148.13
704.105	29142.26
704.45	29113.56
704.795	28889.16
705.14	28893.45
705.485	29034.91
705.83	28825.88
706.175	28857.29
706.52	28724.64
706.865	28625.43
707.209	28538.43
707.554	28474.48
707.899	28605.1
708.243	28376.17
708.588	28330.53
708.932	28197.65
709.277	28211.66
709.621	28180.47
709.966	28034.49
710.31	28112
710.654	27846.7
710.998	27960.37
711.342	27941.84
711.687	27879.69
712.031	27674.72
712.375	27575.74
712.719	27555.18
713.063	27540.04
713.407	27632.69
713.75	27389.08
714.094	27418.69
714.438	27364.9
714.782	27331.91
715.125	27307.95
715.469	27203.32
715.812	27096.21
716.156	27065.25
716.499	26999.26
716.843	27044.68
717.186	26900.96
717.53	27054.63
717.873	27046.72
718.216	26734.41
718.559	26786.16
718.902	26616.45
719.246	26675.43
719.589	26576.9
719.932	26395.66
720.275	26450.8
720.617	26265.5
720.96	26385.72
721.303	26384.59
721.646	26419.39
721.989	26232.28
722.331	26227.76
722.674	26253.29
723.016	26146.4
723.359	26165.39
723.701	26145.27
724.044	25942.57
724.386	25882.68
724.729	25981.89
725.071	25963.81
725.413	25798.39
725.755	25835
726.097	25652.18
726.439	25618.73
726.782	25721.1
727.124	25628.22
727.465	25641.11
727.807	25556.81
728.149	25467.32
728.491	25434.33
728.833	25516.81
729.175	25482.47
729.516	25307.1
729.858	25302.36
730.199	25280.44
730.541	25210.16
730.882	25240.89
731.224	25238.63
731.565	25064.17
731.906	25067.11
732.248	25226.2
732.589	24957.96
732.93	24912.54
733.271	24983.72
733.612	24855.59
733.953	25034.57
734.294	24867.57
734.635	24814.69
734.976	24795.48
735.317	24629.15
735.658	24688.14
735.999	24659.44
736.339	24586.22
736.68	24727.68
737.021	24667.57
737.361	24420.8
737.702	24553.9
738.042	24552.77
738.383	24505.09
738.723	24458.31
739.063	24359.11
739.404	24417.18
739.744	24371.53
740.084	24359.11
740.424	24260.58
740.764	24183.06
741.104	24235.49
741.444	24172.44
741.784	24048.6
742.124	24104.42
742.464	24229.39
742.804	23970.64
743.143	23886.8
743.483	24059.45
743.823	23767.48
744.162	23800.7
744.502	23925.22
744.841	23752.57
745.181	23861.27
745.52	23762.96
745.86	23779.91
746.199	23655.17
746.538	23682.29
746.877	23679.12
747.216	23673.47
747.556	23610.2
747.895	23622.18
748.234	23530.65
748.573	23458.11
748.911	23355.74
749.25	23483.42
749.589	23326.36
749.928	23335.4
750.267	23389.41
750.605	23184.67
750.944	23237.78
751.283	23096.54
751.621	23182.87
751.96	23093.6
752.298	23091.79
752.636	23055.64
752.975	23020.84
753.313	22880.5
753.651	22983.77
753.989	22777.9
754.327	22799.82
754.666	22709.21
755.004	22773.84
755.342	22741.97
755.679	22750.56
756.017	22602.09
756.355	22699.71
756.693	22612.03
757.031	22497.69
757.368	22398.48
757.706	22381.76
758.044	22337.69
758.381	22347.41
758.719	22252.49
759.056	22260.63
759.394	22200.07
759.731	22071.48
760.068	22027.64
760.405	22076.23
760.743	21814.31
761.08	21994.87
761.417	21795.33
761.754	21666.52
762.091	21706.75
762.428	21585.84
762.765	21509.01
763.102	21471.72
763.438	21423.59
763.775	21276.02
764.112	21360.99
764.449	21348.56
764.785	21247.55
765.122	20987.22
765.458	20913.32
765.795	21065.63
766.131	20974.34
766.467	20904.96
766.804	20747.9
767.14	20688.47
767.476	20705.64
767.812	20649.82
768.148	20640.33
768.485	20396.95
768.821	20430.85
769.157	20334.35
769.492	20266.78
769.828	20170.97
770.164	20112.21
770.5	20084.42
770.836	19993.12
771.171	19891.2
771.507	19808.26
771.842	19741.83
772.178	19781.6
772.513	19706.57
772.849	19602.62
773.184	19576.63
773.519	19548.16
773.855	19410.76
774.19	19369.86
774.525	19255.74
774.86	19279.46
775.195	19147.49
775.53	19187.49
775.865	19016.87
776.2	18909.08
776.535	18743.89
776.87	18679.71
777.205	18769.2
777.539	18650.55
777.874	18632.93
778.209	18434.52
778.543	18432.93
778.878	18332.6
779.212	18374.63
779.547	18227.52
779.881	18349.32
780.215	18121.53
780.55	18122.66
780.884	18058.93
781.218	17992.94
781.552	17994.75
781.886	17886.06
782.22	17729.9
782.554	17813.29
782.888	17456.24
783.222	17554.76
783.556	17388.22
783.889	17427.54
784.223	17215.79
784.557	17327.65
784.89	17322.68
785.224	17151.39
785.557	17069.13
785.891	17082.23
786.224	16992.75
786.558	16946.19
786.891	16868
787.224	16812.19
787.557	16729.93
787.891	16738.06
788.224	16688.12
788.557	16708.46
788.89	16595.69
789.223	16610.38
789.556	16461.01
789.888	16342.82
790.221	16377.39
790.554	16128.14
790.887	16192.31
791.219	16195.93
791.552	16151.41
791.884	15988.7
792.217	16027.12
792.549	15950.96
792.882	15788.94
793.214	15727.92
793.546	15805.66
793.879	15619.9
794.211	15595.95
794.543	15627.81
794.875	15573.57
795.207	15610.18
795.539	15441.15
795.871	15447.02
796.203	15307.59
796.535	15304.43
796.867	15226.01
797.198	15175.39
797.53	15178.1
797.862	15059.69
798.193	15096.98
798.525	14983.76
798.856	15075.51
799.188	14954.83
799.519	14774.05
799.85	14798.9
800.182	14792.35
800.513	14736.31
800.844	14658.8
801.175	14652.69
801.506	14635.07
801.837	14543.09
802.168	14548.06
802.499	14516.43
802.83	14419.03
803.161	14374.28
803.491	14295.87
803.822	14357.79
804.153	14321.86
804.483	14174.74
804.814	14082.54
805.145	14108.53
805.475	14047.29
805.805	14134.29
806.136	13983.78
806.466	13976.33
806.796	13934.52
807.126	13772.72
807.457	13738.59
807.787	13753.06
808.117	13706.28
808.447	13679.16
808.777	13671.93
809.107	13676
809.436	13548.77
809.766	13579.05
810.096	13557.81
810.426	13476.91
810.755	13452.73
811.085	13489.11
811.414	13412.05
811.744	13349.23
812.073	13423.35
812.403	13226.74
812.732	13275.55
813.061	13249.57
813.39	13093.41
813.719	13162.11
814.049	13127.76
814.378	13094.32
814.707	12986.3
815.036	12925.51
815.365	12917.6
815.693	12748.34
816.022	12869.92
816.351	12820.88
816.68	12711.73
817.008	12801.22
817.337	12646.19
817.665	12688.45
817.994	12667.89
818.322	12713.76
818.651	12629.02
818.979	12550.6
819.307	12588.34
819.636	12530.72
819.964	12471.51
820.292	12527.33
820.62	12496.82
820.948	12381.12
821.276	12457.72
821.604	12443.03
821.932	12502.69
822.259	12406.65
822.587	12375.69
822.915	12413.88
823.243	12474.67
823.57	12431.28
823.898	12339.53
824.225	12368.91
824.553	12384.05
824.88	12378.18
825.207	12372.98
825.535	12424.28
825.862	12471.28
826.189	12358.74
826.516	12428.35
826.843	12415.24
827.17	12377.95
827.497	12397.84
827.824	12351.74
828.151	12453.88
828.478	12420.89
828.805	12405.07
829.131	12410.04
829.458	12363.04
829.785	12288.91
830.111	12395.35
830.438	12397.61
830.764	12353.55
831.09	12323.49
831.417	12292.98
831.743	12285.52
832.069	12323.04
832.395	12277.62
832.722	12288.01
833.048	12270.84
833.374	12258.86
833.7	12208.46
834.026	12247.33
834.351	12258.41
834.677	12216.83
835.003	12198.75
835.329	12237.84
835.654	12229.25
835.98	12128.92
836.306	12199.42
836.631	12081.01
836.956	12073.78
837.282	12125.53
837.607	12080.33
837.932	11942.71
838.258	12056.15
838.583	12019.32
838.908	11889.6
839.233	11941.35
839.558	11978.41
839.883	11868.81
840.208	11868.36
840.533	11909.04
840.858	11895.25
841.182	11853.67
841.507	11794.01
841.832	11661.36
842.156	11796.5
842.481	11756.72
842.805	11668.59
843.13	11667.69
843.454	11671.53
843.778	11579.33
844.103	11526
844.427	11565.09
844.751	11609.38
845.075	11510.63
845.399	11469.27
845.723	11363.74
846.047	11368.49
846.371	11329.39
846.695	11340.92
847.019	11286.91
847.343	11206.68
847.666	11163.29
847.99	11118.55
848.313	11095.05
848.637	11023.64
848.96	11065.22
849.284	11001.94
849.607	10859.12
849.931	10925.33
850.254	10853.92
850.577	10720.37
850.9	10752.46
851.223	10662.06
851.546	10678.79
851.869	10549.07
852.192	10607.15
852.515	10481.96
852.838	10448.74
853.161	10442.86
853.483	10326.71
853.806	10347.95
854.129	10392.69
854.451	10340.26
854.774	10226.6
855.096	10233.15
855.419	10192.25
855.741	10180.5
856.063	10076.54
856.385	10063.44
856.708	10032.7
857.03	10065.92
857.352	10031.57
857.674	9967.62
857.996	9994.96
858.318	9910.45
858.64	9953.61
858.961	9915.19
859.283	9788.87
859.605	9746.38
859.926	9755.2
860.248	9706.61
860.57	9720.62
860.891	9740.73
861.212	9642.2
861.534	9701.86
861.855	9624.35
862.176	9645.82
862.498	9670
862.819	9629.55
863.14	9542.55
863.461	9578.93
863.782	9534.64
864.103	9546.16
864.424	9479.27
864.745	9509.33
865.065	9370.12
865.386	9453.28
865.707	9375.09
866.027	9420.97
866.348	9396.79
866.668	9395.2
866.989	9347.97
867.309	9291.93
867.63	9350.23
867.95	9312.27
868.27	9220.29
868.59	9250.12
868.91	9319.27
869.23	9262.1
869.55	9197.7
869.87	9269.56
870.19	9177.36
870.51	9175.55
870.83	9192.95
871.15	9174.87
871.469	9094.2
871.789	9193.4
872.109	9199.5
872.428	9053.52
872.748	9082.22
873.067	9109.11
873.386	9077.25
873.706	9081.54
874.025	9010.13
874.344	8962
874.663	8988.89
874.982	9016.23
875.301	8999.28
875.62	8925.61
875.939	8907.99
876.258	8917.48
876.577	8893.3
876.896	8850.36
877.214	8904.82
877.533	8810.59
877.852	8777.37
878.17	8906.18
878.489	8886.97
878.807	8875.67
879.125	8724.94
879.444	8827.31
879.762	8762.23
880.08	8743.7
880.398	8724.04
880.716	8710.03
881.034	8703.02
881.352	8707.09
881.67	8702.12
881.988	8625.96
882.306	8654.89
882.624	8613.53
882.941	8585.73
883.259	8546.64
883.577	8550.48
883.894	8567.2
884.212	8512.29
884.529	8598.16
884.846	8477.71
885.164	8466.64
885.481	8435.91
885.798	8433.42
886.115	8344.61
886.432	8358.62
886.75	8358.17
887.067	8367.44
887.383	8303.26
887.7	8349.81
888.017	8173.77
888.334	8245.86
888.651	8181.23
888.967	8168.57
889.284	8151.4
889.6	8148.46
889.917	8116.82
890.233	8159.98
890.55	8081.34
890.866	8052.64
891.182	8032.75
891.498	8007.67
891.815	7983.04
892.131	7922.93
892.447	7988.01
892.763	7933.77
893.079	7919.31
893.395	7898.52
893.71	7786.21
894.026	7842.7
894.342	7834.12
894.657	7785.3
894.973	7813.78
895.289	7728.13
895.604	7698.75
895.92	7644.29
896.235	7578.98
896.55	7637.96
896.865	7619.43
897.181	7542.82
897.496	7614.46
897.811	7517.06
898.126	7499.66
898.441	7500.79
898.756	7415.37
899.071	7403.17
899.386	7384.41
899.7	7338.08
900.015	7312.77
900.33	7281.14
900.644	7286.79
900.959	7239.78
901.273	7199.56
901.588	7216.51
901.902	7137.86
902.216	7200.01
902.531	7124.08
902.845	7096.28
903.159	7084.08
903.473	7018.32
903.787	7047.92
904.101	6979.22
904.415	6959.79
904.729	6972.22
905.042	6903.52
905.356	6864.2
905.67	6904.2
905.984	6857.87
906.297	6871.88
906.611	6756.86
906.924	6794.82
907.237	6764.31
907.551	6732.68
907.864	6756.63
908.177	6709.63
908.491	6668.5
908.804	6611.55
909.117	6530.87
909.43	6612.45
909.743	6570.19
910.056	6538.78
910.368	6544.43
910.681	6462.63
910.994	6470.76
911.307	6417.66
911.619	6385.57
911.932	6336.3
912.244	6315.51
912.557	6358.9
912.869	6349.18
913.181	6274.61
913.494	6232.12
913.806	6206.14
914.118	6254.72
914.43	6164.1
914.742	6121.62
915.054	6142.18
915.366	6123.2
915.678	6085.69
915.99	6044.78
916.302	5998.91
916.613	5943.09
916.925	5973.37
917.236	5948.06
917.548	5926.14
917.859	5958.46
918.171	5859.93
918.482	5831.46
918.794	5832.36
919.105	5802.76
919.416	5739.03
919.727	5751.46
920.038	5725.7
920.349	5649.31
920.66	5609.99
920.971	5698.35
921.282	5605.02
921.593	5561.41
921.903	5565.02
922.214	5594.17
922.525	5519.15
922.835	5531.8
923.146	5425.82
923.456	5486.16
923.767	5406.84
924.077	5471.69
924.387	5369.55
924.697	5376.1
925.008	5367.06
925.318	5379.49
925.628	5341.3
925.938	5305.82
926.248	5259.27
926.558	5249.55
926.867	5250.68
927.177	5207.74
927.487	5230.12
927.796	5161.64
928.106	5161.42
928.416	5109.22
928.725	5123.45
929.034	5035.32
929.344	5079.39
929.653	5038.71
929.962	4984.93
930.271	4966.62
930.581	4959.16
930.89	4887.3
931.199	4886.62
931.508	4954.42
931.817	4905.38
932.125	4874.42
932.434	4863.12
932.743	4810.92
933.051	4753.75
933.36	4728.89
933.669	4761.43
933.977	4740.19
934.286	4699.06
934.594	4727.08
934.902	4673.52
935.21	4654.99
935.519	4654.99
935.827	4647.08
936.135	4619.06
936.443	4549.23
936.751	4608.44
937.059	4574.54
937.367	4545.39
937.674	4473.07
937.982	4529.12
938.29	4442.57
938.597	4467.65
938.905	4436.47
939.213	4387.2
939.52	4400.31
939.827	4398.05
940.135	4339.74
940.442	4340.42
940.749	4350.59
941.056	4364.6
941.363	4293.64
941.67	4269.01
941.977	4253.65
942.284	4224.72
942.591	4243.7
942.898	4211.61
943.205	4162.12
943.511	4153.31
943.818	4088.68
944.125	4128.45
944.431	4101.33
944.738	4111.73
945.044	4076.02
945.35	4016.14
945.657	4022.46
945.963	4024.5
946.269	4009.81
946.575	4021.11
946.881	3969.58
947.187	3963.94
947.493	3993.09
947.799	3933.43
948.105	3882.58
948.41	3849.14
948.716	3890.26
949.022	3863.6
949.327	3849.36
949.633	3837.61
949.938	3800.32
950.244	3815.01
950.549	3762.13
950.854	3777.73
951.16	3738.63
951.465	3717.39
951.77	3694.79
952.075	3711.29
952.38	3710.83
952.685	3688.01
952.99	3623.38
953.294	3637.84
953.599	3636.26
953.904	3599.65
954.209	3582.25
954.513	3564.17
954.818	3574.57
955.122	3555.81
955.426	3540.44
955.731	3540.22
956.035	3480.33
956.339	3488.47
956.643	3467.9
956.948	3424.97
957.252	3401.92
957.556	3419.99
957.86	3422.25
958.163	3391.07
958.467	3375.02
958.771	3376.83
959.075	3336.16
959.378	3333.67
959.682	3328.47
959.985	3316.72
960.289	3328.47
960.592	3266.1
960.896	3268.59
961.199	3225.88
961.502	3271.07
961.805	3234.01
962.108	3205.54
962.411	3161.92
962.714	3175.03
963.017	3229.72
963.32	3166.44
963.623	3145.43
963.926	3127.8
964.228	3088.7
964.531	3101.36
964.833	3079.21
965.136	3077.18
965.438	3078.53
965.741	3007.12
966.043	3059.1
966.345	3005.54
966.648	3003.73
966.95	2993.11
967.252	2947.69
967.554	2956.5
967.856	2974.36
968.158	2958.54
968.46	2909.95
968.761	2933.23
969.063	2900.01
969.365	2894.13
969.666	2876.96
969.968	2854.59
970.269	2839.45
970.571	2848.48
970.872	2848.26
971.174	2791.99
971.475	2831.31
971.776	2790.63
972.077	2744.98
972.378	2780.24
972.679	2751.99
972.98	2762.16
973.281	2719.67
973.582	2751.99
973.883	2680.13
974.183	2680.35
974.484	2695.27
974.785	2654.82
975.085	2656.17
975.386	2677.87
975.686	2655.5
975.986	2588.83
976.287	2620.69
976.587	2618.89
976.887	2629.96
977.187	2616.4
977.487	2608.72
977.787	2563.97
978.087	2546.35
978.387	2537.08
978.687	2550.41
978.987	2536.4
979.286	2526.68
979.586	2490.3
979.885	2490.3
980.185	2479.91
980.484	2448.49
980.784	2449.62
981.083	2459.34
981.382	2439.68
981.682	2453.47
981.981	2419.57
982.28	2401.49
982.579	2394.94
982.878	2374.82
983.177	2375.5
983.475	2383.64
983.774	2342.74
984.073	2332.79
984.372	2306.8
984.67	2362.4
984.969	2322.4
985.267	2318.1
985.566	2281.49
985.864	2312.68
986.162	2260.7
986.461	2266.58
986.759	2275.84
987.057	2239.69
987.355	2232.68
987.653	2241.49
987.951	2214.38
988.249	2181.84
988.547	2198.78
988.844	2152.01
989.142	2194.94
989.44	2154.04
989.737	2163.76
990.035	2167.6
990.332	2143.19
990.63	2127.6
990.927	2104.78
991.224	2090.99
991.521	2121.95
991.819	2086.24
992.116	2071.78
992.413	2078.34
992.71	2069.07
993.006	2050.99
993.303	2054.83
993.6	2090.99
993.897	2032.46
994.193	2054.61
994.49	2017.55
994.787	2006.02
995.083	1981.16
995.379	2007.6
995.676	1980.94
995.972	1927.15
996.268	1966.02
996.565	1940.94
996.861	1925.34
997.157	1909.53
997.453	1920.83
997.749	1873.14
998.044	1888.06
998.34	1883.31
998.636	1869.53
998.932	1870.88
999.227	1839.47
999.523	1866.59
999.818	1822.75
1000.114	1834.27
1000.409	1821.39
1000.704	1836.08
1001	1819.81
1001.295	1775.97
1001.59	1759.7
1001.885	1773.48
1002.18	1767.83
1002.475	1771
1002.77	1762.19
1003.065	1742.52
1003.359	1723.32
1003.654	1714.73
1003.949	1715.86
1004.243	1712.24
1004.538	1701.4
1004.832	1660.95
1005.127	1677.67
1005.421	1640.15
1005.715	1679.48
1006.009	1645.35
1006.304	1647.16
1006.598	1630.44
1006.892	1599.93
1007.186	1612.81
1007.48	1623.43
1007.773	1582.08
1008.067	1616.65
1008.361	1572.59
1008.655	1558.8
1008.948	1574.17
1009.242	1550.67
1009.535	1563.77
1009.829	1537.33
1010.122	1512.7
1010.415	1507.28
1010.708	1512.02
1011.001	1529.2
1011.295	1489.42
1011.588	1487.16
1011.881	1496.2
1012.173	1456.66
1012.466	1495.75
1012.759	1460.95
1013.052	1423.44
1013.344	1456.43
1013.637	1431.35
1013.93	1415.75
1014.222	1392.25
1014.514	1412.14
1014.807	1399.48
1015.099	1384.57
1015.391	1366.72
1015.683	1354.29
1015.976	1385.25
1016.268	1369.65
1016.56	1359.94
1016.851	1347.28
1017.143	1330.56
1017.435	1319.49
1017.727	1321.74
1018.018	1331.01
1018.31	1307.06
1018.602	1281.52
1018.893	1302.99
1019.185	1299.82
1019.476	1246.72
1019.767	1262.76
1020.058	1280.16
1020.35	1251.92
1020.641	1257.34
1020.932	1219.15
1021.223	1241.07
1021.514	1215.31
1021.804	1207.4
1022.095	1212.6
1022.386	1196.1
1022.677	1192.93
1022.967	1191.58
1023.258	1169.66
1023.548	1201.52
1023.839	1172.14
1024.129	1173.5
1024.419	1133.5
1024.709	1157.68
1025	1143.9
1025.29	1122.2
1025.58	1110.9
1025.87	1133.5
1026.16	1107.29
1026.449	1123.78
1026.739	1089.43
1027.029	1076.1
1027.319	1079.27
1027.608	1068.87
1027.898	1058.93
1028.187	1063.45
1028.477	1042.2
1028.766	1041.98
1029.055	1043.56
1029.344	1046.5
1029.634	1026.61
1029.923	1022.32
1030.212	1016.89
1030.501	1019.83
1030.79	1005.82
1031.078	1020.51
1031.367	1002.21
1031.656	967.63
1031.945	965.6
1032.233	982.54
1032.522	959.95
1032.81	987.29
1033.099	958.82
1033.387	949.55
1033.675	936.67
1033.963	930.79
1034.251	961.75
1034.54	917.46
1034.828	907.52
1035.116	897.35
1035.403	924.69
1035.691	913.62
1035.979	905.26
1036.267	882.21
1036.554	917.69
1036.842	886.73
1037.129	864.81
1037.417	871.36
1037.704	872.72
1037.992	878.37
1038.279	869.78
1038.566	846.73
1038.853	846.73
1039.14	846.73
