Data from hue_280_FLMS001491_00087.txt Node
Date: Tue Feb 07 15:55:55 GMT 2017
User: dcchb
Spectrometer: FLMS00149
Trigger mode: 0
Integration Time (sec): 2.000000E-2
Scans to average: 10
Electric dark correction enabled: true
Nonlinearity correction enabled: false
Boxcar width: 0
XAxis mode: Wavelengths
Number of Pixels in Spectrum: 2048
>>>>>Begin Spectral Data<<<<<
341.393	-27.85
341.776	-27.85
342.16	-27.85
342.543	-65.82
342.927	-66.5
343.31	-64.69
343.693	-69.21
344.077	-70.11
344.46	-53.61
344.843	-54.07
345.226	-36.67
345.61	-27.63
345.993	-21.3
346.376	-8.42
346.759	-16.1
347.142	22.77
347.525	46.27
347.908	62.99
348.291	80.62
348.674	90.56
349.057	118.58
349.44	121.3
349.823	150
350.206	162.2
350.588	197.23
350.971	216.43
351.354	241.52
351.737	239.49
352.119	235.64
352.502	257.56
352.884	257.79
353.267	268.64
353.65	290.11
354.032	289.43
354.414	294.4
354.797	284.46
355.179	306.15
355.562	318.81
355.944	320.84
356.326	335.75
356.709	310.44
357.091	334.4
357.473	327.62
357.855	324
358.238	345.47
358.62	329.65
359.002	327.62
359.384	321.74
359.766	346.83
360.148	353.61
360.53	354.51
360.912	334.62
361.294	307.96
361.676	319.03
362.057	337.56
362.439	324
362.821	335.75
363.203	344.57
363.584	332.14
363.966	313.16
364.348	312.93
364.729	309.31
365.111	326.04
365.493	304.57
365.874	306.38
366.256	311.8
366.637	305.7
367.019	314.29
367.4	323.55
367.781	306.6
368.163	315.42
368.544	331.01
368.925	307.05
369.306	313.61
369.688	328.97
370.069	334.17
370.45	299.37
370.831	301.63
371.212	313.16
371.593	308.86
371.974	306.38
372.355	293.72
372.736	325.81
373.117	306.6
373.498	306.6
373.879	293.04
374.26	293.5
374.641	313.38
375.021	329.65
375.402	328.3
375.783	319.03
376.163	340.73
376.544	319.71
376.925	348.63
377.305	322.19
377.686	310.44
378.066	315.64
378.447	316.32
378.827	322.87
379.208	318.35
379.588	343.21
379.968	342.08
380.349	330.56
380.729	324.91
381.109	341.86
381.489	344.57
381.87	352.7
382.25	340.05
382.63	328.97
383.01	354.74
383.39	324
383.77	341.18
384.15	345.02
384.53	321.97
384.91	361.97
385.29	340.95
385.67	347.5
386.049	362.65
386.429	345.7
386.809	341.18
387.189	341.4
387.568	342.53
387.948	377.11
388.328	349.99
388.707	354.74
389.087	357.22
389.466	373.04
389.846	354.28
390.225	361.29
390.605	369.2
390.984	373.04
391.363	353.61
391.743	372.14
392.122	359.26
392.501	385.24
392.881	381.18
393.26	366.49
393.639	383.66
394.018	367.17
394.397	388.41
394.776	396.54
395.155	389.09
395.534	415.3
395.913	370.1
396.292	387.5
396.671	385.92
397.05	389.99
397.429	385.47
397.808	403.55
398.186	391.8
398.565	398.58
398.944	389.31
399.323	400.16
399.701	392.25
400.08	429.08
400.458	416.88
400.837	419.82
401.215	408.97
401.594	431.12
401.972	392.93
402.351	440.16
402.729	419.59
403.107	432.25
403.486	432.7
403.864	412.36
404.242	421.85
404.62	402.42
404.999	446.94
405.377	442.87
405.755	443.1
406.133	447.84
406.511	425.24
406.889	430.67
407.267	461.17
407.645	441.29
408.023	478.57
408.401	484.9
408.779	493.04
409.156	486.71
409.534	472.93
409.912	467.05
410.29	509.08
410.667	509.76
411.045	519.03
411.422	505.24
411.8	506.37
412.178	495.3
412.555	509.76
412.933	555.86
413.31	557.89
413.687	555.64
414.065	561.28
414.442	569.42
414.819	547.73
415.197	598.57
415.574	578.69
415.951	580.95
416.328	593.37
416.705	587.72
417.082	600.38
417.46	615.52
417.837	595.41
418.214	610.32
418.591	624.33
418.967	622.98
419.344	624.56
419.721	665.01
420.098	669.98
420.475	669.98
420.852	665.24
421.228	688.51
421.605	702.52
421.982	716.08
422.358	689.19
422.735	718.34
423.111	723.77
423.488	722.41
423.864	742.75
424.241	742.75
424.617	753.14
424.994	765.57
425.37	760.6
425.746	775.06
426.123	798.11
426.499	818.91
426.875	809.64
427.251	831.11
427.627	833.14
428.003	825.68
428.379	881.28
428.756	855.29
429.132	870.2
429.507	884.89
429.883	902.52
430.259	894.16
430.635	913.14
431.011	916.53
431.387	920.6
431.763	939.35
432.138	958.11
432.514	959.01
432.89	978.9
433.265	970.99
433.641	1019.8
434.016	999.47
434.392	1026.81
434.767	1041.27
435.143	1023.42
435.518	1054.83
435.894	1111.55
436.269	1086.24
436.644	1114.04
437.02	1111.33
437.395	1125.56
437.77	1160.14
438.145	1151.33
438.52	1174.15
438.895	1183.42
439.271	1163.3
439.646	1211.44
440.021	1205.34
440.395	1239.23
440.77	1232
441.145	1251.66
441.52	1245.79
441.895	1228.61
442.27	1260.7
442.645	1286.01
443.019	1285.56
443.394	1302.06
443.769	1299.34
444.143	1319
444.518	1350.42
444.892	1316.97
445.267	1334.37
445.641	1356.74
446.016	1360.36
446.39	1333.92
446.764	1383.18
447.139	1393.58
447.513	1374.6
447.887	1362.85
448.262	1368.27
448.636	1388.38
449.01	1385.9
449.384	1418.89
449.758	1408.95
450.132	1435.16
450.506	1467.48
450.88	1452.11
451.254	1427.25
451.628	1495.27
452.002	1477.19
452.376	1468.83
452.75	1490.98
453.123	1533.01
453.497	1529.39
453.871	1541.15
454.244	1566
454.618	1586.79
454.992	1565.78
455.365	1556.29
455.739	1611.2
456.112	1631.99
456.486	1618.43
456.859	1639
457.232	1655.49
457.606	1627.92
457.979	1671.54
458.352	1715.15
458.725	1691.88
459.099	1714.02
459.472	1707.7
459.845	1755.15
460.218	1777.75
460.591	1756.73
460.964	1757.86
461.337	1870.4
461.71	1815.94
462.083	1867.01
462.456	1849.84
462.829	1860.23
463.201	1872.66
463.574	1881.25
463.947	1895.03
464.32	1915.15
464.692	1938.65
465.065	1931.87
465.438	1972.77
465.81	1998.08
466.183	2067.69
466.555	2061.81
466.928	2052.54
467.3	2082.6
467.672	2092.32
468.045	2133.22
468.417	2109.72
468.789	2142.94
469.161	2165.76
469.534	2186.55
469.906	2186.55
470.278	2253.22
470.65	2210.73
471.022	2275.14
471.394	2324.18
471.766	2323.72
472.138	2336.15
472.51	2359.66
472.882	2396.72
473.253	2422.25
473.625	2430.84
473.997	2480.56
474.369	2490.95
474.74	2471.29
475.112	2536.15
475.484	2524.17
475.855	2586.77
476.227	2624.28
476.598	2670.16
476.97	2696.37
477.341	2744.28
477.713	2748.35
478.084	2765.75
478.455	2855.69
478.827	2843.03
479.198	2946.76
479.569	2928.68
479.94	2964.84
480.311	2963.48
480.682	3011.62
481.053	3075.34
481.424	3092.97
481.795	3145.85
482.166	3167.09
482.537	3199.86
482.908	3205.06
483.279	3296.13
483.65	3325.73
484.021	3344.26
484.391	3382
484.762	3406.41
485.133	3395.33
485.503	3471.26
485.874	3523.47
486.244	3550.36
486.615	3590.13
486.985	3615.89
487.356	3714.87
487.726	3662.9
488.097	3755.1
488.467	3692.95
488.837	3797.13
489.207	3840.52
489.578	3864.93
489.948	3894.53
490.318	3954.19
490.688	3903.34
491.058	4002.55
491.428	4049.78
491.798	4023.11
492.168	4157.57
492.538	4105.6
492.908	4141.08
493.278	4203.22
493.648	4234.18
494.017	4243.45
494.387	4250.23
494.757	4306.72
495.126	4330.45
495.496	4320.73
495.866	4372.26
496.235	4401.18
496.605	4420.39
496.974	4412.48
497.344	4486.15
497.713	4484.12
498.082	4491.35
498.452	4536.1
498.821	4584.23
499.19	4547.62
499.559	4575.87
499.928	4647.05
500.298	4614.06
500.667	4684.79
501.036	4630.78
501.405	4675.98
501.774	4674.85
502.143	4717.33
502.512	4734.73
502.88	4767.95
503.249	4738.58
503.618	4734.73
503.987	4842.3
504.356	4807.27
504.724	4819.48
505.093	4863.09
505.462	4889.31
505.83	4894.73
506.199	4937.89
506.567	4932.02
506.936	4919.81
507.304	5013.82
507.672	4978.8
508.041	5034.84
508.409	5054.27
508.777	5071.45
509.145	5080.94
509.514	5089.98
509.882	5087.27
510.25	5093.37
510.618	5088.62
510.986	5081.84
511.354	5085.91
511.722	5209.75
512.09	5211.78
512.458	5187.6
512.826	5196.87
513.193	5196.64
513.561	5212.24
513.929	5261.95
514.297	5312.57
514.664	5288.17
515.032	5282.29
515.4	5367.03
515.767	5340.14
516.135	5357.77
516.502	5272.8
516.869	5427.6
517.237	5389.18
517.604	5368.84
517.972	5447.94
518.339	5426.02
518.706	5445.68
519.073	5398.67
519.44	5457.2
519.808	5440.25
520.175	5449.52
520.542	5564.54
520.909	5535.84
521.276	5538.55
521.643	5577.88
522.009	5575.39
522.376	5611.32
522.743	5629.17
523.11	5664.88
523.477	5702.62
523.843	5642.73
524.21	5739
524.577	5732.45
524.943	5771.32
525.31	5747.81
525.676	5761.83
526.043	5838.89
526.409	5814.25
526.776	5901.26
527.142	5871.88
527.508	5889.96
527.874	5881.82
528.241	6007.24
528.607	5985.1
528.973	6014.02
529.339	5983.06
529.705	6000.92
530.071	6074.13
530.437	6089.73
530.803	6152.78
531.169	6159.33
531.535	6152.1
531.901	6124.53
532.267	6144.41
532.632	6166.56
532.998	6194.81
533.364	6240.91
533.73	6176.96
534.095	6259.89
534.461	6277.74
534.826	6280.68
535.192	6283.17
535.557	6291.08
535.923	6312.55
536.288	6333.11
536.653	6363.84
537.019	6252.66
537.384	6350.29
537.749	6332.88
538.114	6339.21
538.479	6391.64
538.845	6402.94
539.21	6364.75
539.575	6423.28
539.94	6455.14
540.305	6411.98
540.67	6457.17
541.034	6521.58
541.399	6493.11
541.764	6551.64
542.129	6571.97
542.494	6493.11
542.858	6583.95
543.223	6552.77
543.587	6568.13
543.952	6578.53
544.316	6634.12
544.681	6590.96
545.045	6626.44
545.41	6611.3
545.774	6640.45
546.138	6663.5
546.503	6675.25
546.867	6642.93
547.231	6698.3
547.595	6710.73
547.959	6705.98
548.324	6726.32
548.688	6715.7
549.052	6743.72
549.416	6749.37
549.779	6798.86
550.143	6833.44
550.507	6812.87
550.871	6860.55
551.235	6822.14
551.599	6793.44
551.962	6836.37
552.326	6889.25
552.689	6874.11
553.053	6837.73
553.417	6925.64
553.78	6993.88
554.143	6906.88
554.507	6900.78
554.87	6964.51
555.234	6997.27
555.597	6997.05
555.96	7034.56
556.323	7036.59
556.686	7003.6
557.05	7073.88
557.413	7039.76
557.776	7044.28
558.139	7095.58
558.502	7087.44
558.865	7121.79
559.228	7138.29
559.59	7189.36
559.953	7149.36
560.316	7264.16
560.679	7261.45
561.041	7329.92
561.404	7334.21
561.767	7326.3
562.129	7294.21
562.492	7412.63
562.854	7388.22
563.217	7403.59
563.579	7439.75
563.941	7438.39
564.304	7479.52
564.666	7515.9
565.028	7511.16
565.39	7505.73
565.753	7578.05
566.115	7543.25
566.477	7621.21
566.839	7652.85
567.201	7722.45
567.563	7681.78
567.925	7731.72
568.287	7715.22
568.648	7801.55
569.01	7858.95
569.372	7875.44
569.734	7788.44
570.095	7887.19
570.457	7947.08
570.819	7954.99
571.18	7922
571.542	8049.45
571.903	8049
572.265	7985.27
572.626	8101.65
572.987	8075.66
573.349	8061.65
573.71	8160.86
574.071	8262.33
574.432	8234.53
574.794	8329.89
575.155	8313.17
575.516	8320.18
575.877	8408.99
576.238	8408.31
576.599	8420.97
576.96	8381.42
577.32	8407.63
577.681	8556.55
578.042	8592.03
578.403	8526.5
578.763	8604.24
579.124	8562.88
579.485	8661.18
579.845	8807.85
580.206	8769.88
580.566	8746.15
580.927	8841.74
581.287	8925.36
581.648	8875.19
582.008	8989.99
582.368	8970.33
582.728	9107.95
583.089	9053.94
583.449	9130.32
583.809	9199.25
584.169	9241.06
584.529	9333.94
584.889	9418.45
585.249	9361.28
585.609	9401.28
585.969	9523.31
586.329	9515.17
586.688	9637.88
587.048	9674.94
587.408	9746.13
587.768	9776.64
588.127	9806.24
588.487	9875.84
588.846	10009.17
589.206	9966.69
589.565	10069.51
589.925	10159.68
590.284	10177.98
590.643	10264.08
591.003	10329.84
591.362	10422.27
591.721	10406.45
592.08	10480.12
592.44	10582.49
592.799	10684.86
593.158	10709.27
593.517	10740.9
593.876	10856.61
594.235	10879.43
594.593	10924.18
594.952	10997.39
595.311	11002.14
595.67	11199.2
596.029	11262.7
596.387	11360.1
596.746	11394.22
597.104	11345.18
597.463	11415.46
597.822	11529.58
598.18	11564.16
598.538	11561
598.897	11705.17
599.255	11611.16
599.613	11906.52
599.972	11779.75
600.33	11943.81
600.688	11990.14
601.046	12085.5
601.404	12052.28
601.762	12115.78
602.12	12116.91
602.478	12223.58
602.836	12199.17
603.194	12199.62
603.552	12269.68
603.91	12289.79
604.268	12426.74
604.625	12359.17
604.983	12453.18
605.341	12443.23
605.698	12531.37
606.056	12588.77
606.413	12571.36
606.771	12716.67
607.128	12753.96
607.485	12701.76
607.843	12693.85
608.2	12809.55
608.557	12842.09
608.914	12831.02
609.272	12934.74
609.629	12941.07
609.986	12978.36
610.343	12959.15
610.7	13188.52
611.057	13052.71
611.414	13233.95
611.771	13155.53
612.127	13197.56
612.484	13234.4
612.841	13279.37
613.198	13305.58
613.554	13308.97
613.911	13352.36
614.267	13388.29
614.624	13372.7
614.98	13466.03
615.337	13497.22
615.693	13451.57
616.05	13554.84
616.406	13653.6
616.762	13532.92
617.118	13582.86
617.475	13609.98
617.831	13651.11
618.187	13692.69
618.543	13687.04
618.899	13755.74
619.255	13722.07
619.611	13683.65
619.967	13835.74
620.323	13783.54
620.678	13823.31
621.034	13803.42
621.39	13753.25
621.746	13795.51
622.101	13993.25
622.457	13821.95
622.812	13975.4
623.168	13949.41
623.523	13955.06
623.879	13992.12
624.234	13849.07
624.589	13957.99
624.945	13931.33
625.3	13964.1
625.655	13924.32
626.01	14002.29
626.365	13934.72
626.72	13979.01
627.075	13965.23
627.43	13985.34
627.785	13923.19
628.14	13920.03
628.495	13992.34
628.85	14035.05
629.205	13976.53
629.559	14027.82
629.914	13899.69
630.269	13971.55
630.623	13946.7
630.978	13923.65
631.332	14015.17
631.687	14036.64
632.041	13928.16
632.396	13927.94
632.75	13967.26
633.104	13903.53
633.459	13910.31
633.813	13935.4
634.167	13859.92
634.521	13879.35
634.875	13915.51
635.229	13925.45
635.583	13781.5
635.937	13761.84
636.291	13764.78
636.645	13781.5
636.999	13769.07
637.352	13885.91
637.706	13720.03
638.06	13715.74
638.413	13772.46
638.767	13788.06
639.121	13673.93
639.474	13602.75
639.828	13688.17
640.181	13652.47
640.534	13712.8
640.888	13692.01
641.241	13621.28
641.594	13646.82
641.947	13712.35
642.301	13596.2
642.654	13638
643.007	13633.03
643.36	13600.26
643.713	13569.76
644.066	13665.35
644.419	13627.16
644.771	13433.71
645.124	13424.22
645.477	13324.34
645.83	13229.43
646.182	13161.63
646.535	13074.63
646.888	13216.55
647.24	13119.82
647.593	13188.3
647.945	13268.97
648.298	13177.22
648.65	13107.17
649.002	13083.44
649.355	13162.54
649.707	13200.5
650.059	13234.62
650.411	13381.51
650.763	13447.95
651.115	13504.22
651.467	13478.46
651.819	13506.71
652.171	13468.29
652.523	13441.4
652.875	13420.38
653.227	13429.65
653.578	13536.76
653.93	13466.71
654.282	13485.92
654.633	13504
654.985	13481.85
655.337	13462.41
655.688	13461.74
656.039	13483.43
656.391	13358.01
656.742	13485.92
657.094	13446.14
657.445	13573.15
657.796	13506.71
658.147	13494.05
658.498	13495.41
658.849	13557.33
659.2	13402.75
659.551	13435.97
659.902	13515.75
660.253	13541.28
660.604	13514.62
660.955	13404.11
661.306	13542.64
661.656	13546.03
662.007	13500.38
662.358	13556.88
662.708	13524.79
663.059	13556.65
663.409	13439.82
663.76	13635.97
664.11	13500.15
664.461	13588.06
664.811	13531.57
665.161	13547.16
665.511	13489.31
665.862	13524.56
666.212	13572.02
666.562	13573.37
666.912	13587.83
667.262	13577.21
667.612	13591.9
667.962	13558.23
668.312	13605.46
668.662	13599.59
669.011	13606.37
669.361	13590.32
669.711	13481.17
670.06	13622.41
670.41	13505.58
670.76	13466.03
671.109	13526.82
671.459	13543.09
671.808	13556.2
672.157	13493.83
672.507	13426.03
672.856	13440.95
673.205	13537.44
673.554	13563.2
673.904	13535.86
674.253	13583.77
674.602	13476.65
674.951	13327.73
675.3	13165.7
675.649	13456.09
675.998	13409.99
676.346	13490.21
676.695	13440.72
677.044	13269.88
677.393	13361.4
677.741	13376.54
678.09	13365.24
678.438	13309.2
678.787	13320.05
679.135	13322.08
679.484	13261.74
679.832	13238.01
680.181	13149.43
680.529	13238.01
680.877	13283.89
681.225	13261.29
681.573	13279.14
681.922	13230.1
682.27	13194.4
682.618	13118.47
682.966	13103.78
683.314	13118.92
683.661	13069.88
684.009	12947.4
684.357	13008.87
684.705	12966.38
685.053	12956.44
685.4	12904.01
685.748	12891.81
686.095	12868.08
686.443	12783.34
686.79	12805.71
687.138	12824.92
687.485	12837.8
687.832	12703.79
688.18	12755.99
688.527	12661.98
688.874	12664.24
689.221	12540.63
689.568	12533.4
689.915	12416.34
690.262	12518.26
690.609	12397.13
690.956	12375.21
691.303	12351.48
691.65	12375.66
691.997	12337.92
692.344	12241.43
692.69	12259.51
693.037	12201.66
693.383	12146.97
693.73	12187.87
694.077	11980.65
694.423	12095.22
694.769	11986.3
695.116	11968.67
695.462	11906.75
695.808	11921.21
696.155	11992.85
696.501	11777.49
696.847	11751.27
697.193	11680.77
697.539	11673.08
697.885	11593.99
698.231	11579.07
698.577	11605.06
698.923	11529.13
699.269	11467.44
699.614	11388.8
699.96	11396.93
700.306	11375.01
700.651	11303.38
700.997	11291.85
701.342	11197.62
701.688	11284.17
702.033	11218.41
702.379	11224.96
702.724	11143.38
703.069	11208.24
703.415	11030.61
703.76	10957.17
704.105	10994.46
704.45	10988.13
704.795	10891.18
705.14	10829.94
705.485	10823.16
705.83	10734.12
706.175	10792.65
706.52	10783.61
706.865	10695.71
707.209	10669.27
707.554	10629.95
707.899	10718.53
708.243	10557.86
708.588	10603.28
708.932	10489.84
709.277	10509.27
709.621	10485.77
709.966	10450.06
710.31	10422.04
710.654	10417.97
710.998	10415.94
711.342	10403.29
711.687	10390.63
712.031	10353.12
712.375	10236.06
712.719	10321.48
713.063	10238.77
713.407	10262.5
713.75	10205.1
714.094	10214.14
714.438	10158.32
714.782	10135.27
715.125	10164.65
715.469	10143.18
715.812	10088.04
716.156	9986.57
716.499	10034.93
716.843	10066.8
717.186	10006.01
717.53	10013.24
717.873	9972.56
718.216	9968.95
718.559	9941.15
718.902	9903.19
719.246	9880.59
719.589	9868.61
719.932	9810.76
720.275	9900.25
720.617	9810.31
720.96	9775.73
721.303	9825
721.646	9786.58
721.989	9822.74
722.331	9759.91
722.674	9712
723.016	9744.09
723.359	9760.82
723.701	9737.54
724.044	9726.47
724.386	9666.58
724.729	9692.34
725.071	9709.97
725.413	9686.24
725.755	9662.97
726.097	9658.22
726.439	9665.9
726.782	9636.53
727.124	9646.47
727.465	9614.38
727.807	9631.55
728.149	9647.15
728.491	9539.81
728.833	9594.95
729.175	9596.3
729.516	9608.28
729.858	9593.36
730.199	9521.95
730.541	9626.36
730.882	9489.86
731.224	9584.55
731.565	9477.66
731.906	9532.57
732.248	9556.3
732.589	9521.73
732.93	9501.39
733.271	9540.48
733.612	9556.98
733.953	9586.13
734.294	9528.05
734.635	9474.04
734.976	9504.78
735.317	9430.2
735.658	9482.41
735.999	9557.21
736.339	9530.54
736.68	9493.71
737.021	9538.9
737.361	9489.19
737.702	9551.1
738.042	9527.83
738.383	9493.93
738.723	9632.91
739.063	9527.83
739.404	9599.92
739.744	9641.5
740.084	9621.16
740.424	9646.7
740.764	9587.94
741.104	9679.69
741.444	9716.52
741.784	9623.42
742.124	9708.39
742.464	9679.24
742.804	9719.69
743.143	9799.69
743.483	9792.68
743.823	9765.11
744.162	9749.29
744.502	9816.86
744.841	9814.15
745.181	9841.04
745.52	9882.85
745.86	9960.59
746.199	9974.82
746.538	10041.26
746.877	10053.69
747.216	10069.74
747.556	10125.1
747.895	10216.4
748.234	10209.17
748.573	10253.91
748.911	10343.85
749.25	10379.11
749.589	10450.97
749.928	10491.19
750.267	10603.05
750.605	10705.65
750.944	10705.2
751.283	10809.83
751.621	10883.05
751.96	10883.05
752.298	10957.62
752.636	11189.25
752.975	11223.15
753.313	11265.64
753.651	11398.97
753.989	11542.92
754.327	11589.7
754.666	11654.33
755.004	11847.99
755.342	12012.73
755.679	12148.1
756.017	12138.38
756.355	12313.74
756.693	12398.71
757.031	12574.08
757.368	12673.06
757.706	12787.63
758.044	12860.4
758.381	13077.79
758.719	13193.95
759.056	13445.24
759.394	13465.13
759.731	13526.37
760.068	13729.53
760.405	13774.27
760.743	13918.9
761.08	14140.59
761.417	14249.29
761.754	14413.58
762.091	14493.57
762.428	14645.89
762.765	14754.36
763.102	15004.52
763.438	15148.25
763.775	15161.13
764.112	15334
764.449	15597.73
764.785	15519.54
765.122	15652.19
765.458	15883.59
765.795	15992.07
766.131	16106.64
766.467	16249.91
766.804	16317.25
767.14	16328.33
767.476	16451.49
767.812	16549.11
768.148	16782.1
768.485	16836.34
768.821	16878.14
769.157	16959.72
769.492	17114.07
769.828	17163.11
770.164	17076.1
770.5	17314.52
770.836	17347.51
771.171	17409.66
771.507	17490.11
771.842	17404.01
772.178	17556.09
772.513	17659.14
772.849	17782.3
773.184	17755.18
773.519	17835.63
773.855	17808.06
774.19	17875.41
774.525	17928.29
774.86	18059.13
775.195	17966.93
775.53	18043.76
775.865	18103.65
776.2	18036.08
776.535	17945.69
776.87	18082.86
777.205	18079.24
777.539	18049.86
777.874	18128.51
778.209	18064.55
778.543	18024.78
778.878	18083.31
779.212	18075.85
779.547	18085.34
779.881	18113.82
780.215	18123.76
780.55	18185.45
780.884	18058
781.218	18236.3
781.552	18111.56
781.886	18039.24
782.22	18057.55
782.554	18004.22
782.888	17885.8
783.222	17879.93
783.556	17886.48
783.889	17831.34
784.223	17792.47
784.557	17809.87
784.89	17897.55
785.224	17875.63
785.557	17681.51
785.891	17765.58
786.224	17787.95
786.558	17811.9
786.891	17568.3
787.224	17523.32
787.557	17524.91
787.891	17510.67
788.224	17589.76
788.557	17486.04
788.89	17491.24
789.223	17591.12
789.556	17423.89
789.888	17329.88
790.221	17348.41
790.554	17185.48
790.887	17282.88
791.219	17174.86
791.552	17224.12
791.884	17140.51
792.217	17163.56
792.549	17101.87
792.882	16937.8
793.214	16841.53
793.546	17017.8
793.879	16871.59
794.211	16825.49
794.543	16846.28
794.875	16745.72
795.207	16863.91
795.539	16724.02
795.871	16833.4
796.203	16635.89
796.535	16518.83
796.867	16617.59
797.198	16515.22
797.53	16491.71
797.862	16452.62
798.193	16395.9
798.525	16321.77
798.856	16418.72
799.188	16203.81
799.519	16194.32
799.85	16111.38
800.182	16149.8
800.513	16142.57
800.844	16053.31
801.175	16078.84
801.506	16044.04
801.837	15911.16
802.168	15868.23
802.499	16008.56
802.83	15829.36
803.161	15806.08
803.491	15708.68
803.822	15746.87
804.153	15681.57
804.483	15533.09
804.814	15605.41
805.145	15546.65
805.475	15562.02
805.805	15430.95
806.136	15480.21
806.466	15482.47
806.796	15413.78
807.126	15313.89
807.457	15258.53
807.787	15273.44
808.117	15194.8
808.447	15130.39
808.777	15193.67
809.107	15147.79
809.436	15131.75
809.766	15089.04
810.096	15013.79
810.426	14972.88
810.755	14997.74
811.085	14915.03
811.414	14947.57
811.744	14774.47
812.073	14772.44
812.403	14811.08
812.732	14712.33
813.061	14711.42
813.39	14675.72
813.719	14718.2
814.049	14635.04
814.378	14621.93
814.707	14532.67
815.036	14511.43
815.365	14439.56
815.693	14364.09
816.022	14469.39
816.351	14391.43
816.68	14253.13
817.008	14437.3
817.337	14256.97
817.665	14264.2
817.994	14324.09
818.322	14208.61
818.651	14168.16
818.979	14013.13
819.307	14231.21
819.636	14121.61
819.964	14003.42
820.292	14090.42
820.62	14018.33
820.948	14056.07
821.276	14012.68
821.604	14024.89
821.932	14091.1
822.259	14066.69
822.587	13980.82
822.915	13939.01
823.243	14048.84
823.57	13922.97
823.898	14029.18
824.225	13948.96
824.553	13971.33
824.88	13950.99
825.207	13989.86
825.535	13991.44
825.862	14071.21
826.189	13925
826.516	14000.03
826.843	14099.91
827.17	13976.3
827.497	14122.28
827.824	14061.72
828.151	14080.7
828.478	14107.6
828.805	14056.75
829.131	14008.84
829.458	14066.69
829.785	13969.97
830.111	14016.52
830.438	14026.02
830.764	14001.38
831.09	13979.01
831.417	13943.53
831.743	14004.55
832.069	13984.66
832.395	13816.3
832.722	13969.52
833.048	13850.43
833.374	13894.49
833.7	13892.01
834.026	13995.73
834.351	13859.24
834.677	13847.04
835.003	13912.57
835.329	13841.39
835.654	13833.48
835.98	13745.57
836.306	13778.11
836.631	13713.26
836.956	13813.82
837.282	13829.18
837.607	13701.73
837.932	13679.36
838.258	13676.87
838.583	13699.7
838.908	13654.73
839.233	13639.58
839.558	13655.86
839.883	13592.58
840.208	13548.97
840.533	13511.9
840.858	13558.23
841.182	13469.65
841.507	13545.35
841.832	13419.48
842.156	13362.3
842.481	13452.02
842.805	13325.24
843.13	13348.97
843.454	13294.06
843.778	13224
844.103	13246.6
844.427	13174.29
844.751	13163.21
845.075	13254.06
845.399	13094.29
845.723	13050.22
846.047	12952.6
846.371	12975.2
846.695	12857.46
847.019	12823.79
847.343	12748.31
847.666	12713.51
847.99	12614.75
848.313	12574.75
848.637	12591.7
848.96	12647.29
849.284	12508.32
849.607	12462.21
849.931	12445.49
850.254	12347.87
850.577	12316.68
850.9	12188.55
851.223	12178.38
851.546	12160.53
851.869	12047.76
852.192	12157.14
852.515	11991.04
852.838	11982
853.161	11933.64
853.483	11918.95
853.806	11871.95
854.129	11831.5
854.451	11698.62
854.774	11673.08
855.096	11689.35
855.419	11676.02
855.741	11623.82
856.063	11549.47
856.385	11623.14
856.708	11540.21
857.03	11509.47
857.352	11482.13
857.674	11410.72
857.996	11346.76
858.318	11340.21
858.64	11276.71
858.961	11304.28
859.283	11167.56
859.605	11185.64
859.926	11214.79
860.248	11167.79
860.57	11067.45
860.891	11120.33
861.212	11053.21
861.534	11089.6
861.855	11022.48
862.176	10976.15
862.498	10997.17
862.819	11011.18
863.14	10948.58
863.461	10940.22
863.782	10961.46
864.103	10907
864.424	10909.49
864.745	10854.12
865.065	10759.89
865.386	10720.11
865.707	10762.37
866.027	10833.56
866.348	10741.36
866.668	10707.68
866.989	10716.05
867.309	10689.15
867.63	10676.95
867.95	10590.4
868.27	10536.84
868.59	10609.83
868.91	10626.33
869.23	10540.46
869.55	10469.05
869.87	10551.53
870.19	10489.61
870.51	10523.96
870.83	10476.5
871.15	10431.31
871.469	10456.17
871.789	10422.49
872.109	10406.68
872.428	10390.18
872.748	10432.21
873.067	10327.36
873.386	10454.36
873.706	10371.65
874.025	10294.36
874.344	10285.55
874.663	10274.93
874.982	10290.29
875.301	10302.5
875.62	10258.88
875.939	10271.09
876.258	10199.45
876.577	10156.29
876.896	10233.57
877.214	10127.81
877.533	10184.31
877.852	10090.07
878.17	10159.68
878.489	10061.6
878.807	10106.57
879.125	10094.82
879.444	10022.73
879.762	9993.58
880.08	10038.32
880.398	9996.06
880.716	9918.78
881.034	9967.59
881.352	9955.16
881.67	9915.16
881.988	9899.34
882.306	9875.16
882.624	9807.37
882.941	9793.36
883.259	9749.74
883.577	9843.75
883.894	9752.91
884.212	9690.76
884.529	9699.58
884.846	9671.33
885.164	9649.18
885.481	9659.58
885.798	9596.3
886.115	9555.62
886.432	9562.63
886.75	9459.13
887.067	9553.14
887.383	9514.72
887.7	9430.43
888.017	9474.72
888.334	9448.51
888.651	9388.17
888.967	9405.35
889.284	9334.39
889.6	9336.87
889.917	9252.36
890.233	9271.34
890.55	9210.32
890.866	9242.86
891.182	9098.69
891.498	9220.04
891.815	9127.16
892.131	9124.68
892.447	9063.89
892.763	9017.11
893.079	9030.67
893.395	8990.22
893.71	8937.79
894.026	8987.05
894.342	8936.66
894.657	8851.91
894.973	8826.15
895.289	8827.96
895.604	8837.45
895.92	8730.34
896.235	8724.01
896.55	8694.18
896.865	8700.51
897.181	8703.67
897.496	8674.52
897.811	8588.19
898.126	8606.72
898.441	8543.22
898.756	8585.48
899.071	8478.59
899.386	8485.82
899.7	8380.51
900.015	8345.03
900.33	8314.75
900.644	8326.28
900.959	8344.36
901.273	8245.83
901.588	8218.03
901.902	8208.54
902.216	8155.89
902.531	8184.14
902.845	8082.89
903.159	8138.03
903.473	8014.65
903.787	8022.78
904.101	7980.3
904.415	7912.28
904.729	7909.11
905.042	7911.83
905.356	7847.19
905.67	7801.32
905.984	7830.92
906.297	7781.89
906.611	7727.88
906.924	7696.69
907.237	7705.73
907.551	7684.26
907.864	7595.9
908.177	7618.05
908.491	7599.52
908.804	7528.56
909.117	7472.29
909.43	7444.72
909.743	7412.63
910.056	7410.6
910.368	7376.02
910.681	7380.99
910.994	7278.85
911.307	7277.27
911.619	7251.96
911.932	7242.92
912.244	7187.55
912.557	7160.66
912.869	7115.69
913.181	7135.35
913.494	7134.45
913.806	7014.45
914.118	7008.35
914.43	6986.2
914.742	6936.71
915.054	6940.78
915.366	6903.49
915.678	6902.36
915.99	6849.71
916.302	6801.8
916.613	6816.26
916.925	6781.91
917.236	6746.88
917.548	6701.69
917.859	6672.08
918.171	6630.96
918.482	6569.04
918.794	6616.04
919.105	6590.28
919.416	6537.62
919.727	6535.59
920.038	6523.39
920.349	6457.17
920.66	6416.05
920.971	6456.27
921.282	6418.76
921.593	6372.21
921.903	6292.43
922.214	6335.14
922.525	6339.21
922.835	6238.2
923.146	6243.85
923.456	6267.58
923.767	6171.98
924.077	6156.39
924.387	6143.74
924.697	6086.56
925.008	6074.13
925.318	6098.99
925.628	6030.52
925.938	6035.04
926.248	5945.78
926.558	5952.78
926.867	5929.28
927.177	5920.69
927.487	5860.81
927.796	5903.74
928.106	5847.02
928.416	5837.98
928.725	5808.38
929.034	5749.4
929.344	5697.87
929.653	5710.53
929.962	5653.13
930.271	5656.97
930.581	5613.13
930.89	5600.02
931.199	5562.74
931.508	5552.34
931.817	5583.07
932.125	5542.4
932.434	5545.56
932.743	5482.06
933.051	5461.95
933.36	5451.55
933.669	5381.95
933.977	5383.53
934.286	5356.41
934.594	5364.1
934.902	5333.14
935.21	5314.83
935.519	5269.41
935.827	5308.28
936.135	5289.75
936.443	5209.07
936.751	5141.5
937.059	5191.9
937.367	5105.12
937.674	5159.81
937.982	5115.97
938.29	5077.55
938.597	5069.87
938.905	5022.18
939.213	5026.25
939.52	4988.96
939.827	5001.85
940.135	4988.74
940.442	4976.31
940.749	4946.93
941.056	4929.31
941.363	4870.1
941.67	4878.23
941.977	4832.81
942.284	4781.06
942.591	4820.16
942.898	4751.68
943.205	4751.68
943.511	4732.02
943.818	4725.92
944.125	4711.68
944.431	4632.36
944.738	4699.48
945.044	4638.47
945.35	4602.31
945.657	4611.57
945.963	4593.04
946.269	4540.39
946.575	4537.23
946.881	4544.46
947.187	4556.66
947.493	4470.56
947.799	4465.59
948.105	4395.76
948.41	4412.03
948.716	4435.31
949.022	4437.34
949.327	4405.48
949.633	4358.02
949.938	4319.38
950.244	4294.97
950.549	4269.66
950.854	4277.57
951.16	4261.3
951.465	4225.14
951.77	4211.36
952.075	4209.78
952.38	4170.46
952.685	4146.5
952.99	4092.49
953.294	4097.69
953.599	4081.87
953.904	4084.81
954.209	4038.48
954.513	4046.16
954.818	3993.51
955.122	3992.83
955.426	3996.22
955.731	3988.54
956.035	3970.69
956.339	3924.81
956.643	3896.79
956.948	3930.46
957.252	3903.8
957.556	3875.32
957.86	3909.22
958.163	3879.39
958.467	3809.33
958.771	3820.86
959.075	3817.7
959.378	3794.87
959.682	3804.36
959.985	3772.5
960.289	3701.99
960.592	3701.09
960.896	3711.94
961.199	3702.9
961.502	3686.17
961.805	3685.27
962.108	3674.65
962.411	3617.93
962.714	3596.23
963.017	3576.8
963.32	3571.38
963.623	3581.32
963.926	3571.15
964.228	3529.12
964.531	3518.95
964.833	3461.55
965.136	3487.76
965.438	3441.89
965.741	3457.71
966.043	3419.06
966.345	3407.54
966.648	3411.83
966.95	3412.06
967.252	3381.78
967.554	3340.87
967.856	3330.48
968.158	3339.06
968.46	3331.83
968.761	3331.16
969.063	3310.59
969.365	3234.21
969.666	3239.86
969.968	3229.24
970.269	3236.47
970.571	3229.01
970.872	3198.28
971.174	3206.64
971.475	3184.27
971.776	3161.67
972.077	3105.62
972.378	3142.69
972.679	3126.64
972.98	3096.81
973.281	3084.38
973.582	3092.52
973.883	3104.04
974.183	3083.25
974.484	3065.85
974.785	3010.26
975.085	3028.56
975.386	3007.1
975.686	2960.77
975.986	2944.05
976.287	2977.49
976.587	2952.63
976.887	2943.14
977.187	2934.1
977.487	2944.72
977.787	2897.49
978.087	2889.36
978.387	2873.54
978.687	2868.34
978.987	2836.93
979.286	2814.11
979.586	2806.42
979.885	2832.41
980.185	2793.77
980.484	2764.62
980.784	2766.65
981.083	2761.45
981.382	2733.2
981.682	2758.29
981.981	2741.57
982.28	2707.89
982.579	2703.6
982.878	2718.29
983.177	2664.73
983.475	2668.8
983.774	2643.94
984.073	2634.22
984.372	2632.19
984.67	2605.52
984.969	2637.39
985.267	2565.98
985.566	2595.13
985.864	2568.24
986.162	2536.37
986.461	2560.78
986.759	2548.13
987.057	2532.98
987.355	2490.05
987.653	2498.18
987.951	2490.05
988.249	2469.26
988.547	2475.36
988.844	2431.97
989.142	2478.52
989.44	2434
989.737	2415.47
990.035	2433.78
990.332	2389.71
990.63	2381.58
990.927	2352.42
991.224	2365.08
991.521	2378.64
991.819	2356.72
992.116	2305.87
992.413	2356.94
992.71	2318.75
993.006	2302.71
993.303	2255.03
993.6	2309.71
993.897	2293.44
994.193	2269.94
994.49	2236.27
994.787	2230.85
995.083	2217.06
995.379	2210.73
995.676	2207.12
995.972	2179.1
996.268	2156.95
996.565	2180.68
996.861	2149.04
997.157	2122.37
997.453	2130.06
997.749	2126.22
998.044	2127.57
998.34	2100
998.636	2077.18
998.932	2072.66
999.227	2067.23
999.523	2086.67
999.818	2058.42
1000.114	2019.78
1000.409	2007.35
1000.704	1999.89
1001	2007.35
1001.295	2008.25
1001.59	1981.36
1001.885	1941.81
1002.18	1957.18
1002.475	1957.86
1002.77	1957.41
1003.065	1930.06
1003.359	1911.98
1003.654	1918.31
1003.949	1908.59
1004.243	1902.94
1004.538	1907.92
1004.832	1856.84
1005.127	1879.44
1005.421	1853.23
1005.715	1857.75
1006.009	1853.91
1006.304	1836.05
1006.598	1791.08
1006.892	1784.53
1007.186	1779.11
1007.48	1780.46
1007.773	1753.57
1008.067	1767.58
1008.361	1743.17
1008.655	1734.59
1008.948	1740.91
1009.242	1713.12
1009.535	1711.54
1009.829	1677.87
1010.122	1680.13
1010.415	1657.98
1010.708	1668.6
1011.001	1644.19
1011.295	1657.98
1011.588	1631.54
1011.881	1630.64
1012.173	1629.73
1012.466	1600.58
1012.759	1629.73
1013.052	1615.04
1013.344	1601.03
1013.637	1572.33
1013.93	1587.92
1014.222	1559
1014.514	1572.11
1014.807	1559.9
1015.099	1549.73
1015.391	1516.29
1015.683	1506.57
1015.976	1519
1016.268	1495.72
1016.56	1495.05
1016.851	1469.51
1017.143	1458.21
1017.435	1490.75
1017.727	1448.94
1018.018	1424.99
1018.31	1444.88
1018.602	1416.18
1018.893	1403.07
1019.185	1405.56
1019.476	1412.11
1019.767	1386.12
1020.058	1402.84
1020.35	1377.99
1020.641	1347.7
1020.932	1356.97
1021.223	1335.5
1021.514	1338.89
1021.804	1320.36
1022.095	1293.02
1022.386	1334.15
1022.677	1287.37
1022.967	1287.37
1023.258	1276.52
1023.548	1286.24
1023.839	1262.96
1024.129	1249.85
1024.419	1273.36
1024.709	1262.06
1025	1222.74
1025.29	1248.95
1025.58	1225.67
1025.87	1224.77
1026.16	1208.73
1026.449	1227.48
1026.739	1183.87
1027.029	1189.06
1027.319	1205.56
1027.608	1167.82
1027.898	1154.94
1028.187	1144.32
1028.477	1148.39
1028.766	1108.84
1029.055	1147.48
1029.344	1146.81
1029.634	1142.74
1029.923	1117.88
1030.212	1094.6
1030.501	1082.85
1030.79	1089.41
1031.078	1063.87
1031.367	1089.18
1031.656	1088.28
1031.945	1043.76
1032.233	1051.89
1032.522	1065.23
1032.81	1041.72
1033.099	1040.14
1033.387	1046.47
1033.675	1024.32
1033.963	983.65
1034.251	1011.22
1034.54	984.1
1034.828	1023.65
1035.116	967.6
1035.403	973.03
1035.691	986.81
1035.979	967.15
1036.267	948.39
1036.554	972.35
1036.842	974.16
1037.129	947.26
1037.417	946.36
1037.704	916.53
1037.992	917.21
1038.279	921.73
1038.566	938
1038.853	938
1039.14	938
