Data from hue_160_FLMS001491_00056.txt Node
Date: Tue Feb 07 16:51:23 GMT 2017
User: dcchb
Spectrometer: FLMS00149
Trigger mode: 0
Integration Time (sec): 2.000000E-2
Scans to average: 10
Electric dark correction enabled: true
Nonlinearity correction enabled: false
Boxcar width: 0
XAxis mode: Wavelengths
Number of Pixels in Spectrum: 2048
>>>>>Begin Spectral Data<<<<<
341.393	-6.95
341.776	-6.95
342.16	-6.95
342.543	-63.44
342.927	-60.73
343.31	-74.29
343.693	-46.04
344.077	-76.1
344.46	-68.87
344.843	-71.58
345.226	-34.74
345.61	-29.1
345.993	-21.41
346.376	14.75
346.759	-1.53
347.142	31.69
347.525	40.51
347.908	55.2
348.291	86.38
348.674	87.74
349.057	107.4
349.44	137
349.823	153.95
350.206	158.02
350.588	212.25
350.971	204.34
351.354	226.04
351.737	224.68
352.119	261.52
352.502	257.22
352.884	273.04
353.267	269.2
353.65	282.76
354.032	291.12
354.414	300.61
354.797	298.13
355.179	294.29
355.562	316.21
355.944	320.5
356.326	334.74
356.709	313.27
357.091	326.6
357.473	345.58
357.855	337.22
358.238	352.82
358.62	355.3
359.002	352.36
359.384	332.48
359.766	333.38
360.148	365.02
360.53	339.26
360.912	344
361.294	322.76
361.676	305.59
362.057	354.62
362.439	318.69
362.821	319.82
363.203	313.27
363.584	317.79
363.966	334.74
364.348	328.86
364.729	333.38
365.111	312.59
365.493	334.28
365.874	334.96
366.256	329.54
366.637	328.18
367.019	326.15
367.4	303.55
367.781	325.02
368.163	297.68
368.544	308.3
368.925	311.01
369.306	303.55
369.688	325.7
370.069	331.57
370.45	324.79
370.831	326.38
371.212	302.65
371.593	326.15
371.974	306.04
372.355	321.86
372.736	319.82
373.117	324.34
373.498	309.65
373.879	328.18
374.26	328.41
374.641	330.67
375.021	322.53
375.402	326.15
375.783	311.23
376.163	329.99
376.544	326.38
376.925	332.48
377.305	312.82
377.686	317.34
378.066	323.44
378.447	321.63
378.827	320.95
379.208	332.93
379.588	319.14
379.968	318.69
380.349	331.8
380.729	322.53
381.109	334.06
381.489	330.67
381.87	305.59
382.25	319.37
382.63	342.19
383.01	333.38
383.39	320.27
383.77	343.1
384.15	326.83
384.53	338.35
384.91	341.97
385.29	346.26
385.67	353.95
386.049	353.95
386.429	333.61
386.809	372.25
387.189	332.7
387.568	358.47
387.948	347.84
388.328	361.18
388.707	362.31
389.087	329.31
389.466	387.84
389.846	346.49
390.225	368.63
390.605	366.37
390.984	366.83
391.363	373.61
391.743	361.18
392.122	381.97
392.501	379.03
392.881	391.46
393.26	378.13
393.639	355.75
394.018	381.74
394.397	367.28
394.776	381.06
395.155	368.63
395.534	400.05
395.913	386.94
396.292	383.78
396.671	383.32
397.05	390.33
397.429	366.6
397.808	395.53
398.186	366.15
398.565	391.46
398.944	395.3
399.323	391.46
399.701	390.55
400.08	388.52
400.458	394.85
400.837	388.29
401.215	397.79
401.594	384.91
401.972	398.01
402.351	399.37
402.729	387.39
403.107	421.29
403.486	422.19
403.864	408.41
404.242	429.42
404.62	421.06
404.999	398.24
405.377	400.27
405.755	419.03
406.133	415.86
406.511	426.49
406.889	427.16
407.267	421.51
407.645	429.42
408.023	462.87
408.401	425.81
408.779	452.25
409.156	459.71
409.534	445.92
409.912	438.46
410.29	472.59
410.667	446.37
411.045	457.22
411.422	464.9
411.8	461.74
412.178	457.67
412.555	472.36
412.933	469.87
413.31	468.97
413.687	492.02
414.065	459.03
414.442	490.44
414.819	489.99
415.197	493.6
415.574	496.54
415.951	496.99
416.328	494.05
416.705	496.09
417.082	499.25
417.46	508.52
417.837	520.95
418.214	523.21
418.591	537.67
418.967	499.03
419.344	521.4
419.721	515.75
420.098	535.18
420.475	527.95
420.852	541.74
421.228	544.22
421.605	555.97
421.982	558.91
422.358	561.85
422.735	556.65
423.111	555.75
423.488	563.88
423.864	536.77
424.241	575.18
424.617	593.04
424.994	579.02
425.37	555.97
425.746	598.01
426.123	593.04
426.499	567.73
426.875	604.11
427.251	592.81
427.627	621.06
428.003	601.85
428.379	609.76
428.756	602.3
429.132	625.35
429.507	643.66
429.883	637.33
430.259	638.23
430.635	655.86
431.011	648.85
431.387	649.98
431.763	673.71
432.138	664.45
432.514	672.13
432.89	692.24
433.265	689.53
433.641	693.15
434.016	711
434.392	706.93
434.767	690.21
435.143	718.91
435.518	740.6
435.894	747.16
436.269	766.59
436.644	734.73
437.02	748.74
437.395	743.09
437.77	747.16
438.145	771.34
438.52	772.24
438.895	783.31
439.271	778.57
439.646	794.61
440.021	800.71
440.395	796.19
440.77	808.62
441.145	810.43
441.52	835.51
441.895	819.7
442.27	857.66
442.645	848.17
443.019	837.77
443.394	841.84
443.769	872.58
444.143	840.71
444.518	877.1
444.892	869.19
445.267	866.7
445.641	912.12
446.016	887.49
446.39	896.76
446.764	896.53
447.139	899.47
447.513	893.59
447.887	929.98
448.262	906.93
448.636	936.53
449.01	944.66
449.384	921.84
449.758	946.02
450.132	954.83
450.506	940.82
450.88	974.04
451.254	974.04
451.628	1002.97
452.002	1014.27
452.376	991.44
452.75	1004.32
453.123	1020.82
453.497	1032.12
453.871	1068.28
454.244	1038
454.618	1066.47
454.992	1070.08
455.365	1079.58
455.739	1103.76
456.112	1120.93
456.486	1122.06
456.859	1130.87
457.232	1137.88
457.606	1177.88
457.979	1170.65
458.352	1211.1
458.725	1205.9
459.099	1200.02
459.472	1225.11
459.845	1226.01
460.218	1247.93
460.591	1256.75
460.964	1264.2
461.337	1290.19
461.71	1295.39
462.083	1328.61
462.456	1331.55
462.829	1329.74
463.201	1355.95
463.574	1388.49
463.947	1417.19
464.32	1432.56
464.692	1466.23
465.065	1463.07
465.438	1478.21
465.81	1518.43
466.183	1536.74
466.555	1561.15
466.928	1602.27
467.3	1590.07
467.672	1607.25
468.045	1670.75
468.417	1660.13
468.789	1721.59
469.161	1725.43
469.534	1721.37
469.906	1782.83
470.278	1800.01
470.65	1861.93
471.022	1882.94
471.394	1934.24
471.766	1948.03
472.138	1975.37
472.51	2030.06
472.882	2041.13
473.253	2102.37
473.625	2158.19
473.997	2190.96
474.369	2197.96
474.74	2302.14
475.112	2350.5
475.484	2381.91
475.855	2419.43
476.227	2468.47
476.598	2564.06
476.97	2631.4
477.341	2685.64
477.713	2736.48
478.084	2786.65
478.455	2890.83
478.827	2906.65
479.198	3068.22
479.569	3080.65
479.94	3180.76
480.311	3249.01
480.682	3338.73
481.053	3449.01
481.424	3546.18
481.795	3650.81
482.166	3724.93
482.537	3776
482.908	3922.89
483.279	3966.05
483.65	4109.78
484.021	4222.54
484.391	4289.21
484.762	4404.01
485.133	4478.13
485.503	4568.75
485.874	4752.7
486.244	4854.39
486.615	5006.48
486.985	5102.52
487.356	5192.24
487.726	5306.58
488.097	5434.26
488.467	5505.45
488.837	5712.9
489.207	5824.31
489.578	5959.45
489.948	6042.16
490.318	6246.45
490.688	6299.78
491.058	6398.53
491.428	6575.02
491.798	6694.34
492.168	6912.87
492.538	7024.05
492.908	7065.63
493.278	7287.77
493.648	7300.43
494.017	7506.07
494.387	7584.72
494.757	7705.39
495.126	7838.49
495.496	7907.87
495.866	8034.2
496.235	8158.03
496.605	8214.98
496.974	8417.91
497.344	8516.44
497.713	8606.61
498.082	8688.87
498.452	8826.94
498.821	8912.82
499.19	8960.95
499.559	9118.46
499.928	9205.69
500.298	9254.05
500.667	9416.98
501.036	9476.19
501.405	9604.55
501.774	9633.02
502.143	9704.89
502.512	9775.17
502.88	9896.75
503.249	9890.64
503.618	10053.58
503.987	10101.26
504.356	10119.11
504.724	10210.18
505.093	10366.34
505.462	10327.92
505.83	10415.83
506.199	10555.94
506.567	10640.68
506.936	10599.78
507.304	10764.52
507.672	10780.79
508.041	10822.82
508.409	11042.25
508.777	10980.78
509.145	11119.99
509.514	11075.25
509.882	11165.41
510.25	11159.54
510.618	11265.97
510.986	11217.16
511.354	11396.37
511.722	11427.1
512.09	11514.56
512.458	11470.26
512.826	11586.87
513.193	11643.82
513.561	11638.62
513.929	11717.26
514.297	11684.5
514.664	11791.38
515.032	11800.42
515.4	11946.18
515.767	11935.56
516.135	11964.71
516.502	11899.18
516.869	12109.34
517.237	12092.62
517.604	11997.48
517.972	12152.28
518.339	12115.22
518.706	12119.51
519.073	12206.06
519.44	12240.19
519.808	12285.61
520.175	12288.09
520.542	12404.02
520.909	12452.38
521.276	12318.38
521.643	12452.38
522.009	12440.18
522.376	12557.01
522.743	12543.91
523.11	12568.77
523.477	12580.06
523.843	12623
524.21	12757.01
524.577	12790.23
524.943	12797.23
525.31	12767.63
525.676	12879.49
526.043	12863
526.409	12839.04
526.776	12875.65
527.142	12878.36
527.508	12902.99
527.874	12997.45
528.241	13016.44
528.607	12896.67
528.973	13087.62
529.339	12955.2
529.705	13058.7
530.071	13033.84
530.437	13072.71
530.803	13053.05
531.169	13064.8
531.535	12936.67
531.901	12992.26
532.267	12937.8
532.632	13052.82
532.998	12975.31
533.364	13060.73
533.73	12915.2
534.095	12936.89
534.461	13101.18
534.826	13000.62
535.192	13029.77
535.557	13004.69
535.923	12897.57
536.288	12891.69
536.653	12919.94
537.019	12820.74
537.384	12830.68
537.749	12856.89
538.114	12790.23
538.479	12745.94
538.845	12715.88
539.21	12641.31
539.575	12675.43
539.94	12729.44
540.305	12602.21
540.67	12636.56
541.034	12567.18
541.399	12555.66
541.764	12513.85
542.129	12495.1
542.494	12451.93
542.858	12426.85
543.223	12460.07
543.587	12465.49
543.952	12361.77
544.316	12343.91
544.681	12253.97
545.045	12210.81
545.41	12231.15
545.774	12264.82
546.138	12207.42
546.503	12060.98
546.867	12034.54
547.231	12116.57
547.595	12105.95
547.959	12023.7
548.324	12018.95
548.688	11981.66
549.052	11934.66
549.416	11968.1
549.779	11867.99
550.143	11847.2
550.507	11882.91
550.871	11878.84
551.235	11756.36
551.599	11761.1
551.962	11844.72
552.326	11682.46
552.689	11751.16
553.053	11539.64
553.417	11662.8
553.78	11747.54
554.143	11574.67
554.507	11607.66
554.87	11545.29
555.234	11659.86
555.597	11489.7
555.96	11423.48
556.323	11466.87
556.686	11470.94
557.05	11535.57
557.413	11454.9
557.776	11466.65
558.139	11473.88
558.502	11465.29
558.865	11448.8
559.228	11558.17
559.59	11458.96
559.953	11465.74
560.316	11448.12
560.679	11465.97
561.041	11491.28
561.404	11456.25
561.767	11501.67
562.129	11468.46
562.492	11559.53
562.854	11485.63
563.217	11453.54
563.579	11480.88
563.941	11508.68
564.304	11535.57
564.666	11487.44
565.028	11533.31
565.39	11518.62
565.753	11486.99
566.115	11523.6
566.477	11544.16
566.839	11519.98
567.201	11565.18
567.563	11549.13
567.925	11606.3
568.287	11526.31
568.648	11641.11
569.01	11607.66
569.372	11593.42
569.734	11623.25
570.095	11663.25
570.457	11693.53
570.819	11683.14
571.18	11651.73
571.542	11622.8
571.903	11737.15
572.265	11731.05
572.626	11701.67
572.987	11674.55
573.349	11734.66
573.71	11748
574.071	11809.69
574.432	11780.76
574.794	11827.09
575.155	11837.49
575.516	11720.43
575.877	11729.47
576.238	11783.25
576.599	11821.44
576.96	11788.22
577.32	11808.33
577.681	11860.76
578.042	11869.57
578.403	11791.16
578.763	11892.85
579.124	11896.92
579.485	11829.12
579.845	11832.29
580.206	11887.43
580.566	11855.34
580.927	11774.89
581.287	11911.61
581.648	11813.31
582.008	11861.44
582.368	11904.83
582.728	11827.99
583.089	11701.22
583.449	11810.59
583.809	11812.18
584.169	11818.5
584.529	11752.74
584.889	11898.5
585.249	11734.66
585.609	11703.7
585.969	11779.18
586.329	11669.81
586.688	11733.99
587.048	11827.32
587.408	11701.44
587.768	11713.65
588.127	11663.93
588.487	11698.28
588.846	11735.79
589.206	11600.88
589.565	11572.63
589.925	11733.31
590.284	11640.88
590.643	11603.14
591.003	11698.96
591.362	11650.15
591.721	11625.97
592.08	11687.21
592.44	11648.11
592.799	11578.06
593.158	11657.83
593.517	11562.92
593.876	11588
594.235	11533.99
594.593	11570.37
594.952	11597.27
595.311	11518.4
595.67	11584.38
596.029	11669.58
596.387	11678.39
596.746	11679.3
597.104	11580.99
597.463	11530.15
597.822	11567.89
598.18	11546.19
598.538	11581.9
598.897	11571.28
599.255	11506.87
599.613	11616.7
599.972	11591.62
600.33	11557.49
600.688	11541.9
601.046	11566.31
601.404	11583.71
601.762	11484.05
602.12	11629.13
602.478	11587.77
602.836	11559.75
603.194	11510.49
603.552	11487.66
603.91	11517.95
604.268	11541.45
604.625	11470.94
604.983	11543.71
605.341	11500.32
605.698	11557.94
606.056	11589.81
606.413	11545.29
606.771	11564.27
607.128	11599.75
607.485	11573.99
607.843	11541.9
608.2	11591.16
608.557	11609.92
608.914	11536.02
609.272	11645.4
609.629	11574.44
609.986	11602.46
610.343	11609.69
610.7	11689.01
611.057	11761.78
611.414	11632.07
611.771	11610.37
612.127	11672.29
612.484	11685.17
612.841	11679.3
613.198	11670.26
613.554	11709.35
613.911	11790.48
614.267	11703.93
614.624	11682.01
614.98	11705.06
615.337	11806.98
615.693	11710.71
616.05	11728.11
616.406	11804.72
616.762	11735.34
617.118	11650.37
617.475	11720.2
617.831	11769.24
618.187	11834.32
618.543	11712.97
618.899	11818.28
619.255	11833.64
619.611	11882.68
619.967	11909.8
620.323	11964.26
620.678	11829.58
621.034	11869.35
621.39	11861.21
621.746	11805.85
622.101	11912.74
622.457	11844.49
622.812	11896.24
623.168	11890.37
623.523	11901.89
623.879	12022.79
624.234	11872.29
624.589	11906.41
624.945	11921.55
625.3	11874.55
625.655	11818.95
626.01	11920.65
626.365	11900.31
626.72	11862.12
627.075	11871.61
627.43	11849.46
627.785	11838.16
628.14	11756.13
628.495	11889.69
628.85	11815.11
629.205	11767.43
629.559	11847.2
629.914	11729.01
630.269	11774.66
630.623	11790.48
630.978	11740.09
631.332	11791.84
631.687	11759.75
632.041	11796.36
632.396	11771.95
632.75	11751.16
633.104	11743.93
633.459	11667.32
633.813	11692.4
634.167	11687.43
634.521	11725.17
634.875	11646.98
635.229	11644.27
635.583	11623.71
635.937	11582.35
636.291	11637.72
636.645	11593.42
636.999	11558.17
637.352	11553.2
637.706	11505.52
638.06	11574.89
638.413	11531.28
638.767	11407.89
639.121	11508.91
639.474	11506.65
639.828	11488.79
640.181	11443.37
640.534	11442.47
640.888	11461
641.241	11384.39
641.594	11398.17
641.947	11480.43
642.301	11397.27
642.654	11381.68
643.007	11408.8
643.36	11412.41
643.713	11344.39
644.066	11405.63
644.419	11329.02
644.771	11298.52
645.124	11212.87
645.477	11134
645.83	11086.32
646.182	11060.33
646.535	10945.76
646.888	11028.47
647.24	10971.75
647.593	11026.66
647.945	11010.39
648.298	10938.98
648.65	10922.48
649.002	10910.28
649.355	11008.58
649.707	10974.23
650.059	11029.6
650.411	11092.42
650.763	11142.59
651.115	11271.4
651.467	11216.26
651.819	11174
652.171	11171.51
652.523	11259.65
652.875	11218.97
653.227	11155.7
653.578	11306.65
653.93	11273.21
654.282	11174.23
654.633	11067.34
654.985	11152.31
655.337	11200.21
655.688	11188.46
656.039	11253.77
656.391	11219.87
656.742	11146.2
657.094	11222.36
657.445	11229.37
657.796	11258.97
658.147	11188.69
658.498	11162.47
658.849	11219.65
659.2	11188.01
659.551	11207.67
659.902	11218.74
660.253	11178.52
660.604	11226.2
660.955	11188.91
661.306	11231.4
661.656	11284.73
662.007	11244.51
662.358	11288.57
662.708	11312.08
663.059	11274.11
663.409	11224.62
663.76	11287.67
664.11	11246.09
664.461	11252.87
664.811	11312.08
665.161	11265.3
665.511	11252.87
665.862	11196.37
666.212	11274.79
666.562	11263.04
666.912	11264.17
667.262	11242.7
667.612	11222.36
667.962	11303.71
668.312	11267.56
668.662	11267.56
669.011	11290.16
669.361	11258.74
669.711	11200.67
670.06	11264.17
670.41	11243.83
670.76	11241.57
671.109	11240.66
671.459	11293.32
671.808	11190.72
672.157	11211.29
672.507	11200.67
672.856	11134.9
673.205	11225.07
673.554	11218.74
673.904	11170.38
674.253	11222.59
674.602	11210.16
674.951	10987.79
675.3	10899.66
675.649	11078.86
675.998	11102.59
676.346	11166.77
676.695	11178.07
677.044	11104.17
677.393	11130.16
677.741	11018.3
678.09	11033.89
678.438	10966.32
678.787	11029.37
679.135	11026.43
679.484	10988.92
679.832	11019.43
680.181	10951.18
680.529	10965.42
680.877	10867.34
681.225	10960.67
681.573	10954.57
681.922	10927.45
682.27	10849.04
682.618	10857.17
682.966	10749.38
683.314	10818.53
683.661	10774.91
684.009	10686.33
684.357	10705.54
684.705	10705.99
685.053	10703.96
685.4	10617.4
685.748	10516.62
686.095	10644.97
686.443	10566.33
686.79	10542.38
687.138	10582.38
687.485	10579.21
687.832	10505.32
688.18	10488.82
688.527	10532.89
688.874	10465.77
689.221	10433.23
689.568	10441.36
689.915	10377.64
690.262	10292.89
690.609	10287.24
690.956	10353.46
691.303	10245.66
691.65	10152.78
691.997	10201.37
692.344	10137.87
692.69	10112.33
693.037	10153.46
693.383	9997.53
693.73	10108.94
694.077	9910.76
694.423	9936.07
694.769	9948.95
695.116	9947.59
695.462	9899.46
695.808	9803.64
696.155	9856.29
696.501	9685
696.847	9786.47
697.193	9704.89
697.539	9720.93
697.885	9594.61
698.231	9586.7
698.577	9623.98
698.923	9569.3
699.269	9566.58
699.614	9492.91
699.96	9427.83
700.306	9381.73
700.651	9322.75
700.997	9327.04
701.342	9311.68
701.688	9299.25
702.033	9277.55
702.379	9273.48
702.724	9181.06
703.069	9233.71
703.415	9091.57
703.76	9115.75
704.105	9123.66
704.45	9008.18
704.795	9057.9
705.14	9025.13
705.485	8922.08
705.83	8873.72
706.175	8913.04
706.52	8881.63
706.865	8829.43
707.209	8868.98
707.554	8767.28
707.899	8782.2
708.243	8774.74
708.588	8731.58
708.932	8676.89
709.277	8696.33
709.621	8677.57
709.966	8601.64
710.31	8650.45
710.654	8559.83
710.998	8574.52
711.342	8563.22
711.687	8485.48
712.031	8482.77
712.375	8456.33
712.719	8425.6
713.063	8394.64
713.407	8485.94
713.75	8404.36
714.094	8436.67
714.438	8326.62
714.782	8348.09
715.125	8314.41
715.469	8325.94
715.812	8307.86
716.156	8244.36
716.499	8295.88
716.843	8275.32
717.186	8205.72
717.53	8228.77
717.873	8313.28
718.216	8226.05
718.559	8211.37
718.902	8138.6
719.246	8148.77
719.589	8149.9
719.932	8081.43
720.275	8180.41
720.617	8130.46
720.96	8112.61
721.303	8151.71
721.646	8108.77
721.989	8028.55
722.331	8104.93
722.674	8049.79
723.016	8014.54
723.359	8041.88
723.701	8089.79
724.044	8002.78
724.386	7975.44
724.729	7994.2
725.071	8034.87
725.413	7954.2
725.755	7994.42
726.097	7945.38
726.439	7918.27
726.782	7974.99
727.124	7953.75
727.465	7963.91
727.807	7872.84
728.149	7946.06
728.491	7939.28
728.833	7928.21
729.175	7900.41
729.516	7927.08
729.858	7948.1
730.199	7933.18
730.541	7902.67
730.882	7887.08
731.224	7953.97
731.565	7925.72
731.906	7880.08
732.248	7877.14
732.589	7914.42
732.93	7898.15
733.271	7869.91
733.612	7852.05
733.953	7910.13
734.294	7836.69
734.635	7894.76
734.976	7858.38
735.317	7891.83
735.658	7913.97
735.999	7846.4
736.339	7898.83
736.68	7936.57
737.021	7936.12
737.361	7833.52
737.702	7912.39
738.042	7892.28
738.383	7972.73
738.723	7918.04
739.063	7899.51
739.404	7938.6
739.744	7963.69
740.084	7925.72
740.424	7945.16
740.764	8017.92
741.104	7996.68
741.444	8024.03
741.784	7977.02
742.124	8041.65
742.464	8019.51
742.804	8074.42
743.143	8086.4
743.483	8086.85
743.823	8048.43
744.162	8085.27
744.502	8133.85
744.841	8103.12
745.181	8167.3
745.52	8152.61
745.86	8258.82
746.199	8355.77
746.538	8352.83
746.877	8344.02
747.216	8395.32
747.556	8468.53
747.895	8491.81
748.234	8549.89
748.573	8496.56
748.911	8580.85
749.25	8697
749.589	8741.75
749.928	8763.22
750.267	8833.95
750.605	8854.96
750.944	8975.19
751.283	9060.84
751.621	9141.29
751.96	9197.55
752.298	9328.62
752.636	9416.08
752.975	9435.51
753.313	9575.62
753.651	9734.94
753.989	9700.59
754.327	9878.44
754.666	9903.3
755.004	10027.82
755.342	10199.11
755.679	10295.38
756.017	10407.92
756.355	10654.24
756.693	10572.66
757.031	10844.29
757.368	10886.78
757.706	10997.73
758.044	11171.51
758.381	11343.94
758.719	11382.36
759.056	11650.15
759.394	11767.88
759.731	11938.05
760.068	12044.03
760.405	12183.46
760.743	12310.92
761.08	12512.04
761.417	12632.27
761.754	12827.74
762.091	12973.05
762.428	13028.41
762.765	13287.16
763.102	13461.17
763.438	13601.05
763.775	13665.69
764.112	13935.74
764.449	14051.44
764.785	14177.99
765.122	14277.87
765.458	14447.13
765.795	14597.86
766.131	14716.05
766.467	14779.78
766.804	14955.6
767.14	15090.96
767.476	15226.1
767.812	15264.51
768.148	15480.33
768.485	15576.82
768.821	15655.69
769.157	15805.97
769.492	15855.46
769.828	16051.84
770.164	16012.97
770.5	16173.64
770.836	16341.77
771.171	16379.51
771.507	16453.41
771.842	16514.65
772.178	16712.61
772.513	16703.8
772.849	16759.62
773.184	16894.53
773.519	16964.81
773.855	17020.63
774.19	17022.21
774.525	17083.68
774.86	17226.95
775.195	17333.16
775.53	17279.83
775.865	17367.74
776.2	17340.84
776.535	17239.6
776.87	17499.03
777.205	17381.52
777.539	17463.1
777.874	17594.17
778.209	17526.15
778.543	17525.92
778.878	17531.35
779.212	17611.57
779.547	17579.71
779.881	17719.82
780.215	17689.08
780.55	17720.04
780.884	17757.1
781.218	17701.51
781.552	17726.37
781.886	17687.73
782.22	17600.27
782.554	17705.35
782.888	17663.32
783.222	17592.59
783.556	17534.06
783.889	17693.15
784.223	17544.68
784.557	17578.35
784.89	17665.35
785.224	17571.8
785.557	17474.85
785.891	17539.03
786.224	17512.36
786.558	17554.85
786.891	17483.89
787.224	17388.07
787.557	17444.8
787.891	17389.2
788.224	17406.83
788.557	17463.78
788.89	17415.64
789.223	17339.04
789.556	17269.66
789.888	17384.23
790.221	17272.37
790.554	17163
790.887	17198.25
791.219	17124.13
791.552	17091.13
791.884	17077.57
792.217	17037.57
792.549	16960.51
792.882	16900.4
793.214	16891.14
793.546	16948.99
793.879	16931.14
794.211	16801.42
794.543	16848.43
794.875	16747.41
795.207	16774.53
795.539	16838.26
795.871	16716.45
796.203	16647.98
796.535	16533.41
796.867	16633.97
797.198	16547.64
797.53	16543.58
797.862	16528.44
798.193	16502.45
798.525	16428.1
798.856	16359.4
799.188	16283.02
799.519	16171.61
799.85	16129.8
800.182	16175.9
800.513	16197.14
800.844	16062.23
801.175	16111.27
801.506	16166.19
801.837	16046.41
802.168	16093.42
802.499	15993.99
802.83	15858.85
803.161	15886.87
803.491	15861.79
803.822	15849.36
804.153	15696.14
804.483	15675.58
804.814	15592.64
805.145	15702.47
805.475	15624.05
805.805	15543.38
806.136	15604.62
806.466	15547.44
806.796	15501.34
807.126	15402.14
807.457	15419.76
807.787	15489.59
808.117	15399.65
808.447	15372.31
808.777	15320.11
809.107	15235.81
809.436	15222.48
809.766	15145.42
810.096	15135.48
810.426	15102.03
810.755	15083.73
811.085	15054.12
811.414	15073.56
811.744	14890.51
812.073	14982.26
812.403	14994.01
812.732	14903.62
813.061	14909.49
813.39	14789.95
813.719	14815.26
814.049	14818.2
814.378	14859.33
814.707	14671.54
815.036	14735.94
815.365	14582.5
815.693	14556.06
816.022	14569.62
816.351	14507.92
816.68	14483.97
817.008	14481.71
817.337	14316.06
817.665	14320.81
817.994	14379.57
818.322	14385.67
818.651	14337.76
818.979	14291.43
819.307	14348.15
819.636	14229.29
819.964	14324.2
820.292	14264.54
820.62	14305.9
820.948	14224.54
821.276	14307.48
821.604	14163.98
821.932	14252.34
822.259	14241.04
822.587	14154.49
822.915	14153.58
823.243	14270.42
823.57	14083.75
823.898	14156.75
824.225	14161.27
824.553	14158.1
824.88	14103.19
825.207	14149.29
825.535	14124.88
825.862	14166.24
826.189	14135.28
826.516	14210.76
826.843	14213.02
827.17	14234.94
827.497	14248.72
827.824	14243.98
828.151	14184.77
828.478	14235.16
828.805	14326.46
829.131	14219.12
829.458	14216.63
829.785	14071.1
830.111	14208.27
830.438	14183.19
830.764	14226.35
831.09	14236.07
831.417	14245.33
831.743	14191.1
832.069	14255.73
832.395	14174.37
832.722	14169.85
833.048	14096.63
833.374	14179.57
833.7	14081.95
834.026	14069.97
834.351	14170.31
834.677	14084.21
835.003	14112.91
835.329	14035.85
835.654	14088.73
835.98	14042.4
836.306	14055.73
836.631	13959.01
836.956	14049.86
837.282	13987.94
837.607	13868.17
837.932	13931.22
838.258	13894.15
838.583	13857.09
838.908	13865.91
839.233	13924.44
839.558	13802.18
839.883	13784.55
840.208	13822.97
840.533	13736.87
840.858	13702.07
841.182	13703.2
841.507	13662.75
841.832	13552.69
842.156	13657.55
842.481	13548.85
842.805	13618.23
843.13	13564.9
843.454	13526.03
843.778	13463.66
844.103	13403.32
844.427	13387.28
844.751	13412.13
845.075	13366.26
845.399	13321.06
845.723	13260.05
846.047	13275.87
846.371	13155.42
846.695	13197.22
847.019	13098.92
847.343	13003.78
847.666	12877.23
847.99	12886.72
848.313	12820.51
848.637	12758.14
848.96	12757.01
849.284	12722.89
849.607	12623
849.931	12640.63
850.254	12522.21
850.577	12520.63
850.9	12408.77
851.223	12444.7
851.546	12373.06
851.869	12262.33
852.192	12310.69
852.515	12221.88
852.838	12052.39
853.161	12150.25
853.483	12027.99
853.806	12039.06
854.129	12051.49
854.451	11970.59
854.774	11846.98
855.096	11923.13
855.419	11866.64
855.741	11802.46
856.063	11761.56
856.385	11792.74
856.708	11671.61
857.03	11686.75
857.352	11638.62
857.674	11623.93
857.996	11603.82
858.318	11505.06
858.64	11559.75
858.961	11526.08
859.283	11446.76
859.605	11381.68
859.926	11460.77
860.248	11359.76
860.57	11277.5
860.891	11326.99
861.212	11298.06
861.534	11234.56
861.855	11175.36
862.176	11229.14
862.498	11258.52
862.819	11174.23
863.14	11176.49
863.461	11086.54
863.782	11051.29
864.103	11049.48
864.424	11064.17
864.745	11069.37
865.065	10983.04
865.386	10920.67
865.707	10857.62
866.027	10931.75
866.348	10933.1
866.668	10931.75
866.989	10865.53
867.309	10864.63
867.63	10814.01
867.95	10784.86
868.27	10743.05
868.59	10757.74
868.91	10723.16
869.23	10731.75
869.55	10624.86
869.87	10744.86
870.19	10695.14
870.51	10694.69
870.83	10693.11
871.15	10573.79
871.469	10602.49
871.789	10693.56
872.109	10704.41
872.428	10622.38
872.748	10539.67
873.067	10570.4
873.386	10679.32
873.706	10540.8
874.025	10534.24
874.344	10468.71
874.663	10562.72
874.982	10440.69
875.301	10408.37
875.62	10432.55
875.939	10444.3
876.258	10355.94
876.577	10337.86
876.896	10356.85
877.214	10304.87
877.533	10306
877.852	10295.6
878.17	10305.1
878.489	10303.97
878.807	10278.66
879.125	10294.93
879.444	10290.86
879.762	10196.62
880.08	10142.39
880.398	10164.31
880.716	10160.02
881.034	10125.89
881.352	10149.85
881.67	10083.18
881.988	10068.94
882.306	10000.02
882.624	9991.66
882.941	9974.48
883.259	9944.2
883.577	9957.08
883.894	9978.78
884.212	9933.35
884.529	9907.82
884.846	9842.28
885.164	9803.87
885.481	9855.39
885.798	9828.72
886.115	9801.15
886.432	9721.83
886.75	9750.99
887.067	9689.97
887.383	9647.71
887.7	9690.2
888.017	9634.83
888.334	9637.32
888.651	9576.3
888.967	9595.28
889.284	9493.82
889.6	9536.3
889.917	9471.45
890.233	9515.51
890.55	9360.49
890.866	9374.5
891.182	9380.15
891.498	9279.81
891.815	9276.65
892.131	9279.59
892.447	9290.21
892.763	9201.17
893.079	9213.37
893.395	9164.79
893.71	9199.36
894.026	9190.78
894.342	9087.73
894.657	9037.33
894.973	9032.14
895.289	8988.75
895.604	8951.69
895.92	8920.27
896.235	8864.23
896.55	8874.63
896.865	8830.11
897.181	8799.83
897.496	8814.74
897.811	8792.82
898.126	8743.1
898.441	8721.41
898.756	8663.11
899.071	8582.66
899.386	8704.01
899.7	8582.88
900.015	8537.01
900.33	8500.4
900.644	8476.22
900.959	8522.77
901.273	8445.71
901.588	8408.65
901.902	8308.99
902.216	8298.6
902.531	8345.83
902.845	8254.98
903.159	8233.74
903.473	8239.16
903.787	8175.89
904.101	8069.67
904.415	8113.52
904.729	8076
905.042	8008.66
905.356	7995.55
905.67	8013.41
905.984	7986.29
906.297	7959.85
906.611	7893.41
906.924	7894.99
907.237	7914.2
907.551	7834.43
907.864	7780.42
908.177	7758.5
908.491	7699.97
908.804	7616.58
909.117	7660.65
909.43	7580.87
909.743	7567.99
910.056	7564.38
910.368	7492.74
910.681	7479.63
910.994	7438.96
911.307	7452.06
911.619	7381.56
911.932	7395.12
912.244	7329.13
912.557	7295.46
912.869	7294.1
913.181	7195.8
913.494	7232.63
913.806	7108.57
914.118	7192.64
914.43	7140.43
914.742	7136.82
915.054	7044.62
915.366	7019.31
915.678	6964.17
915.99	7013.43
916.302	6979.53
916.613	6904.96
916.925	6940.89
917.236	6831.52
917.548	6875.13
917.859	6893.66
918.171	6746.55
918.482	6773.66
918.794	6765.53
919.105	6730.73
919.416	6655.47
919.727	6688.92
920.038	6650.73
920.349	6588.36
920.66	6568.25
920.971	6531.41
921.282	6545.42
921.593	6446.21
921.903	6488.25
922.214	6444.18
922.525	6412.09
922.835	6373.22
923.146	6354.24
923.456	6331.19
923.767	6298.42
924.077	6313.79
924.387	6273.34
924.697	6251.42
925.008	6207.35
925.318	6152.89
925.628	6187.69
925.938	6197.86
926.248	6124.42
926.558	6117.64
926.867	6072.67
927.177	6058.88
927.487	6020.24
927.796	5936.62
928.106	5948.37
928.416	5937.08
928.725	5902.05
929.034	5849.85
929.344	5864.08
929.653	5863.18
929.962	5804.65
930.271	5766.23
930.581	5788.6
930.89	5716.74
931.199	5715.16
931.508	5689.85
931.817	5713.13
932.125	5626.8
932.434	5628.84
932.743	5638.33
933.051	5600.36
933.36	5600.36
933.669	5486.92
933.977	5518.1
934.286	5469.52
934.594	5450.31
934.902	5403.98
935.21	5422.74
935.519	5462.74
935.827	5422.29
936.135	5359.69
936.443	5334.61
936.751	5307.04
937.059	5296.41
937.367	5312.46
937.674	5282.4
937.982	5251.9
938.29	5188.85
938.597	5195.85
938.905	5178.9
939.213	5094.61
939.52	5093.93
939.827	5074.95
940.135	5066.59
940.442	5023.2
940.749	4984.78
941.056	4994.95
941.363	4999.7
941.67	4950.21
941.977	4943.43
942.284	4885.13
942.591	4866.6
942.898	4808.29
943.205	4878.35
943.511	4853.26
943.818	4821.62
944.125	4789.54
944.431	4792.92
944.738	4710.22
945.044	4726.03
945.35	4692.59
945.657	4668.18
945.963	4647.84
946.269	4610.33
946.575	4642.65
946.881	4564.46
947.187	4595.42
947.493	4563.33
947.799	4547.51
948.105	4526.94
948.41	4448.08
948.716	4504.8
949.022	4486.04
949.327	4506.6
949.633	4447.85
949.938	4457.79
950.244	4382.99
950.549	4410.11
950.854	4369.89
951.16	4366.27
951.465	4345.48
951.77	4316.55
952.075	4301.41
952.38	4216.44
952.685	4283.33
952.99	4244.92
953.294	4252.83
953.599	4219.83
953.904	4196.1
954.209	4159.72
954.513	4180.06
954.818	4152.94
955.122	4114.75
955.426	4126.28
955.731	4102.32
956.035	4041.76
956.339	4060.51
956.643	4064.81
956.948	4005.6
957.252	4010.12
957.556	4047.18
957.86	3963.34
958.163	3953.4
958.467	3940.29
958.771	3919.28
959.075	3885.38
959.378	3869.11
959.682	3876.56
959.985	3839.28
960.289	3832.5
960.592	3839.5
960.896	3825.04
961.199	3811.03
961.502	3719.96
961.805	3727.64
962.108	3738.26
962.411	3739.17
962.714	3690.13
963.017	3689.68
963.32	3655.55
963.623	3661.88
963.926	3639.96
964.228	3634.76
964.531	3607.87
964.833	3569.91
965.136	3548.66
965.438	3543.24
965.741	3530.13
966.043	3511.6
966.345	3548.66
966.648	3530.36
966.95	3497.82
967.252	3466.18
967.554	3476.35
967.856	3360.19
968.158	3411.72
968.46	3417.59
968.761	3425.96
969.063	3396.8
969.365	3379.4
969.666	3381.89
969.968	3318.84
970.269	3308.22
970.571	3280.87
970.872	3325.62
971.174	3308.22
971.475	3265.06
971.776	3246.75
972.077	3255.11
972.378	3230.71
972.679	3247.88
972.98	3189.58
973.281	3224.6
973.582	3154.1
973.883	3176.24
974.183	3133.31
974.484	3118.39
974.785	3113.87
975.085	3105.06
975.386	3071.39
975.686	3112.29
975.986	3046.08
976.287	3076.81
976.587	3008.11
976.887	3039.75
977.187	2989.13
977.487	2972.63
977.787	2966.31
978.087	2961.33
978.387	2939.41
978.687	2944.39
978.987	2892.18
979.286	2900.55
979.586	2893.99
979.885	2915.01
980.185	2890.6
980.484	2816.48
980.784	2853.31
981.083	2854.67
981.382	2823.03
981.682	2795.24
981.981	2825.29
982.28	2786.65
982.579	2761.79
982.878	2765.18
983.177	2736.48
983.475	2743.49
983.774	2719.08
984.073	2688.57
984.372	2701.68
984.67	2693.54
984.969	2682.25
985.267	2665.98
985.566	2662.13
985.864	2655.35
986.162	2643.83
986.461	2634.79
986.759	2611.06
987.057	2570.61
987.355	2585.53
987.653	2551.18
987.951	2534.45
988.249	2558.41
988.547	2555.92
988.844	2562.02
989.142	2497.17
989.44	2475.02
989.737	2482.7
990.035	2486.09
990.332	2442.03
990.63	2446.09
990.927	2430.5
991.224	2432.31
991.521	2430.28
991.819	2397.28
992.116	2386.66
992.413	2369.94
992.71	2346.66
993.006	2355.93
993.303	2362.03
993.6	2358.41
993.897	2320.9
994.193	2292.65
994.49	2327.68
994.787	2298.75
995.083	2305.31
995.379	2274.35
995.676	2265.08
995.972	2253.56
996.268	2228.92
996.565	2221.24
996.861	2245.42
997.157	2261.24
997.453	2205.2
997.749	2197.29
998.044	2187.12
998.34	2181.02
998.636	2173.11
998.932	2123.16
999.227	2146.44
999.523	2133.79
999.818	2114.13
1000.114	2144.63
1000.409	2082.49
1000.704	2046.78
1001	2051.53
1001.295	2049.27
1001.59	2048.36
1001.885	2048.36
1002.18	2023.28
1002.475	2019.66
1002.77	2021.47
1003.065	2000
1003.359	1985.54
1003.654	1943.73
1003.949	1952.32
1004.243	1945.09
1004.538	1930.4
1004.832	1951.87
1005.127	1904.41
1005.421	1871.42
1005.715	1884.98
1006.009	1899.67
1006.304	1876.62
1006.598	1856.73
1006.892	1866.45
1007.186	1812.89
1007.48	1870.29
1007.773	1804.53
1008.067	1814.02
1008.361	1792.1
1008.655	1775.15
1008.948	1790.52
1009.242	1765.66
1009.535	1758.88
1009.829	1738.54
1010.122	1773.57
1010.415	1758.43
1010.708	1768.37
1011.001	1692.89
1011.295	1692.67
1011.588	1692.22
1011.881	1687.47
1012.173	1665.1
1012.466	1684.76
1012.759	1636.4
1013.052	1660.8
1013.344	1631.43
1013.637	1604.53
1013.93	1585.1
1014.222	1576.96
1014.514	1613.35
1014.807	1578.32
1015.099	1587.81
1015.391	1586
1015.683	1579
1015.976	1523.18
1016.268	1533.58
1016.56	1548.26
1016.851	1516.4
1017.143	1513.69
1017.435	1507.14
1017.727	1513.01
1018.018	1506.23
1018.31	1454.48
1018.602	1465.33
1018.893	1484.09
1019.185	1446.35
1019.476	1457.87
1019.767	1463.97
1020.058	1444.31
1020.35	1408.16
1020.641	1414.48
1020.932	1406.8
1021.223	1367.7
1021.514	1364.09
1021.804	1355.73
1022.095	1346.69
1022.386	1365.44
1022.677	1355.05
1022.967	1332
1023.258	1346.46
1023.548	1301.72
1023.839	1291.32
1024.129	1290.19
1024.419	1313.24
1024.709	1268.05
1025	1249.52
1025.29	1273.24
1025.58	1230.76
1025.87	1264.43
1026.16	1238.22
1026.449	1217.88
1026.739	1228.05
1027.029	1212.91
1027.319	1214.49
1027.608	1207.03
1027.898	1167.26
1028.187	1191.44
1028.477	1189.86
1028.766	1157.99
1029.055	1166.81
1029.344	1151.89
1029.634	1153.02
1029.923	1126.81
1030.212	1122.29
1030.501	1110.31
1030.79	1084.55
1031.078	1081.38
1031.367	1130.87
1031.656	1086.36
1031.945	1104.43
1032.233	1085.68
1032.522	1099.91
1032.81	1103.98
1033.099	1072.8
1033.387	1066.24
1033.675	1033.02
1033.963	1036.64
1034.251	1037.32
1034.54	1057.2
1034.828	1047.26
1035.116	1029.86
1035.403	993.25
1035.691	1023.31
1035.979	997.09
1036.267	1009.52
1036.554	998.22
1036.842	975.62
1037.129	966.58
1037.417	958.9
1037.704	968.39
1037.992	965.91
1038.279	960.48
1038.566	959.13
1038.853	959.13
1039.14	959.13
