Data from hue_110_FLMS001491_00078.txt Node
Date: Tue Feb 07 17:01:49 GMT 2017
User: dcchb
Spectrometer: FLMS00149
Trigger mode: 0
Integration Time (sec): 2.000000E-2
Scans to average: 10
Electric dark correction enabled: true
Nonlinearity correction enabled: false
Boxcar width: 0
XAxis mode: Wavelengths
Number of Pixels in Spectrum: 2048
>>>>>Begin Spectral Data<<<<<
341.393	-22.3
341.776	-22.3
342.16	-22.3
342.543	-71.57
342.927	-73.6
343.31	-73.83
343.693	-80.61
344.077	-82.87
344.46	-76.31
344.843	-42.19
345.226	-27.5
345.61	-30.89
345.993	-33.15
346.376	16.12
346.759	10.92
347.142	3.69
347.525	63.35
347.908	79.84
348.291	81.65
348.674	77.36
349.057	114.42
349.44	145.38
349.823	150.8
350.206	167.07
350.588	189.22
350.971	205.49
351.354	219.73
351.737	244.58
352.119	236.22
352.502	264.47
352.884	261.76
353.267	281.87
353.65	296.11
354.032	292.04
354.414	314.86
354.797	310.12
355.179	317.8
355.562	327.75
355.944	311.02
356.326	339.95
356.709	329.1
357.091	316.67
357.473	336.78
357.855	331.59
358.238	352.15
358.62	336.78
359.002	329.33
359.384	332.49
359.766	342.21
360.148	337.24
360.53	323.9
360.912	351.93
361.294	340.63
361.676	319.38
362.057	326.16
362.439	332.49
362.821	319.38
363.203	329.33
363.584	316.22
363.966	323.23
364.348	318.48
364.729	325.26
365.111	334.3
365.493	324.58
365.874	331.59
366.256	311.93
366.637	313.73
367.019	316.67
367.4	317.58
367.781	320.97
368.163	317.12
368.544	306.05
368.925	308.09
369.306	312.83
369.688	324.13
370.069	303.11
370.45	321.64
370.831	318.03
371.212	313.51
371.593	319.84
371.974	309.44
372.355	321.87
372.736	308.09
373.117	324.36
373.498	302.89
373.879	318.71
374.26	332.49
374.641	346.28
375.021	325.71
375.402	323
375.783	336.78
376.163	319.84
376.544	345.6
376.925	342.21
377.305	333.17
377.686	322.77
378.066	328.42
378.447	353.73
378.827	322.32
379.208	345.82
379.588	341.53
379.968	336.56
380.349	360.51
380.729	344.47
381.109	350.57
381.489	311.25
381.87	341.98
382.25	358.48
382.63	360.97
383.01	373.62
383.39	353.96
383.77	350.57
384.15	356.45
384.53	356.9
384.91	356.45
385.29	351.02
385.67	354.41
386.049	367.07
386.429	373.39
386.809	372.94
387.189	362.32
387.568	357.12
387.948	364.13
388.328	389.21
388.707	375.2
389.087	366.61
389.466	376.78
389.846	387.63
390.225	392.38
390.605	373.85
390.984	365.94
391.363	389.44
391.743	387.18
392.122	368.65
392.501	378.59
392.881	397.35
393.26	407.07
393.639	382.66
394.018	370.23
394.397	401.87
394.776	377.46
395.155	391.7
395.534	387.86
395.913	400.74
396.292	405.03
396.671	403.68
397.05	413.39
397.429	432.6
397.808	417.23
398.186	410
398.565	412.49
398.944	415.88
399.323	422.88
399.701	424.92
400.08	424.01
400.458	437.35
400.837	439.61
401.215	439.83
401.594	413.39
401.972	431.92
402.351	411.59
402.729	441.19
403.107	435.77
403.486	431.7
403.864	442.77
404.242	433.05
404.62	442.09
404.999	453.62
405.377	422.43
405.755	452.26
406.133	467.63
406.511	472.83
406.889	461.98
407.267	463.56
407.645	456.1
408.023	467.85
408.401	478.93
408.779	485.26
409.156	468.31
409.534	486.61
409.912	506.5
410.29	461.75
410.667	480.06
411.045	495.42
411.422	485.93
411.8	505.82
412.178	515.31
412.555	493.39
412.933	532.71
413.31	527.74
413.687	509.44
414.065	537.46
414.442	525.48
414.819	547.4
415.197	535.2
415.574	534.97
415.951	556.67
416.328	566.16
416.705	567.06
417.082	551.02
417.46	542.66
417.837	582.43
418.214	549.43
418.591	570.45
418.967	590.34
419.344	570
419.721	585.82
420.098	567.51
420.475	577.91
420.852	578.59
421.228	615.2
421.605	596.67
421.982	606.16
422.358	604.35
422.735	604.12
423.111	613.61
423.488	621.75
423.864	625.36
424.241	622.88
424.617	634.63
424.994	656.55
425.37	647.74
425.746	654.74
426.123	636.66
426.499	648.19
426.875	650
427.251	666.27
427.627	674.86
428.003	686.38
428.379	706.04
428.756	701.07
429.132	698.13
429.507	727.74
429.883	694.29
430.259	722.09
430.635	713.95
431.011	705.59
431.387	732.25
431.763	755.76
432.138	757.79
432.514	767.96
432.89	759.37
433.265	766.38
433.641	769.09
434.016	775.19
434.392	785.36
434.767	816.55
435.143	813.61
435.518	802.76
435.894	808.41
436.269	827.17
436.644	823.33
437.02	835.08
437.395	873.95
437.77	869.43
438.145	876.66
438.52	854.51
438.895	898.13
439.271	886.6
439.646	895.41
440.021	886.37
440.395	896.32
440.77	895.19
441.145	906.49
441.52	894.74
441.895	928.86
442.27	941.74
442.645	915.07
443.019	980.61
443.394	949.42
443.769	959.14
444.143	954.85
444.518	978.35
444.892	975.41
445.267	961.63
445.641	990.33
446.016	1003.21
446.39	1003.66
446.764	1009.99
447.139	998.46
447.513	1005.92
447.887	1006.6
448.262	1024.9
448.636	1016.99
449.01	1044.11
449.384	1076.2
449.758	1052.25
450.132	1068.97
450.506	1077.33
450.88	1079.14
451.254	1109.19
451.628	1104.9
452.002	1123.2
452.376	1119.36
452.75	1130.66
453.123	1132.02
453.497	1169.08
453.871	1184.22
454.244	1180.6
454.618	1200.72
454.992	1199.14
455.365	1180.15
455.739	1245.91
456.112	1220.83
456.486	1273.26
456.859	1266.03
457.232	1279.81
457.606	1300.83
457.979	1300.6
458.352	1336.31
458.725	1353.26
459.099	1355.52
459.472	1378.34
459.845	1388.73
460.218	1396.64
460.591	1414.72
460.964	1464.66
461.337	1457.66
461.71	1487.26
462.083	1508.73
462.456	1499.24
462.829	1498.56
463.201	1575.85
463.574	1557.32
463.947	1574.04
464.32	1597.54
464.692	1635.51
465.065	1637.99
465.438	1689.97
465.81	1753.02
466.183	1703.53
466.555	1778.78
466.928	1761.61
467.3	1778.1
467.672	1841.15
468.045	1846.8
468.417	1888.61
468.789	1892
469.161	1925.67
469.534	1979.91
469.906	2022.62
470.278	2063.29
470.65	2038.66
471.022	2140.81
471.394	2156.85
471.766	2174.48
472.138	2201.82
472.51	2310.29
472.882	2327.02
473.253	2363.85
473.625	2416.73
473.997	2449.05
474.369	2529.95
474.74	2534.24
475.112	2634.35
475.484	2674.58
475.855	2732.88
476.227	2771.52
476.598	2892.65
476.97	2893.55
477.341	3000.67
477.713	3083.15
478.084	3116.15
478.455	3249.7
478.827	3308.68
479.198	3415.12
479.569	3460.09
479.94	3604.5
480.311	3626.42
480.682	3757.26
481.053	3904.15
481.424	3964.71
481.795	4035.22
482.166	4195.89
482.537	4273.86
482.908	4395.66
483.279	4525.38
483.65	4624.81
484.021	4753.39
484.391	4888.08
484.762	4994.74
485.133	5085.13
485.503	5237.67
485.874	5371.68
486.244	5524.9
486.615	5623.65
486.985	5755.17
487.356	5864.78
487.726	6022.51
488.097	6173.02
488.467	6300.02
488.837	6504.76
489.207	6612.1
489.578	6768.71
489.948	6875.14
490.318	7070.62
490.688	7195.59
491.058	7373.89
491.428	7570.72
491.798	7698.85
492.168	7908.56
492.538	8020.65
492.908	8192.85
493.278	8340.42
493.648	8448.66
494.017	8599.84
494.387	8769.78
494.757	8876.9
495.126	9087.29
495.496	9144.91
495.866	9294.74
496.235	9461.06
496.605	9615.86
496.974	9770.89
497.344	9872.35
497.713	9998.23
498.082	10132.69
498.452	10289.52
498.821	10454.48
499.19	10452.68
499.559	10646.12
499.928	10715.72
500.298	10923.85
500.667	11047.92
501.036	11059.44
501.405	11281.13
501.774	11276.84
502.143	11484.97
502.512	11530.84
502.88	11672.98
503.249	11749.37
503.618	11870.27
503.987	11913.88
504.356	12038.85
504.724	12131.05
505.093	12239.75
505.462	12295.11
505.83	12488.1
506.199	12549.8
506.567	12631.83
506.936	12812.39
507.304	12923.8
507.672	12909.79
508.041	13054.87
508.409	13167.18
508.777	13227.52
509.145	13284.24
509.514	13379.15
509.882	13450.56
510.25	13420.28
510.618	13532.82
510.986	13611.01
511.354	13734.62
511.722	13850.78
512.09	13951.57
512.458	14017.33
512.826	14038.8
513.193	14162.64
513.561	14158.12
513.929	14253.48
514.297	14313.59
514.664	14361.95
515.032	14367.15
515.4	14539.35
515.767	14628.61
516.135	14611.66
516.502	14545.22
516.869	14802.62
517.237	14784.31
517.604	14730.3
517.972	14862.5
518.339	14948.15
518.706	14945.44
519.073	14969.85
519.44	15083.97
519.808	15132.78
520.175	15106.11
520.542	15285.09
520.909	15318.76
521.276	15257.75
521.643	15440.12
522.009	15503.62
522.376	15561.92
522.743	15590.85
523.11	15714.91
523.477	15801.24
523.843	15849.82
524.21	15929.37
524.577	15978.63
524.943	15982.25
525.31	16020.67
525.676	16102.7
526.043	16120.78
526.409	16156.03
526.776	16290.94
527.142	16251.39
527.508	16249.59
527.874	16365.74
528.241	16410.94
528.607	16336.14
528.973	16475.57
529.339	16418.62
529.705	16526.87
530.071	16631.27
530.437	16562.12
530.803	16703.81
531.169	16686.64
531.535	16560.09
531.901	16445.51
532.267	16661.33
532.632	16655.45
532.998	16544.49
533.364	16605.96
533.73	16693.42
534.095	16755.34
534.461	16625.62
534.826	16670.82
535.192	16646.19
535.557	16683.7
535.923	16686.19
536.288	16655.23
536.653	16683.93
537.019	16577.49
537.384	16539.52
537.749	16587.43
538.114	16555.57
538.479	16521.22
538.845	16462.01
539.21	16509.47
539.575	16560.09
539.94	16486.87
540.305	16578.39
540.67	16418.85
541.034	16420.66
541.399	16488.22
541.764	16346.08
542.129	16415.01
542.494	16412.75
542.858	16355.57
543.223	16333.2
543.587	16429.47
543.952	16256.14
544.316	16224.5
544.681	16168.69
545.045	16196.71
545.41	16196.48
545.774	16088.24
546.138	16123.94
546.503	16120.78
546.867	16028.58
547.231	16156.26
547.595	15982.7
547.959	16054.11
548.324	16045.75
548.688	15969.82
549.052	15891.18
549.416	16050.27
549.779	15817.73
550.143	15881.23
550.507	15900.9
550.871	15849.37
551.235	15861.57
551.599	15864.29
551.962	15820.9
552.326	15830.16
552.689	15739.09
553.053	15685.53
553.417	15744.06
553.78	15899.54
554.143	15640.56
554.507	15670.62
554.87	15752.65
555.234	15738.41
555.597	15671.52
555.96	15617.29
556.323	15722.6
556.686	15572.54
557.05	15616.84
557.413	15680.34
557.776	15593.33
558.139	15677.17
558.502	15613.22
558.865	15673.56
559.228	15697.28
559.59	15635.14
559.953	15730.96
560.316	15695.93
560.679	15740
561.041	15732.54
561.404	15789.03
561.767	15802.37
562.129	15733.44
562.492	15862.7
562.854	15714.23
563.217	15800.33
563.579	15871.07
563.941	15813.89
564.304	15851.18
564.666	15910.84
565.028	15901.8
565.39	15879.43
565.753	15932.99
566.115	16073.77
566.477	15950.39
566.839	15922.36
567.201	16063.38
567.563	16048.46
567.925	16116.93
568.287	15975.92
568.648	16100.66
569.01	16113.09
569.372	16188.8
569.734	16087.11
570.095	16105.18
570.457	16261.56
570.819	16157.61
571.18	16108.8
571.542	16183.6
571.903	16206.2
572.265	16281.22
572.626	16208.68
572.987	16264.05
573.349	16309.7
573.71	16339.75
574.071	16370.71
574.432	16407.55
574.794	16448.45
575.155	16485.74
575.516	16403.48
575.877	16427.21
576.238	16532.52
576.599	16546.53
576.96	16449.81
577.32	16480.77
577.681	16520.99
578.042	16581.78
578.403	16569.35
578.763	16480.32
579.124	16558.05
579.485	16502.69
579.845	16533.42
580.206	16476.47
580.566	16522.12
580.927	16455.01
581.287	16558.96
581.648	16457.72
582.008	16519.64
582.368	16533.87
582.728	16517.6
583.089	16485.51
583.449	16426.98
583.809	16520.09
584.169	16433.99
584.529	16393.31
584.889	16524.16
585.249	16399.19
585.609	16358.51
585.969	16445.06
586.329	16375.91
586.688	16505.17
587.048	16340.43
587.408	16297.5
587.768	16410.94
588.127	16351.73
588.487	16266.99
588.846	16394.22
589.206	16328.68
589.565	16372.07
589.925	16387.66
590.284	16313.31
590.643	16382.46
591.003	16258.63
591.362	16250.94
591.721	16270.83
592.08	16252.98
592.44	16240.55
592.799	16313.99
593.158	16260.66
593.517	16224.95
593.876	16300.88
594.235	16191.74
594.593	16229.25
594.952	16310.6
595.311	16169.14
595.67	16262.69
596.029	16290.94
596.387	16310.6
596.746	16293.65
597.104	16204.16
597.463	16229.25
597.822	16180.44
598.18	16183.37
598.538	16204.62
598.897	16332.3
599.255	16114.22
599.613	16391.28
599.972	16268.57
600.33	16266.08
600.688	16170.04
601.046	16168.91
601.404	16289.81
601.762	16194.22
602.12	16251.39
602.478	16166.88
602.836	16288.91
603.194	16220.44
603.552	16154
603.91	16116.71
604.268	16205.97
604.625	16126.65
604.983	16134.56
605.341	16173.88
605.698	16173.2
606.056	16149.93
606.413	16114
606.771	16185.63
607.128	16296.82
607.485	16135.47
607.843	16154
608.2	16227.21
608.557	16300.21
608.914	16288.91
609.272	16335.01
609.629	16317.83
609.986	16444.84
610.343	16265.18
610.7	16406.87
611.057	16433.54
611.414	16305.63
611.771	16319.42
612.127	16366.42
612.484	16446.64
612.841	16483.7
613.198	16418.85
613.554	16455.46
613.911	16431.95
614.267	16443.93
614.624	16443.93
614.98	16424.27
615.337	16491.84
615.693	16556.7
616.05	16483.48
616.406	16628.33
616.762	16580.43
617.118	16470.6
617.475	16576.58
617.831	16643.02
618.187	16606.64
618.543	16530.48
618.899	16784.94
619.255	16728.67
619.611	16683.93
619.967	16753.08
620.323	16776.35
620.678	16689.8
621.034	16619.97
621.39	16637.83
621.746	16604.38
622.101	16889.12
622.457	16656.36
622.812	16633.98
623.168	16703.59
623.523	16663.59
623.879	16729.8
624.234	16631.27
624.589	16770.7
624.945	16740.87
625.3	16826.29
625.655	16749.91
626.01	16709.46
626.365	16771.83
626.72	16730.7
627.075	16762.79
627.43	16710.59
627.785	16596.7
628.14	16707.43
628.495	16658.39
628.85	16698.84
629.205	16590.82
629.559	16713.98
629.914	16630.59
630.269	16608.22
630.623	16509.47
630.978	16525.29
631.332	16510.6
631.687	16563.02
632.041	16551.27
632.396	16535.91
632.75	16475.12
633.104	16549.69
633.459	16401.67
633.813	16375.69
634.167	16355.35
634.521	16396.93
634.875	16404.39
635.229	16332.75
635.583	16264.5
635.937	16326.87
636.291	16335.46
636.645	16315.8
636.999	16153.54
637.352	16251.62
637.706	16172.07
638.06	16211.62
638.413	16196.25
638.767	16156.26
639.121	16206.42
639.474	16050.27
639.828	15981.57
640.181	16134.56
640.534	16089.14
640.888	16009.14
641.241	15986.32
641.594	16021.12
641.947	16046.43
642.301	16055.24
642.654	15996.03
643.007	16066.31
643.36	16000.78
643.713	15990.61
644.066	16093.88
644.419	15933.66
644.771	15867.22
645.124	15689.6
645.477	15593.56
645.83	15597.4
646.182	15507.91
646.535	15463.84
646.888	15463.62
647.24	15385.65
647.593	15501.13
647.945	15401.02
648.298	15358.99
648.65	15394.69
649.002	15283.06
649.355	15452.32
649.707	15372.32
650.059	15476.27
650.411	15663.84
650.763	15651.86
651.115	15841.46
651.467	15810.5
651.819	15690.73
652.171	15826.55
652.523	15683.05
652.875	15711.75
653.227	15632.65
653.578	15652.31
653.93	15772.09
654.282	15712.88
654.633	15603.95
654.985	15763.72
655.337	15650.28
655.688	15766.44
656.039	15819.54
656.391	15721.24
656.742	15570.06
657.094	15709.04
657.445	15701.35
657.796	15728.02
658.147	15759.88
658.498	15761.46
658.849	15662.26
659.2	15715.36
659.551	15626.1
659.902	15735.02
660.253	15727.79
660.604	15810.73
660.955	15692.54
661.306	15758.07
661.656	15737.51
662.007	15793.1
662.358	15779.77
662.708	15797.17
663.059	15792.2
663.409	15585.65
663.76	15766.44
664.11	15748.13
664.461	15742.03
664.811	15854.57
665.161	15768.47
665.511	15764.18
665.862	15813.89
666.212	15834.46
666.562	15786.77
666.912	15854.57
667.262	15661.58
667.612	15744.52
667.962	15746.55
668.312	15810.28
668.662	15784.29
669.011	15707.45
669.361	15735.93
669.711	15663.84
670.06	15730.5
670.41	15680.34
670.76	15625.65
671.109	15747
671.459	15642.37
671.808	15611.41
672.157	15786.1
672.507	15582.71
672.856	15621.58
673.205	15605.31
673.554	15578.64
673.904	15581.81
674.253	15664.07
674.602	15561.02
674.951	15355.15
675.3	15269.73
675.649	15616.61
675.998	15500.45
676.346	15619.77
676.695	15578.42
677.044	15443.28
677.393	15464.52
677.741	15484.18
678.09	15423.62
678.438	15483.96
678.787	15419.78
679.135	15397.41
679.484	15287.8
679.832	15364.19
680.181	15245.09
680.529	15353.34
680.877	15266.79
681.225	15207.13
681.573	15287.58
681.922	15203.51
682.27	15173.68
682.618	15129.62
682.966	15075.38
683.314	15093.69
683.661	15135.49
684.009	15064.08
684.357	15064.99
684.705	14935.27
685.053	14987.25
685.4	14945.21
685.748	14758.55
686.095	14842.39
686.443	14745.9
686.79	14679.23
687.138	14756.52
687.485	14765.11
687.832	14697.76
688.18	14693.24
688.527	14537.09
688.874	14549.97
689.221	14476.07
689.568	14508.84
689.915	14496.19
690.262	14443.08
690.609	14388.84
690.956	14272.92
691.303	14289.19
691.65	14227.72
691.997	14219.81
692.344	14128.74
692.69	14118.8
693.037	14140.49
693.383	14039.7
693.73	14040.83
694.077	13933.94
694.423	13975.3
694.769	13911.8
695.116	13892.59
695.462	13880.61
695.808	13703.44
696.155	13761.06
696.501	13638.81
696.847	13621.86
697.193	13477.68
697.539	13556.55
697.885	13515.42
698.231	13371.92
698.577	13350.91
698.923	13332.15
699.269	13272.49
699.614	13233.17
699.96	13170.12
700.306	13164.7
700.651	13052.38
700.997	13057.58
701.342	13009.9
701.688	12929.22
702.033	12960.18
702.379	12895.1
702.724	12796.12
703.069	12863.91
703.415	12700.08
703.76	12695.56
704.105	12729.45
704.45	12682.22
704.795	12590.7
705.14	12524.71
705.485	12497.82
705.83	12423.92
706.175	12463.25
706.52	12431.83
706.865	12342.12
707.209	12226.19
707.554	12262.8
707.899	12371.72
708.243	12154.1
708.588	12221.9
708.932	12030.04
709.277	12082.92
709.621	12048.12
709.966	11959.76
710.31	12058.51
710.654	11905.52
710.998	11909.36
711.342	11992.98
711.687	11834.79
712.031	11852.41
712.375	11771.74
712.719	11814.68
713.063	11760.89
713.407	11824.17
713.75	11718.41
714.094	11729.25
714.438	11614.45
714.782	11627.34
715.125	11547.11
715.469	11641.8
715.812	11603.38
716.156	11498.07
716.499	11466.66
716.843	11466.44
717.186	11414.46
717.53	11443.84
717.873	11468.92
718.216	11490.84
718.559	11499.43
718.902	11325.2
719.246	11404.52
719.589	11386.66
719.932	11296.04
720.275	11296.04
720.617	11264.41
720.96	11294.46
721.303	11306.21
721.646	11254.24
721.989	11227.57
722.331	11225.54
722.674	11248.36
723.016	11204.3
723.359	11229.83
723.701	11190.74
724.044	11126.11
724.386	11077.07
724.729	11106.9
725.071	11080.46
725.413	11121.13
725.755	11065.32
726.097	10990.29
726.439	11055.37
726.782	11016.96
727.124	11036.62
727.465	11081.36
727.807	11027.8
728.149	10974.25
728.491	10927.24
728.833	11003.17
729.175	10910.97
729.516	10981.25
729.858	10899.67
730.199	10928.82
730.541	10873.91
730.882	10938.54
731.224	10908.26
731.565	10872.33
731.906	10982.61
732.248	10945.77
732.589	10935.15
732.93	10817.41
733.271	10936.05
733.612	10870.29
733.953	10924.08
734.294	10874.59
734.635	10867.58
734.976	10870.29
735.317	10857.41
735.658	10880.46
735.999	10839.33
736.339	10847.24
736.68	10908.48
737.021	10907.35
737.361	10838.43
737.702	10889.73
738.042	10905.55
738.383	10903.96
738.723	10913.23
739.063	10928.6
739.404	10953.91
739.744	10855.6
740.084	10928.82
740.424	10914.59
740.764	10997.3
741.104	11001.36
741.444	10962.72
741.784	10986.22
742.124	10968.14
742.464	11117.29
742.804	11009.72
743.143	11082.27
743.483	11120.68
743.823	11063.28
744.162	11094.24
744.502	11194.35
744.841	11154.58
745.181	11253.11
745.52	11264.63
745.86	11244.29
746.199	11286.78
746.538	11361.81
746.877	11415.82
747.216	11480.9
747.556	11500.33
747.895	11586.43
748.234	11597.96
748.573	11628.69
748.911	11712.31
749.25	11744.39
749.589	11804.05
749.928	11948.01
750.267	12029.81
750.605	12056.25
750.944	12146.19
751.283	12193.65
751.621	12374.89
751.96	12310.93
752.298	12526.97
752.636	12605.84
752.975	12696.23
753.313	12731.94
753.651	12926.28
753.989	12968.54
754.327	13077.69
754.666	13131.48
755.004	13324.92
755.342	13450.56
755.679	13593.16
756.017	13676.77
756.355	13848.29
756.693	13983.21
757.031	14167.16
757.368	14192.69
757.706	14408.73
758.044	14496.19
758.381	14715.16
758.719	14842.17
759.056	14998.32
759.394	15113.35
759.731	15119.22
760.068	15338.65
760.405	15502.49
760.743	15701.35
761.08	15882.36
761.417	15978.86
761.754	16143.6
762.091	16315.35
762.428	16484.16
762.765	16659.29
763.102	16735
763.438	16904.48
763.775	17019.51
764.112	17298.37
764.449	17503.57
764.785	17483.68
765.122	17578.82
765.458	17728.19
765.795	18006.6
766.131	18119.59
766.467	18192.81
766.804	18283.66
767.14	18402.07
767.476	18620.82
767.812	18696.75
768.148	18871.66
768.485	18840.93
768.821	18932.68
769.157	19118.21
769.492	19222.84
769.828	19290.64
770.164	19343.52
770.5	19431.42
770.836	19601.14
771.171	19563.17
771.507	19737.4
771.842	19630.29
772.178	19791.41
772.513	19983.27
772.849	20006.1
773.184	20010.62
773.519	20096.72
773.855	20116.83
774.19	20132.2
774.525	20230.27
774.86	20374.45
775.195	20296.26
775.53	20324.28
775.865	20405.64
776.2	20258.75
776.535	20242.7
776.87	20370.83
777.205	20363.6
777.539	20406.77
777.874	20575.35
778.209	20437.27
778.543	20368.57
778.878	20401.57
779.212	20423.04
779.547	20443.6
779.881	20554.33
780.215	20526.99
780.55	20687.21
780.884	20513.66
781.218	20498.29
781.552	20519.53
781.886	20574.9
782.22	20411.51
782.554	20438.18
782.888	20366.31
783.222	20287.67
783.556	20199.54
783.889	20220.56
784.223	20143.5
784.557	20167
784.89	20243.38
785.224	20133.33
785.557	20094.68
785.891	20158.64
786.224	20028.47
786.558	20083.61
786.891	19972.2
787.224	19944.63
787.557	20053.55
787.891	19991.64
788.224	19955.48
788.557	19922.26
788.89	19916.16
789.223	19829.61
789.556	19629.16
789.888	19773.34
790.221	19770.4
790.554	19549.16
790.887	19633.23
791.219	19484.76
791.552	19528.37
791.884	19465.1
792.217	19433.68
792.549	19454.93
792.882	19285.21
793.214	19258.32
793.546	19290.18
793.879	19189.17
794.211	19147.59
794.543	19170.64
794.875	19082.96
795.207	19197.08
795.539	19003.19
795.871	19050.87
796.203	18871.66
796.535	18876.41
796.867	18794.15
797.198	18851.78
797.53	18797.09
797.862	18675.06
798.193	18716.64
798.525	18615.4
798.856	18649.3
799.188	18402.52
799.519	18402.98
799.85	18357.1
800.182	18234.39
800.513	18412.02
800.844	18207.05
801.175	18291.57
801.506	18313.94
801.837	18101.29
802.168	18268.29
802.499	18023.1
802.83	18042.99
803.161	17967.28
803.491	17986.72
803.822	17993.72
804.153	17882.76
804.483	17762.99
804.814	17682.77
805.145	17736.1
805.475	17668.98
805.805	17621.53
806.136	17570.91
806.466	17585.37
806.796	17534.3
807.126	17457.24
807.457	17414.98
807.787	17420.86
808.117	17345.38
808.447	17284.14
808.777	17333.63
809.107	17286.62
809.436	17290.92
809.766	17204.59
810.096	17076.91
810.426	17036.68
810.755	17106.06
811.085	17025.39
811.414	17021.77
811.744	16942.22
812.073	16846.41
812.403	16889.12
812.732	16737.48
813.061	16862.9
813.39	16705.17
813.719	16562.57
814.049	16690.93
814.378	16685.28
814.707	16555.79
815.036	16629.92
815.365	16438.51
815.693	16406.87
816.022	16423.37
816.351	16341.56
816.68	16287.33
817.008	16347.66
817.337	16208.68
817.665	16167.78
817.994	16246.65
818.322	16075.81
818.651	16011.63
818.979	16061.57
819.307	16150.83
819.636	16115.35
819.964	15974.57
820.292	16061.12
820.62	15995.81
820.948	15967.79
821.276	16050.27
821.604	15979.54
821.932	16008.01
822.259	15952.87
822.587	15976.83
822.915	15903.38
823.243	16000.33
823.57	15815.25
823.898	15969.37
824.225	15877.62
824.553	15842.59
824.88	15925.98
825.207	15991.97
825.535	15887.34
825.862	15911.97
826.189	15812.08
826.516	16027.45
826.843	15909.26
827.17	15946.77
827.497	15991.51
827.824	15902.93
828.151	15975.47
828.478	15962.81
828.805	16005.75
829.131	15876.04
829.458	15871.29
829.785	15891.4
830.111	15827.9
830.438	15998.07
830.764	16019.54
831.09	15960.1
831.417	15885.3
831.743	15927.79
832.069	15948.35
832.395	15833.55
832.722	15892.76
833.048	15888.24
833.374	15903.61
833.7	15767.11
834.026	15829.48
834.351	15865.19
834.677	15759.66
835.003	15818.64
835.329	15845.53
835.654	15752.88
835.98	15646.21
836.306	15727.79
836.631	15685.53
836.956	15708.81
837.282	15706.78
837.607	15604.63
837.932	15574.8
838.258	15564.86
838.583	15521.47
838.908	15522.15
839.233	15566.89
839.558	15432.89
839.883	15427.01
840.208	15392.43
840.533	15341.81
840.858	15420
841.182	15312.89
841.507	15369.84
841.832	15293.23
842.156	15260.91
842.481	15318.54
842.805	15186.79
843.13	15188.82
843.454	15196.51
843.778	15082.39
844.103	15041.48
844.427	14935.27
844.751	14935.95
845.075	14973.69
845.399	14880.36
845.723	14823.86
846.047	14818.21
846.371	14725.11
846.695	14694.6
847.019	14636.07
847.343	14515.62
847.666	14450.76
847.99	14407.38
848.313	14346.13
848.637	14293.25
848.96	14285.34
849.284	14260.26
849.607	14150.66
849.931	14117.67
850.254	14068.4
850.577	14042.41
850.9	13964.68
851.223	13872.47
851.546	13758.13
851.869	13699.82
852.192	13773.49
852.515	13663.44
852.838	13618.47
853.161	13555.19
853.483	13494.41
853.806	13479.26
854.129	13476.55
854.451	13409.89
854.774	13281.08
855.096	13295.77
855.419	13307.07
855.741	13211.93
856.063	13137.13
856.385	13183.23
856.708	13146.39
857.03	13030.46
857.352	13085.38
857.674	12914.08
857.996	12913.63
858.318	12841.31
858.64	12850.58
858.961	12748.89
859.283	12713.63
859.605	12761.32
859.926	12778.72
860.248	12665.73
860.57	12644.48
860.891	12692.39
861.212	12559.51
861.534	12592.96
861.855	12421.89
862.176	12525.62
862.498	12453.53
862.819	12493.98
863.14	12431.61
863.461	12414.43
863.782	12327.2
864.103	12314.1
864.424	12329.24
864.745	12303.7
865.065	12277.26
865.386	12156.81
865.707	12312.97
866.027	12203.59
866.348	12206.3
866.668	12241.56
866.989	12205.63
867.309	12126.98
867.63	12059.87
867.95	11998.17
868.27	11923.6
868.59	12032.07
868.91	11978.06
869.23	12046.53
869.55	11886.76
869.87	11964.95
870.19	11955.24
870.51	11889.93
870.83	11908.23
871.15	11870.72
871.469	11865.52
871.789	11889.25
872.109	11856.93
872.428	11826.65
872.748	11832.98
873.067	11720.67
873.386	11721.8
873.706	11778.07
874.025	11693.77
874.344	11640.89
874.663	11709.37
874.982	11657.39
875.301	11612.65
875.62	11635.47
875.939	11526.1
876.258	11598.64
876.577	11580.33
876.896	11557.96
877.214	11473.44
877.533	11533.55
877.852	11451.52
878.17	11505.53
878.489	11511.86
878.807	11382.6
879.125	11442.93
879.444	11396.61
879.762	11363.84
880.08	11357.06
880.398	11299.89
880.716	11317.29
881.034	11324.97
881.352	11214.47
881.67	11184.18
881.988	11240.9
882.306	11207.46
882.624	11206.1
882.941	11090.85
883.259	11021.93
883.577	11075.71
883.894	11093.11
884.212	11030.52
884.529	11075.94
884.846	11026.67
885.164	10953.68
885.481	10889.5
885.798	10915.94
886.115	10837.3
886.432	10850.18
886.75	10806.57
887.067	10822.61
887.383	10748.49
887.7	10805.44
888.017	10810.86
888.334	10683.86
888.651	10698.09
888.967	10651.77
889.284	10618.1
889.6	10625.78
889.917	10488.61
890.233	10561.6
890.55	10447.71
890.866	10413.13
891.182	10397.76
891.498	10352.79
891.815	10335.84
892.131	10331.78
892.447	10305.34
892.763	10221.95
893.079	10251.55
893.395	10204.32
893.71	10187.15
894.026	10170.65
894.342	10128.84
894.657	10020.15
894.973	10006.81
895.289	10032.12
895.604	9973.59
895.92	9970.66
896.235	9845.69
896.55	9881.62
896.865	9812.92
897.181	9852.24
897.496	9844.56
897.811	9716.2
898.126	9686.6
898.441	9724.33
898.756	9627.16
899.071	9617.22
899.386	9585.58
899.7	9542.64
900.015	9510.33
900.33	9434.4
900.644	9478.01
900.959	9404.8
901.273	9280.5
901.588	9273.05
901.902	9311.01
902.216	9228.08
902.531	9231.69
902.845	9197.79
903.159	9162.32
903.473	9158.7
903.787	9048.19
904.101	9042.09
904.415	8989.44
904.729	8998.48
905.042	8922.32
905.356	8865.15
905.67	8885.49
905.984	8842.32
906.297	8852.49
906.611	8795.55
906.924	8812.04
907.237	8729.33
907.551	8717.36
907.864	8677.36
908.177	8672.84
908.491	8593.29
908.804	8622.22
909.117	8531.15
909.43	8483.01
909.743	8361.43
910.056	8439.17
910.368	8387.19
910.681	8431.71
910.994	8282.11
911.307	8303.13
911.619	8203.02
911.932	8241.89
912.244	8137.03
912.557	8107.65
912.869	8081.89
913.181	8072.4
913.494	8077.37
913.806	7947.21
914.118	7975
914.43	7938.62
914.742	7930.48
915.054	7888.45
915.366	7827.21
915.678	7829.24
915.99	7749.47
916.302	7707.66
916.613	7675.58
916.925	7673.09
917.236	7607.33
917.548	7662.24
917.859	7627.89
918.171	7523.71
918.482	7554.9
918.794	7470.38
919.105	7509.93
919.416	7310.84
919.727	7471.74
920.038	7377.73
920.349	7290.5
920.66	7300.9
920.971	7320.1
921.282	7277.85
921.593	7235.81
921.903	7153.78
922.214	7179.09
922.525	7126.89
922.835	7089.6
923.146	7118.08
923.456	7038.3
923.767	7003.5
924.077	6950.62
924.387	6896.16
924.697	6935.71
925.008	6914.01
925.318	6888.48
925.628	6855.03
925.938	6807.12
926.248	6763.06
926.558	6706.56
926.867	6747.46
927.177	6713.79
927.487	6678.99
927.796	6574.36
928.106	6618.88
928.416	6558.32
928.725	6617.98
929.034	6553.12
929.344	6509.96
929.653	6500.46
929.962	6500.46
930.271	6415.04
930.581	6323.97
930.89	6375.04
931.199	6331.66
931.508	6303.86
931.817	6272.67
932.125	6259.57
932.434	6283.3
932.743	6162.62
933.051	6185.22
933.36	6133.69
933.669	6153.81
933.977	6133.47
934.286	6119.91
934.594	6086.92
934.902	6023.64
935.21	5970.76
935.519	5952.91
935.827	5908.62
936.135	5906.58
936.443	5901.61
936.751	5905
937.059	5893.02
937.367	5801.5
937.674	5814.61
937.982	5783.42
938.29	5785.68
938.597	5757.21
938.905	5647.83
939.213	5683.09
939.52	5618.45
939.827	5670.43
940.135	5626.82
940.442	5579.58
940.749	5581.39
941.056	5574.61
941.363	5492.13
941.67	5465.01
941.977	5483.54
942.284	5415.07
942.591	5447.61
942.898	5389.53
943.205	5349.53
943.511	5312.7
943.818	5380.04
944.125	5368.52
944.431	5280.16
944.738	5257.79
945.044	5243.1
945.35	5205.13
945.657	5136.88
945.963	5139.14
946.269	5145.92
946.575	5107.05
946.881	5089.65
947.187	5067.28
947.493	5047.4
947.799	4983.89
948.105	5011.46
948.41	4972.6
948.716	4963.56
949.022	4992.93
949.327	4947.29
949.633	4881.52
949.938	4904.12
950.244	4887.17
950.549	4824.12
950.854	4803.33
951.16	4774.86
951.465	4780.96
951.77	4768.76
952.075	4774.41
952.38	4737.12
952.685	4684.47
952.99	4672.72
953.294	4681.3
953.599	4621.87
953.904	4572.38
954.209	4561.98
954.513	4550.69
954.818	4547.3
955.122	4553.17
955.426	4535.77
955.731	4489.67
956.035	4456.22
956.339	4432.5
956.643	4418.94
956.948	4372.61
957.252	4436.79
957.556	4393.85
957.86	4365.61
958.163	4317.25
958.467	4286.51
958.771	4281.77
959.075	4350.46
959.378	4281.09
959.682	4239.73
959.985	4246.29
960.289	4190.69
960.592	4207.19
960.896	4208.1
961.199	4140.07
961.502	4121.54
961.805	4098.04
962.108	4129.45
962.411	4089
962.714	4076.8
963.017	4038.83
963.32	4081.77
963.623	4019.17
963.926	3975.11
964.228	3937.59
964.531	3982.79
964.833	3956.12
965.136	3974.2
965.438	3891.04
965.741	3920.87
966.043	3886.3
966.345	3832.06
966.648	3821.44
966.95	3798.61
967.252	3769.24
967.554	3772.63
967.856	3781.89
968.158	3748.67
968.46	3739.63
968.761	3709.35
969.063	3703.7
969.365	3698.73
969.666	3649.69
969.968	3650.82
970.269	3659.18
970.571	3631.84
970.872	3608.34
971.174	3601.33
971.475	3566.3
971.776	3553.2
972.077	3571.73
972.378	3565.4
972.679	3526.31
972.98	3558.85
973.281	3474.56
973.582	3548.23
973.883	3466.87
974.183	3416.7
974.484	3476.82
974.785	3439.98
975.085	3461.45
975.386	3383.03
975.686	3370.83
975.986	3355.46
976.287	3339.87
976.587	3334.45
976.887	3301.68
977.187	3333.77
977.487	3300.55
977.787	3283.83
978.087	3277.5
978.387	3244.51
978.687	3239.31
978.987	3204.28
979.286	3191.4
979.586	3208.57
979.885	3155.92
980.185	3135.81
980.484	3092.42
980.784	3158.63
981.083	3110.27
981.382	3093.77
981.682	3061.91
981.981	3061.69
982.28	3070.05
982.579	3036.37
982.878	3025.08
983.177	2989.82
983.475	3039.76
983.774	2936.94
984.073	2946.21
984.372	2939.65
984.67	2927.45
984.969	2925.42
985.267	2924.74
985.566	2926.77
985.864	2917.51
986.162	2885.64
986.461	2840.9
986.759	2831.41
987.057	2802.03
987.355	2808.81
987.653	2826.66
987.951	2792.54
988.249	2824.63
988.547	2834.8
988.844	2728.59
989.142	2736.27
989.44	2725.65
989.737	2734.91
990.035	2718.64
990.332	2676.84
990.63	2671.64
990.927	2684.75
991.224	2651.53
991.521	2646.55
991.819	2661.92
992.116	2611.98
992.413	2586.22
992.71	2575.37
993.006	2589.61
993.303	2572.66
993.6	2538.99
993.897	2583.73
994.193	2569.04
994.49	2511.42
994.787	2481.59
995.083	2512.77
995.379	2487.69
995.676	2433.45
995.972	2465.99
996.268	2438.2
996.565	2451.76
996.861	2436.39
997.157	2417.86
997.453	2369.05
997.749	2384.41
998.044	2371.99
998.34	2393.23
998.636	2326.79
998.932	2339.9
999.227	2325.43
999.523	2305.55
999.818	2284.08
1000.114	2301.03
1000.409	2283.63
1000.704	2271.42
1001	2249.28
1001.295	2258.77
1001.59	2230.52
1001.885	2203.85
1002.18	2204.31
1002.475	2198.88
1002.77	2186.68
1003.065	2187.58
1003.359	2195.72
1003.654	2171.09
1003.949	2156.62
1004.243	2124.08
1004.538	2114.82
1004.832	2107.13
1005.127	2103.07
1005.421	2084.31
1005.715	2053.12
1006.009	2078.43
1006.304	2035.27
1006.598	2014.25
1006.892	2036.63
1007.186	1991.66
1007.48	2013.13
1007.773	1988.94
1008.067	1982.84
1008.361	1962.5
1008.655	1958.44
1008.948	1956.4
1009.242	1954.14
1009.535	1924.77
1009.829	1911.66
1010.122	1930.42
1010.415	1877.54
1010.708	1885.22
1011.001	1876.63
1011.295	1846.35
1011.588	1862.17
1011.881	1854.03
1012.173	1824.66
1012.466	1827.37
1012.759	1810.64
1013.052	1816.29
1013.344	1783.53
1013.637	1773.58
1013.93	1746.92
1014.222	1752.79
1014.514	1763.64
1014.807	1730.42
1015.099	1725.22
1015.391	1719.8
1015.683	1700.36
1015.976	1686.81
1016.268	1703.75
1016.56	1679.57
1016.851	1665.11
1017.143	1631.21
1017.435	1621.95
1017.727	1616.53
1018.018	1612.46
1018.31	1614.72
1018.602	1581.27
1018.893	1565
1019.185	1563.19
1019.476	1590.54
1019.767	1545.11
1020.058	1546.47
1020.35	1513.25
1020.641	1515.74
1020.932	1526.13
1021.223	1501.05
1021.514	1492.23
1021.804	1467.83
1022.095	1483.87
1022.386	1480.94
1022.677	1472.57
1022.967	1449.75
1023.258	1414.95
1023.548	1404.33
1023.839	1421.05
1024.129	1407.49
1024.419	1394.84
1024.709	1369.3
1025	1374.72
1025.29	1393.71
1025.58	1353.93
1025.87	1350.09
1026.16	1347.15
1026.449	1329.08
1026.739	1329.98
1027.029	1295.18
1027.319	1325.01
1027.608	1318.23
1027.898	1295.18
1028.187	1274.84
1028.477	1255.86
1028.766	1269.42
1029.055	1276.42
1029.344	1240.26
1029.634	1240.94
1029.923	1233.71
1030.212	1245.69
1030.501	1223.09
1030.79	1207.04
1031.078	1184.67
1031.367	1200.94
1031.656	1188.29
1031.945	1171.34
1032.233	1190.55
1032.522	1173.15
1032.81	1172.24
1033.099	1167.95
1033.387	1130.21
1033.675	1122.08
1033.963	1123.43
1034.251	1127.95
1034.54	1120.72
1034.828	1069.2
1035.116	1070.1
1035.403	1083.43
1035.691	1068.07
1035.979	1064.22
1036.267	1040.5
1036.554	1066.03
1036.842	1065.81
1037.129	1057.44
1037.417	1026.71
1037.704	1037.11
1037.992	1015.64
1038.279	1033.72
1038.566	1030.33
1038.853	1030.33
1039.14	1030.33
