Data from hue_330_FLMS001491_46.txt Node
Date: Mon Feb 06 15:45:27 GMT 2017
User: dcchb
Spectrometer: FLMS00149
Trigger mode: 0
Integration Time (sec): 2.000000E-2
Scans to average: 10
Electric dark correction enabled: true
Nonlinearity correction enabled: false
Boxcar width: 0
XAxis mode: Wavelengths
Number of Pixels in Spectrum: 2048
>>>>>Begin Spectral Data<<<<<
341.393	-0.9
341.776	-0.9
342.16	-0.9
342.543	-60.34
342.927	-62.82
343.31	-75.48
343.693	-95.59
344.077	-68.92
344.46	-73.22
344.843	-40.68
345.226	-39.77
345.61	-18.3
345.993	-24.18
346.376	-6.55
346.759	32.09
347.142	34.35
347.525	46.55
347.908	36.84
348.291	81.35
348.674	99.43
349.057	112.09
349.44	123.39
349.823	115.7
350.206	181.92
350.588	208.58
350.971	192.76
351.354	233.44
351.737	224.4
352.119	255.81
352.502	257.39
352.884	265.76
353.267	280.9
353.65	301.24
354.032	284.96
354.414	327
354.797	301.69
355.179	337.39
355.562	318.86
355.944	319.77
356.326	319.77
356.709	328.58
357.091	326.32
357.473	329.26
357.855	321.35
358.238	333.1
358.62	344.17
359.002	329.71
359.384	325.64
359.766	342.14
360.148	352.53
360.53	332.87
360.912	347.56
361.294	339.2
361.676	331.06
362.057	336.26
362.439	321.57
362.821	318.18
363.203	326.32
363.584	317.28
363.966	316.83
364.348	337.62
364.729	304.17
365.111	318.41
365.493	299.88
365.874	300.56
366.256	304.62
366.637	302.82
367.019	305.53
367.4	313.89
367.781	308.01
368.163	324.29
368.544	313.89
368.925	328.13
369.306	322.7
369.688	309.82
370.069	316.38
370.45	307.34
370.831	289.71
371.212	320.22
371.593	306.43
371.974	317.96
372.355	311.4
372.736	325.42
373.117	308.24
373.498	310.27
373.879	295.36
374.26	300.11
374.641	294.91
375.021	309.37
375.402	305.53
375.783	324.29
376.163	313.89
376.544	332.87
376.925	319.54
377.305	324.29
377.686	355.47
378.066	334.45
378.447	319.09
378.827	338.07
379.208	317.51
379.588	332.87
379.968	324.96
380.349	331.52
380.729	319.31
381.109	338.52
381.489	329.71
381.87	335.13
382.25	345.98
382.63	306.88
383.01	331.74
383.39	354.34
383.77	343.95
384.15	310.05
384.53	340.78
384.91	340.1
385.29	345.53
385.67	366.54
386.049	346.21
386.429	352.08
386.809	358.63
387.189	332.42
387.568	350.05
387.948	351.4
388.328	348.47
388.707	351.63
389.087	351.18
389.466	341.69
389.846	364.74
390.225	349.37
390.605	348.69
390.984	371.29
391.363	342.82
391.743	360.89
392.122	349.37
392.501	367
392.881	364.74
393.26	380.78
393.639	380.78
394.018	363.83
394.397	382.59
394.776	357.73
395.155	399.31
395.534	359.54
395.913	380.78
396.292	381.01
396.671	381.23
397.05	387.11
397.429	378.97
397.808	348.92
398.186	367.45
398.565	385.07
398.944	401.57
399.323	386.66
399.701	401.57
400.08	402.7
400.458	398.86
400.837	410.16
401.215	388.92
401.594	395.24
401.972	402.02
402.351	384.62
402.729	395.92
403.107	407.67
403.486	386.2
403.864	415.36
404.242	394.11
404.62	430.5
404.999	416.71
405.377	419.88
405.755	436.82
406.133	434.11
406.511	441.34
406.889	464.85
407.267	427.79
407.645	434.56
408.023	455.81
408.401	430.5
408.779	461
409.156	453.32
409.534	456.71
409.912	478.18
410.29	466.43
410.667	493.77
411.045	483.38
411.422	477.95
411.8	480.21
412.178	487.22
412.555	488.57
412.933	503.49
413.31	513.43
413.687	510.72
414.065	530.61
414.442	523.6
414.819	510.95
415.197	525.64
415.574	551.4
415.951	527.9
416.328	555.01
416.705	545.52
417.082	552.53
417.46	557.05
417.837	567.67
418.214	568.12
418.591	559.08
418.967	593.88
419.344	590.49
419.721	603.6
420.098	591.17
420.475	590.94
420.852	605.41
421.228	618.97
421.605	610.15
421.982	611.06
422.358	648.57
422.735	659.19
423.111	640.21
423.488	643.6
423.864	638.4
424.241	652.86
424.617	679.3
424.994	677.95
425.37	683.15
425.746	683.15
426.123	679.3
426.499	679.08
426.875	710.72
427.251	692.86
427.627	714.33
428.003	713.43
428.379	732.18
428.756	739.87
429.132	721.34
429.507	754.56
429.883	750.04
430.259	790.26
430.635	782.13
431.011	775.35
431.387	792.07
431.763	788.23
432.138	784.61
432.514	790.04
432.89	810.37
433.265	831.84
433.641	823.03
434.016	854.44
434.392	829.81
434.767	880.43
435.143	856.47
435.518	860.54
435.894	884.95
436.269	883.14
436.644	906.64
437.02	910.03
437.395	887.89
437.77	931.27
438.145	934.89
438.52	939.41
438.895	962.23
439.271	939.18
439.646	969.92
440.021	976.47
440.395	985.96
440.77	955.68
441.145	993.42
441.52	999.07
441.895	992.06
442.27	1011.27
442.645	976.47
443.019	1029.58
443.394	1023.48
443.769	1005.62
444.143	1012.85
444.518	1034.55
444.892	1021.89
445.267	1024.83
445.641	1045.62
446.016	1052.85
446.39	1031.84
446.764	1052.18
447.139	1070.03
447.513	1065.06
447.887	1049.24
448.262	1088.56
448.636	1112.51
449.01	1102.57
449.384	1084.49
449.758	1092.4
450.132	1076.81
450.506	1103.47
450.88	1122.68
451.254	1105.51
451.628	1121.33
452.002	1108.45
452.376	1135.34
452.75	1152.74
453.123	1150.7
453.497	1164.49
453.871	1151.83
454.244	1195.22
454.618	1169.46
454.992	1200.65
455.365	1194.09
455.739	1186.64
456.112	1215.11
456.486	1231.61
456.859	1210.36
457.232	1258.72
457.606	1245.62
457.979	1280.19
458.352	1276.35
458.725	1282.23
459.099	1293.98
459.472	1296.01
459.845	1315.9
460.218	1290.14
460.591	1324.26
460.964	1338.5
461.337	1371.04
461.71	1348.89
462.083	1380.75
462.456	1397.25
462.829	1387.08
463.201	1402.45
463.574	1399.06
463.947	1408.78
464.32	1442.67
464.692	1440.41
465.065	1480.87
465.438	1481.77
465.81	1487.42
466.183	1487.64
466.555	1513.18
466.928	1515.44
467.3	1516.57
467.672	1566.29
468.045	1579.85
468.417	1582.11
468.789	1613.74
469.161	1636.57
469.534	1635.66
469.906	1616
470.278	1658.49
470.65	1651.48
471.022	1684.25
471.394	1686.28
471.766	1729.67
472.138	1736
472.51	1751.82
472.882	1795.88
473.253	1816.22
473.625	1820.74
473.997	1845.83
474.369	1867.07
474.74	1883.57
475.112	1899.16
475.484	1936.67
475.855	1978.48
476.227	1964.02
476.598	1986.84
476.97	2006.27
477.341	2047.18
477.713	2095.99
478.084	2077.23
478.455	2147.51
478.827	2140.06
479.198	2186.16
479.569	2203.56
479.94	2243.1
480.311	2245.59
480.682	2320.84
481.053	2353.61
481.424	2358.58
481.795	2385.7
482.166	2419.15
482.537	2448.07
482.908	2449.2
483.279	2502.99
483.65	2508.41
484.021	2590.67
484.391	2605.36
484.762	2606.49
485.133	2617.56
485.503	2646.26
485.874	2697.1
486.244	2745.24
486.615	2777.33
486.985	2784.79
487.356	2852.35
487.726	2848.74
488.097	2932.8
488.467	2958.34
488.837	2980.03
489.207	2989.53
489.578	3037.66
489.948	3049.64
490.318	3054.38
490.688	3105.46
491.058	3131.9
491.428	3135.96
491.798	3186.13
492.168	3222.06
492.538	3263.87
492.908	3275.85
493.278	3367.82
493.648	3326.24
494.017	3370.98
494.387	3394.49
494.757	3402.4
495.126	3456.63
495.496	3441.72
495.866	3498.67
496.235	3512.45
496.605	3507.93
496.974	3548.16
497.344	3575.27
497.713	3580.7
498.082	3592.22
498.452	3654.82
498.821	3703.86
499.19	3667.7
499.559	3661.15
499.928	3751.99
500.298	3708.6
500.667	3755.38
501.036	3755.61
501.405	3746.57
501.774	3779.34
502.143	3795.38
502.512	3807.81
502.88	3869.95
503.249	3820.69
503.618	3887.58
503.987	3873.8
504.356	3917.86
504.724	3912.44
505.093	3976.62
505.462	3964.64
505.83	3967.81
506.199	3967.13
506.567	4026.11
506.936	3985.66
507.304	4075.37
507.672	4041.02
508.041	4072.44
508.409	4057.07
508.777	4096.84
509.145	4100.68
509.514	4120.12
509.882	4122.38
510.25	4177.07
510.618	4213
510.986	4175.94
511.354	4191.98
511.722	4247.8
512.09	4252.32
512.458	4286.44
512.826	4254.8
513.193	4260
513.561	4313.78
513.929	4333.67
514.297	4301.81
514.664	4325.31
515.032	4376.61
515.4	4397.4
515.767	4381.81
516.135	4401.24
516.502	4383.84
516.869	4420
517.237	4462.93
517.604	4423.16
517.972	4425.87
518.339	4460
518.706	4515.36
519.073	4461.13
519.44	4511.97
519.808	4544.06
520.175	4553.1
520.542	4540.45
520.909	4598.98
521.276	4576.6
521.643	4629.71
522.009	4642.36
522.376	4641.91
522.743	4664.06
523.11	4685.07
523.477	4747.22
523.843	4760.1
524.21	4750.84
524.577	4817.05
524.943	4777.95
525.31	4829.48
525.676	4849.59
526.043	4889.81
526.409	4893.2
526.776	4960.32
527.142	4956.71
527.508	4968.91
527.874	4994.44
528.241	5011.62
528.607	5048
528.973	5067.66
529.339	5048
529.705	5130.49
530.071	5148.34
530.437	5144.5
530.803	5185.85
531.169	5186.53
531.535	5240.99
531.901	5230.82
532.267	5216.81
532.632	5309.46
532.998	5337.94
533.364	5288.9
533.73	5313.76
534.095	5363.7
534.461	5396.47
534.826	5425.85
535.192	5434.89
535.557	5468.56
535.923	5437.82
536.288	5480.31
536.653	5548.78
537.019	5532.06
537.384	5551.27
537.749	5609.57
538.114	5645.73
538.479	5610.02
538.845	5629.91
539.21	5639.85
539.575	5693.64
539.94	5685.5
540.305	5718.72
540.67	5717.14
541.034	5737.25
541.399	5800.3
541.764	5828.32
542.129	5853.41
542.494	5846.63
542.858	5870.58
543.223	5934.53
543.587	5889.79
543.952	5931.82
544.316	5959.84
544.681	6012.27
545.045	6060.18
545.41	6026.96
545.774	6065.15
546.138	6088.65
546.503	6045.04
546.867	6106.05
547.231	6157.13
547.595	6197.8
547.959	6219.05
548.324	6221.53
548.688	6257.91
549.052	6273.06
549.416	6238.71
549.779	6312.15
550.143	6321.19
550.507	6344.47
550.871	6365.26
551.235	6356.67
551.599	6378.36
551.962	6394.63
552.326	6429.21
552.689	6482.54
553.053	6475.76
553.417	6512.6
553.78	6586.04
554.143	6550.79
554.507	6562.09
554.87	6571.8
555.234	6627.85
555.597	6595.08
555.96	6670.11
556.323	6688.86
556.686	6645.7
557.05	6710.56
557.413	6711.24
557.776	6740.61
558.139	6797.34
558.502	6765.02
558.865	6808.63
559.228	6837.11
559.59	6858.58
559.953	6787.17
560.316	6934.73
560.679	6919.37
561.041	6920.72
561.404	7014.28
561.767	7117.1
562.129	7042.53
562.492	7087.5
562.854	7041.4
563.217	7057.22
563.579	7121.17
563.941	7127.72
564.304	7158.68
564.666	7199.81
565.028	7167.95
565.39	7227.61
565.753	7304.21
566.115	7271.67
566.477	7338.11
566.839	7329.3
567.201	7311.45
567.563	7365.68
567.925	7437.32
568.287	7470.09
568.648	7402.97
569.01	7459.46
569.372	7594.38
569.734	7513.25
570.095	7532.23
570.457	7620.14
570.819	7605
571.18	7647.93
571.542	7746.01
571.903	7719.12
572.265	7756.41
572.626	7805.44
572.987	7887.25
573.349	7976.97
573.71	7954.59
574.071	8007.7
574.432	8079.56
574.794	8109.84
575.155	8135.38
575.516	8209.95
575.877	8257.86
576.238	8272.78
576.599	8341.7
576.96	8496.5
577.32	8505.99
577.681	8589.15
578.042	8708.47
578.403	8730.17
578.763	8856.72
579.124	8919.09
579.485	9063.04
579.845	9154.79
580.206	9174.45
580.566	9324.27
580.927	9397.72
581.287	9515.68
581.648	9650.37
582.008	9817.37
582.368	9922.45
582.728	10048.78
583.089	10218.71
583.449	10379.61
583.809	10554.98
584.169	10708.87
584.529	10852.82
584.889	11046.94
585.249	11164.9
585.609	11380.27
585.969	11615.97
586.329	11808.96
586.688	12033.13
587.048	12250.98
587.408	12409.84
587.768	12784.97
588.127	12857.52
588.487	13125.98
588.846	13426.77
589.206	13557.16
589.565	13821.78
589.925	14171.15
590.284	14260.87
590.643	14630.8
591.003	14817.69
591.362	15125.25
591.721	15337
592.08	15703.32
592.44	15899.69
592.799	16299.01
593.158	16447.03
593.517	16814.47
593.876	17175.14
594.235	17303.05
594.593	17671.63
594.952	17940.32
595.311	18147.09
595.67	18553.41
596.029	18889.45
596.387	19122.44
596.746	19500.96
597.104	19688.97
597.463	19932.36
597.822	20242.63
598.18	20465
598.538	20690.53
598.897	21133.23
599.255	21266.11
599.613	21826.09
599.972	22101.34
600.33	22335.91
600.688	22474.21
601.046	22873.75
601.404	23144.7
601.762	23429.21
602.12	23797.34
602.478	24050.67
602.836	24329.76
603.194	24376.08
603.552	24777.65
603.91	24845
604.268	25192.11
604.625	25324.31
604.983	25880
605.341	25970.84
605.698	26238.41
606.056	26625.29
606.413	26664.84
606.771	27023.24
607.128	27338.72
607.485	27442.67
607.843	27669.78
608.2	27964.46
608.557	28255.53
608.914	28376.2
609.272	28775.06
609.629	28972.8
609.986	29136.18
610.343	29176.41
610.7	29698.88
611.057	29753.57
611.414	30022.49
611.771	30140.22
612.127	30483.04
612.484	30652.08
612.841	30825.86
613.198	30929.81
613.554	31099.52
613.911	31388.55
614.267	31449.34
614.624	31701.54
614.98	31885.04
615.337	32165.93
615.693	32250.68
616.05	32244.35
616.406	32607.28
616.762	32665.81
617.118	32774.05
617.475	32793.71
617.831	33123.42
618.187	33261.95
618.543	33262.63
618.899	33755.95
619.255	33697.65
619.611	33804.99
619.967	33999.56
620.323	34183.51
620.678	34221.02
621.034	34137.63
621.39	34395.03
621.746	34329.94
622.101	34875.69
622.457	34755.24
622.812	34856.71
623.168	35070.94
623.523	35012.86
623.879	35251.05
624.234	35046.54
624.589	35426.64
624.945	35475.68
625.3	35606.52
625.655	35643.58
626.01	35626.41
626.365	35787.31
626.72	35703.69
627.075	35932.61
627.43	35893.29
627.785	35882.45
628.14	36046.06
628.495	36228.88
628.85	36124.02
629.205	36058.26
629.559	36343.9
629.914	36162.21
630.269	36345.26
630.623	36339.61
630.978	36247.18
631.332	36511.58
631.687	36431.81
632.041	36465.93
632.396	36503.22
632.75	36334.86
633.104	36543.22
633.459	36386.39
633.813	36465.26
634.167	36650.79
634.521	36548.64
634.875	36518.59
635.229	36556.1
635.583	36497.35
635.937	36580.28
636.291	36533.5
636.645	36505.93
636.999	36395.88
637.352	36549.77
637.706	36358.59
638.06	36644.91
638.413	36458.48
638.767	36368.31
639.121	36470.45
639.474	36386.84
639.828	36383.68
640.181	36489.21
640.534	36485.59
640.888	36423.9
641.241	36193.17
641.594	36523.56
641.947	36446.95
642.301	36404.01
642.654	36399.49
643.007	36423.22
643.36	36442.66
643.713	36408.76
644.066	36526.95
644.419	36328.54
644.771	36117.47
645.124	35826.4
645.477	35740.53
645.83	35542.57
646.182	35423.25
646.535	35425.74
646.888	35472.97
647.24	35234.1
647.593	35498.73
647.945	35333.08
648.298	35299.18
648.65	35204.05
649.002	35152.52
649.355	35375.34
649.707	35241.56
650.059	35282.91
650.411	35741.21
650.763	35750.7
651.115	36021.88
651.467	36045.83
651.819	36009.22
652.171	35959.96
652.523	35937.81
652.875	35903.24
653.227	35773.97
653.578	36104.36
653.93	35985.95
654.282	35780.98
654.633	35789.34
654.985	35881.32
655.337	35869.11
655.688	35750.25
656.039	35934.42
656.391	35704.82
656.742	35796.35
657.094	35733.98
657.445	35834.09
657.796	35719.96
658.147	35664.37
658.498	35849.68
658.849	35825.95
659.2	35843.13
659.551	35693.52
659.902	35877.93
660.253	35737.37
660.604	35761.09
660.955	35695.56
661.306	35738.5
661.656	35609.01
662.007	35645.84
662.358	35580.53
662.708	35672.06
663.059	35604.94
663.409	35412.63
663.76	35685.16
664.11	35777.36
664.461	35707.08
664.811	35578.95
665.161	35556.58
665.511	35494.66
665.862	35580.53
666.212	35736.24
666.562	35768.78
666.912	35502.12
667.262	35544.15
667.612	35614.43
667.962	35621.66
668.312	35497.6
668.662	35571.27
669.011	35474.1
669.361	35396.81
669.711	35452.18
670.06	35549.57
670.41	35468.22
670.76	35407.66
671.109	35496.24
671.459	35437.71
671.808	35324.49
672.157	35601.1
672.507	35251.5
672.856	35336.25
673.205	35466.64
673.554	35394.1
673.904	35323.59
674.253	35501.21
674.602	35323.59
674.951	34900.33
675.3	34600.45
675.649	35245.85
675.998	35171.05
676.346	35305.51
676.695	35309.58
677.044	35076.59
677.393	35205.18
677.741	35186.87
678.09	35114.1
678.438	34977.84
678.787	35114.56
679.135	35199.3
679.484	34872.76
679.832	35044.95
680.181	34740.33
680.529	34923.83
680.877	34772.65
681.225	34696.71
681.573	34928.8
681.922	34617.17
682.27	34552.76
682.618	34671.4
682.966	34577.17
683.314	34574.01
683.661	34518.41
684.009	34287.01
684.357	34170.85
684.705	34295.6
685.053	34187.58
685.4	34195.49
685.748	33994.59
686.095	34034.36
686.443	34018.99
686.79	33898.54
687.138	33958.2
687.485	33995.49
687.832	33938.77
688.18	33854.93
688.527	33689.28
688.874	33747.59
689.221	33645.22
689.568	33588.72
689.915	33433.47
690.262	33524.32
690.609	33327.26
690.956	33160.26
691.303	33264.89
691.65	33103.31
691.997	33064.89
692.344	32815.86
692.69	32853.37
693.037	32852.7
693.383	32633.27
693.73	32683.89
694.077	32563.44
694.423	32609.09
694.769	32327.51
695.116	32350.79
695.462	32493.16
695.808	32316.66
696.155	32398.47
696.501	31997.8
696.847	31928.2
697.193	31843.46
697.539	32000.51
697.885	31720.52
698.231	31593.52
698.577	31758.04
698.923	31679.62
699.269	31269.91
699.614	31316.69
699.96	31371.15
700.306	31442.79
700.651	31144.27
700.997	31081.22
701.342	30967.77
701.688	30906.76
702.033	30873.99
702.379	30794.9
702.724	30584.28
703.069	30784.95
703.415	30463.83
703.76	30490.27
704.105	30467.45
704.45	30377.28
704.795	30280.33
705.14	30074.24
705.485	30157.17
705.83	30001.92
706.175	30146.78
706.52	29857.97
706.865	29764.19
707.209	29833.57
707.554	29707.92
707.899	29812.78
708.243	29591.31
708.588	29501.82
708.932	29353.35
709.277	29477.87
709.621	29396.97
709.966	29106.35
710.31	29400.13
710.654	28971.44
710.998	29132.57
711.342	28973.25
711.687	29029.07
712.031	28869.07
712.375	28818.45
712.719	28831.78
713.063	28792.01
713.407	28784.78
713.75	28535.52
714.094	28672.69
714.438	28461.17
714.782	28546.59
715.125	28390.67
715.469	28432.92
715.812	28258.24
716.156	28161.52
716.499	28176.66
716.843	28097.34
717.186	28031.81
717.53	28053.73
717.873	28116.32
718.216	27972.82
718.559	27906.16
718.902	27726.05
719.246	27747.29
719.589	27711.81
719.932	27705.71
720.275	27546.62
720.617	27623
720.96	27640.18
721.303	27595.88
721.646	27504.81
721.989	27357.02
722.331	27444.02
722.674	27343.91
723.016	27336
723.359	27249.9
723.701	27192.51
724.044	27010.82
724.386	26909.12
724.729	27135.11
725.071	26999.06
725.413	26934.43
725.755	26946.86
726.097	26906.19
726.439	26703.7
726.782	26725.17
727.124	26774.44
727.465	26631.16
727.807	26789.35
728.149	26591.17
728.491	26496.03
728.833	26613.09
729.175	26482.69
729.516	26493.09
729.858	26308.46
730.199	26476.59
730.541	26334.45
730.882	26389.14
731.224	26246.09
731.565	26066.89
731.906	26166.54
732.248	26119.99
732.589	26101.91
732.93	26116.83
733.271	26012.2
733.612	26048.35
733.953	26022.59
734.294	25892.88
734.635	25854.01
734.976	25849.94
735.317	25718.19
735.658	25647.01
735.999	25635.94
736.339	25654.01
736.68	25702.38
737.021	25571.98
737.361	25389.61
737.702	25615.37
738.042	25518.88
738.383	25498.76
738.723	25484.98
739.063	25396.85
739.404	25456.73
739.744	25408.6
740.084	25266.45
740.424	25276.17
740.764	25208.6
741.104	25313.01
741.444	25016.07
741.784	25048.83
742.124	25145.55
742.464	24976.52
742.804	24976.74
743.143	24949.4
743.483	24988.95
743.823	24915.05
744.162	24833.02
744.502	24797.31
744.841	24791.21
745.181	24898.55
745.52	24735.39
745.86	24722.74
746.199	24666.7
746.538	24531.78
746.877	24667.83
747.216	24658.79
747.556	24535.17
747.895	24655.85
748.234	24459.24
748.573	24403.88
748.911	24354.39
749.25	24449.75
749.589	24321.85
749.928	24271.68
750.267	24358.46
750.605	24214.5
750.944	24160.04
751.283	24041.18
751.621	24087.73
751.96	23827.62
752.298	23904.91
752.636	23859.26
752.975	23842.54
753.313	23642.54
753.651	23828.07
753.989	23663.78
754.327	23698.59
754.666	23569.32
755.004	23525.94
755.342	23568.42
755.679	23426.05
756.017	23361.42
756.355	23456.11
756.693	23358.48
757.031	23367.3
757.368	23174.53
757.706	23241.42
758.044	23004.82
758.381	23088.21
758.719	23033.52
759.056	23090.24
759.394	22839.4
759.731	22748.1
760.068	22737.26
760.405	22758.72
760.743	22658.16
761.08	22622.23
761.417	22439.41
761.754	22455
762.091	22410.48
762.428	22281.45
762.765	22154.9
763.102	22225.4
763.438	22052.75
763.775	21971.63
764.112	22030.83
764.449	22083.49
764.785	21879.65
765.122	21801.46
765.458	21636.04
765.795	21685.76
766.131	21577.74
766.467	21561.02
766.804	21437.4
767.14	21373.22
767.476	21386.1
767.812	21241.7
768.148	21210.29
768.485	21086.23
768.821	20971.88
769.157	20965.55
769.492	20962.39
769.828	20850.75
770.164	20646.69
770.5	20726.91
770.836	20628.16
771.171	20644.2
771.507	20555.62
771.842	20323.53
772.178	20436.75
772.513	20319.69
772.849	20287.83
773.184	20176.64
773.519	20065.91
773.855	20028.85
774.19	20010.1
774.525	19954.5
774.86	19849.42
775.195	19863.88
775.53	19658.92
775.865	19616.43
776.2	19469.32
776.535	19422.09
776.87	19318.36
777.205	19274.52
777.539	19201.98
777.874	19279.04
778.209	19070.46
778.543	19044.7
778.878	18996.56
779.212	18920.18
779.547	18845.15
779.881	18755.67
780.215	18619.62
780.55	18802.44
780.884	18618.49
781.218	18570.81
781.552	18496.91
781.886	18436.35
782.22	18318.61
782.554	18182.35
782.888	18243.59
783.222	18016.02
783.556	17896.93
783.889	17958.85
784.223	17733.09
784.557	17772.19
784.89	17845.86
785.224	17672.3
785.557	17573.1
785.891	17551.63
786.224	17495.59
786.558	17481.35
786.891	17383.72
787.224	17320.67
787.557	17223.05
787.891	17210.62
788.224	17147.8
788.557	17220.34
788.89	17165.2
789.223	17030.06
789.556	16856.05
789.888	16926.11
790.221	16755.49
790.554	16773.12
790.887	16677.3
791.219	16634.59
791.552	16555.5
791.884	16500.81
792.217	16495.84
792.549	16388.5
792.882	16317.09
793.214	16201.16
793.546	16218.78
793.879	16094.49
794.211	16053.14
794.543	16174.49
794.875	16113.25
795.207	16059.24
795.539	15969.98
795.871	15928.17
796.203	15783.77
796.535	15694.73
796.867	15653.37
797.198	15694.95
797.53	15656.31
797.862	15550.55
798.193	15572.7
798.525	15409.09
798.856	15454.73
799.188	15264.01
799.519	15263.33
799.85	15219.26
800.182	15096.78
800.513	15185.59
800.844	15014.07
801.175	15137.46
801.506	15102.65
801.837	15039.6
802.168	14915.54
802.499	14873.06
802.83	14818.82
803.161	14674.64
803.491	14737.92
803.822	14773.4
804.153	14666.28
804.483	14578.83
804.814	14494.53
805.145	14541.76
805.475	14445.04
805.805	14423.12
806.136	14442.11
806.466	14400.53
806.796	14386.29
807.126	14269
807.457	14187.65
807.787	14253.18
808.117	14112.17
808.447	14072.85
808.777	14064.49
809.107	14019.74
809.436	13961.67
809.766	13993.76
810.096	13886.87
810.426	13838.73
810.755	14028.11
811.085	13764.84
811.414	13776.59
811.744	13699.53
812.073	13720.77
812.403	13743.14
812.732	13553.99
813.061	13543.15
813.39	13537.95
813.719	13510.38
814.049	13593.54
814.378	13443.71
814.707	13420.66
815.036	13444.84
815.365	13335.24
815.693	13282.81
816.022	13290.72
816.351	13162.82
816.68	13172.54
817.008	13236.49
817.337	13171.18
817.665	13021.13
817.994	13082.59
818.322	13035.59
818.651	13024.52
818.979	12902.71
819.307	12950.85
819.636	12906.33
819.964	12831.3
820.292	12899.1
820.62	12870.62
820.948	12732.09
821.276	12822.94
821.604	12898.87
821.932	12867.23
822.259	12764.86
822.587	12801.92
822.915	12736.39
823.243	12839.89
823.57	12736.16
823.898	12834.01
824.225	12701.59
824.553	12740.23
824.88	12757.63
825.207	12783.17
825.535	12771.64
825.862	12703.17
826.189	12645.54
826.516	12831.98
826.843	12807.57
827.17	12825.88
827.497	12738.87
827.824	12723.73
828.151	12801.7
828.478	12695.94
828.805	12816.16
829.131	12652.32
829.458	12662.49
829.785	12640.35
830.111	12712.21
830.438	12693
830.764	12668.82
831.09	12720.12
831.417	12713.34
831.743	12648.25
832.069	12630.18
832.395	12597.41
832.722	12627.24
833.048	12631.76
833.374	12700.46
833.7	12564.42
834.026	12588.14
834.351	12605.32
834.677	12541.14
835.003	12621.82
835.329	12596.5
835.654	12494.13
835.98	12545.43
836.306	12470.41
836.631	12458.43
836.956	12464.31
837.282	12461.82
837.607	12403.52
837.932	12377.98
838.258	12377.75
838.583	12319.68
838.908	12294.14
839.233	12277.19
839.558	12342.5
839.883	12219.11
840.208	12239.45
840.533	12253.24
840.858	12237.87
841.182	12229.96
841.507	12201.94
841.832	12096.18
842.156	12096.63
842.481	11996.75
842.805	11967.14
843.13	12053.47
843.454	12079.68
843.778	12026.35
844.103	11910.87
844.427	11909.29
844.751	11815.51
845.075	11831.55
845.399	11843.76
845.723	11722.86
846.047	11791.1
846.371	11687.15
846.695	11627.04
847.019	11588.85
847.343	11576.42
847.666	11415.97
847.99	11403.77
848.313	11425.69
848.637	11326.48
848.96	11348.18
849.284	11319.93
849.607	11201.97
849.931	11248.74
850.254	11103.66
850.577	11082.42
850.9	11015.76
851.223	11006.94
851.546	10942.99
851.869	10801.3
852.192	10903.44
852.515	10849.43
852.838	10814.18
853.161	10769.66
853.483	10695.09
853.806	10689.44
854.129	10667.52
854.451	10579.16
854.774	10556.11
855.096	10542.32
855.419	10489.44
855.741	10449.44
856.063	10379.84
856.385	10364.93
856.708	10356.11
857.03	10313.4
857.352	10300.07
857.674	10280.63
857.996	10181.2
858.318	10164.7
858.64	10178.94
858.961	10169
859.283	10097.36
859.605	10081.99
859.926	10089.9
860.248	10032.73
860.57	10043.8
860.891	10011.49
861.212	9987.08
861.534	9955.22
861.855	9881.77
862.176	9982.11
862.498	9852.62
862.819	9908.44
863.14	9795.67
863.461	9736.47
863.782	9716.58
864.103	9789.57
864.424	9674.1
864.745	9802.23
865.065	9726.07
865.386	9668.67
865.707	9746.64
866.027	9637.26
866.348	9677.94
866.668	9656.02
866.989	9717.26
867.309	9559.97
867.63	9577.38
867.95	9569.69
868.27	9510.26
868.59	9522.91
868.91	9558.62
869.23	9512.97
869.55	9412.18
869.87	9503.93
870.19	9451.28
870.51	9469.58
870.83	9472.07
871.15	9407.89
871.469	9404.05
871.789	9384.39
872.109	9366.31
872.428	9247.67
872.748	9338.51
873.067	9366.76
873.386	9337.38
873.706	9330.6
874.025	9276.14
874.344	9269.81
874.663	9274.78
874.982	9259.19
875.301	9164.05
875.62	9214.9
875.939	9168.35
876.258	9169.93
876.577	9131.96
876.896	9233.2
877.214	9064.85
877.533	9208.8
877.852	9106.43
878.17	9120.21
878.489	9114.79
878.807	9048.35
879.125	9070.95
879.444	9028.46
879.762	8991.18
880.08	9009.03
880.398	8938.75
880.716	9042.25
881.034	8922.93
881.352	8920.67
881.67	8898.07
881.988	8880.44
882.306	8859.88
882.624	8832.08
882.941	8755.48
883.259	8716.61
883.577	8758.41
883.894	8712.31
884.212	8731.3
884.529	8694.01
884.846	8707.79
885.164	8705.99
885.481	8674.57
885.798	8654.91
886.115	8631.64
886.432	8643.84
886.75	8565.42
887.067	8590.96
887.383	8542.37
887.7	8551.64
888.017	8507.12
888.334	8497.4
888.651	8513.22
888.967	8479.33
889.284	8372.44
889.6	8397.97
889.917	8309.61
890.233	8316.62
890.55	8281.36
890.866	8345.77
891.182	8282.04
891.498	8203.4
891.815	8212.21
892.131	8197.3
892.447	8141.71
892.763	8148.03
893.079	8139.22
893.395	8133.57
893.71	8120.92
894.026	8139.9
894.342	8056.51
894.657	7988.26
894.973	8004.99
895.289	7985.1
895.604	7928.83
895.92	7946.23
896.235	7844.09
896.55	7883.63
896.865	7877.53
897.181	7768.16
897.496	7835.27
897.811	7787.37
898.126	7703.98
898.441	7626.69
898.756	7656.52
899.071	7619.46
899.386	7607.26
899.7	7541.95
900.015	7554.38
900.33	7477.32
900.644	7475.51
900.959	7491.55
901.273	7459.46
901.588	7403.42
901.902	7435.06
902.216	7329.98
902.531	7356.42
902.845	7304.21
903.159	7266.25
903.473	7234.61
903.787	7249.53
904.101	7221.96
904.415	7148.29
904.729	7207.72
905.042	7141.51
905.356	7104.67
905.67	7103.77
905.984	7102.19
906.297	7015.86
906.611	6994.39
906.924	6977.9
907.237	6965.92
907.551	6940.38
907.864	6874.85
908.177	6889.99
908.491	6899.93
908.804	6784
909.117	6822.19
909.43	6708.07
909.743	6764.79
910.056	6766.38
910.368	6670.79
910.681	6691.8
910.994	6633.5
911.307	6610
911.619	6504.01
911.932	6620.39
912.244	6484.12
912.557	6520.05
912.869	6481.19
913.181	6410.9
913.494	6421.53
913.806	6417.46
914.118	6311.02
914.43	6357.12
914.742	6358.7
915.054	6300.85
915.366	6251.81
915.678	6271.02
915.99	6222.21
916.302	6166.84
916.613	6127.52
916.925	6159.16
917.236	6168.65
917.548	6076.9
917.859	6121.87
918.171	6046.62
918.482	6013.63
918.794	6040.07
919.105	5912.84
919.416	5945.38
919.727	5966.4
920.038	5865.61
920.349	5847.98
920.66	5851.15
920.971	5789.23
921.282	5823.35
921.593	5753.52
921.903	5765.5
922.214	5710.13
922.525	5722.34
922.835	5761.2
923.146	5646.86
923.456	5649.79
923.767	5610.93
924.077	5613.41
924.387	5553.75
924.697	5537.26
925.008	5568.22
925.318	5520.31
925.628	5499.06
925.938	5457.48
926.248	5427.65
926.558	5414.09
926.867	5390.82
927.177	5349.24
927.487	5347.66
927.796	5333.65
928.106	5270.6
928.416	5270.37
928.725	5272.86
929.034	5175.68
929.344	5210.71
929.653	5186.53
929.962	5196.25
930.271	5128.68
930.581	5086.19
930.89	5065.18
931.199	5048.68
931.508	5042.58
931.817	5029.02
932.125	4975.69
932.434	4992.64
932.743	4946.31
933.051	4891.17
933.36	4933.2
933.669	4914.45
933.977	4861.57
934.286	4837.39
934.594	4838.52
934.902	4838.29
935.21	4760.55
935.519	4811.4
935.827	4752.87
936.135	4736.15
936.443	4699.09
936.751	4704.28
937.059	4656.83
937.367	4597.85
937.674	4626.32
937.982	4619.09
938.29	4611.63
938.597	4601.46
938.905	4537.06
939.213	4570.5
939.52	4511.52
939.827	4535.02
940.135	4502.71
940.442	4447.11
940.749	4434.01
941.056	4454.12
941.363	4402.14
941.67	4415.03
941.977	4370.96
942.284	4302.71
942.591	4348.36
942.898	4337.06
943.205	4298.42
943.511	4278.53
943.818	4276.27
944.125	4230.85
944.431	4207.12
944.738	4196.73
945.044	4198.99
945.35	4187.46
945.657	4143.39
945.963	4151.76
946.269	4146.33
946.575	4131.64
946.881	4088.93
947.187	4112.66
947.493	4062.49
947.799	4050.74
948.105	4002.38
948.41	3975.04
948.716	3999.44
949.022	3953.34
949.327	3948.14
949.633	3935.26
949.938	3936.85
950.244	3928.26
950.549	3892.55
950.854	3837.87
951.16	3875.15
951.465	3856.17
951.77	3814.36
952.075	3771.43
952.38	3788.83
952.685	3778.66
952.99	3771.2
953.294	3731.43
953.599	3715.16
953.904	3661.6
954.209	3688.04
954.513	3669.73
954.818	3674.93
955.122	3606.01
955.426	3624.09
955.731	3608.72
956.035	3593.8
956.339	3561.94
956.643	3577.53
956.948	3547.03
957.252	3516.97
957.556	3507.25
957.86	3496.63
958.163	3502.51
958.467	3489.63
958.771	3453.69
959.075	3436.75
959.378	3457.08
959.682	3412.57
959.985	3428.61
960.289	3397.2
960.592	3320.82
960.896	3382.51
961.199	3353.36
961.502	3337.99
961.805	3317.65
962.108	3275.85
962.411	3279.24
962.714	3265.45
963.017	3307.26
963.32	3260.48
963.623	3247.15
963.926	3220.93
964.228	3253.47
964.531	3187.03
964.833	3156.08
965.136	3135.74
965.438	3178.22
965.741	3133.25
966.043	3117.21
966.345	3111.33
966.648	3085.12
966.95	3107.04
967.252	3025.91
967.554	3059.35
967.856	3030.88
968.158	3001.95
968.46	3012.12
968.761	3003.08
969.063	2968.51
969.365	3005.8
969.666	2971.9
969.968	2972.8
970.269	2951.11
970.571	2918.79
970.872	2932.58
971.174	2857.78
971.475	2857.1
971.776	2876.08
972.077	2855.74
972.378	2839.47
972.679	2801.28
972.98	2865.01
973.281	2813.71
973.582	2785.24
973.883	2760.61
974.183	2778.68
974.484	2744.56
974.785	2797.21
975.085	2764
975.386	2742.3
975.686	2711.34
975.986	2677.9
976.287	2709.53
976.587	2669.99
976.887	2649.87
977.187	2628.86
977.487	2655.3
977.787	2618.46
978.087	2613.94
978.387	2620.95
978.687	2616.65
978.987	2586.15
979.286	2574.17
979.586	2581.85
979.885	2591.57
980.185	2583.21
980.484	2505.7
980.784	2513.15
981.083	2510.22
981.382	2499.82
981.682	2485.58
981.981	2517.45
982.28	2468.18
982.579	2475.64
982.878	2483.32
983.177	2465.25
983.475	2450.56
983.774	2441.74
984.073	2391.12
984.372	2381.18
984.67	2374.63
984.969	2375.53
985.267	2403.1
985.566	2338.7
985.864	2347.28
986.162	2346.6
986.461	2330.79
986.759	2327.17
987.057	2299.37
987.355	2307.96
987.653	2280.84
987.951	2286.49
988.249	2258.47
988.547	2248.53
988.844	2249.43
989.142	2237.23
989.44	2227.51
989.737	2213.05
990.035	2204.01
990.332	2210.11
990.63	2184.8
990.927	2145.25
991.224	2151.58
991.521	2141.64
991.819	2145.71
992.116	2125.82
992.413	2138.47
992.71	2062.77
993.006	2111.81
993.303	2070.68
993.6	2089.21
993.897	2075.2
994.193	2058.02
994.49	2059.38
994.787	2048.53
995.083	2037.69
995.379	2037.46
995.676	2037.01
995.972	2008.76
996.268	1986.16
996.565	1986.16
996.861	2004.24
997.157	1957.24
997.453	1979.16
997.749	1949.1
998.044	1929.67
998.34	1955.2
998.636	1937.12
998.932	1916.33
999.227	1931.93
999.523	1902.77
999.818	1884.7
1000.114	1854.64
1000.409	1858.48
1000.704	1828.65
1001	1872.04
1001.295	1824.58
1001.59	1858.48
1001.885	1788.2
1002.18	1829.78
1002.475	1813.74
1002.77	1772.38
1003.065	1779.16
1003.359	1784.36
1003.654	1736.45
1003.949	1756.56
1004.243	1741.42
1004.538	1709.79
1004.832	1738.26
1005.127	1692.84
1005.421	1739.39
1005.715	1685.61
1006.009	1702.55
1006.304	1693.97
1006.598	1683.12
1006.892	1670.92
1007.186	1660.52
1007.48	1634.99
1007.773	1660.97
1008.067	1629.34
1008.361	1641.31
1008.655	1643.12
1008.948	1606.74
1009.242	1634.76
1009.535	1574.2
1009.829	1570.13
1010.122	1558.6
1010.415	1553.41
1010.708	1569.68
1011.001	1554.76
1011.295	1536
1011.588	1542.33
1011.881	1529.68
1012.173	1519.73
1012.466	1497.59
1012.759	1507.98
1013.052	1523.8
1013.344	1450.81
1013.637	1451.71
1013.93	1448.78
1014.222	1440.41
1014.514	1457.59
1014.807	1451.71
1015.099	1431.15
1015.391	1418.72
1015.683	1415.78
1015.976	1406.29
1016.268	1374.43
1016.56	1379.62
1016.851	1378.95
1017.143	1372.17
1017.435	1368.33
1017.727	1334.43
1018.018	1346.18
1018.31	1313.64
1018.602	1359.51
1018.893	1324.71
1019.185	1333.75
1019.476	1320.64
1019.767	1305.95
1020.058	1279.29
1020.35	1271.83
1020.641	1253.3
1020.932	1288.1
1021.223	1258.5
1021.514	1239.97
1021.804	1237.03
1022.095	1258.05
1022.386	1238.39
1022.677	1217.6
1022.967	1229.8
1023.258	1202
1023.548	1211.27
1023.839	1233.41
1024.129	1218.73
1024.419	1178.05
1024.709	1179.63
1025	1157.26
1025.29	1150.93
1025.58	1145.96
1025.87	1146.18
1026.16	1145.05
1026.449	1129.24
1026.739	1125.39
1027.029	1109.8
1027.319	1107.99
1027.608	1107.09
1027.898	1097.6
1028.187	1083.81
1028.477	1088.33
1028.766	1082.68
1029.055	1088.78
1029.344	1066.86
1029.634	1039.75
1029.923	1033.65
1030.212	1033.65
1030.501	1025.51
1030.79	1033.87
1031.078	1003.82
1031.367	1015.57
1031.656	997.04
1031.945	1000.43
1032.233	1005.85
1032.522	975.34
1032.81	995.23
1033.099	978.51
1033.387	955.91
1033.675	966.75
1033.963	950.26
1034.251	954.55
1034.54	945.74
1034.828	925.85
1035.116	921.11
1035.403	921.56
1035.691	899.64
1035.979	928.34
1036.267	913.87
1036.554	898.28
1036.842	905.51
1037.129	883.82
1037.417	881.78
1037.704	867.77
1037.992	868
1038.279	881.11
1038.566	876.14
1038.853	876.14
1039.14	876.14
