Data from hue_34_FLMS001491_00036.txt Node
Date: Tue Feb 07 17:25:32 GMT 2017
User: dcchb
Spectrometer: FLMS00149
Trigger mode: 0
Integration Time (sec): 2.000000E-2
Scans to average: 10
Electric dark correction enabled: true
Nonlinearity correction enabled: false
Boxcar width: 0
XAxis mode: Wavelengths
Number of Pixels in Spectrum: 2048
>>>>>Begin Spectral Data<<<<<
341.393	-25.49
341.776	-25.49
342.16	-25.49
342.543	-68.88
342.927	-77.47
343.31	-85.61
343.693	-49.9
344.077	-68.43
344.46	-72.72
344.843	-57.36
345.226	-36.34
345.61	-22.33
345.993	-14.65
346.376	-3.8
346.759	15.86
347.142	28.52
347.525	44.56
347.908	65.8
348.291	70.1
348.674	78.68
349.057	107.61
349.44	120.04
349.823	143.77
350.206	168.85
350.588	212.47
350.971	227.83
351.354	225.12
351.737	248.4
352.119	263.54
352.502	257.21
352.884	271.9
353.267	287.72
353.65	304.22
354.032	300.37
354.414	287.27
354.797	327.72
355.179	340.6
355.562	337.89
355.944	321.39
356.326	360.48
356.709	346.25
357.091	326.14
357.473	327.49
357.855	342.86
358.238	358
358.62	358.23
359.002	365
359.384	347.15
359.766	339.24
360.148	356.87
360.53	332.69
360.912	348.96
361.294	333.14
361.676	328.85
362.057	338.11
362.439	336.76
362.821	327.27
363.203	343.08
363.584	316.42
363.966	333.59
364.348	333.59
364.729	333.14
365.111	303.54
365.493	309.41
365.874	327.27
366.256	308.51
366.637	332.91
367.019	328.62
367.4	331.79
367.781	304.67
368.163	323.65
368.544	322.29
368.925	318.68
369.306	290.43
369.688	329.75
370.069	318
370.45	334.5
370.831	325.46
371.212	287.72
371.593	320.94
371.974	312.8
372.355	322.29
372.736	305.57
373.117	306.02
373.498	322.52
373.879	298.11
374.26	328.17
374.641	336.3
375.021	316.87
375.402	332.69
375.783	318
376.163	313.48
376.544	325.91
376.925	321.39
377.305	325.46
377.686	322.97
378.066	337.89
378.447	318.45
378.827	354.16
379.208	332.01
379.588	332.24
379.968	355.29
380.349	334.04
380.729	324.33
381.109	326.81
381.489	328.62
381.87	331.11
382.25	340.6
382.63	352.12
383.01	338.34
383.39	355.97
383.77	358.9
384.15	332.46
384.53	346.47
384.91	356.64
385.29	334.27
385.67	351.45
386.049	348.28
386.429	334.72
386.809	329.3
387.189	353.93
387.568	339.92
387.948	363.65
388.328	347.38
388.707	360.48
389.087	357.32
389.466	340.82
389.846	362.97
390.225	361.16
390.605	364.55
390.984	372.46
391.363	357.1
391.743	359.81
392.122	372.91
392.501	372.91
392.881	377.89
393.26	368.39
393.639	370.2
394.018	386.02
394.397	370.43
394.776	377.43
395.155	362.97
395.534	392.57
395.913	387.15
396.292	357.55
396.671	363.65
397.05	366.81
397.429	376.53
397.808	357.77
398.186	351.45
398.565	390.77
398.944	372.69
399.323	383.76
399.701	401.84
400.08	409.3
400.458	368.85
400.837	407.26
401.215	403.65
401.594	381.05
401.972	414.04
402.351	389.18
402.729	405.23
403.107	400.94
403.486	410.88
403.864	381.05
404.242	445.91
404.62	408.17
404.999	426.25
405.377	394.16
405.755	424.89
406.133	409.07
406.511	414.49
406.889	420.14
407.267	433.48
407.645	443.65
408.023	432.8
408.401	424.89
408.779	447.49
409.156	411.33
409.534	440.48
409.912	447.94
410.29	444.78
410.667	439.35
411.045	433.25
411.422	427.6
411.8	451.1
412.178	469.41
412.555	468.96
412.933	453.36
413.31	486.36
413.687	440.48
414.065	459.24
414.442	458.34
414.819	473.25
415.197	480.71
415.574	487.26
415.951	488.39
416.328	495.85
416.705	470.09
417.082	516.86
417.46	485.23
417.837	481.16
418.214	496.3
418.591	507.6
418.967	495.62
419.344	480.71
419.721	499.92
420.098	503.53
420.475	497.66
420.852	521.38
421.228	509.86
421.605	524.1
421.982	515.28
422.358	521.16
422.735	522.97
423.111	524.1
423.488	542.63
423.864	535.62
424.241	549.86
424.617	546.24
424.994	542.85
425.37	529.75
425.746	525
426.123	543.53
426.499	539.46
426.875	544.89
427.251	560.93
427.627	549.86
428.003	580.37
428.379	598.67
428.756	565.23
429.132	577.88
429.507	602.06
429.883	576.52
430.259	587.37
430.635	618.33
431.011	590.99
431.387	590.54
431.763	604.55
432.138	635.51
432.514	630.08
432.89	607.94
433.265	611.55
433.641	639.35
434.016	621.49
434.392	637.99
434.767	661.95
435.143	654.04
435.518	644.32
435.894	667.6
436.269	654.71
436.644	666.47
437.02	673.92
437.395	694.49
437.77	691.78
438.145	674.83
438.52	689.29
438.895	707.37
439.271	693.36
439.646	717.31
440.021	708.05
440.395	722.96
440.77	691.78
441.145	716.63
441.52	733.13
441.895	733.81
442.27	720.02
442.645	737.88
443.019	754.37
443.394	761.6
443.769	776.97
444.143	742.4
444.518	796.63
444.892	786.91
445.267	762.51
445.641	781.04
446.016	768.38
446.39	769.74
446.764	776.29
447.139	779
447.513	794.15
447.887	795.05
448.262	774.94
448.636	811.09
449.01	814.71
449.384	822.17
449.758	799.8
450.132	814.48
450.506	850.87
450.88	833.69
451.254	837.76
451.628	842.96
452.002	854.48
452.376	849.06
452.75	837.76
453.123	854.26
453.497	869.85
453.871	873.01
454.244	905.33
454.618	874.14
454.992	901.94
455.365	908.27
455.739	927.93
456.112	924.99
456.486	903.52
456.859	956.18
457.232	948.94
457.606	953.01
457.979	957.31
458.352	972.9
458.725	984.2
459.099	995.27
459.472	1007.25
459.845	1016.29
460.218	1016.06
460.591	1027.81
460.964	1033.01
461.337	1058.32
461.71	1081.6
462.083	1076.62
462.456	1091.99
462.829	1100.8
463.201	1124.53
463.574	1103.97
463.947	1120.01
464.32	1144.42
464.692	1135.15
465.065	1170.86
465.438	1166.57
465.81	1206.11
466.183	1213.34
466.555	1227.13
466.928	1240.24
467.3	1233
467.672	1261.03
468.045	1310.29
468.417	1319.78
468.789	1291.53
469.161	1341.48
469.534	1352.1
469.906	1364.98
470.278	1373.34
470.65	1411.3
471.022	1435.71
471.394	1468.03
471.766	1493.56
472.138	1522.94
472.51	1548.02
472.882	1562.04
473.253	1562.26
473.625	1621.69
473.997	1649.26
474.369	1687.23
474.74	1717.96
475.112	1710.51
475.484	1770.62
475.855	1796.61
476.227	1816.94
476.598	1868.47
476.97	1909.82
477.341	1956.6
477.713	1987.11
478.084	1997.96
478.455	2079.31
478.827	2103.94
479.198	2178.29
479.569	2188.23
479.94	2221
480.311	2296.03
480.682	2375.57
481.053	2417.83
481.424	2462.8
481.795	2508.45
482.166	2591.61
482.537	2611.27
482.908	2700.99
483.279	2738.28
483.65	2842.68
484.021	2911.6
484.391	2988.21
484.762	3024.37
485.133	3039.74
485.503	3175.1
485.874	3208.77
486.244	3295.32
486.615	3389.11
486.985	3444.7
487.356	3534.86
487.726	3583.68
488.097	3670
488.467	3741.64
488.837	3800.85
489.207	3923.33
489.578	3970.11
489.948	4052.82
490.318	4128.52
490.688	4177.33
491.058	4310.89
491.428	4333.71
491.798	4420.72
492.168	4540.49
492.538	4601.96
492.908	4674.27
493.278	4766.7
493.648	4795.62
494.017	4914.26
494.387	4973.24
494.757	5038.33
495.126	5161.04
495.496	5162.39
495.866	5244.88
496.235	5288.26
496.605	5401.26
496.974	5495.72
497.344	5560.35
497.713	5582.95
498.082	5685.99
498.452	5728.71
498.821	5800.79
499.19	5868.81
499.559	5885.09
499.928	5964.41
500.298	6033.78
500.667	6102.71
501.036	6129.15
501.405	6249.6
501.774	6271.74
502.143	6315.81
502.512	6296.83
502.88	6415.24
503.249	6470.83
503.618	6545.18
503.987	6588.34
504.356	6635.12
504.724	6669.92
505.093	6752.86
505.462	6773.65
505.83	6794.89
506.199	6885.29
506.567	6972.74
506.936	6953.98
507.304	7058.16
507.672	7082.79
508.041	7165.5
508.409	7176.8
508.777	7271.94
509.145	7308.55
509.514	7260.19
509.882	7388.77
510.25	7367.98
510.618	7438.72
510.986	7489.34
511.354	7560.52
511.722	7612.27
512.09	7739.05
512.458	7675.55
512.826	7762.55
513.193	7814.07
513.561	7864.47
513.929	7928.2
514.297	7982.21
514.664	8021.3
515.032	8101.52
515.4	8087.74
515.767	8117.57
516.135	8163.44
516.502	8184.91
516.869	8259.94
517.237	8266.72
517.604	8296.1
517.972	8412.7
518.339	8399.6
518.706	8470.78
519.073	8461.97
519.44	8515.98
519.808	8644.79
520.175	8593.94
520.542	8670.77
520.909	8692.02
521.276	8713.49
521.643	8798
522.009	8879.58
522.376	8914.16
522.743	8956.19
523.11	9012.01
523.477	9080.71
523.843	9116.19
524.21	9199.8
524.577	9214.26
524.943	9324.54
525.31	9347.82
525.676	9374.71
526.043	9437.53
526.409	9484.99
526.776	9608.6
527.142	9660.81
527.508	9706.23
527.874	9748.49
528.241	9814.93
528.607	9843.17
528.973	9885.21
529.339	9896.96
529.705	9928.59
530.071	10071.64
530.437	10095.14
530.803	10125.88
531.169	10184.63
531.535	10264.41
531.901	10207.23
532.267	10272.09
532.632	10330.39
532.998	10400.67
533.364	10448.36
533.73	10542.14
534.095	10667.78
534.461	10616.03
534.826	10696.03
535.192	10703.49
535.557	10743.49
535.923	10753.88
536.288	10875.69
536.653	10919.53
537.019	10895.8
537.384	10956.82
537.749	10940.77
538.114	11049.92
538.479	10967.21
538.845	11154.78
539.21	11074.55
539.575	11186.41
539.94	11234.1
540.305	11251.95
540.67	11339.86
541.034	11345.28
541.399	11452.4
541.764	11478.38
542.129	11455.56
542.494	11551.83
542.858	11579.17
543.223	11575.78
543.587	11564.48
543.952	11721.32
544.316	11745.27
544.681	11734.65
545.045	11797.7
545.41	11891.03
545.774	11870.01
546.138	12044.47
546.503	12041.31
546.867	11976
547.231	12166.73
547.595	12190.46
547.959	12186.16
548.324	12178.93
548.688	12212.38
549.052	12259.16
549.416	12282.43
549.779	12323.11
550.143	12435.42
550.507	12439.94
550.871	12504.57
551.235	12594.97
551.599	12634.29
551.962	12681.06
552.326	12656.88
552.689	12805.36
553.053	12715.64
553.417	12678.81
553.78	12916.09
554.143	12832.7
554.507	12973.03
554.87	12938.69
555.234	13076.53
555.597	12965.58
555.96	13026.59
556.323	13079.92
556.686	13084.22
557.05	13182.29
557.413	13177.1
557.776	13278.34
558.139	13346.13
558.502	13336.87
558.865	13419.58
559.228	13550.42
559.59	13558.1
559.953	13543.87
560.316	13788.61
560.679	13684.43
561.041	13806.91
561.404	13829.96
561.767	13843.75
562.129	13883.97
562.492	13947.25
562.854	13985.66
563.217	13940.24
563.579	14099.33
563.941	14091.65
564.304	14196.05
564.666	14244.87
565.028	14196.51
565.39	14348.14
565.753	14389.95
566.115	14378.65
566.477	14497.97
566.839	14507.46
567.201	14629.26
567.563	14595.14
567.925	14689.83
568.287	14735.93
568.648	14799.43
569.01	14842.14
569.372	14938.18
569.734	14875.81
570.095	15002.36
570.457	15071.96
570.819	15133.2
571.18	15167.33
571.542	15280.32
571.903	15341.79
572.265	15363.71
572.626	15425.63
572.987	15508.79
573.349	15574.1
573.71	15732.51
574.071	15758.27
574.432	15847.99
574.794	16099.96
575.155	16012.05
575.516	16028.55
575.877	16216.34
576.238	16214.76
576.599	16395.09
576.96	16435.77
577.32	16557.57
577.681	16612.49
578.042	16728.87
578.403	16884.57
578.763	17077.79
579.124	17245.69
579.485	17316.65
579.845	17571.33
580.206	17739.01
580.566	17698.79
580.927	17918.89
581.287	18120.92
581.648	18181.26
582.008	18437.98
582.368	18544.19
582.728	18759.78
583.089	18921.35
583.449	19094
583.809	19265.75
584.169	19440.66
584.529	19613.54
584.889	19901.21
585.249	20008.33
585.609	20167.65
585.969	20499.16
586.329	20679.5
586.688	20964.69
587.048	21085.82
587.408	21334.17
587.768	21585.01
588.127	21798.57
588.487	22034.94
588.846	22408.04
589.206	22464.08
589.565	22824.53
589.925	23137.29
590.284	23232.65
590.643	23485.07
591.003	23877.61
591.362	24132.06
591.721	24300.19
592.08	24668.32
592.44	24945.6
592.799	25180.85
593.158	25334.52
593.517	25634.17
593.876	25934.73
594.235	26181.95
594.593	26331.33
594.952	26733.35
595.311	26856.06
595.67	27153
596.029	27527.45
596.387	27867.11
596.746	28158.85
597.104	28155.91
597.463	28372.63
597.822	28791.38
598.18	28917.02
598.538	29071.59
598.897	29573.95
599.255	29606.5
599.613	30206.03
599.972	30169.42
600.33	30464.33
600.688	30592.46
601.046	30915.84
601.404	31259.56
601.762	31357.41
602.12	31874.46
602.478	31804.63
602.836	32121.68
603.194	32016.15
603.552	32422.69
603.91	32581.33
604.268	32874.21
604.625	32885.28
604.983	33459.73
605.341	33314.65
605.698	33668.08
606.056	33985.14
606.413	34118.24
606.771	34282.3
607.128	34446.82
607.485	34579.02
607.843	34737.43
608.2	35007.94
608.557	35223.07
608.914	35282.05
609.272	35538.77
609.629	35738.09
609.986	36028.47
610.343	35879.32
610.7	36373.78
611.057	36540.78
611.414	36398.86
611.771	36601.57
612.127	36957.04
612.484	36945.74
612.841	37269.8
613.198	37160.87
613.554	37375.33
613.911	37719.5
614.267	37826.39
614.624	37918.14
614.98	38024.58
615.337	38393.84
615.693	38286.04
616.05	38287.17
616.406	38694.17
616.762	38667.05
617.118	38750.89
617.475	38947.04
617.831	39025.68
618.187	39060.03
618.543	39269.74
618.899	39524.2
619.255	39495.28
619.611	39505.44
619.967	39737.75
620.323	39936.62
620.678	39958.54
621.034	39785.21
621.39	39965.77
621.746	39768.49
622.101	40487.34
622.457	40170.29
622.812	40275.14
623.168	40465.65
623.523	40415.25
623.879	40711.74
624.234	40484.63
624.589	40666.54
624.945	40730.72
625.3	40818.18
625.655	40948.8
626.01	40885.3
626.365	40862.24
626.72	41015.01
627.075	40981.56
627.43	40982.69
627.785	40948.34
628.14	40980.89
628.495	41268.79
628.85	41145.18
629.205	41206.42
629.559	41379.07
629.914	41158.06
630.269	41236.7
630.623	41288.45
630.978	41306.53
631.332	41409.58
631.687	41579.97
632.041	41394.66
632.396	41509.91
632.75	41377.49
633.104	41566.41
633.459	41421.1
633.813	41382.01
634.167	41417.48
634.521	41400.31
634.875	41527.99
635.229	41454.55
635.583	41287.77
635.937	41322.57
636.291	41367.54
636.645	41318.96
636.999	41245.06
637.352	41366.19
637.706	41138.62
638.06	41296.58
638.413	41229.01
638.767	41168.9
639.121	41265.17
639.474	41114.44
639.828	41150.15
640.181	41331.84
640.534	41194.44
640.888	40995.12
641.241	40836.26
641.594	41180.88
641.947	41215
642.301	40999.19
642.654	41027.66
643.007	41137.04
643.36	40909.7
643.713	40966.87
644.066	41189.69
644.419	41072.86
644.771	40563.27
645.124	40191.98
645.477	40236.72
645.83	40013.45
646.182	39903.4
646.535	39736.4
646.888	39842.38
647.24	39652.11
647.593	39962.61
647.945	39847.81
648.298	39726
648.65	39645.1
649.002	39525.1
649.355	39663.63
649.707	39654.82
650.059	39824.76
650.411	40230.4
650.763	40404.18
651.115	40738.86
651.467	40607.56
651.819	40506.32
652.171	40460
652.523	40359.21
652.875	40417.74
653.227	40250.74
653.578	40523.95
653.93	40470.62
654.282	40223.17
654.633	40137.97
654.985	40315.37
655.337	40304.29
655.688	40356.95
656.039	40396.04
656.391	40043.96
656.742	40154.01
657.094	40315.82
657.445	40294.35
657.796	40208.7
658.147	40237.18
658.498	40197.4
658.849	40269.04
659.2	40156.5
659.551	40108.37
659.902	40150.85
660.253	40184.07
660.604	40184.75
660.955	39942.04
661.306	40246.44
661.656	40137.74
662.007	40078.54
662.358	40035.15
662.708	40071.08
663.059	40111.76
663.409	39803.06
663.76	40080.57
664.11	40061.36
664.461	39994.92
664.811	40067.92
665.161	40055.03
665.511	39950.18
665.862	40030.63
666.212	40052.1
666.562	40002.83
666.912	39975.26
667.262	39918.09
667.612	39947.24
667.962	39969.61
668.312	39930.74
668.662	40100.23
669.011	40055.94
669.361	40047.35
669.711	39888.26
670.06	39909.28
670.41	39924.64
670.76	39789.96
671.109	39944.98
671.459	40035.6
671.808	39730.75
672.157	39877.19
672.507	39522.17
672.856	39597.19
673.205	39812.33
673.554	39775.49
673.904	39646.23
674.253	39821.59
674.602	39604.2
674.951	39197.43
675.3	38964.89
675.649	39537.76
675.998	39546.12
676.346	39641.26
676.695	39687.13
677.044	39322.4
677.393	39515.84
677.741	39636.29
678.09	39342.51
678.438	39419.34
678.787	39305.68
679.135	39410.31
679.484	39013.71
679.832	39239.24
680.181	39093.7
680.529	39171.67
680.877	39135.51
681.225	39017.1
681.573	39297.31
681.922	38930.77
682.27	38819.81
682.618	38882.18
682.966	38793.37
683.314	38809.87
683.661	38829.98
684.009	38710.66
684.357	38594.51
684.705	38516.54
685.053	38651.46
685.4	38527.62
685.748	38379.37
686.095	38260.96
686.443	38235.65
686.79	38167.17
687.138	38296.66
687.485	38154.52
687.832	37988.87
688.18	38232.48
688.527	37972.15
688.874	37936.9
689.221	37951.59
689.568	37792.49
689.915	37630.92
690.262	37576.68
690.609	37535.33
690.956	37384.82
691.303	37505.27
691.65	37200.42
691.997	37173.08
692.344	36990.93
692.69	36941.9
693.037	36968.11
693.383	36744.16
693.73	36909.81
694.077	36531.51
694.423	36585.07
694.769	36545.52
695.116	36437.73
695.462	36423.27
695.808	36279.31
696.155	36299.43
696.501	36075.48
696.847	36054.01
697.193	35732.21
697.539	35986.89
697.885	35665.77
698.231	35699.89
698.577	35698.76
698.923	35655.15
699.269	35290.41
699.614	35190.3
699.96	35256.52
700.306	35194.15
700.651	35076.41
700.997	35016.07
701.342	34897.2
701.688	34725.91
702.033	34646.36
702.379	34736.3
702.724	34522.75
703.069	34463.77
703.415	34195.75
703.76	34306.94
704.105	34257.45
704.45	34214.51
704.795	34026.72
705.14	33999.15
705.485	33908.76
705.83	33685.26
706.175	33781.08
706.52	33763
706.865	33556.67
707.209	33623.57
707.554	33475.32
707.899	33545.38
708.243	33311.26
708.588	33308.55
708.932	33020.19
709.277	33042.11
709.621	33156.23
709.966	32783.36
710.31	32793.53
710.654	32690.26
710.998	32733.64
711.342	32770.93
711.687	32562.58
712.031	32482.58
712.375	32347.67
712.719	32287.78
713.063	32351.96
713.407	32517.83
713.75	32217.73
714.094	32196.94
714.438	32106.54
714.782	32135.02
715.125	31972.76
715.469	32137.05
715.812	31826.55
716.156	31775.48
716.499	31813.9
716.843	31850.28
717.186	31569.83
717.53	31710.85
717.873	31700.45
718.216	31480.8
718.559	31456.39
718.902	31301.37
719.246	31390.18
719.589	31262.72
719.932	31191.76
720.275	31111.54
720.617	30994.48
720.96	30888.04
721.303	31063.63
721.646	30961.04
721.989	30688.95
722.331	30858.89
722.674	30693.92
723.016	30801.27
723.359	30833.36
723.701	30731.21
724.044	30621.61
724.386	30314.95
724.729	30578.67
725.071	30334.16
725.413	30479.92
725.755	30362.18
726.097	30248.74
726.439	30189.53
726.782	30146.37
727.124	30320.38
727.465	30091.68
727.807	30026.15
728.149	29984.11
728.491	29939.14
728.833	30023.66
729.175	29873.61
729.516	29792.93
729.858	29754.29
730.199	29813.04
730.541	29637
730.882	29695.76
731.224	29636.55
731.565	29467.06
731.906	29557.23
732.248	29558.36
732.589	29455.54
732.93	29279.27
733.271	29273.85
733.612	29338.48
733.953	29251.02
734.294	29285.83
734.635	29099.62
734.976	29154.3
735.317	29084.02
735.658	28995.44
735.999	29018.26
736.339	29039.5
736.68	29020.97
737.021	28986.17
737.361	28877.48
737.702	28919.51
738.042	28824.6
738.383	28774.65
738.723	28749.79
739.063	28601.32
739.404	28665.28
739.744	28720.19
740.084	28480.88
740.424	28532.63
740.764	28469.12
741.104	28592.28
741.444	28351.16
741.784	28316.36
742.124	28388.22
742.464	28350.48
742.804	28235.01
743.143	28292.41
743.483	28337.38
743.823	28076.37
744.162	28172.18
744.502	28043.6
744.841	28031.17
745.181	28063.26
745.52	27935.35
745.86	28041.11
746.199	27999.08
746.538	27823.94
746.877	27891.74
747.216	27939.87
747.556	27860.33
747.895	27811.97
748.234	27626.21
748.573	27588.24
748.911	27528.13
749.25	27649.03
749.589	27431.41
749.928	27461.24
750.267	27443.84
750.605	27492.65
750.944	27257.63
751.283	27319.1
751.621	27389.6
751.96	27129.27
752.298	27197.07
752.636	27228.7
752.975	27021.03
753.313	26895.15
753.651	27018.54
753.989	26901.71
754.327	26810.41
754.666	26738.32
755.004	26799.11
755.342	26724.99
755.679	26693.58
756.017	26557.54
756.355	26703.07
756.693	26475.05
757.031	26470.31
757.368	26285
757.706	26389.4
758.044	26212.01
758.381	26355.28
758.719	26166.59
759.056	26171.11
759.394	26203.2
759.731	25875.07
760.068	25899.02
760.405	25722.98
760.743	25749.87
761.08	25776.09
761.417	25412.26
761.754	25642.98
762.091	25466.94
762.428	25417.68
762.765	25212.03
763.102	25360.28
763.438	25212.26
763.775	25070.34
764.112	25162.54
764.449	25179.49
764.785	24911.48
765.122	24845.72
765.458	24730.01
765.795	24688.43
766.131	24737.47
766.467	24576.8
766.804	24508.55
767.14	24429.68
767.476	24395.79
767.812	24302.91
768.148	24284.6
768.485	24125.06
768.821	24128
769.157	24008.22
769.492	23875.12
769.828	23880.54
770.164	23738.4
770.5	23661.79
770.836	23563.04
771.171	23450.95
771.507	23365.98
771.842	23251.63
772.178	23177.06
772.513	23178.19
772.849	23030.17
773.184	23025.2
773.519	22996.27
773.855	22871.76
774.19	22766
774.525	22645.77
774.86	22746.79
775.195	22568.94
775.53	22458.21
775.865	22360.13
776.2	22222.28
776.535	22269.97
776.87	22195.62
777.205	22027.26
777.539	21953.82
777.874	21913.14
778.209	21821.16
778.543	21785.23
778.878	21581.17
779.212	21701.17
779.547	21489.65
779.881	21517.89
780.215	21301.63
780.55	21354.51
780.884	21184.8
781.218	21162.2
781.552	21208.3
781.886	20989.1
782.22	20889.21
782.554	20928.31
782.888	20606.51
783.222	20565.6
783.556	20494.42
783.889	20462.1
784.223	20314.99
784.557	20289.9
784.89	20358.6
785.224	20126.52
785.557	20125.61
785.891	20014.43
786.224	20094.2
786.558	19965.39
786.891	19861.67
787.224	19650.15
787.557	19679.52
787.891	19645.63
788.224	19543.48
788.557	19584.84
788.89	19537.83
789.223	19572.41
789.556	19393.43
789.888	19326.31
790.221	19210.61
790.554	19062.59
790.887	19063.5
791.219	19004.97
791.552	18918.64
791.884	18836.38
792.217	18800
792.549	18778.31
792.882	18602.72
793.214	18517.75
793.546	18608.14
793.879	18355.94
794.211	18331.76
794.543	18414.7
794.875	18321.59
795.207	18363.4
795.539	18275.72
795.871	18164.76
796.203	18035.5
796.535	17952.56
796.867	17946.01
797.198	17814.26
797.53	17909.4
797.862	17776.75
798.193	17821.72
798.525	17669.63
798.856	17711.89
799.188	17542.86
799.519	17418.12
799.85	17298.34
800.182	17384.9
800.513	17336.31
800.844	17219.7
801.175	17264.22
801.506	17253.15
801.837	17119.59
802.168	17133.6
802.499	17025.13
802.83	16910.56
803.161	16851.12
803.491	16895.19
803.822	16860.62
804.153	16783.33
804.483	16691.81
804.814	16630.34
805.145	16647.06
805.475	16609.55
805.805	16503.79
806.136	16427.86
806.466	16444.81
806.796	16460.85
807.126	16352.15
807.457	16267.86
807.787	16254.98
808.117	16150.58
808.447	16096.34
808.777	16220.63
809.107	16057.7
809.436	16012.73
809.766	16039.17
810.096	15937.02
810.426	15859.51
810.755	15869.68
811.085	15755.33
811.414	15681.89
811.744	15701.78
812.073	15631.95
812.403	15661.33
812.732	15521.89
813.061	15587.43
813.39	15405.29
813.719	15405.06
814.049	15513.76
814.378	15413.2
814.707	15313.31
815.036	15344.5
815.365	15240.77
815.693	15067.89
816.022	15210.04
816.351	15137.05
816.68	14960.1
817.008	15015.92
817.337	14865.19
817.665	14840.33
817.994	14959.65
818.322	14903.61
818.651	14845.3
818.979	14763.72
819.307	14838.97
819.636	14758.75
819.964	14690.28
820.292	14716.72
820.62	14719.43
820.948	14719.43
821.276	14754.46
821.604	14702.25
821.932	14752.2
822.259	14692.31
822.587	14540.9
822.915	14566.44
823.243	14695.48
823.57	14582.94
823.898	14543.61
824.225	14495.71
824.553	14516.04
824.88	14494.58
825.207	14641.69
825.535	14530.28
825.862	14604.4
826.189	14407.57
826.516	14673.1
826.843	14587.91
827.17	14643.05
827.497	14531.41
827.824	14636.04
828.151	14619.09
828.478	14525.54
828.805	14609.38
829.131	14522.37
829.458	14521.92
829.785	14501.36
830.111	14550.17
830.438	14578.19
830.764	14479.21
831.09	14464.52
831.417	14401.92
831.743	14497.74
832.069	14515.59
832.395	14463.39
832.722	14488.93
833.048	14381.59
833.374	14373.45
833.7	14291.19
834.026	14382.72
834.351	14379.33
834.677	14365.99
835.003	14417.06
835.329	14352.66
835.654	14320.57
835.98	14250.97
836.306	14353.56
836.631	14243.74
836.956	14250.06
837.282	14195.6
837.607	14169.84
837.932	14125.32
838.258	14139.11
838.583	14136.62
838.908	14058.43
839.233	14044.87
839.558	14002.84
839.883	13986.79
840.208	13901.37
840.533	13958.09
840.858	13940.24
841.182	13903.18
841.507	13969.84
841.832	13810.07
842.156	13775.05
842.481	13823.41
842.805	13808.72
843.13	13698.44
843.454	13655.73
843.778	13673.36
844.103	13702.28
844.427	13523.53
844.751	13621.15
845.075	13560.82
845.399	13556.3
845.723	13382.06
846.047	13395.85
846.371	13315.62
846.695	13305
847.019	13232.91
847.343	13255.06
847.666	13096.2
847.99	13095.74
848.313	13024.78
848.637	13008.97
848.96	12914.05
849.284	12824.79
849.607	12767.16
849.931	12819.14
850.254	12681.97
850.577	12641.97
850.9	12551.8
851.223	12533.27
851.546	12497.11
851.869	12463.22
852.192	12499.15
852.515	12356.55
852.838	12245.14
853.161	12291.24
853.483	12253.51
853.806	12168.08
854.129	12173.96
854.451	12132.6
854.774	12088.31
855.096	11941.65
855.419	11930.8
855.741	11944.14
856.063	11865.49
856.385	11869.33
856.708	11884.48
857.03	11822.56
857.352	11774.65
857.674	11700.98
857.996	11740.52
858.318	11646.29
858.64	11685.84
858.961	11646.74
859.283	11581.43
859.605	11555.9
859.926	11635.22
860.248	11507.08
860.57	11395.45
860.891	11482.45
861.212	11411.49
861.534	11389.35
861.855	11391.16
862.176	11302.8
862.498	11342.79
862.819	11219.18
863.14	11275
863.461	11162.23
863.782	11249.01
864.103	11179.86
864.424	11144.83
864.745	11227.32
865.065	11077.49
865.386	11058.28
865.707	11066.19
866.027	11026.42
866.348	11043.59
866.668	11061.22
866.989	10942.35
867.309	10955.01
867.63	10990.04
867.95	10945.29
868.27	10893.99
868.59	10932.86
868.91	10856.25
869.23	10851.06
869.55	10836.82
869.87	10830.27
870.19	10832.53
870.51	10774.67
870.83	10887.89
871.15	10706.43
871.469	10773.32
871.789	10763.6
872.109	10753.88
872.428	10663.04
872.748	10715.92
873.067	10671.85
873.386	10599.31
873.706	10652.42
874.025	10582.81
874.344	10537.62
874.663	10608.35
874.982	10610.61
875.301	10599.09
875.62	10480.9
875.939	10499.2
876.258	10485.19
876.577	10465.53
876.896	10358.87
877.214	10410.16
877.533	10461.91
877.852	10367
878.17	10384.85
878.489	10374.01
878.807	10326.1
879.125	10287.23
879.444	10297.62
879.762	10272.99
880.08	10253.56
880.398	10201.36
880.716	10254.01
881.034	10203.62
881.352	10198.87
881.67	10094.01
881.988	10172.2
882.306	10130.4
882.624	10037.74
882.941	10030.29
883.259	9967.24
883.577	9992.1
883.894	9995.49
884.212	9973.11
884.529	9933.79
884.846	9937.41
885.164	9908.03
885.481	9820.58
885.798	9861.25
886.115	9781.93
886.432	9844.3
886.75	9765.89
887.067	9784.42
887.383	9734.93
887.7	9710.07
888.017	9743.29
888.334	9715.27
888.651	9649.51
888.967	9608.6
889.284	9617.64
889.6	9611.77
889.917	9552.33
890.233	9526.12
890.55	9462.84
890.866	9484.09
891.182	9407.25
891.498	9372.9
891.815	9354.6
892.131	9383.3
892.447	9335.62
892.763	9355.05
893.079	9290.65
893.395	9256.97
893.71	9252.23
894.026	9194.15
894.342	9107.15
894.657	9082.97
894.973	9058.79
895.289	9084.32
895.604	8981.05
895.92	9006.36
896.235	8968.85
896.55	8982.18
896.865	8955.97
897.181	8876.42
897.496	8908.96
897.811	8852.69
898.126	8786.25
898.441	8821.96
898.756	8704.67
899.071	8778.12
899.386	8697.44
899.7	8679.59
900.015	8642.08
900.33	8613.15
900.644	8589.42
900.959	8564.56
901.273	8527.5
901.588	8500.84
901.902	8375.19
902.216	8446.15
902.531	8361.63
902.845	8311.24
903.159	8300.62
903.473	8276.21
903.787	8258.13
904.101	8168.64
904.415	8249.32
904.729	8199.37
905.042	8086.84
905.356	8120.28
905.67	8025.37
905.984	8043.67
906.297	8033.05
906.611	8004.58
906.924	7979.95
907.237	7901.08
907.551	7874.41
907.864	7834.19
908.177	7847.75
908.491	7802.32
908.804	7774.3
909.117	7683.46
909.43	7614.31
909.743	7718.48
910.056	7618.37
910.368	7577.7
910.681	7570.69
910.994	7486.85
911.307	7523.23
911.619	7508.09
911.932	7454.76
912.244	7440.52
912.557	7394.2
912.869	7367.31
913.181	7290.25
913.494	7306.52
913.806	7222
914.118	7221.1
914.43	7188.1
914.742	7199.63
915.054	7162.34
915.366	7131.38
915.678	7059.07
915.99	7062.68
916.302	7002.8
916.613	7037.82
916.925	6996.47
917.236	6930.48
917.548	6926.41
917.859	6942.68
918.171	6903.59
918.482	6864.72
918.794	6811.16
919.105	6811.16
919.416	6763.71
919.727	6728.68
920.038	6709.7
920.349	6648.91
920.66	6622.92
920.971	6629.47
921.282	6603.71
921.593	6558.29
921.903	6561.23
922.214	6500.89
922.525	6470.38
922.835	6413.66
923.146	6365.3
923.456	6400.33
923.767	6357.16
924.077	6340.67
924.387	6335.02
924.697	6312.19
925.008	6288.92
925.318	6241.91
925.628	6210.95
925.938	6201.69
926.248	6145.19
926.558	6121.24
926.867	6113.1
927.177	6106.55
927.487	6047.79
927.796	5995.59
928.106	6001.69
928.416	5989.49
928.725	5989.94
929.034	5911.53
929.344	5882.6
929.653	5880.79
929.962	5809.61
930.271	5866.1
930.581	5793.79
930.89	5777.74
931.199	5754.24
931.508	5747.46
931.817	5699.1
932.125	5714.24
932.434	5701.59
932.743	5611.65
933.051	5629.27
933.36	5541.37
933.669	5504.98
933.977	5510.18
934.286	5508.82
934.594	5440.8
934.902	5471.99
935.21	5477.41
935.519	5417.53
935.827	5362.84
936.135	5308.6
936.443	5315.38
936.751	5274.25
937.059	5322.16
937.367	5257.08
937.674	5257.98
937.982	5228.61
938.29	5274.71
938.597	5222.5
938.905	5139.57
939.213	5162.62
939.52	5080.36
939.827	5115.39
940.135	5051.89
940.442	4996.52
940.749	5008.95
941.056	4984.77
941.363	4972.57
941.67	4990.42
941.977	4938.44
942.284	4921.27
942.591	4963.75
942.898	4934.83
943.205	4861.38
943.511	4847.37
943.818	4825.68
944.125	4812.12
944.431	4791.33
944.738	4761.95
945.044	4736.19
945.35	4722.4
945.657	4690.09
945.963	4651.67
946.269	4663.65
946.575	4680.82
946.881	4596.53
947.187	4587.72
947.493	4571.45
947.799	4596.31
948.105	4571.67
948.41	4477.21
948.716	4488.29
949.022	4511.34
949.327	4431.11
949.633	4393.6
949.938	4427.72
950.244	4445.35
950.549	4394.28
950.854	4358.35
951.16	4397.21
951.465	4380.49
951.77	4341.62
952.075	4266.82
952.38	4279.7
952.685	4282.87
952.99	4234.96
953.294	4244.22
953.599	4224.56
953.904	4207.84
954.209	4145.92
954.513	4113.61
954.818	4116.32
955.122	4104.12
955.426	4120.16
955.731	4100.05
956.035	4088.07
956.339	4052.59
956.643	4016.21
956.948	4011.91
957.252	3993.38
957.556	3970.79
957.86	3982.99
958.163	3978.47
958.467	3930.33
958.771	3925.14
959.075	3878.36
959.378	3829.55
959.682	3851.92
959.985	3788.19
960.289	3830
960.592	3805.14
960.896	3809.89
961.199	3818.47
961.502	3753.39
961.805	3741.19
962.108	3676.1
962.411	3744.58
962.714	3718.14
963.017	3723.56
963.32	3704.13
963.623	3650.79
963.926	3640.17
964.228	3590.68
964.531	3555.2
964.833	3585.48
965.136	3535.54
965.438	3528.99
965.741	3540.06
966.043	3518.59
966.345	3503.23
966.648	3478.59
966.95	3487.41
967.252	3460.97
967.554	3475.21
967.856	3429.78
968.158	3384.13
968.46	3401.08
968.761	3365.38
969.063	3352.04
969.365	3354.53
969.666	3337.36
969.968	3308.2
970.269	3290.35
970.571	3270.24
970.872	3284.93
971.174	3233.63
971.475	3261.88
971.776	3241.54
972.077	3218.04
972.378	3222.78
972.679	3207.87
972.98	3178.26
973.281	3158.38
973.582	3181.88
973.883	3174.87
974.183	3160.41
974.484	3064.14
974.785	3068.89
975.085	3065.27
975.386	3072.73
975.686	3092.39
975.986	3067.98
976.287	3060.75
976.587	3022.79
976.887	3001.09
977.187	3031.15
977.487	2994.99
977.787	2958.83
978.087	2929.91
978.387	2918.38
978.687	2945.73
978.987	2919.97
979.286	2910.02
979.586	2834.32
979.885	2857.14
980.185	2886.52
980.484	2842.68
980.784	2836.8
981.083	2843.58
981.382	2803.81
981.682	2803.36
981.981	2784.6
982.28	2771.49
982.579	2760.65
982.878	2762.68
983.177	2725.39
983.475	2721.33
983.774	2743.25
984.073	2700.76
984.372	2672.74
984.67	2656.24
984.969	2679.97
985.267	2696.47
985.566	2663.48
985.864	2657.37
986.162	2624.83
986.461	2589.35
986.759	2606.08
987.057	2564.72
987.355	2545.96
987.653	2572.18
987.951	2543.7
988.249	2552.29
988.547	2512.29
988.844	2487.43
989.142	2504.61
989.44	2458.06
989.737	2457.83
990.035	2498.51
990.332	2424.84
990.63	2430.94
990.927	2431.39
991.224	2401.11
991.521	2405.85
991.819	2394.33
992.116	2425.74
992.413	2401.79
992.71	2378.51
993.006	2354.33
993.303	2313.88
993.6	2347.55
993.897	2333.54
994.193	2325.4
994.49	2318.4
994.787	2278.85
995.083	2288.12
995.379	2307.55
995.676	2250.6
995.972	2264.84
996.268	2247.44
996.565	2240.66
996.861	2212.19
997.157	2206.76
997.453	2214.9
997.749	2179.65
998.044	2190.95
998.34	2159.53
998.636	2126.77
998.932	2139.2
999.227	2150.49
999.523	2109.82
999.818	2134.9
1000.114	2134
1000.409	2088.58
1000.704	2045.41
1001	2069.82
1001.295	2033.89
1001.59	2029.14
1001.885	2020.78
1002.18	2026.43
1002.475	1995.7
1002.77	2004.51
1003.065	1993.21
1003.359	1954.57
1003.654	1971.97
1003.949	1943.04
1004.243	1940.33
1004.538	1924.06
1004.832	1949.14
1005.127	1928.13
1005.421	1894.91
1005.715	1897.39
1006.009	1854.23
1006.304	1868.69
1006.598	1856.94
1006.892	1840.45
1007.186	1811.97
1007.48	1802.48
1007.773	1835.02
1008.067	1808.36
1008.361	1818.07
1008.655	1770.62
1008.948	1772.65
1009.242	1795.7
1009.535	1737.17
1009.829	1746.89
1010.122	1762.71
1010.415	1735.59
1010.708	1734.46
1011.001	1737.85
1011.295	1663.5
1011.588	1745.08
1011.881	1660.34
1012.173	1683.84
1012.466	1690.62
1012.759	1637.97
1013.052	1641.81
1013.344	1668.47
1013.637	1626.89
1013.93	1602.03
1014.222	1597.74
1014.514	1596.38
1014.807	1598.87
1015.099	1571.75
1015.391	1591.41
1015.683	1527.46
1015.976	1566.1
1016.268	1538.08
1016.56	1526.33
1016.851	1524.75
1017.143	1518.87
1017.435	1518.19
1017.727	1515.26
1018.018	1478.65
1018.31	1521.13
1018.602	1458.08
1018.893	1460.57
1019.185	1470.51
1019.476	1463.96
1019.767	1414.24
1020.058	1435.71
1020.35	1419.67
1020.641	1399.1
1020.932	1423.06
1021.223	1388.93
1021.514	1381.47
1021.804	1342.38
1022.095	1393
1022.386	1362.94
1022.677	1340.57
1022.967	1325.43
1023.258	1322.72
1023.548	1305.09
1023.839	1325.21
1024.129	1331.53
1024.419	1268.26
1024.709	1244.98
1025	1279.33
1025.29	1265.09
1025.58	1268.26
1025.87	1260.57
1026.16	1234.13
1026.449	1238.43
1026.739	1225.32
1027.029	1202.04
1027.319	1211.31
1027.608	1178.77
1027.898	1180.12
1028.187	1188.49
1028.477	1173.8
1028.766	1171.09
1029.055	1154.36
1029.344	1163.18
1029.634	1135.38
1029.923	1145.55
1030.212	1147.81
1030.501	1127.47
1030.79	1132.44
1031.078	1131.99
1031.367	1103.97
1031.656	1105.55
1031.945	1089.96
1032.233	1088.6
1032.522	1067.36
1032.81	1074.36
1033.099	1058.55
1033.387	1054.03
1033.675	1044.08
1033.963	1031.43
1034.251	1042.05
1034.54	1052.9
1034.828	1040.92
1035.116	1024.65
1035.403	1035.72
1035.691	1018.55
1035.979	990.3
1036.267	996.4
1036.554	991.2
1036.842	1012.22
1037.129	968.15
1037.417	968.6
1037.704	961.82
1037.992	931.77
1038.279	957.76
1038.566	955.5
1038.853	955.5
1039.14	955.5
