Data from hue_120_FLMS001491_00048.txt Node
Date: Tue Feb 07 16:59:27 GMT 2017
User: dcchb
Spectrometer: FLMS00149
Trigger mode: 0
Integration Time (sec): 2.000000E-2
Scans to average: 10
Electric dark correction enabled: true
Nonlinearity correction enabled: false
Boxcar width: 0
XAxis mode: Wavelengths
Number of Pixels in Spectrum: 2048
>>>>>Begin Spectral Data<<<<<
341.393	4.84
341.776	4.84
342.16	4.84
342.543	-62.95
342.927	-62.05
343.31	-62.05
343.693	-76.74
344.077	-75.83
344.46	-61.82
344.843	-34.93
345.226	-50.3
345.61	-7.81
345.993	-9.84
346.376	-20.92
346.759	0.1
347.142	13.43
347.525	66.09
347.908	45.75
348.291	75.58
348.674	96.82
349.057	102.47
349.44	115.58
349.823	157.16
350.206	166.42
350.588	206.87
350.971	230.15
351.354	242.8
351.737	231.05
352.119	252.52
352.502	248.45
352.884	284.16
353.267	289.58
353.65	303.59
354.032	309.92
354.414	318.06
354.797	311.05
355.179	318.06
355.562	339.75
355.944	332.52
356.326	324.61
356.709	331.62
357.091	349.47
357.473	342.46
357.855	350.15
358.238	329.36
358.62	346.53
359.002	331.84
359.384	344.72
359.766	359.41
360.148	351.05
360.53	342.46
360.912	344.27
361.294	348.79
361.676	322.35
362.057	336.36
362.439	346.3
362.821	316.93
363.203	332.97
363.584	340.88
363.966	317.38
364.348	319.86
364.729	325.74
365.111	329.13
365.493	327.1
365.874	337.94
366.256	307.44
366.637	314.44
367.019	318.73
367.4	324.38
367.781	333.65
368.163	317.6
368.544	326.19
368.925	334.55
369.306	340.2
369.688	358.06
370.069	328.45
370.45	310.37
370.831	324.84
371.212	335.01
371.593	326.19
371.974	331.39
372.355	325.97
372.736	327.77
373.117	353.76
373.498	324.61
373.879	324.16
374.26	311.96
374.641	318.73
375.021	344.95
375.402	349.24
375.783	320.32
376.163	332.52
376.544	340.65
376.925	317.38
377.305	344.5
377.686	330.03
378.066	357.83
378.447	359.19
378.827	341.78
379.208	358.73
379.588	352.86
379.968	335.91
380.349	339.75
380.729	326.42
381.109	340.65
381.489	340.65
381.87	365.29
382.25	349.92
382.63	356.47
383.01	337.72
383.39	371.61
383.77	361.9
384.15	385.85
384.53	376.36
384.91	377.04
385.29	351.95
385.67	363.25
386.049	361.9
386.429	369.13
386.809	366.87
387.189	368.9
387.568	385.17
387.948	355.34
388.328	363.48
388.707	383.82
389.087	379.52
389.466	377.72
389.846	382.46
390.225	406.87
390.605	397.15
390.984	381.56
391.363	381.56
391.743	375.68
392.122	387.43
392.501	399.86
392.881	407.55
393.26	412.97
393.639	405.96
394.018	391.5
394.397	411.16
394.776	405.96
395.155	405.96
395.534	393.53
395.913	426.98
396.292	403.93
396.671	414.1
397.05	416.36
397.429	412.07
397.808	414.33
398.186	431.27
398.565	434.66
398.944	406.42
399.323	437.15
399.701	423.59
400.08	447.77
400.458	415
400.837	428.34
401.215	430.14
401.594	436.47
401.972	450.03
402.351	439.64
402.729	433.99
403.107	439.86
403.486	444.83
403.864	443.93
404.242	472.63
404.62	452.29
404.999	463.59
405.377	463.14
405.755	477.83
406.133	458.17
406.511	449.8
406.889	491.39
407.267	472.63
407.645	489.58
408.023	473.53
408.401	481.67
408.779	469.69
409.156	487.54
409.534	494.1
409.912	490.71
410.29	513.53
410.667	479.63
411.045	494.78
411.422	511.95
411.8	512.85
412.178	520.31
412.555	521.44
412.933	528.22
413.31	530.03
413.687	556.47
414.065	538.16
414.442	544.27
414.819	554.89
415.197	543.36
415.574	571.38
415.951	554.21
416.328	564.83
416.705	579.52
417.082	577.26
417.46	559.18
417.837	571.16
418.214	586.52
418.591	584.26
418.967	568.67
419.344	579.52
419.721	575.22
420.098	595.56
420.475	584.72
420.852	580.42
421.228	598.05
421.605	596.92
421.982	590.59
422.358	626.98
422.735	615
423.111	611.38
423.488	636.69
423.864	645.51
424.241	652.96
424.617	659.74
424.994	667.65
425.37	679.86
425.746	654.32
426.123	658.39
426.499	682.79
426.875	676.01
427.251	689.12
427.627	695
428.003	710.14
428.379	682.34
428.756	726.63
429.132	718.95
429.507	727.54
429.883	720.08
430.259	752.85
430.635	726.86
431.011	739.97
431.387	753.98
431.763	769.12
432.138	765.95
432.514	760.76
432.89	787.87
433.265	803.69
433.641	798.5
434.016	786.52
434.392	816.12
434.767	830.59
435.143	836.24
435.518	845.73
435.894	857.48
436.269	817.48
436.644	838.49
437.02	871.04
437.395	865.39
437.77	884.14
438.145	885.27
438.52	884.14
438.895	901.09
439.271	914.43
439.646	917.81
440.021	919.62
440.395	925.5
440.77	927.08
441.145	958.94
441.52	953.97
441.895	970.24
442.27	964.59
442.645	980.64
443.019	992.62
443.394	983.58
443.769	981.99
444.143	972.5
444.518	982.45
444.892	1021.09
445.267	1012.95
445.641	1021.54
446.016	1028.32
446.39	1035.33
446.764	1047.53
447.139	1071.03
447.513	1056.12
447.887	1056.57
448.262	1053.18
448.636	1061.09
449.01	1060.18
449.384	1105.15
449.758	1124.14
450.132	1119.39
450.506	1114.87
450.88	1131.37
451.254	1151.48
451.628	1118.71
452.002	1133.18
452.376	1187.19
452.75	1147.87
453.123	1170.46
453.497	1184.47
453.871	1187.64
454.244	1238.94
454.618	1209.78
454.992	1267.18
455.365	1249.11
455.739	1260.63
456.112	1262.44
456.486	1293.85
456.859	1314.41
457.232	1324.36
457.606	1304.92
457.979	1349.44
458.352	1368.2
458.725	1402.32
459.099	1420.17
459.472	1439.16
459.845	1438.48
460.218	1462.21
460.591	1494.3
460.964	1492.71
461.337	1544.69
461.71	1553.96
462.083	1555.31
462.456	1560.51
462.829	1588.31
463.201	1629.89
463.574	1634.18
463.947	1668.08
464.32	1705.59
464.692	1711.24
465.065	1719.83
465.438	1768.19
465.81	1785.14
466.183	1809.09
466.555	1846.83
466.928	1835.3
467.3	1846.15
467.672	1897
468.045	1924.12
468.417	1920.95
468.789	1994.62
469.161	2005.47
469.534	2051.34
469.906	2068.29
470.278	2109.2
470.65	2172.7
471.022	2197.1
471.394	2227.84
471.766	2290.66
472.138	2304.9
472.51	2360.94
472.882	2461.28
473.253	2454.95
473.625	2511.9
473.997	2576.53
474.369	2620.82
474.74	2643.65
475.112	2713.7
475.484	2780.59
475.855	2856.97
476.227	2912.79
476.598	2980.59
476.97	3068.49
477.341	3138.1
477.713	3197.53
478.084	3222.61
478.455	3377.86
478.827	3421.7
479.198	3559.33
479.569	3584.86
479.94	3721.13
480.311	3831.18
480.682	3922.48
481.053	4081.57
481.424	4087.68
481.795	4203.83
482.166	4319.99
482.537	4349.82
482.908	4570.15
483.279	4637.94
483.65	4772.63
484.021	4942.34
484.391	5059.17
484.762	5174.88
485.133	5262.79
485.503	5348.43
485.874	5463.91
486.244	5656
486.615	5837.91
486.985	5924.91
487.356	6107.51
487.726	6188.41
488.097	6421.85
488.467	6476.99
488.837	6666.59
489.207	6792.91
489.578	6951.1
489.948	7149.52
490.318	7254.37
490.688	7378.89
491.058	7555.38
491.428	7746.11
491.798	7839.21
492.168	8077.4
492.538	8240.79
492.908	8361.01
493.278	8536.37
493.648	8646.2
494.017	8818.62
494.387	8989.24
494.757	9117.6
495.126	9279.85
495.496	9302.45
495.866	9534.09
496.235	9630.81
496.605	9755.1
496.974	9857.92
497.344	10027.41
497.713	10212.71
498.082	10305.59
498.452	10364.12
498.821	10602.08
499.19	10639.37
499.559	10795.3
499.928	10825.35
500.298	11017.66
500.667	11184.66
501.036	11214.49
501.405	11420.14
501.774	11470.53
502.143	11582.85
502.512	11596.63
502.88	11724.08
503.249	11821.48
503.618	11930.18
503.987	12065.54
504.356	12157.29
504.724	12322.71
505.093	12351.64
505.462	12358.42
505.83	12579.43
506.199	12605.64
506.567	12704.4
506.936	12807.67
507.304	13013.32
507.672	12978.74
508.041	13101.22
508.409	13132.86
508.777	13302.57
509.145	13386.41
509.514	13390.26
509.882	13509.12
510.25	13453.76
510.618	13622.11
510.986	13721.32
511.354	13750.7
511.722	13910.69
512.09	13971.03
512.458	13964.93
512.826	14128.31
513.193	14176.9
513.561	14241.08
513.929	14245.15
514.297	14441.3
514.664	14340.74
515.032	14393.39
515.4	14545.25
515.767	14622.99
516.135	14621.86
516.502	14572.6
516.869	14778.69
517.237	14780.73
517.604	14771.46
517.972	14951.12
518.339	15026.14
518.706	14942.98
519.073	14936.88
519.44	14977.33
519.808	15143.88
520.175	15087.84
520.542	15180.72
520.909	15249.19
521.276	15303.43
521.643	15427.49
522.009	15450.77
522.376	15516.53
522.743	15649.63
523.11	15584.77
523.477	15662.51
523.843	15614.38
524.21	15861.15
524.577	15831.77
524.943	15894.14
525.31	15912.67
525.676	16000.58
526.043	16050.07
526.409	16011.88
526.776	16210.07
527.142	16185.21
527.508	16317.41
527.874	16231.76
528.241	16315.15
528.607	16334.58
528.973	16452.55
529.339	16311.53
529.705	16482.83
530.071	16411.87
530.437	16493.45
530.803	16568.93
531.169	16604.18
531.535	16449.84
531.901	16426.79
532.267	16470.85
532.632	16497.07
532.998	16512.66
533.364	16525.77
533.73	16506.11
534.095	16524.86
534.461	16601.47
534.826	16551.75
535.192	16737.29
535.557	16656.38
535.923	16528.93
536.288	16514.24
536.653	16510.85
537.019	16502.94
537.384	16599.89
537.749	16541.58
538.114	16441.25
538.479	16419.78
538.845	16477.18
539.21	16325.32
539.575	16333.45
539.94	16296.85
540.305	16327.35
540.67	16267.47
541.034	16383.4
541.399	16382.27
541.764	16287.58
542.129	16292.55
542.494	16335.26
542.858	16244.19
543.223	16232.89
543.587	16284.64
543.952	16107.47
544.316	16150.41
544.681	16077.87
545.045	16153.12
545.41	16118.32
545.774	16076.96
546.138	16038.77
546.503	16067.7
546.867	15862.05
547.231	16003.97
547.595	15968.94
547.959	15917.87
548.324	15854.37
548.688	15859.12
549.052	15831.77
549.416	15843.52
549.779	15822.73
550.143	15743.41
550.507	15928.72
550.871	15783.64
551.235	15672.91
551.599	15806.24
551.962	15720.59
552.326	15693.02
552.689	15799.23
553.053	15653.92
553.417	15666.58
553.78	15812.56
554.143	15645.79
554.507	15671.55
554.87	15587.71
555.234	15734.37
555.597	15537.09
555.96	15554.27
556.323	15574.38
556.686	15572.12
557.05	15603.53
557.413	15627.71
557.776	15613.02
558.139	15578.22
558.502	15604.43
558.865	15566.47
559.228	15564.89
559.59	15677.88
559.953	15595.4
560.316	15779.34
560.679	15711.1
561.041	15794.26
561.404	15777.99
561.767	15781.6
562.129	15737.09
562.492	15848.27
562.854	15788.84
563.217	15668.84
563.579	15732.34
563.941	15837.42
564.304	15817.54
564.666	15911.32
565.028	15877.2
565.39	15915.61
565.753	15937.98
566.115	15948.61
566.477	16053.69
566.839	15962.17
567.201	16056.85
567.563	16170.75
567.925	16134.82
568.287	16095.72
568.648	16077.64
569.01	16175.94
569.372	16271.31
569.734	16032.22
570.095	16167.58
570.457	16300.01
570.819	16184.98
571.18	16191.31
571.542	16315.83
571.903	16345.66
572.265	16308.82
572.626	16394.7
572.987	16305.66
573.349	16407.8
573.71	16413.23
574.071	16375.26
574.432	16294.59
574.794	16669.72
575.155	16552.66
575.516	16392.44
575.877	16513.56
576.238	16543.39
576.599	16582.26
576.96	16548.36
577.32	16557.18
577.681	16638.53
578.042	16609.61
578.403	16578.42
578.763	16659.55
579.124	16599.21
579.485	16635.14
579.845	16722.6
580.206	16602.6
580.566	16623.62
580.927	16615.48
581.287	16753.56
581.648	16618.87
582.008	16710.62
582.368	16684.18
582.728	16718.08
583.089	16661.58
583.449	16683.28
583.809	16649.38
584.169	16629.04
584.529	16530.29
584.889	16710.17
585.249	16596.05
585.609	16595.14
585.969	16635.82
586.329	16581.81
586.688	16619.55
587.048	16523.96
587.408	16550.4
587.768	16474.92
588.127	16504.3
588.487	16474.02
588.846	16542.94
589.206	16448.93
589.565	16502.49
589.925	16457.75
590.284	16455.49
590.643	16511.98
591.003	16533.22
591.362	16479.21
591.721	16411.42
592.08	16440.34
592.44	16461.36
592.799	16510.17
593.158	16337.75
593.517	16467.69
593.876	16549.49
594.235	16444.64
594.593	16472.43
594.952	16441.93
595.311	16392.66
595.67	16421.81
596.029	16510.63
596.387	16537.97
596.746	16518.31
597.104	16413.45
597.463	16286.68
597.822	16464.98
598.18	16325.77
598.538	16347.69
598.897	16379.33
599.255	16312.21
599.613	16473.56
599.972	16402.15
600.33	16509.27
600.688	16356.5
601.046	16450.29
601.404	16427.69
601.762	16433.11
602.12	16480.8
602.478	16462.26
602.836	16441.7
603.194	16363.06
603.552	16439.89
603.91	16400.57
604.268	16466.33
604.625	16398.09
604.983	16454.36
605.341	16336.39
605.698	16436.28
606.056	16418.65
606.413	16386.11
606.771	16435.6
607.128	16488.25
607.485	16426.11
607.843	16492.09
608.2	16542.94
608.557	16546.1
608.914	16511.53
609.272	16585.2
609.629	16547.23
609.986	16626.33
610.343	16573.45
610.7	16669.94
611.057	16694.12
611.414	16611.41
611.771	16575.48
612.127	16700
612.484	16726.21
612.841	16714.69
613.198	16634.92
613.554	16678.76
613.911	16756.72
614.267	16715.14
614.624	16744.74
614.98	16779.32
615.337	16827.9
615.693	16750.84
616.05	16791.97
616.406	16877.17
616.762	16796.04
617.118	16773.22
617.475	16842.37
617.831	16915.81
618.187	16851.63
618.543	16844.18
618.899	16981.35
619.255	16903.61
619.611	16858.86
619.967	16951.52
620.323	17039.2
620.678	16989.03
621.034	16940.67
621.39	16974.12
621.746	16946.55
622.101	17027.67
622.457	16933.44
622.812	16930.73
623.168	17089.59
623.523	16935.47
623.879	16984.06
624.234	16934.34
624.589	17050.95
624.945	17029.93
625.3	17099.76
625.655	16968.69
626.01	17049.82
626.365	17002.14
626.72	16970.5
627.075	16961.91
627.43	16863.61
627.785	16949.26
628.14	16889.15
628.495	17007.56
628.85	16853.89
629.205	16909.48
629.559	16893.67
629.914	16954.91
630.269	16932.54
630.623	16747.23
630.978	16962.36
631.332	16919.65
631.687	16918.98
632.041	16826.55
632.396	16940.9
632.75	16786.78
633.104	16833.1
633.459	16761.69
633.813	16693.45
634.167	16724.18
634.521	16770.28
634.875	16656.16
635.229	16641.7
635.583	16672.2
635.937	16640.11
636.291	16615.48
636.645	16523.96
636.999	16468.82
637.352	16573.67
637.706	16500.68
638.06	16530.74
638.413	16551.08
638.767	16549.95
639.121	16432.44
639.474	16373
639.828	16418.42
640.181	16474.69
640.534	16403.06
640.888	16351.53
641.241	16324.42
641.594	16319.44
641.947	16374.81
642.301	16312.89
642.654	16374.58
643.007	16261.59
643.36	16255.94
643.713	16251.2
644.066	16260.91
644.419	16213.01
644.771	16126.68
645.124	16017.08
645.477	15977.76
645.83	15853.24
646.182	15771.44
646.535	15776.86
646.888	15765.79
647.24	15670.65
647.593	15716.75
647.945	15750.42
648.298	15628.84
648.65	15652.12
649.002	15594.94
649.355	15613.7
649.707	15670.42
650.059	15798.33
650.411	15962.17
650.763	15934.37
651.115	16130.3
651.467	16073.35
651.819	16097.08
652.171	16029.06
652.523	16046.46
652.875	16016.63
653.227	15919
653.578	16096.4
653.93	16086.23
654.282	16017.98
654.633	15836.74
654.985	15963.07
655.337	16052.11
655.688	15962.62
656.039	16042.84
656.391	15876.29
656.742	15959.91
657.094	15979.57
657.445	15998.55
657.796	15915.61
658.147	15943.18
658.498	15876.74
658.849	16083.97
659.2	15979.79
659.551	15959
659.902	16080.58
660.253	16057.3
660.604	16024.54
660.955	15933.92
661.306	15927.59
661.656	16026.34
662.007	15988.83
662.358	15967.81
662.708	16035.16
663.059	16057.76
663.409	15964.2
663.76	16058.21
664.11	16025.89
664.461	15996.97
664.811	16052.56
665.161	16064.08
665.511	15931.43
665.862	15961.49
666.212	16200.58
666.562	16016.63
666.912	15921.04
667.262	15972.11
667.612	16024.76
667.962	16024.76
668.312	16016.4
668.662	16071.77
669.011	15957.19
669.361	15957.19
669.711	15948.38
670.06	15902.96
670.41	15901.38
670.76	15895.95
671.109	16040.81
671.459	15923.3
671.808	15894.14
672.157	15861.6
672.507	15849.85
672.856	15833.13
673.205	15855.5
673.554	15930.75
673.904	15844.2
674.253	15908.16
674.602	15752.23
674.951	15641.95
675.3	15567.6
675.649	15792.9
675.998	15870.42
676.346	15764.2
676.695	15844.88
677.044	15688.73
677.393	15799.46
677.741	15714.49
678.09	15757.2
678.438	15696.41
678.787	15722.17
679.135	15638.33
679.484	15509.3
679.832	15571.44
680.181	15564.66
680.529	15493.48
680.877	15476.08
681.225	15511.56
681.573	15549.29
681.922	15402.86
682.27	15341.16
682.618	15479.69
682.966	15306.59
683.314	15331.67
683.661	15351.33
684.009	15277.89
684.357	15234.5
684.705	15248.51
685.053	15199.7
685.4	15110.89
685.748	15080.15
686.095	15031.57
686.443	14920.84
686.79	14948.86
687.138	15105.69
687.485	15026.37
687.832	15006.26
688.18	14964.68
688.527	14821.86
688.874	14728.53
689.221	14724.46
689.568	14695.31
689.915	14760.84
690.262	14675.87
690.609	14620.28
690.956	14512.71
691.303	14510.9
691.65	14536.44
691.997	14382.55
692.344	14418.93
692.69	14381.19
693.037	14262.55
693.383	14237.69
693.73	14227.97
694.077	14072.72
694.423	14160.86
694.769	14014.65
695.116	14055.1
695.462	14035.89
695.808	13919.28
696.155	13991.82
696.501	13910.02
696.847	13873.41
697.193	13711.83
697.539	13782.11
697.885	13757.7
698.231	13693.75
698.577	13586.63
698.923	13536.47
699.269	13531.27
699.614	13459.63
699.96	13409.69
700.306	13369.46
700.651	13242.01
700.997	13226.42
701.342	13235.91
701.688	13231.39
702.033	13101.22
702.379	13127.89
702.724	13045.63
703.069	13089.25
703.415	12978.74
703.76	12948.91
704.105	12960.89
704.45	12945.52
704.795	12799.99
705.14	12811.06
705.485	12777.62
705.83	12730.61
706.175	12718.18
706.52	12725.41
706.865	12629.6
707.209	12592.31
707.554	12644.96
707.899	12585.98
708.243	12496.72
708.588	12463.73
708.932	12371.07
709.277	12373.33
709.621	12312.54
709.966	12249.27
710.31	12326.55
710.654	12204.3
710.998	12199.1
711.342	12197.74
711.687	12105.54
712.031	12107.13
712.375	12066.45
712.719	12086.79
713.063	12088.14
713.407	12056.05
713.75	12028.94
714.094	11976.06
714.438	11995.04
714.782	12001.37
715.125	11972.21
715.469	11940.8
715.812	11873.91
716.156	11759.79
716.499	11788.49
716.843	11748.04
717.186	11686.8
717.53	11779.45
717.873	11773.12
718.216	11711.2
718.559	11560.47
718.902	11564.99
719.246	11614.03
719.589	11574.26
719.932	11584.65
720.275	11594.14
720.617	11527.93
720.96	11494.03
721.303	11557.31
721.646	11515.28
721.989	11487.25
722.331	11467.37
722.674	11508.72
723.016	11466.92
723.359	11443.41
723.701	11441.61
724.044	11376.07
724.386	11396.64
724.729	11386.24
725.071	11400.48
725.413	11386.69
725.755	11252.23
726.097	11242.97
726.439	11234.83
726.782	11233.7
727.124	11324.77
727.465	11299.01
727.807	11266.24
728.149	11255.62
728.491	11283.64
728.833	11276.86
729.175	11182.18
729.516	11214.72
729.858	11250.42
730.199	11183.31
730.541	11161.84
730.882	11237.32
731.224	11246.13
731.565	11127.04
731.906	11112.8
732.248	11252.91
732.589	11158.68
732.93	11112.58
733.271	11110.99
733.612	11150.31
733.953	11113.48
734.294	11061.95
734.635	11128.39
734.976	11109.41
735.317	11095.85
735.658	11066.93
735.999	11055.63
736.339	11079.81
736.68	11211.78
737.021	11045.91
737.361	11092.01
737.702	11159.81
738.042	11113.03
738.383	11091.78
738.723	11120.26
739.063	11109.41
739.404	11129.98
739.744	11128.85
740.084	11138.34
740.424	11140.82
740.764	11160.48
741.104	11162.07
741.444	11125.23
741.784	11170.2
742.124	11135.85
742.464	11234.15
742.804	11179.47
743.143	11218.33
743.483	11278.9
743.823	11224.89
744.162	11322.06
744.502	11259.24
744.841	11346.69
745.181	11388.27
745.52	11369.52
745.86	11407.03
746.199	11391.66
746.538	11485.45
746.877	11567.03
747.216	11593.47
747.556	11607.03
747.895	11673.46
748.234	11706.91
748.573	11709.4
748.911	11862.16
749.25	11894.25
749.589	11840.24
749.928	12000.24
750.267	12065.54
750.605	12143.73
750.944	12107.35
751.283	12231.87
751.621	12361.58
751.96	12422.6
752.298	12507.11
752.636	12620.11
752.975	12652.87
753.313	12807.67
753.651	12910.27
753.989	13008.34
754.327	13094.9
754.666	13151.62
755.004	13277.04
755.342	13416.47
755.679	13566.3
756.017	13653.75
756.355	13772.17
756.693	13984.59
757.031	14092.61
757.368	14171.25
757.706	14317.46
758.044	14471.36
758.381	14626.61
758.719	14757.68
759.056	15019.82
759.394	15004.68
759.731	15121.96
760.068	15299.58
760.405	15514.04
760.743	15614.6
761.08	15838.78
761.417	15961.04
761.754	16114.7
762.091	16380.23
762.428	16389.05
762.765	16606.44
763.102	16798.08
763.438	16918.75
763.775	16980.44
764.112	17256.37
764.449	17529.58
764.785	17652.06
765.122	17640.99
765.458	17784.94
765.795	18059.06
766.131	18185.84
766.467	18190.13
766.804	18411.14
767.14	18469.22
767.476	18697.91
767.812	18719.61
768.148	18966.83
768.485	19005.25
768.821	19009.32
769.157	19166.83
769.492	19452.24
769.828	19439.14
770.164	19425.12
770.5	19525.24
770.836	19733.37
771.171	19752.12
771.507	19891.55
771.842	19897.65
772.178	20055.62
772.513	20123.41
772.849	20169.51
773.184	20254.71
773.519	20357.76
773.855	20374.48
774.19	20507.58
774.525	20468.26
774.86	20585.09
775.195	20582.83
775.53	20633.68
775.865	20570.86
776.2	20566.34
776.535	20503.29
776.87	20616.05
777.205	20672.1
777.539	20727.92
777.874	20814.24
778.209	20706.45
778.543	20707.58
778.878	20748.71
779.212	20806.56
779.547	20821.92
779.881	20933.33
780.215	20799.33
780.55	20954.8
780.884	20814.69
781.218	20955.71
781.552	20932.2
781.886	20730.63
782.22	20865.09
782.554	20929.94
782.888	20742.15
783.222	20675.04
783.556	20684.98
783.889	20734.69
784.223	20545.55
784.557	20588.48
784.89	20680.69
785.224	20579.67
785.557	20529.28
785.891	20583.06
786.224	20535.6
786.558	20602.27
786.891	20404.99
787.224	20409.28
787.557	20439.34
787.891	20453.8
788.224	20457.19
788.557	20366.57
788.89	20344.42
789.223	20390.07
789.556	20261.49
789.888	20155.05
790.221	20203.64
790.554	20100.14
790.887	19976.07
791.219	19975.39
791.552	20089.74
791.884	19955.05
792.217	19856.53
792.549	19893.14
792.882	19820.59
793.214	19813.82
793.546	19809.07
793.879	19652.24
794.211	19573.37
794.543	19719.13
794.875	19643.2
795.207	19715.74
795.539	19628.06
795.871	19618.11
796.203	19447.72
796.535	19358.01
796.867	19376.09
797.198	19252.93
797.53	19259.03
797.862	19142.19
798.193	19289.99
798.525	19001.63
798.856	19137.22
799.188	18954.85
799.519	18858.81
799.85	18796.89
800.182	18862.2
800.513	18802.54
800.844	18675.31
801.175	18891.58
801.506	18735.43
801.837	18679.83
802.168	18629.21
802.499	18558.25
802.83	18539.95
803.161	18402.55
803.491	18544.24
803.822	18506.5
804.153	18321.65
804.483	18315.1
804.814	18188.55
805.145	18137.25
805.475	18089.57
805.805	18120.53
806.136	18084.14
806.466	18064.93
806.796	18153.29
807.126	17928.22
807.457	17981.55
807.787	17875.56
808.117	17777.26
808.447	17859.06
808.777	17824.49
809.107	17779.97
809.436	17683.93
809.766	17653.42
810.096	17606.19
810.426	17582.69
810.755	17522.8
811.085	17522.35
811.414	17504.27
811.744	17451.39
812.073	17321
812.403	17375.91
812.732	17232.64
813.061	17402.35
813.39	17208.01
813.719	17169.14
814.049	17281.23
814.378	17166.65
814.707	17092.76
815.036	17101.34
815.365	17088.01
815.693	16907.68
816.022	16847.11
816.351	16900.45
816.68	16784.97
817.008	16847.79
817.337	16671.98
817.665	16632.43
817.994	16766.21
818.322	16678.3
818.651	16667.91
818.979	16543.84
819.307	16573.45
819.636	16589.49
819.964	16488.25
820.292	16483.28
820.62	16513.34
820.948	16436.05
821.276	16496.39
821.604	16466.33
821.932	16443.96
822.259	16421.36
822.587	16532.09
822.915	16366.45
823.243	16519.21
823.57	16442.6
823.898	16478.99
824.225	16410.74
824.553	16295.04
824.88	16442.83
825.207	16498.42
825.535	16464.3
825.862	16515.6
826.189	16407.35
826.516	16371.65
826.843	16501.13
827.17	16347.24
827.497	16556.27
827.824	16456.39
828.151	16502.94
828.478	16470.17
828.805	16447.12
829.131	16517.4
829.458	16391.08
829.785	16369.61
830.111	16454.13
830.438	16503.85
830.764	16513.56
831.09	16506.33
831.417	16421.36
831.743	16505.65
832.069	16457.97
832.395	16297.07
832.722	16446.9
833.048	16328.26
833.374	16452.77
833.7	16325.55
834.026	16319.67
834.351	16348.6
834.677	16289.16
835.003	16299.33
835.329	16296.85
835.654	16306.34
835.98	16233.12
836.306	16301.14
836.631	16144.31
836.956	16252.1
837.282	16126.68
837.607	16128.71
837.932	16142.27
838.258	16045.55
838.583	16103.4
838.908	15919
839.233	16055.27
839.558	15930.08
839.883	15944.09
840.208	15873.58
840.533	15900.92
840.858	15898.66
841.182	15817.08
841.507	15827.71
841.832	15767.14
842.156	15729.85
842.481	15700.25
842.805	15697.31
843.13	15588.62
843.454	15644.66
843.778	15593.59
844.103	15528.73
844.427	15502.97
844.751	15462.52
845.075	15437.89
845.399	15470.65
845.723	15314.5
846.047	15365.57
846.371	15181.85
846.695	15239.25
847.019	15140.27
847.343	15022.98
847.666	14924.23
847.99	14930.55
848.313	14845.36
848.637	14773.5
848.96	14768.52
849.284	14781.63
849.607	14629.77
849.931	14625.03
850.254	14546.84
850.577	14390.23
850.9	14360.17
851.223	14331.25
851.546	14235.88
851.869	14180.97
852.192	14279.5
852.515	14088.54
852.838	14087.19
853.161	14009.22
853.483	13982.56
853.806	13921.77
854.129	13872.05
854.451	13880.64
854.774	13844.25
855.096	13704.15
855.419	13639.51
855.741	13670.47
856.063	13589.57
856.385	13442.01
856.708	13499.4
857.03	13414.66
857.352	13411.5
857.674	13474.55
857.996	13367.43
858.318	13296.02
858.64	13339.18
858.961	13294.89
859.283	13189.13
859.605	13167.66
859.926	13142.13
860.248	13151.84
860.57	13067.1
860.891	13065.52
861.212	13016.03
861.534	12985.75
861.855	12899.42
862.176	12960.89
862.498	12888.57
862.819	12956.82
863.14	12845.18
863.461	12863.94
863.782	12695.58
864.103	12797.05
864.424	12729.48
864.745	12772.19
865.065	12713.66
865.386	12592.99
865.707	12588.02
866.027	12696.04
866.348	12624.17
866.668	12554.57
866.989	12593.21
867.309	12518.87
867.63	12477.28
867.95	12489.94
868.27	12375.14
868.59	12500.56
868.91	12400
869.23	12451.75
869.55	12362.26
869.87	12405.2
870.19	12410.62
870.51	12371.52
870.83	12373.56
871.15	12273
871.469	12254.47
871.789	12359.77
872.109	12305.54
872.428	12148.03
872.748	12183.06
873.067	12219.89
873.386	12153.9
873.706	12193.68
874.025	11998.2
874.344	12074.81
874.663	12081.14
874.982	12081.36
875.301	12078.43
875.62	12019.44
875.939	12043.17
876.258	12056.51
876.577	11911.65
876.896	11978.77
877.214	11890.86
877.533	11933.12
877.852	11884.98
878.17	11926.34
878.489	11877.75
878.807	11878.88
879.125	11816.74
879.444	11905.55
879.762	11777.42
880.08	11712.56
880.398	11682.5
880.716	11783.52
881.034	11661.94
881.352	11653.13
881.67	11607.48
881.988	11593.47
882.306	11579.46
882.624	11521.83
882.941	11512.34
883.259	11482.51
883.577	11404.77
883.894	11493.36
884.212	11424.21
884.529	11354.15
884.846	11360.93
885.164	11341.5
885.481	11302.63
885.798	11261.95
886.115	11232.12
886.432	11200.03
886.75	11192.35
887.067	11268.28
887.383	11204.55
887.7	11137.21
888.017	11088.17
888.334	11136.08
888.651	11074.38
888.967	10965.46
889.284	10999.13
889.6	10958.68
889.917	10941.51
890.233	10896.31
890.55	10920.04
890.866	10831.9
891.182	10720.72
891.498	10765.01
891.815	10722.08
892.131	10712.59
892.447	10675.52
892.763	10593.27
893.079	10535.87
893.395	10592.81
893.71	10472.14
894.026	10564.34
894.342	10458.13
894.657	10478.02
894.973	10394.18
895.289	10352.6
895.604	10306.27
895.92	10231.02
896.235	10241.64
896.55	10176.55
896.865	10236.21
897.181	10162.32
897.496	10143.79
897.811	10137.46
898.126	10126.16
898.441	10031.93
898.756	10017.46
899.071	9957.8
899.386	9901.31
899.7	9843.46
900.015	9805.49
900.33	9775.21
900.644	9754.87
900.959	9753.06
901.273	9629.22
901.588	9675.78
901.902	9605.95
902.216	9556.23
902.531	9551.94
902.845	9528.89
903.159	9427.87
903.473	9434.43
903.787	9385.84
904.101	9322.57
904.415	9318.95
904.729	9260.19
905.042	9204.38
905.356	9217.26
905.67	9218.61
905.984	9215.45
906.297	9152.4
906.611	9085.06
906.924	9024.04
907.237	9089.13
907.551	9012.29
907.864	9003.25
908.177	8932.75
908.491	8894.33
908.804	8840.77
909.117	8802.81
909.43	8785.86
909.743	8733.65
910.056	8665.63
910.368	8638.06
910.681	8670.38
910.994	8576.14
911.307	8562.81
911.619	8467.22
911.932	8518.52
912.244	8428.8
912.557	8459.99
912.869	8346.77
913.181	8313.33
913.494	8339.54
913.806	8238.3
914.118	8255.7
914.43	8177.51
914.742	8196.49
915.054	8177.06
915.366	8158.98
915.678	8143.39
915.99	8018.19
916.302	7956.05
916.613	7923.51
916.925	7980.68
917.236	7871.98
917.548	7866.56
917.859	7943.84
918.171	7811.64
918.482	7786.79
918.794	7742.95
919.105	7707.24
919.416	7620.24
919.727	7678.99
920.038	7656.17
920.349	7539.56
920.66	7503.63
920.971	7570.3
921.282	7527.36
921.593	7498.43
921.903	7435.38
922.214	7419.56
922.525	7370.07
922.835	7394.48
923.146	7318.78
923.456	7300.02
923.767	7207.59
924.077	7250.08
924.387	7178.22
924.697	7167.14
925.008	7084.43
925.318	7097.54
925.628	7099.35
925.938	7052.57
926.248	6985
926.558	6913.59
926.867	6971.22
927.177	6937.54
927.487	6888.96
927.796	6823.87
928.106	6825.23
928.416	6813.25
928.725	6832.69
929.034	6774.84
929.344	6774.16
929.653	6774.84
929.962	6710.88
930.271	6649.42
930.581	6644.67
930.89	6613.71
931.199	6520.83
931.508	6499.14
931.817	6514.05
932.125	6495.52
932.434	6459.59
932.743	6464.79
933.051	6365.58
933.36	6387.73
933.669	6323.55
933.977	6327.62
934.286	6342.76
934.594	6267.05
934.902	6237
935.21	6230.22
935.519	6190.44
935.827	6177.79
936.135	6166.04
936.443	6075.87
936.751	6021.41
937.059	6003.56
937.367	6070
937.674	6030.22
937.982	6020.05
938.29	5981.41
938.597	5962.65
938.905	5891.47
939.213	5852.83
939.52	5889.66
939.827	5885.37
940.135	5823.67
940.442	5789.1
940.749	5771.7
941.056	5759.72
941.363	5731.93
941.67	5716.33
941.977	5661.87
942.284	5616.45
942.591	5613.96
942.898	5557.47
943.205	5570.8
943.511	5549.78
943.818	5520.63
944.125	5462.55
944.431	5482.21
944.738	5451.93
945.044	5401.54
945.35	5404.48
945.657	5386.4
945.963	5338.49
946.269	5290.58
946.575	5329
946.881	5266.63
947.187	5270.24
947.493	5219.62
947.799	5232.28
948.105	5207.87
948.41	5132.85
948.716	5154.54
949.022	5171.26
949.327	5103.92
949.633	5098.27
949.938	5104.6
950.244	5036.35
950.549	4984.15
950.854	4948.44
951.16	4957.03
951.465	4955
951.77	4935.56
952.075	4905.28
952.38	4845.62
952.685	4858.05
952.99	4843.81
953.294	4821.67
953.599	4805.4
953.904	4708.68
954.209	4767.43
954.513	4761.56
954.818	4704.61
955.122	4704.61
955.426	4640.88
955.731	4614.67
956.035	4682.46
956.339	4619.86
956.643	4594.1
956.948	4573.31
957.252	4567.44
957.556	4502.35
957.86	4526.76
958.163	4501.45
958.467	4520.43
958.771	4466.2
959.075	4435.69
959.378	4422.36
959.682	4418.97
959.985	4404.5
960.289	4349.14
960.592	4331.28
960.896	4283.83
961.199	4291.96
961.502	4272.53
961.805	4244.96
962.108	4233.21
962.411	4228.24
962.714	4166.32
963.017	4199.54
963.32	4143.94
963.623	4162.48
963.926	4130.61
964.228	4109.37
964.531	4126.54
964.833	4118.86
965.136	4049.71
965.438	4109.82
965.741	4006.1
966.043	4030.28
966.345	3996.15
966.648	3953.44
966.95	3962.48
967.252	3918.19
967.554	3903.73
967.856	3894.91
968.158	3895.14
968.46	3878.87
968.761	3899.66
969.063	3800.68
969.365	3809.72
969.666	3820.34
969.968	3788.7
970.269	3768.81
970.571	3764.29
970.872	3725.88
971.174	3692.88
971.475	3744.18
971.776	3684.07
972.077	3679.55
972.378	3692.43
972.679	3658.31
972.98	3669.83
973.281	3618.31
973.582	3607.69
973.883	3624.64
974.183	3568.37
974.484	3554.58
974.785	3534.02
975.085	3507.35
975.386	3517.52
975.686	3508.26
975.986	3503.74
976.287	3468.26
976.587	3401.37
976.887	3439.33
977.187	3397.07
977.487	3368.15
977.787	3361.82
978.087	3361.14
978.387	3344.42
978.687	3361.14
978.987	3315.94
979.286	3343.74
979.586	3296.96
979.885	3259.22
980.185	3254.7
980.484	3241.6
980.784	3243.18
981.083	3227.36
981.382	3203.4
981.682	3184.65
981.981	3190.52
982.28	3186
982.579	3182.84
982.878	3119.11
983.177	3123.41
983.475	3103.52
983.774	3072.33
984.073	3052.9
984.372	3083.18
984.67	3053.35
984.969	3057.42
985.267	3006.8
985.566	3024.2
985.864	3005.44
986.162	2976.74
986.461	2967.48
986.759	2917.54
987.057	2928.61
987.355	2912.79
987.653	2896.52
987.951	2886.58
988.249	2895.16
988.547	2879.8
988.844	2839.12
989.142	2855.17
989.44	2839.35
989.737	2828.73
990.035	2763.19
990.332	2792.57
990.63	2793.25
990.927	2794.6
991.224	2753.92
991.521	2714.6
991.819	2732.68
992.116	2722.51
992.413	2697.43
992.71	2703.08
993.006	2669.63
993.303	2681.38
993.6	2672.8
993.897	2644.1
994.193	2666.02
994.49	2624.66
994.787	2616.98
995.083	2581.27
995.379	2560.48
995.676	2554.83
995.972	2525
996.268	2528.39
996.565	2520.48
996.861	2488.85
997.157	2477.1
997.453	2452.69
997.749	2468.06
998.044	2477.32
998.34	2461.5
998.636	2458.11
998.932	2411.79
999.227	2421.5
999.523	2409.98
999.818	2376.31
1000.114	2364.78
1000.409	2344.22
1000.704	2339.92
1001	2341.96
1001.295	2339.47
1001.59	2336.08
1001.885	2299.7
1002.18	2287.27
1002.475	2264.67
1002.77	2241.85
1003.065	2263.09
1003.359	2259.93
1003.654	2220.83
1003.949	2190.78
1004.243	2201.17
1004.538	2205.92
1004.832	2193.26
1005.127	2173.6
1005.421	2129.76
1005.715	2118.69
1006.009	2145.35
1006.304	2136.31
1006.598	2095.64
1006.892	2079.37
1007.186	2082.53
1007.48	2068.52
1007.773	2064
1008.067	2039.14
1008.361	2016.54
1008.655	2036.43
1008.948	1992.81
1009.242	2006.83
1009.535	1975.41
1009.829	1951.46
1010.122	1959.14
1010.415	1947.62
1010.708	1939.03
1011.001	1913.27
1011.295	1923.89
1011.588	1930.44
1011.881	1908.52
1012.173	1850.9
1012.466	1860.61
1012.759	1862.87
1013.052	1854.51
1013.344	1845.02
1013.637	1845.02
1013.93	1828.3
1014.222	1810.67
1014.514	1772.26
1014.807	1768.64
1015.099	1735.19
1015.391	1778.81
1015.683	1702.88
1015.976	1738.81
1016.268	1720.96
1016.56	1693.84
1016.851	1721.41
1017.143	1688.42
1017.435	1663.11
1017.727	1666.27
1018.018	1654.29
1018.31	1671.69
1018.602	1636.89
1018.893	1640.96
1019.185	1610
1019.476	1596.89
1019.767	1592.15
1020.058	1571.81
1020.35	1593.28
1020.641	1559.38
1020.932	1560.28
1021.223	1547.63
1021.514	1539.95
1021.804	1539.27
1022.095	1516.67
1022.386	1518.25
1022.677	1486.16
1022.967	1492.49
1023.258	1480.51
1023.548	1468.53
1023.839	1458.59
1024.129	1458.59
1024.419	1436.67
1024.709	1438.71
1025	1418.82
1025.29	1409.55
1025.58	1429.44
1025.87	1398.25
1026.16	1403.9
1026.449	1366.16
1026.739	1354.19
1027.029	1363
1027.319	1334.53
1027.608	1326.17
1027.898	1332.49
1028.187	1352.15
1028.477	1320.97
1028.766	1304.47
1029.055	1325.04
1029.344	1274.87
1029.634	1273.96
1029.923	1276.9
1030.212	1247.52
1030.501	1242.78
1030.79	1240.97
1031.078	1244.81
1031.367	1265.15
1031.656	1212.27
1031.945	1203.01
1032.233	1203.46
1032.522	1207.52
1032.81	1179.28
1033.099	1186.28
1033.387	1153.29
1033.675	1171.59
1033.963	1149
1034.251	1170.46
1034.54	1153.51
1034.828	1113.52
1035.116	1109.22
1035.403	1103.35
1035.691	1061.77
1035.979	1136.11
1036.267	1118.49
1036.554	1105.38
1036.842	1100.63
1037.129	1085.49
1037.417	1074.42
1037.704	1066.96
1037.992	1062.44
1038.279	1041.2
1038.566	1046.63
1038.853	1046.63
1039.14	1046.63
