Data from hue_170_FLMS001491_00002.txt Node
Date: Tue Feb 07 16:48:09 GMT 2017
User: dcchb
Spectrometer: FLMS00149
Trigger mode: 0
Integration Time (sec): 2.000000E-2
Scans to average: 10
Electric dark correction enabled: true
Nonlinearity correction enabled: false
Boxcar width: 0
XAxis mode: Wavelengths
Number of Pixels in Spectrum: 2048
>>>>>Begin Spectral Data<<<<<
341.393	-1.17
341.776	-1.17
342.16	-1.17
342.543	-81.4
342.927	-70.32
343.31	-78.91
343.693	-83.88
344.077	-59.48
344.46	-72.13
344.843	-49.08
345.226	-26.48
345.61	-23.77
345.993	-15.64
346.376	-14.28
346.759	23.69
347.142	14.87
347.525	48.54
347.908	42.89
348.291	68.88
348.674	110.69
349.057	114.08
349.44	149.33
349.823	142.33
350.206	165.83
350.588	186.39
350.971	197.24
351.354	232.72
351.737	228.65
352.119	232.95
352.502	264.81
352.884	280.18
353.267	281.08
353.65	296
354.032	319.05
354.414	309.1
354.797	314.98
355.179	325.37
355.562	318.82
355.944	336.22
356.326	336.9
356.709	329.21
357.091	348.65
357.473	351.36
357.855	328.99
358.238	351.59
358.62	350.91
359.002	331.25
359.384	333.28
359.766	323.11
360.148	340.06
360.53	346.16
360.912	345.26
361.294	352.94
361.676	354.98
362.057	326.73
362.439	325.82
362.821	317.69
363.203	343.9
363.584	317.24
363.966	331.47
364.348	290.57
364.729	322.89
365.111	334.86
365.493	321.53
365.874	321.76
366.256	300.29
366.637	339.61
367.019	320.4
367.4	319.05
367.781	307.97
368.163	324.69
368.544	323.79
368.925	299.84
369.306	317.24
369.688	308.42
370.069	296.67
370.45	301.87
370.831	307.75
371.212	334.19
371.593	286.05
371.974	305.03
372.355	316.11
372.736	311.81
373.117	307.52
373.498	314.75
373.879	327.41
374.26	308.42
374.641	320.63
375.021	312.72
375.402	301.42
375.783	328.31
376.163	323.11
376.544	329.67
376.925	316.11
377.305	323.11
377.686	317.01
378.066	323.11
378.447	349.78
378.827	340.29
379.208	345.49
379.588	331.25
379.968	340.29
380.349	349.33
380.729	338.48
381.109	322.21
381.489	340.06
381.87	331.7
382.25	330.57
382.63	328.08
383.01	352.04
383.39	335.99
383.77	349.55
384.15	338.93
384.53	352.04
384.91	338.71
385.29	352.49
385.67	365.6
386.049	343.9
386.429	351.36
386.809	352.94
387.189	355.88
387.568	353.62
387.948	351.59
388.328	358.82
388.707	339.61
389.087	360.63
389.466	366.05
389.846	360.4
390.225	352.94
390.605	376.22
390.984	364.02
391.363	374.64
391.743	334.41
392.122	393.39
392.501	363.34
392.881	373.51
393.26	370.12
393.639	382.32
394.018	371.02
394.397	384.35
394.776	387.97
395.155	388.2
395.534	379.83
395.913	379.61
396.292	407.63
396.671	378.48
397.05	391.81
397.429	394.07
397.808	394.98
398.186	402.66
398.565	402.21
398.944	410.57
399.323	383.22
399.701	401.75
400.08	414.18
400.458	417.57
400.837	409.89
401.215	407.86
401.594	416.9
401.972	421.19
402.351	432.71
402.729	429.1
403.107	432.71
403.486	429.32
403.864	424.81
404.242	428.65
404.62	438.36
404.999	438.82
405.377	457.8
405.755	447.86
406.133	439.49
406.511	469.1
406.889	462.32
407.267	433.62
407.645	447.86
408.023	463.22
408.401	468.19
408.779	479.04
409.156	474.97
409.534	460.51
409.912	471.13
410.29	467.29
410.667	501.64
411.045	488.98
411.422	515.42
411.8	507.74
412.178	514.97
412.555	522.88
412.933	515.65
413.31	538.7
413.687	542.09
414.065	543.67
414.442	542.09
414.819	552.26
415.197	542.77
415.574	572.6
415.951	577.12
416.328	561.75
416.705	556.55
417.082	573.05
417.46	564.01
417.837	604.24
418.214	596.33
418.591	594.29
418.967	617.79
419.344	607.63
419.721	609.89
420.098	610.79
420.475	630.22
420.852	647.4
421.228	628.87
421.605	610.79
421.982	663.67
422.358	647.62
422.735	652.37
423.111	651.01
423.488	689.21
423.864	685.36
424.241	705.02
424.617	710.9
424.994	699.37
425.37	726.72
425.746	721.75
426.123	713.84
426.499	726.04
426.875	732.59
427.251	739.37
427.627	755.19
428.003	773.95
428.379	754.51
428.756	785.93
429.132	791.35
429.507	780.5
429.883	815.3
430.259	815.3
430.635	826.83
431.011	809.43
431.387	836.55
431.763	846.49
432.138	848.3
432.514	862.53
432.89	884
433.265	883.55
433.641	872.7
434.016	916.09
434.392	910.22
434.767	930.33
435.143	941.4
435.518	947.96
435.894	976.43
436.269	957.45
436.644	966.03
437.02	978.01
437.395	1019.82
437.77	1014.39
438.145	1034.05
438.52	1039.48
438.895	1032.47
439.271	1047.61
439.646	1068.86
440.021	1084.9
440.395	1087.39
440.77	1071.34
441.145	1114.96
441.52	1125.35
441.895	1122.87
442.27	1146.59
442.645	1163.32
443.019	1161.28
443.394	1171.45
443.769	1186.59
444.143	1184.11
444.518	1214.61
444.892	1196.31
445.267	1221.39
445.641	1232.47
446.016	1224.78
446.39	1249.64
446.764	1267.04
447.139	1250.09
447.513	1247.83
447.887	1279.92
448.262	1290.77
448.636	1295.29
449.01	1323.54
449.384	1324.89
449.758	1325.12
450.132	1346.36
450.506	1375.29
450.88	1353.59
451.254	1346.81
451.628	1403.76
452.002	1397.66
452.376	1386.81
452.75	1421.16
453.123	1429.75
453.497	1470.88
453.871	1478.56
454.244	1500.94
454.618	1496.64
454.992	1553.59
455.365	1524.44
455.739	1565.57
456.112	1578
456.486	1585.45
456.859	1588.16
457.232	1632.23
457.606	1644.43
457.979	1664.55
458.352	1711.78
458.725	1722.62
459.099	1733.25
459.472	1757.65
459.845	1805.11
460.218	1808.5
460.591	1790.87
460.964	1812.11
461.337	1879.68
461.71	1895.5
462.083	1928.95
462.456	1911.55
462.829	1947.03
463.201	1995.39
463.574	1997.19
463.947	2062.95
464.32	2071.32
464.692	2078.55
465.065	2105.66
465.438	2162.61
465.81	2181.37
466.183	2220.92
466.555	2246.68
466.928	2315.38
467.3	2287.36
467.672	2340.91
468.045	2393.79
468.417	2428.14
468.789	2420.46
469.161	2490.97
469.534	2537.97
469.906	2610.74
470.278	2613.9
470.65	2657.29
471.022	2737.96
471.394	2802.14
471.766	2809.15
472.138	2840.79
472.51	2920.11
472.882	2955.36
473.253	3098.86
473.625	3092.76
473.997	3167.56
474.369	3192.64
474.74	3258.18
475.112	3328.46
475.484	3394.22
475.855	3448.23
476.227	3516.93
476.598	3666.53
476.97	3706.07
477.341	3791.04
477.713	3836.69
478.084	3909.46
478.455	4061.77
478.827	4101.09
479.198	4221.99
479.569	4288.88
479.94	4457.24
480.311	4552.38
480.682	4658.37
481.053	4791.02
481.424	4884.8
481.795	4952.14
482.166	5038.24
482.537	5132.25
482.908	5279.82
483.279	5342.64
483.65	5525.24
484.021	5655.18
484.391	5736.76
484.762	5846.81
485.133	5932.23
485.503	6068.72
485.874	6238.21
486.244	6358.21
486.615	6495.15
486.985	6615.83
487.356	6760.23
487.726	6896.73
488.097	7070.05
488.467	7140.56
488.837	7278.18
489.207	7434.11
489.578	7596.37
489.948	7714.11
490.318	7865.51
490.688	7971.95
491.058	8108.22
491.428	8270.7
491.798	8340.3
492.168	8658.49
492.538	8633.85
492.908	8782.33
493.278	8982.77
493.648	8973.51
494.017	9134.18
494.387	9233.39
494.757	9372.14
495.126	9529.42
495.496	9574.62
495.866	9726.03
496.235	9840.15
496.605	9934.39
496.974	10030.43
497.344	10183.87
497.713	10217.77
498.082	10361.04
498.452	10445.11
498.821	10624.31
499.19	10608.04
499.559	10776.4
499.928	10818.2
500.298	10892.55
500.667	11043.51
501.036	11085.77
501.405	11211.19
501.774	11213.45
502.143	11302.49
502.512	11333.67
502.88	11527.79
503.249	11423.16
503.618	11580.67
503.987	11695.47
504.356	11773.89
504.724	11763.26
505.093	11830.83
505.462	11938.4
505.83	11927.78
506.199	12010.26
506.567	12176.81
506.936	12210.03
507.304	12338.84
507.672	12330.93
508.041	12451.16
508.409	12515.11
508.777	12578.16
509.145	12734.54
509.514	12673.52
509.882	12654.09
510.25	12699.06
510.618	12824.03
510.986	12834.2
511.354	12916.68
511.722	12961.65
512.09	13045.49
512.458	13080.74
512.826	13065.38
513.193	13197.12
513.561	13144.47
513.929	13308.08
514.297	13320.74
514.664	13422.2
515.032	13473.28
515.4	13478.02
515.767	13490.68
516.135	13563.22
516.502	13360.96
516.869	13624.01
517.237	13614.51
517.604	13559.6
517.972	13606.38
518.339	13789.65
518.706	13682.76
519.073	13748.52
519.44	13773.38
519.808	13887.28
520.175	13777.9
520.542	13921.4
520.909	13898.12
521.276	13847.05
521.643	13990.1
522.009	13998.23
522.376	14061.73
522.743	14009.76
523.11	14127.27
523.477	14235.06
523.843	14164.78
524.21	14309.19
524.577	14283.88
524.943	14373.37
525.31	14342.86
525.676	14440.48
526.043	14463.76
526.409	14475.28
526.776	14613.58
527.142	14527.26
527.508	14584.43
527.874	14551.67
528.241	14615.17
528.607	14540.37
528.973	14675.73
529.339	14572.23
529.705	14525.23
530.071	14713.47
530.437	14679.8
530.803	14613.58
531.169	14682.74
531.535	14529.97
531.901	14557.77
532.267	14519.58
532.632	14508.05
532.998	14548.5
533.364	14624.43
533.73	14535.39
534.095	14605.22
534.461	14613.81
534.826	14510.31
535.192	14537.2
535.557	14559.35
535.923	14487.26
536.288	14489.29
536.653	14426.92
537.019	14369.07
537.384	14339.02
537.749	14348.73
538.114	14277.77
538.479	14169.08
538.845	14157.1
539.21	14197.1
539.575	14170.21
539.94	14115.97
540.305	14110.77
540.67	14065.8
541.034	14065.8
541.399	13979.7
541.764	14092.02
542.129	13946.48
542.494	13886.37
542.858	13916.65
543.223	13945.13
543.587	13851.12
543.952	13783.1
544.316	13724.34
544.681	13683.21
545.045	13727.28
545.41	13737.22
545.774	13673.27
546.138	13559.38
546.503	13545.36
546.867	13458.59
547.231	13438.02
547.595	13441.64
547.959	13481.64
548.324	13431.92
548.688	13304.47
549.052	13236.22
549.416	13234.41
549.779	13159.39
550.143	13205.94
550.507	13177.69
550.871	13194.64
551.235	13097.47
551.599	13054.53
551.962	13041.2
552.326	12934.08
552.689	12945.38
553.053	12960.29
553.417	12893.4
553.78	12935.21
554.143	12904.25
554.507	12899.28
554.87	12790.58
555.234	12897.02
555.597	12737.48
555.96	12724.14
556.323	12736.57
556.686	12741.09
557.05	12714.2
557.413	12733.18
557.776	12727.76
558.139	12682.11
558.502	12665.16
558.865	12685.73
559.228	12726.85
559.59	12725.72
559.953	12690.02
560.316	12750.58
560.679	12680.53
561.041	12665.39
561.404	12638.27
561.767	12732.96
562.129	12603.92
562.492	12722.79
562.854	12697.48
563.217	12656.8
563.579	12643.69
563.941	12687.53
564.304	12579.06
564.666	12699.74
565.028	12672.17
565.39	12663.35
565.753	12758.27
566.115	12683.47
566.477	12736.12
566.839	12663.13
567.201	12724.59
567.563	12686.63
567.925	12772.28
568.287	12781.32
568.648	12745.39
569.01	12765.05
569.372	12787.19
569.734	12757.59
570.095	12829
570.457	12795.1
570.819	12877.59
571.18	12844.82
571.542	12842.56
571.903	12826.29
572.265	12862.44
572.626	12834.42
572.987	12942.44
573.349	12883.46
573.71	12897.47
574.071	12919.84
574.432	12916.68
574.794	12964.36
575.155	12992.16
575.516	12912.84
575.877	12985.15
576.238	12924.59
576.599	12972.27
576.96	13008.88
577.32	13012.5
577.681	12980.86
578.042	13075.55
578.403	13007.75
578.763	12927.3
579.124	12955.55
579.485	13035.1
579.845	12984.25
580.206	13066.73
580.566	12928.88
580.927	12954.19
581.287	13028.09
581.648	12921.88
582.008	13035.1
582.368	12979.28
582.728	12912.16
583.089	12923.91
583.449	12927.3
583.809	12906.74
584.169	12909.22
584.529	12844.14
584.889	12858.15
585.249	12717.59
585.609	12870.58
585.969	12895.66
586.329	12804.82
586.688	12851.37
587.048	12787.64
587.408	12727.98
587.768	12822.67
588.127	12777.93
588.487	12700.64
588.846	12817.93
589.206	12807.98
589.565	12784.03
589.925	12791.94
590.284	12712.39
590.643	12794.88
591.003	12812.28
591.362	12715.56
591.721	12808.21
592.08	12716.69
592.44	12712.84
592.799	12727.98
593.158	12688.89
593.517	12629.91
593.876	12718.72
594.235	12590.36
594.593	12520.53
594.952	12648.66
595.311	12505.84
595.67	12646.63
596.029	12715.33
596.387	12731.15
596.746	12705.39
597.104	12683.69
597.463	12615.9
597.822	12642.11
598.18	12604.15
598.538	12588.55
598.897	12657.25
599.255	12538.84
599.613	12703.13
599.972	12590.59
600.33	12643.69
600.688	12587.42
601.046	12593.75
601.404	12660.64
601.762	12592.85
602.12	12619.29
602.478	12682.11
602.836	12681.21
603.194	12553.75
603.552	12592.17
603.91	12591.94
604.268	12565.28
604.625	12560.08
604.983	12510.82
605.341	12530.7
605.698	12613.41
606.056	12541.55
606.413	12579.74
606.771	12677.82
607.128	12547.2
607.485	12612.73
607.843	12563.02
608.2	12561.44
608.557	12702
608.914	12539.29
609.272	12746.06
609.629	12693.41
609.986	12721.66
610.343	12674.2
610.7	12735.67
611.057	12740.41
611.414	12694.77
611.771	12674.65
612.127	12768.21
612.484	12716.91
612.841	12758.72
613.198	12684.14
613.554	12660.87
613.911	12742.67
614.267	12822.9
614.624	12734.76
614.98	12734.76
615.337	12823.58
615.693	12818.15
616.05	12759.17
616.406	12837.81
616.762	12760.07
617.118	12883.01
617.475	12781.54
617.831	12883.46
618.187	12854.76
618.543	12944.02
618.899	12932.27
619.255	12898.83
619.611	12907.19
619.967	12964.36
620.323	12952.39
620.678	12844.82
621.034	12870.58
621.39	12936.57
621.746	12812.5
622.101	13008.88
622.457	12974.31
622.812	12867.19
623.168	13051.59
623.523	13001.42
623.879	13031.03
624.234	12846.85
624.589	12864.48
624.945	12882.33
625.3	12943.12
625.655	12961.42
626.01	12945.38
626.365	12895.21
626.72	12911.26
627.075	12917.36
627.43	12923.23
627.785	12859.73
628.14	12854.99
628.495	12895.89
628.85	12910.58
629.205	12788.32
629.559	12854.08
629.914	12793.75
630.269	12786.29
630.623	12804.14
630.978	12732.05
631.332	12851.6
631.687	12840.07
632.041	12783.8
632.396	12691.15
632.75	12710.58
633.104	12734.09
633.459	12704.93
633.813	12653.86
634.167	12660.87
634.521	12697.93
634.875	12660.87
635.229	12589.46
635.583	12556.46
635.937	12624.71
636.291	12599.17
636.645	12541.32
636.999	12634.88
637.352	12624.48
637.706	12492.96
638.06	12612.73
638.413	12533.64
638.767	12484.83
639.121	12486.18
639.474	12426.07
639.828	12466.75
640.181	12431.27
640.534	12402.12
640.888	12374.32
641.241	12384.49
641.594	12355.56
641.947	12413.64
642.301	12416.13
642.654	12356.02
643.007	12345.4
643.36	12320.99
643.713	12370.71
644.066	12342.01
644.419	12246.19
644.771	12290.03
645.124	12095.91
645.477	12108.57
645.83	12070.15
646.182	11953.54
646.535	11959.42
646.888	11949.47
647.24	11880.32
647.593	11978.85
647.945	11897.72
648.298	11885.75
648.65	11824.96
649.002	11831.74
649.355	11876.26
649.707	11905.63
650.059	11901.57
650.411	12128.9
650.763	12033.99
651.115	12210.48
651.467	12199.18
651.819	12216.81
652.171	12206.42
652.523	12137.27
652.875	12180.2
653.227	12086.65
653.578	12192.86
653.93	12151.05
654.282	12129.36
654.633	12139.75
654.985	12172.29
655.337	12190.37
655.688	12228.56
656.039	12217.04
656.391	12069.92
656.742	12176.81
657.094	12178.17
657.445	12252.06
657.796	12158.06
658.147	12174.55
658.498	12228.34
658.849	12207.77
659.2	12177.04
659.551	12227.21
659.902	12247.77
660.253	12162.8
660.604	12222.46
660.955	12175.91
661.306	12297.94
661.656	12191.05
662.007	12220.43
662.358	12233.08
662.708	12254.55
663.059	12192.63
663.409	12183.82
663.76	12234.66
664.11	12218.62
664.461	12233.08
664.811	12279.41
665.161	12238.28
665.511	12213.65
665.862	12263.59
666.212	12222.24
666.562	12320.99
666.912	12193.31
667.262	12266.08
667.612	12266.98
667.962	12233.99
668.312	12230.82
668.662	12276.25
669.011	12281.67
669.361	12269.69
669.711	12244.83
670.06	12244.38
670.41	12242.57
670.76	12202.35
671.109	12194.89
671.459	12175.91
671.808	12192.86
672.157	12241.9
672.507	12115.35
672.856	12212.74
673.205	12192.18
673.554	12214.33
673.904	12131.39
674.253	12183.37
674.602	12168
674.951	11934.56
675.3	11983.15
675.649	12070.6
675.998	12066.53
676.346	12060.43
676.695	12059.98
677.044	12076.93
677.393	12031.05
677.741	11998.51
678.09	11996.03
678.438	11933.2
678.787	11977.72
679.135	12008.46
679.484	11888.46
679.832	11885.29
680.181	11880.32
680.529	11843.71
680.877	11889.36
681.225	11775.92
681.573	11863.6
681.922	11803.26
682.27	11819.53
682.618	11755.35
682.966	11718.07
683.314	11723.27
683.661	11683.27
684.009	11556.72
684.357	11627
684.705	11579.77
685.053	11605.08
685.4	11579.31
685.748	11481.24
686.095	11456.15
686.443	11478.07
686.79	11431.75
687.138	11443.72
687.485	11376.61
687.832	11394.23
688.18	11386.78
688.527	11313.56
688.874	11302.71
689.221	11274.24
689.568	11216.61
689.915	11187.69
690.262	11220.23
690.609	11128.93
690.956	11143.17
691.303	11042.61
691.65	10994.02
691.997	10988.6
692.344	10958.77
692.69	10914.92
693.037	10921.48
693.383	10878.77
693.73	10893.46
694.077	10781.6
694.423	10798.54
694.769	10728.94
695.116	10703.63
695.462	10689.85
695.808	10580.02
696.155	10691.43
696.501	10562.62
696.847	10561.49
697.193	10488.04
697.539	10515.61
697.885	10400.81
698.231	10349.52
698.577	10299.12
698.923	10368.95
699.269	10206.02
699.614	10223.42
699.96	10216.86
700.306	10193.14
700.651	10141.39
700.997	10039.02
701.342	10101.16
701.688	10033.37
702.033	9973.25
702.379	9978
702.724	9895.52
703.069	9933.48
703.415	9870.66
703.76	9829.76
704.105	9817.78
704.45	9781.4
704.795	9737.1
705.14	9712.24
705.485	9699.36
705.83	9562.42
706.175	9658.91
706.52	9579.14
706.865	9552.93
707.209	9580.04
707.554	9415.08
707.899	9501.4
708.243	9424.57
708.588	9415.08
708.932	9313.84
709.277	9325.36
709.621	9404.23
709.966	9211.24
710.31	9281.52
710.654	9193.84
710.998	9247.4
711.342	9241.07
711.687	9204.69
712.031	9114.52
712.375	9149.55
712.719	9144.35
713.063	9134.41
713.407	9119.94
713.75	9042.88
714.094	9046.95
714.438	9018.93
714.782	9034.52
715.125	9023.9
715.469	8938.93
715.812	8914.53
716.156	8851.7
716.499	8855.77
716.843	8969.44
717.186	8839.5
717.53	8857.58
717.873	8875.2
718.216	8878.59
718.559	8834.53
718.902	8721.76
719.246	8830.46
719.589	8739.16
719.932	8703.23
720.275	8728.54
720.617	8761.31
720.96	8699.16
721.303	8703.23
721.646	8713.63
721.989	8694.64
722.331	8720.86
722.674	8635.21
723.016	8688.09
723.359	8602.9
723.701	8609
724.044	8617.58
724.386	8552.28
724.729	8540.3
725.071	8540.3
725.413	8609.22
725.755	8584.82
726.097	8552.5
726.439	8554.53
726.782	8497.59
727.124	8561.09
727.465	8530.35
727.807	8558.15
728.149	8484.71
728.491	8536.68
728.833	8545.27
729.175	8462.33
729.516	8514.54
729.858	8494.2
730.199	8501.2
730.541	8504.82
730.882	8488.32
731.224	8522.22
731.565	8476.57
731.906	8557.02
732.248	8533.97
732.589	8488.32
732.93	8448.55
733.271	8466.4
733.612	8526.74
733.953	8513.63
734.294	8505.5
734.635	8426.4
734.976	8499.85
735.317	8521.77
735.658	8468.89
735.999	8542.56
736.339	8510.69
736.68	8497.59
737.021	8493.29
737.361	8448.55
737.702	8491.49
738.042	8572.61
738.383	8511.37
738.723	8521.99
739.063	8537.81
739.404	8546.17
739.744	8593.63
740.084	8605.83
740.424	8597.7
740.764	8565.38
741.104	8619.84
741.444	8618.94
741.784	8534.2
742.124	8688.09
742.464	8645.83
742.804	8674.08
743.143	8719.28
743.483	8752.5
743.823	8761.99
744.162	8752.04
744.502	8764.02
744.841	8826.62
745.181	8911.14
745.52	8863.23
745.86	8931.7
746.199	8942.32
746.538	9037.91
746.877	9098.93
747.216	9049.89
747.556	9105.48
747.895	9189.32
748.234	9212.6
748.573	9302.31
748.911	9295.53
749.25	9421.63
749.589	9425.7
749.928	9580.04
750.267	9714.28
750.605	9726.71
750.944	9781.4
751.283	9825.01
751.621	9925.35
751.96	10019.81
752.298	10129.41
752.636	10187.26
752.975	10290.99
753.313	10307.26
753.651	10498.66
753.989	10575.27
754.327	10664.08
754.666	10795.61
755.004	10968.03
755.342	11061.36
755.679	11170.29
756.017	11323.73
756.355	11558.98
756.693	11649.14
757.031	11878.52
757.368	11874.67
757.706	12171.16
758.044	12198.05
758.381	12435.11
758.719	12527.54
759.056	12778.6
759.394	12928.66
759.731	13037.13
760.068	13286.61
760.405	13383.56
760.743	13399.15
761.08	13744.68
761.417	13753.27
761.754	14043.66
762.091	14177.66
762.428	14393.25
762.765	14489.07
763.102	14705.56
763.438	14835.73
763.775	14951.88
764.112	15160.01
764.449	15407.69
764.785	15516.16
765.122	15681.35
765.458	15770.84
765.795	16030.72
766.131	16271.85
766.467	16266.42
766.804	16442.01
767.14	16616.7
767.476	16792.74
767.812	16854.43
768.148	17019.17
768.485	17110.24
768.821	17134.42
769.157	17294.87
769.492	17491.93
769.828	17643.79
770.164	17686.95
770.5	17830.9
770.836	17994.51
771.171	18017.56
771.507	18052.14
771.842	18095.08
772.178	18264.11
772.513	18324.67
772.849	18455.29
773.184	18602.18
773.519	18620.71
773.855	18676.3
774.19	18721.27
774.525	18840.14
774.86	18814.6
775.195	18925.34
775.53	18978.67
775.865	18941.61
776.2	19036.07
776.535	18936.41
776.87	19117.87
777.205	19165.56
777.539	19086.69
777.874	19272.22
778.209	19219.79
778.543	19255.27
778.878	19224.99
779.212	19364.19
779.547	19272.9
779.881	19391.99
780.215	19286.23
780.55	19429.96
780.884	19344.99
781.218	19356.74
781.552	19434.25
781.886	19423.4
782.22	19457.53
782.554	19395.38
782.888	19305.89
783.222	19342.27
783.556	19288.94
783.889	19294.59
784.223	19178.21
784.557	19151.32
784.89	19274.71
785.224	19295.5
785.557	19272.67
785.891	19207.59
786.224	19175.72
786.558	19213.69
786.891	19083.3
787.224	19062.73
787.557	19102.51
787.891	18991.32
788.224	19109.06
788.557	19103.64
788.89	19079.46
789.223	19024.77
789.556	19006.92
789.888	18986.58
790.221	18924.66
790.554	18820.25
790.887	18799.24
791.219	18810.31
791.552	18805.79
791.884	18646.47
792.217	18729.41
792.549	18699.35
792.882	18630.2
793.214	18585.91
793.546	18529.19
793.879	18484.67
794.211	18375.52
794.543	18453.26
794.875	18466.82
795.207	18464.33
795.539	18431.79
795.871	18374.84
796.203	18209.65
796.535	18180.5
796.867	18188.41
797.198	18104.57
797.53	18130.33
797.862	18031.12
798.193	18114.06
798.525	18027.51
798.856	17978.24
799.188	17905.02
799.519	17718.81
799.85	17749.32
800.182	17742.77
800.513	17761.52
800.844	17584.35
801.175	17691.24
801.506	17679.27
801.837	17604.47
802.168	17612.83
802.499	17452.83
802.83	17400.86
803.161	17430.23
803.491	17381.42
803.822	17393.85
804.153	17264.81
804.483	17153.63
804.814	17178.71
805.145	17216.68
805.475	17261.42
805.805	17072.73
806.136	17081.99
806.466	17115.67
806.796	17102.78
807.126	16831.83
807.457	16837.03
807.787	16808.78
808.117	16820.76
808.447	16774.21
808.777	16846.97
809.107	16670.93
809.436	16699.41
809.766	16609.24
810.096	16574.21
810.426	16575.34
810.755	16572.63
811.085	16483.82
811.414	16516.13
811.744	16327.21
812.073	16341.22
812.403	16414.22
812.732	16189.14
813.061	16328.34
813.39	16204.73
813.719	16166.09
814.049	16213.54
814.378	16177.39
814.707	16112.75
815.036	16016.03
815.365	16049.93
815.693	15942.14
816.022	15979.42
816.351	15912.53
816.68	15824.4
817.008	15915.47
817.337	15710.73
817.665	15725.87
817.994	15775.81
818.322	15750.96
818.651	15650.62
818.979	15603.16
819.307	15794.12
819.636	15597.97
819.964	15592.09
820.292	15621.92
820.62	15628.7
820.948	15661.47
821.276	15638.87
821.604	15531.98
821.932	15622.15
822.259	15619.89
822.587	15501.92
822.915	15539.21
823.243	15490.17
823.57	15563.84
823.898	15502.15
824.225	15530.17
824.553	15511.19
824.88	15567.91
825.207	15520.45
825.535	15511.41
825.862	15433.9
826.189	15476.16
826.516	15568.14
826.843	15604.75
827.17	15506.67
827.497	15591.86
827.824	15564.75
828.151	15622.82
828.478	15568.14
828.805	15617.17
829.131	15594.12
829.458	15543.5
829.785	15454.24
830.111	15628.25
830.438	15574.69
830.764	15612.65
831.09	15564.29
831.417	15525.2
831.743	15560
832.069	15538.76
832.395	15522.49
832.722	15550.96
833.048	15506.22
833.374	15471.19
833.7	15425.31
834.026	15457.18
834.351	15481.36
834.677	15429.38
835.003	15439.33
835.329	15484.75
835.654	15427.57
835.98	15247.92
836.306	15323.17
836.631	15299.22
836.956	15221.93
837.282	15316.84
837.607	15213.57
837.932	15159.11
838.258	15229.16
838.583	15104.42
838.908	15124.76
839.233	15189.39
839.558	15061.71
839.883	15060.35
840.208	14986.68
840.533	15014.03
840.858	15007.92
841.182	15012.67
841.507	14959.34
841.832	14901.26
842.156	14978.77
842.481	14927.7
842.805	14850.19
843.13	14809.29
843.454	14806.57
843.778	14771.55
844.103	14769.51
844.427	14687.93
844.751	14685.45
845.075	14606.58
845.399	14549.18
845.723	14558.44
846.047	14578.56
846.371	14342.63
846.695	14355.06
847.019	14304.44
847.343	14250.66
847.666	14196.87
847.99	14059.25
848.313	14050.89
848.637	13993.71
848.96	13975.18
849.284	14007.27
849.607	13904.22
849.931	13889.76
850.254	13732.48
850.577	13729.77
850.9	13541.75
851.223	13539.94
851.546	13562.31
851.869	13344.01
852.192	13526.16
852.515	13340.17
852.838	13250.23
853.161	13284.58
853.483	13271.47
853.806	13171.59
854.129	13094.08
854.451	13086.39
854.774	13001.65
855.096	13028.99
855.419	12973.63
855.741	12914.65
856.063	12849.79
856.385	12865.38
856.708	12806.85
857.03	12743.58
857.352	12820.41
857.674	12666.29
857.996	12674.88
858.318	12584.03
858.64	12552.62
858.961	12554.88
859.283	12394.89
859.605	12475.34
859.926	12549.01
860.248	12438.27
860.57	12411.38
860.891	12385.17
861.212	12331.61
861.534	12242.12
861.855	12187.21
862.176	12280.76
862.498	12254.32
862.819	12252.06
863.14	12112.41
863.461	12120.09
863.782	12138.17
864.103	12144.27
864.424	12097.94
864.745	12129.81
865.065	12008.23
865.386	11998.29
865.707	11998.06
866.027	12011.62
866.348	11838.97
866.668	11948.12
866.989	11926.42
867.309	11802.13
867.63	11875.13
867.95	11908.12
868.27	11792.64
868.59	11753.55
868.91	11785.41
869.23	11748.12
869.55	11669.26
869.87	11752.64
870.19	11692.98
870.51	11747.9
870.83	11746.99
871.15	11679.88
871.469	11623.61
871.789	11705.64
872.109	11599.2
872.428	11601.23
872.748	11570.05
873.067	11567.79
873.386	11471.07
873.706	11478.75
874.025	11504.51
874.344	11406.89
874.663	11510.39
874.982	11414.12
875.301	11474.91
875.62	11362.82
875.939	11349.49
876.258	11334.57
876.577	11266.33
876.896	11330.96
877.214	11252.09
877.533	11197.86
877.852	11241.02
878.17	11235.82
878.489	11200.12
878.807	11199.44
879.125	11108.14
879.444	11217.52
879.762	11121.93
880.08	11189.04
880.398	11095.71
880.716	11080.34
881.034	11082.6
881.352	11131.87
881.67	10984.98
881.988	11021.14
882.306	10970.29
882.624	10856.4
882.941	10895.49
883.259	10911.99
883.577	10831.54
883.894	10862.04
884.212	10824.76
884.529	10789.96
884.846	10727.36
885.164	10742.73
885.481	10698.43
885.798	10757.19
886.115	10594.26
886.432	10705.89
886.75	10578.89
887.067	10673.12
887.383	10531.43
887.7	10602.16
888.017	10550.87
888.334	10473.35
888.651	10506.8
888.967	10423.64
889.284	10434.26
889.6	10409.85
889.917	10298.44
890.233	10285.34
890.55	10292.12
890.866	10278.11
891.182	10196.75
891.498	10163.31
891.815	10158.33
892.131	10125.12
892.447	10125.57
892.763	10092.8
893.079	10022.07
893.395	9956.98
893.71	10007.15
894.026	9936.19
894.342	9945.01
894.657	9848.06
894.973	9788.4
895.289	9799.7
895.604	9863.65
895.92	9745.46
896.235	9655.52
896.55	9672.7
896.865	9697.78
897.181	9596.77
897.496	9585.47
897.811	9603.77
898.126	9570.33
898.441	9499.82
898.756	9452.36
899.071	9382.08
899.386	9444
899.7	9356.55
900.015	9356.1
900.33	9244.46
900.644	9189.55
900.959	9245.36
901.273	9172.82
901.588	9188.87
901.902	9113.39
902.216	9031.36
902.531	9071.13
902.845	9029.32
903.159	8964.69
903.473	8992.49
903.787	8949.1
904.101	8892.83
904.415	8849.89
904.729	8818.71
905.042	8719.95
905.356	8707.3
905.67	8731.48
905.984	8654.87
906.297	8655.78
906.611	8611.26
906.924	8629.56
907.237	8488.1
907.551	8540.98
907.864	8502.33
908.177	8505.72
908.491	8442
908.804	8387.08
909.117	8326.52
909.43	8324.94
909.743	8304.37
910.056	8288.33
910.368	8228.44
910.681	8166.75
910.994	8152.96
911.307	8173.53
911.619	8099.86
911.932	8069.58
912.244	7954.78
912.557	7978.5
912.869	7912.07
913.181	7979.86
913.494	7864.61
913.806	7827.55
914.118	7812.18
914.43	7805.18
914.742	7780.77
915.054	7732.18
915.366	7655.8
915.678	7670.72
915.99	7697.16
916.302	7519.76
916.613	7522.92
916.925	7544.39
917.236	7474.34
917.548	7477.5
917.859	7427.78
918.171	7350.05
918.482	7330.39
918.794	7318.41
919.105	7343.49
919.416	7349.59
919.727	7236.15
920.038	7206.77
920.349	7145.53
920.66	7146.44
920.971	7174.91
921.282	7081.58
921.593	7051.75
921.903	7001.36
922.214	7022.37
922.525	7014.69
922.835	6978.53
923.146	6861.7
923.456	6904.63
923.767	6905.99
924.077	6828.48
924.387	6837.97
924.697	6749.61
925.008	6761.36
925.318	6698.31
925.628	6707.13
925.938	6678.43
926.248	6654.92
926.558	6581.93
926.867	6562.27
927.177	6593
927.487	6568.6
927.796	6462.39
928.106	6522.5
928.416	6481.37
928.725	6426.91
929.034	6383.52
929.344	6403.41
929.653	6396.4
929.962	6320.47
930.271	6301.49
930.581	6326.34
930.89	6210.19
931.199	6176.74
931.508	6232.56
931.817	6198.89
932.125	6159.8
932.434	6144.88
932.743	6064.66
933.051	6077.54
933.36	6076.18
933.669	6028.27
933.977	5978.56
934.286	6001.83
934.594	5935.17
934.902	5868.73
935.21	5878.67
935.519	5866.7
935.827	5888.84
936.135	5856.3
936.443	5849.97
936.751	5735.63
937.059	5732.01
937.367	5692.92
937.674	5710.99
937.982	5709.19
938.29	5663.31
938.597	5671.67
938.905	5580.6
939.213	5562.75
939.52	5572.24
939.827	5539.7
940.135	5531.11
940.442	5491.11
940.749	5475.97
941.056	5461.73
941.363	5436.65
941.67	5425.8
941.977	5362.75
942.284	5288.63
942.591	5334.28
942.898	5313.49
943.205	5263.55
943.511	5258.12
943.818	5260.38
944.125	5224.9
944.431	5153.49
944.738	5176.54
945.044	5130.44
945.35	5117.56
945.657	5112.37
945.963	5043.21
946.269	5007.74
946.575	4995.76
946.881	4982.88
947.187	4963.22
947.493	4971.58
947.799	4941.52
948.105	4936.55
948.41	4894.29
948.716	4874.41
949.022	4850.68
949.327	4828.98
949.633	4802.54
949.938	4770.68
950.244	4800.51
950.549	4768.87
950.854	4751.25
951.16	4687.52
951.465	4719.61
951.77	4682.32
952.075	4642.77
952.38	4591.02
952.685	4621.76
952.99	4585.6
953.294	4572.94
953.599	4518.03
953.904	4541.08
954.209	4495.88
954.513	4456.56
954.818	4455.43
955.122	4487.07
955.426	4438.94
955.731	4411.59
956.035	4387.41
956.339	4430.12
956.643	4346.96
956.948	4334.31
957.252	4300.64
957.556	4319.39
957.86	4262.44
958.163	4278.26
958.467	4264.48
958.771	4250.69
959.075	4250.02
959.378	4160.75
959.682	4153.29
959.985	4183.35
960.289	4175.89
960.592	4120.75
960.896	4115.78
961.199	4076.23
961.502	4055.22
961.805	4028.55
962.108	4026.52
962.411	3994.43
962.714	4015.9
963.017	3979.29
963.32	3927.99
963.623	3962.11
963.926	3921.89
964.228	3910.82
964.531	3924.83
964.833	3888.44
965.136	3831.95
965.438	3890.02
965.741	3812.06
966.043	3807.09
966.345	3836.01
966.648	3762.8
966.95	3769.12
967.252	3729.58
967.554	3734.77
967.856	3741.55
968.158	3689.8
968.46	3669.92
968.761	3664.95
969.063	3619.07
969.365	3639.64
969.666	3639.41
969.968	3597.6
970.269	3588.56
970.571	3562.35
970.872	3553.31
971.174	3514.67
971.475	3520.32
971.776	3531.39
972.077	3515.8
972.378	3476.93
972.679	3449.36
972.98	3437.38
973.281	3430.38
973.582	3387.89
973.883	3394.44
974.183	3349.93
974.484	3406.42
974.785	3395.12
975.085	3338.85
975.386	3361
975.686	3361
975.986	3309.25
976.287	3316.71
976.587	3290.49
976.887	3243.71
977.187	3263.37
977.487	3209.82
977.787	3199.65
978.087	3190.83
978.387	3172.98
978.687	3174.34
978.987	3142.47
979.286	3129.59
979.586	3120.55
979.885	3107.22
980.185	3111.29
980.484	3061.57
980.784	3105.41
981.083	3048.01
981.382	3045.53
981.682	3057.73
981.981	3020.67
982.28	3001.23
982.579	2996.26
982.878	2984.29
983.177	2972.53
983.475	2949.03
983.774	2930.5
984.073	2975.92
984.372	2882.82
984.67	2877.4
984.969	2906.32
985.267	2842.82
985.566	2870.39
985.864	2827
986.162	2825.65
986.461	2816.15
986.759	2788.36
987.057	2769.38
987.355	2775.03
987.653	2745.2
987.951	2743.16
988.249	2730.51
988.547	2731.41
988.844	2702.26
989.142	2729.83
989.44	2671.75
989.737	2650.51
990.035	2650.96
990.332	2660.23
990.63	2641.47
990.927	2652.32
991.224	2625.65
991.521	2603.28
991.819	2580
992.116	2595.82
992.413	2568.25
992.71	2550.85
993.006	2534.13
993.303	2551.98
993.6	2530.29
993.897	2524.64
994.193	2541.59
994.49	2495.26
994.787	2480.12
995.083	2498.2
995.379	2470.63
995.676	2399.67
995.972	2446.9
996.268	2417.75
996.565	2436.28
996.861	2391.99
997.157	2408.48
997.453	2351.99
997.749	2385.66
998.044	2358.09
998.34	2356.05
998.636	2359.67
998.932	2299.33
999.227	2288.49
999.523	2289.39
999.818	2284.19
1000.114	2244.19
1000.409	2222.27
1000.704	2231.76
1001	2209.39
1001.295	2198.09
1001.59	2195.15
1001.885	2210.29
1002.18	2164.42
1002.475	2157.42
1002.77	2172.1
1003.065	2120.58
1003.359	2106.34
1003.654	2141.14
1003.949	2083.74
1004.243	2095.27
1004.538	2069.28
1004.832	2079.45
1005.127	2077.87
1005.421	2039.23
1005.715	2000.13
1006.009	2023.63
1006.304	2006.01
1006.598	2013.01
1006.892	1998.32
1007.186	1978.21
1007.48	1975.95
1007.773	1979.79
1008.067	1962.39
1008.361	1904.09
1008.655	1923.3
1008.948	1907.03
1009.242	1883.52
1009.535	1890.53
1009.829	1871.55
1010.122	1875.39
1010.415	1875.39
1010.708	1841.94
1011.001	1842.17
1011.295	1837.88
1011.588	1828.38
1011.881	1786.35
1012.173	1828.84
1012.466	1786.58
1012.759	1784.09
1013.052	1750.65
1013.344	1721.49
1013.637	1755.62
1013.93	1725.11
1014.222	1697.99
1014.514	1693.47
1014.807	1720.59
1015.099	1662.29
1015.391	1698.67
1015.683	1657.54
1015.976	1664.77
1016.268	1656.64
1016.56	1628.39
1016.851	1628.62
1017.143	1619.58
1017.435	1595.62
1017.727	1608.05
1018.018	1623.87
1018.31	1592.01
1018.602	1588.62
1018.893	1535.96
1019.185	1541.61
1019.476	1566.47
1019.767	1532.57
1020.058	1503.65
1020.35	1534.15
1020.641	1510.88
1020.932	1476.75
1021.223	1486.92
1021.514	1470.65
1021.804	1460.03
1022.095	1458.68
1022.386	1448.73
1022.677	1416.87
1022.967	1431.56
1023.258	1426.36
1023.548	1412.35
1023.839	1406.25
1024.129	1376.87
1024.419	1394.5
1024.709	1371.67
1025	1325.57
1025.29	1357.44
1025.58	1343.43
1025.87	1314.73
1026.16	1347.94
1026.449	1323.31
1026.739	1307.27
1027.029	1327.83
1027.319	1291.45
1027.608	1291
1027.898	1265.91
1028.187	1268.62
1028.477	1274.73
1028.766	1260.72
1029.055	1248.96
1029.344	1240.15
1029.634	1244.9
1029.923	1207.16
1030.212	1219.36
1030.501	1194.73
1030.79	1175.75
1031.078	1181.62
1031.367	1192.92
1031.656	1166.03
1031.945	1140.49
1032.233	1175.52
1032.522	1134.39
1032.81	1149.08
1033.099	1127.39
1033.387	1106.6
1033.675	1127.39
1033.963	1116.31
1034.251	1064.79
1034.54	1076.77
1034.828	1072.47
1035.116	1079.93
1035.403	1059.14
1035.691	1057.33
1035.979	1085.13
1036.267	1047.39
1036.554	1044.9
1036.842	1033.15
1037.129	1021.63
1037.417	1036.09
1037.704	1020.04
1037.992	1000.84
1038.279	1011
1038.566	966.94
1038.853	966.94
1039.14	966.94
