Data from hue_260_FLMS001491_00023.txt Node
Date: Tue Feb 07 15:58:46 GMT 2017
User: dcchb
Spectrometer: FLMS00149
Trigger mode: 0
Integration Time (sec): 2.000000E-2
Scans to average: 10
Electric dark correction enabled: true
Nonlinearity correction enabled: false
Boxcar width: 0
XAxis mode: Wavelengths
Number of Pixels in Spectrum: 2048
>>>>>Begin Spectral Data<<<<<
341.393	-35.71
341.776	-35.71
342.16	-35.71
342.543	-65.76
342.927	-44.74
343.31	-58.53
343.693	-80.22
344.077	-60.56
344.46	-53.11
344.843	-58.3
345.226	-47.23
345.61	-22.15
345.993	-18.08
346.376	-12.66
346.759	-6.1
347.142	33.22
347.525	40.68
347.908	62.82
348.291	63.73
348.674	93.33
349.057	123.16
349.44	148.47
349.823	153.22
350.206	146.66
350.588	180.56
350.971	217.62
351.354	214.46
351.737	217.62
352.119	229.6
352.502	285.19
352.884	274.34
353.267	282.7
353.65	293.55
354.032	300.78
354.414	294.68
354.797	295.81
355.179	310.73
355.562	322.93
355.944	311.4
356.326	313.89
356.709	320.22
357.091	339.2
357.473	317.51
357.855	349.14
358.238	350.05
358.62	328.13
359.002	343.49
359.384	326.09
359.766	328.13
360.148	333.1
360.53	349.6
360.912	336.94
361.294	322.93
361.676	332.42
362.057	318.41
362.439	327
362.821	308.92
363.203	327.67
363.584	324.06
363.966	320.67
364.348	301.24
364.729	322.25
365.111	314.12
365.493	308.47
365.874	314.57
366.256	311.86
366.637	313.21
367.019	306.66
367.4	304.85
367.781	303.27
368.163	299.2
368.544	299.65
368.925	297.39
369.306	322.93
369.688	298.98
370.069	299.65
370.45	312.31
370.831	313.21
371.212	312.76
371.593	298.98
371.974	314.79
372.355	301.46
372.736	296.72
373.117	310.95
373.498	302.59
373.879	315.02
374.26	321.35
374.641	312.76
375.021	327
375.402	299.43
375.783	309.37
376.163	324.96
376.544	306.66
376.925	311.18
377.305	326.32
377.686	318.86
378.066	323.38
378.447	309.14
378.827	318.41
379.208	315.25
379.588	338.97
379.968	333.32
380.349	315.25
380.729	320.9
381.109	330.84
381.489	344.62
381.87	346.43
382.25	347.34
382.63	337.17
383.01	346.43
383.39	340.1
383.77	329.26
384.15	359.99
384.53	339.65
384.91	340.33
385.29	343.95
385.67	344.85
386.049	352.99
386.429	344.85
386.809	367
387.189	360.67
387.568	352.08
387.948	356.15
388.328	366.54
388.707	369.26
389.087	377.84
389.466	363.61
389.846	352.99
390.225	385.75
390.605	362.7
390.984	373.1
391.363	354.79
391.743	361.57
392.122	387.56
392.501	355.7
392.881	363.38
393.26	380.78
393.639	386.2
394.018	378.07
394.397	375.58
394.776	391.4
395.155	381.01
395.534	379.2
395.913	383.27
396.292	392.31
396.671	392.76
397.05	386.88
397.429	386.43
397.808	368.13
398.186	387.79
398.565	406.99
398.944	398.18
399.323	405.64
399.701	427.33
400.08	400.67
400.458	416.26
400.837	430.72
401.215	429.82
401.594	415.81
401.972	413.32
402.351	423.72
402.729	435.02
403.107	425.53
403.486	447.67
403.864	457.39
404.242	430.72
404.62	432.53
404.999	445.64
405.377	461
405.755	456.03
406.133	447.67
406.511	460.55
406.889	476.15
407.267	466.2
407.645	446.77
408.023	471.4
408.401	488.35
408.779	492.42
409.156	491.51
409.534	467.11
409.912	510.27
410.29	503.26
410.667	505.52
411.045	520.44
411.422	548.23
411.8	510.72
412.178	540.32
412.555	562.47
412.933	557.5
413.31	571.74
413.687	569.02
414.065	571.28
414.442	596.82
414.819	582.58
415.197	600.44
415.574	593.43
415.951	613.09
416.328	623.94
416.705	602.47
417.082	649.93
417.46	652.41
417.837	649.93
418.214	652.86
418.591	663.94
418.967	669.36
419.344	654.67
419.721	667.78
420.098	675.46
420.475	688.8
420.852	698.96
421.228	700.32
421.605	722.92
421.982	739.19
422.358	728.79
422.735	759.08
423.111	752.97
423.488	789.81
423.864	795.23
424.241	825.52
424.617	842.46
424.994	832.52
425.37	835.01
425.746	836.59
426.123	865.97
426.499	840.43
426.875	857.15
427.251	879.07
427.627	894.89
428.003	919.98
428.379	920.88
428.756	926.3
429.132	932.4
429.507	947.77
429.883	947.55
430.259	981.22
430.635	983.48
431.011	978.96
431.387	1006.3
431.763	1014.21
432.138	1029.13
432.514	1026.64
432.89	1057.83
433.265	1075.9
433.641	1067.09
434.016	1112.29
434.392	1138.5
434.767	1176.47
435.143	1173.53
435.518	1157.48
435.894	1198.39
436.269	1214.88
436.644	1239.97
437.02	1234.09
437.395	1266.63
437.77	1289.23
438.145	1289.91
438.52	1287.2
438.895	1325.16
439.271	1339.4
439.646	1373.3
440.021	1404.26
440.395	1364.03
440.77	1382.56
441.145	1432.05
441.52	1451.04
441.895	1451.04
442.27	1461.88
442.645	1468.66
443.019	1496.91
443.394	1514.76
443.769	1495.55
444.143	1524.25
444.518	1563.12
444.892	1522.45
445.267	1579.62
445.641	1561.77
446.016	1578.26
446.39	1563.57
446.764	1574.42
447.139	1583.91
447.513	1637.25
447.887	1631.37
448.262	1614.42
448.636	1662.56
449.01	1674.31
449.384	1685.61
449.758	1680.18
450.132	1700.52
450.506	1706.62
450.88	1736.9
451.254	1726.73
451.628	1757.24
452.002	1768.32
452.376	1776.9
452.75	1773.51
453.123	1808.99
453.497	1842.89
453.871	1846.73
454.244	1921.98
454.618	1884.47
454.992	1899.16
455.365	1915.66
455.739	1957.01
456.112	2006.27
456.486	2011.47
456.859	2002.66
457.232	2048.76
457.606	2045.82
457.979	2078.14
458.352	2099.38
458.725	2117.68
459.099	2107.74
459.472	2152.26
459.845	2179.83
460.218	2219.83
460.591	2213.28
460.964	2223.22
461.337	2282.88
461.71	2338.02
462.083	2357.45
462.456	2363.33
462.829	2352.48
463.201	2388.64
463.574	2398.13
463.947	2442.65
464.32	2476.77
464.692	2472.7
465.065	2528.3
465.438	2542.31
465.81	2575.75
466.183	2561.74
466.555	2615.07
466.928	2664.79
467.3	2642.42
467.672	2701.4
468.045	2747.72
468.417	2761.51
468.789	2752.02
469.161	2832.92
469.534	2811
469.906	2905.23
470.278	2924.67
470.65	2971.67
471.022	2972.58
471.394	3051.67
471.766	3044.89
472.138	3107.49
472.51	3135.28
472.882	3185.9
473.253	3217.32
473.625	3276.3
473.997	3300.25
474.369	3312.46
474.74	3375.73
475.112	3439.01
475.484	3466.8
475.855	3545.67
476.227	3521.04
476.598	3621.37
476.97	3658.21
477.341	3730.3
477.713	3751.54
478.084	3749.05
478.455	3880.58
478.827	3914.7
479.198	3993.12
479.569	3977.75
479.94	4110.17
480.311	4131.64
480.682	4201.92
481.053	4263.84
481.424	4349.72
481.795	4335.25
482.166	4422.48
482.537	4489.6
482.908	4553.55
483.279	4617.28
483.65	4634.23
484.021	4771.4
484.391	4779.31
484.762	4775.92
485.133	4867.67
485.503	4903.83
485.874	4977.5
486.244	5042.13
486.615	5102.92
486.985	5128.9
487.356	5195.34
487.726	5218.39
488.097	5398.5
488.467	5365.06
488.837	5504.49
489.207	5539.29
489.578	5568.44
489.948	5599.4
490.318	5724.6
490.688	5679.17
491.058	5772.5
491.428	5842.56
491.798	5880.98
492.168	5992.16
492.538	5995.55
492.908	6015.89
493.278	6073.06
493.648	6076
494.017	6148.54
494.387	6234.86
494.757	6307.86
495.126	6344.24
495.496	6294.07
495.866	6370.68
496.235	6385.59
496.605	6495.87
496.974	6501.52
497.344	6557.79
497.713	6631.24
498.082	6684.12
498.452	6672.37
498.821	6684.57
499.19	6710.33
499.559	6691.35
499.928	6736.32
500.298	6738.81
500.667	6783.78
501.036	6813.61
501.405	6893.83
501.774	6886.15
502.143	6941.06
502.512	6918.69
502.88	6965.24
503.249	6989.65
503.618	7035.75
503.987	7061.96
504.356	7122.3
504.724	7062.64
505.093	7147.16
505.462	7136.08
505.83	7169.75
506.199	7247.27
506.567	7308.51
506.936	7229.19
507.304	7330.88
507.672	7302.86
508.041	7405.68
508.409	7386.92
508.777	7499.24
509.145	7494.94
509.514	7434.38
509.882	7520.03
510.25	7539.69
510.618	7547.37
510.986	7544.66
511.354	7567.48
511.722	7636.41
512.09	7685.67
512.458	7611.78
512.826	7641.61
513.193	7738.78
513.561	7668.27
513.929	7743.98
514.297	7749.17
514.664	7813.35
515.032	7800.7
515.4	7863.3
515.767	7886.57
516.135	7859
516.502	7823.07
516.869	7914.14
517.237	7949.85
517.604	7842.05
517.972	7917.08
518.339	8023.74
518.706	7948.27
519.073	8019.45
519.44	8029.85
519.808	8001.6
520.175	8082.05
520.542	8116.85
520.909	8085.89
521.276	8045.21
521.643	8175.15
522.009	8131.54
522.376	8170.63
522.743	8176.06
523.11	8197.07
523.477	8304.19
523.843	8336.96
524.21	8305.32
524.577	8427.35
524.943	8365.88
525.31	8409.27
525.676	8377.18
526.043	8421.25
526.409	8425.77
526.776	8443.62
527.142	8467.35
527.508	8430.74
527.874	8584.63
528.241	8537.85
528.607	8562.71
528.973	8583.05
529.339	8554.13
529.705	8618.08
530.071	8588.7
530.437	8644.97
530.803	8653.33
531.169	8714.8
531.535	8640.45
531.901	8625.31
532.267	8599.77
532.632	8677.51
532.998	8670.96
533.364	8740.56
533.73	8699.88
534.095	8696.04
534.461	8693.78
534.826	8746.89
535.192	8684.52
535.557	8729.71
535.923	8680.9
536.288	8736.04
536.653	8691.75
537.019	8693.78
537.384	8717.06
537.749	8720
538.114	8721.8
538.479	8731.97
538.845	8705.31
539.21	8668.7
539.575	8694.46
539.94	8703.05
540.305	8712.31
540.67	8639.32
541.034	8723.39
541.399	8650.85
541.764	8661.69
542.129	8618.76
542.494	8621.92
542.858	8695.36
543.223	8666.21
543.587	8650.39
543.952	8669.6
544.316	8662.37
544.681	8666.44
545.045	8647.23
545.41	8678.19
545.774	8626.89
546.138	8589.15
546.503	8634.8
546.867	8568.14
547.231	8653.56
547.595	8597.74
547.959	8613.56
548.324	8544.63
548.688	8583.73
549.052	8569.72
549.416	8542.15
549.779	8583.96
550.143	8601.13
550.507	8605.42
550.871	8569.04
551.235	8609.49
551.599	8583.28
551.962	8577.4
552.326	8548.25
552.689	8560.9
553.053	8527.46
553.417	8509.15
553.78	8650.39
554.143	8532.43
554.507	8530.85
554.87	8596.84
555.234	8631.41
555.597	8559.77
555.96	8520.23
556.323	8601.81
556.686	8585.99
557.05	8582.37
557.413	8590.73
557.776	8611.52
558.139	8618.76
558.502	8587.8
558.865	8603.62
559.228	8591.64
559.59	8637.96
559.953	8604.29
560.316	8672.54
560.679	8678.42
561.041	8682.94
561.404	8712.31
561.767	8744.63
562.129	8639.77
562.492	8812.42
562.854	8763.84
563.217	8760
563.579	8764.97
563.941	8816.72
564.304	8834.34
564.666	8846.32
565.028	8856.49
565.39	8863.27
565.753	8915.25
566.115	8943.27
566.477	9016.03
566.839	8982.14
567.201	8994.57
567.563	9046.54
567.925	9006.54
568.287	9037.5
568.648	9037.28
569.01	9114.34
569.372	9108.46
569.734	9137.61
570.095	9145.3
570.457	9194.56
570.819	9220.77
571.18	9190.72
571.542	9222.36
571.903	9228.68
572.265	9292.19
572.626	9296.93
572.987	9291.51
573.349	9339.87
573.71	9321.11
574.071	9321.79
574.432	9363.82
574.794	9464.16
575.155	9396.14
575.516	9350.94
575.877	9500.32
576.238	9478.62
576.599	9523.59
576.96	9555.23
577.32	9489.47
577.681	9590.26
578.042	9585.51
578.403	9604.49
578.763	9618.73
579.124	9585.51
579.485	9675
579.845	9703.47
580.206	9707.09
580.566	9707.77
580.927	9786.86
581.287	9851.27
581.648	9769.91
582.008	9856.92
582.368	9837.48
582.728	9851.27
583.089	9864.83
583.449	9853.53
583.809	9910.25
584.169	9926.74
584.529	9906.63
584.889	10072.28
585.249	9925.61
585.609	9926.74
585.969	10002.45
586.329	9990.47
586.688	10066.18
587.048	10035.44
587.408	10063.46
587.768	10024.82
588.127	10088.32
588.487	10041.54
588.846	10173.97
589.206	10061.2
589.565	10170.35
589.925	10145.72
590.284	10144.59
590.643	10173.29
591.003	10220.07
591.362	10245.38
591.721	10240.86
592.08	10213.52
592.44	10243.57
592.799	10283.8
593.158	10234.99
593.517	10282.89
593.876	10279.28
594.235	10295.1
594.593	10267.98
594.952	10366.73
595.311	10348.88
595.67	10353.85
596.029	10469.33
596.387	10447.41
596.746	10419.16
597.104	10391.59
597.463	10401.99
597.822	10411.25
598.18	10370.57
598.538	10423.91
598.897	10482.21
599.255	10403.79
599.613	10521.08
599.972	10477.24
600.33	10509.1
600.688	10416.45
601.046	10532.83
601.404	10530.8
601.762	10473.4
602.12	10544.81
602.478	10540.29
602.836	10625.48
603.194	10530.8
603.552	10570.12
603.91	10529.44
604.268	10579.16
604.625	10554.52
604.983	10610.79
605.341	10486.73
605.698	10592.04
606.056	10674.3
606.413	10562.21
606.771	10710.23
607.128	10622.77
607.485	10585.94
607.843	10555.65
608.2	10712.94
608.557	10658.48
608.914	10600.85
609.272	10710.68
609.629	10668.19
609.986	10749.32
610.343	10717.91
610.7	10734.86
611.057	10712.94
611.414	10762.2
611.771	10791.35
612.127	10827.29
612.484	10807.63
612.841	10782.09
613.198	10819.38
613.554	10753.16
613.911	10851.01
614.267	10858.92
614.624	10757.46
614.98	10870.67
615.337	10940.05
615.693	10961.97
616.05	10904.35
616.406	11006.04
616.762	10955.19
617.118	10872.48
617.475	10896.21
617.831	10999.71
618.187	10908.64
618.543	10907.51
618.899	11029.99
619.255	10932.14
619.611	10946.15
619.967	11034.29
620.323	11027.28
620.678	11058.92
621.034	10950.9
621.39	10967.17
621.746	10972.59
622.101	11140.27
622.457	11029.54
622.812	10971.24
623.168	10982.08
623.523	10990.22
623.879	11059.37
624.234	11023.89
624.589	11031.12
624.945	11082.42
625.3	11050.1
625.655	10960.84
626.01	10976.43
626.365	11029.31
626.72	10987.28
627.075	10979.15
627.43	10921.97
627.785	10918.81
628.14	10966.72
628.495	10958.58
628.85	10897.57
629.205	10925.81
629.559	10903.67
629.914	10911.8
630.269	10931.69
630.623	10827.74
630.978	10805.59
631.332	10939.83
631.687	10779.83
632.041	10875.42
632.396	10902.09
632.75	10833.61
633.104	10810.11
633.459	10907.06
633.813	10781.86
634.167	10736.44
634.521	10819.83
634.875	10788.42
635.229	10765.59
635.583	10686.95
635.937	10750.23
636.291	10693.96
636.645	10723.33
636.999	10582.55
637.352	10719.94
637.706	10704.13
638.06	10663.22
638.413	10695.31
638.767	10651.02
639.121	10643.34
639.474	10546.62
639.828	10573.96
640.181	10627.29
640.534	10583.22
640.888	10589.33
641.241	10526.28
641.594	10461.87
641.947	10532.15
642.301	10547.52
642.654	10529.67
643.007	10509.33
643.36	10519.95
643.713	10437.92
644.066	10514.3
644.419	10399.05
644.771	10370.35
645.124	10343.46
645.477	10226.85
645.83	10201.54
646.182	10200.64
646.535	10183.01
646.888	10179.62
647.24	10100.07
647.593	10098.94
647.945	10093.07
648.298	10049
648.65	10095.55
649.002	10075.89
649.355	10150.02
649.707	10134.2
650.059	10165.16
650.411	10246.96
650.763	10264.81
651.115	10338.26
651.467	10321.08
651.819	10351.37
652.171	10312.27
652.523	10324.02
652.875	10351.82
653.227	10290.8
653.578	10332.61
653.93	10305.72
654.282	10340.07
654.633	10260.3
654.985	10307.3
655.337	10359.95
655.688	10289.22
656.039	10370.35
656.391	10229.11
656.742	10251.93
657.094	10342.55
657.445	10360.18
657.796	10326.73
658.147	10297.81
658.498	10228.88
658.849	10397.47
659.2	10326.06
659.551	10221.43
659.902	10383.68
660.253	10311.37
660.604	10350.01
660.955	10213.29
661.306	10370.8
661.656	10276.79
662.007	10298.94
662.358	10267.75
662.708	10366.06
663.059	10341.42
663.409	10282.22
663.76	10375.09
664.11	10419.39
664.461	10286.96
664.811	10380.52
665.161	10381.2
665.511	10316.34
665.862	10323.34
666.212	10326.28
666.562	10380.97
666.912	10320.41
667.262	10365.6
667.612	10384.59
667.962	10318.6
668.312	10300.52
668.662	10381.65
669.011	10323.12
669.361	10269.56
669.711	10258.94
670.06	10404.25
670.41	10253.97
670.76	10297.58
671.109	10275.89
671.459	10301.2
671.808	10250.8
672.157	10275.21
672.507	10274.08
672.856	10233.18
673.205	10253.74
673.554	10152.73
673.904	10226.85
674.253	10240.18
674.602	10230.47
674.951	10062.11
675.3	10010.13
675.649	10218.49
675.998	10135.33
676.346	10127.42
676.695	10207.19
677.044	10089.45
677.393	10214.19
677.741	10187.08
678.09	10144.59
678.438	10089.45
678.787	10146.17
679.135	10141.88
679.484	10026.18
679.832	10095.33
680.181	9988.89
680.529	10040.87
680.877	9981.88
681.225	10002.22
681.573	10013.3
681.922	10017.36
682.27	9873.64
682.618	9993.18
682.966	9879.97
683.314	9915.45
683.661	9889.01
684.009	9795.22
684.357	9764.72
684.705	9825.96
685.053	9804.04
685.4	9808.33
685.748	9689.69
686.095	9711.84
686.443	9680.88
686.79	9617.83
687.138	9601.56
687.485	9691.27
687.832	9603.14
688.18	9615.79
688.527	9550.48
688.874	9505.06
689.221	9573.08
689.568	9466.64
689.915	9386.19
690.262	9508.22
690.609	9427.55
690.956	9361.79
691.303	9317.5
691.65	9269.59
691.997	9269.13
692.344	9265.07
692.69	9192.3
693.037	9230.27
693.383	9124.96
693.73	9159.08
694.077	9077.28
694.423	9121.12
694.769	9069.59
695.116	9056.03
695.462	9064.85
695.808	9015.13
696.155	9020.55
696.501	8938.97
696.847	8910.27
697.193	8875.02
697.539	8924.51
697.885	8803.61
698.231	8738.53
698.577	8752.76
698.923	8726.55
699.269	8691.07
699.614	8658.3
699.96	8651.07
700.306	8638.42
700.651	8565.65
700.997	8515.03
701.342	8490.4
701.688	8508.02
702.033	8462.38
702.379	8446.33
702.724	8364.53
703.069	8351.64
703.415	8326.79
703.76	8368.37
704.105	8324.07
704.45	8338.76
704.795	8195.49
705.14	8175.15
705.485	8111.88
705.83	8183.74
706.175	8171.99
706.52	8111.65
706.865	8100.58
707.209	8069.39
707.554	8016.51
707.899	8039.79
708.243	8012.9
708.588	8014.7
708.932	7931.32
709.277	7921.83
709.621	7938.55
709.966	7875.27
710.31	7889.74
710.654	7804.09
710.998	7825.56
711.342	7813.35
711.687	7785.11
712.031	7728.38
712.375	7736.52
712.719	7717.99
713.063	7757.08
713.407	7742.17
713.75	7761.6
714.094	7655.17
714.438	7597.09
714.782	7692.91
715.125	7656.07
715.469	7618.1
715.812	7618.33
716.156	7578.11
716.499	7617.43
716.843	7535.85
717.186	7500.14
717.53	7531.1
717.873	7589.86
718.216	7519.58
718.559	7446.58
718.902	7480.03
719.246	7441.16
719.589	7392.35
719.932	7340.82
720.275	7412.01
720.617	7337.89
720.96	7450.43
721.303	7395.29
721.646	7359.13
721.989	7368.85
722.331	7421.73
722.674	7360.26
723.016	7388.96
723.359	7343.08
723.701	7371.78
724.044	7276.87
724.386	7313.03
724.729	7284.55
725.071	7251.33
725.413	7255.18
725.755	7295.18
726.097	7242.75
726.439	7192.58
726.782	7205.01
727.124	7240.49
727.465	7251.33
727.807	7276.87
728.149	7208.17
728.491	7176.08
728.833	7150.55
729.175	7175.86
729.516	7192.81
729.858	7279.13
730.199	7292.69
730.541	7220.38
730.882	7264.89
731.224	7217.66
731.565	7136.54
731.906	7126.82
732.248	7153.26
732.589	7095.63
732.93	7110.32
733.271	7171.56
733.612	7122.52
733.953	7226.25
734.294	7151.68
734.635	7144.22
734.976	7174.05
735.317	7187.61
735.658	7106.48
735.999	7152.13
736.339	7145.8
736.68	7137.21
737.021	7164.11
737.361	7174.73
737.702	7147.16
738.042	7191.22
738.383	7211.79
738.723	7224.22
739.063	7120.94
739.404	7204.1
739.744	7184.67
740.084	7194.61
740.424	7233.48
740.764	7214.05
741.104	7214.95
741.444	7212.69
741.784	7163.65
742.124	7290.66
742.464	7257.44
742.804	7217.21
743.143	7292.69
743.483	7288.62
743.823	7299.92
744.162	7293.37
744.502	7340.15
744.841	7404.55
745.181	7334.04
745.52	7354.38
745.86	7433.48
746.199	7454.95
746.538	7514.6
746.877	7535.62
747.216	7539.01
747.556	7551.44
747.895	7605.22
748.234	7639.12
748.573	7647.71
748.911	7680.25
749.25	7778.1
749.589	7815.16
749.928	7861.49
750.267	7940.36
750.605	7971.54
750.944	7993.91
751.283	8040.47
751.621	8228.71
751.96	8220.8
752.298	8300.57
752.636	8407.46
752.975	8384.19
753.313	8455.37
753.651	8590.73
753.989	8579.89
754.327	8725.65
754.666	8766.32
755.004	8973.55
755.342	9077.28
755.679	9123.6
756.017	9119.31
756.355	9395.01
756.693	9339.64
757.031	9505.96
757.368	9579.86
757.706	9702.34
758.044	9804.94
758.381	10024.6
758.719	10129.68
759.056	10225.27
759.394	10265.49
759.731	10352.5
760.068	10563.56
760.405	10664.35
760.743	10691.47
761.08	10886.27
761.417	11057.34
761.754	11168.07
762.091	11302.98
762.428	11460.94
762.765	11489.87
763.102	11614.38
763.438	11787.03
763.775	11959.46
764.112	12075.61
764.449	12236.74
764.785	12292.56
765.122	12347.02
765.458	12513.8
765.795	12586.34
766.131	12727.12
766.467	12829.49
766.804	12921.24
767.14	12995.36
767.476	13128.92
767.812	13241.46
768.148	13323.94
768.485	13385.86
768.821	13501.34
769.157	13630.15
769.492	13685.97
769.828	13800.77
770.164	13764.61
770.5	13891.16
770.836	13971.84
771.171	14020.42
771.507	14040.53
771.842	14104.04
772.178	14174.99
772.513	14266.07
772.849	14332.28
773.184	14412.73
773.519	14414.99
773.855	14447.3
774.19	14419.06
774.525	14506.06
774.86	14647.52
775.195	14699.95
775.53	14681.65
775.865	14598.26
776.2	14628.77
776.535	14626.73
776.87	14692.04
777.205	14706.73
777.539	14764.58
777.874	14771.59
778.209	14742.44
778.543	14774.3
778.878	14770.01
779.212	14818.82
779.547	14830.8
779.881	14816.33
780.215	14852.94
780.55	14894.52
780.884	14864.92
781.218	14934.07
781.552	14862.89
781.886	14968.87
782.22	14818.14
782.554	14790.8
782.888	14801.64
783.222	14743.12
783.556	14764.58
783.889	14746.96
784.223	14716.68
784.557	14749.67
784.89	14734.08
785.224	14622.89
785.557	14657.69
785.891	14635.32
786.224	14696.34
786.558	14720.97
786.891	14546.96
787.224	14523.23
787.557	14574.76
787.891	14526.17
788.224	14489.79
788.557	14517.36
788.89	14531.14
789.223	14535.66
789.556	14437.36
789.888	14408.89
790.221	14321.88
790.554	14284.37
790.887	14294.77
791.219	14298.38
791.552	14263.35
791.884	14208.44
792.217	14228.55
792.549	14191.94
792.882	14083.47
793.214	14086.64
793.546	14048.67
793.879	14019.07
794.211	14034.21
794.543	14065.62
794.875	13975
795.207	14019.07
795.539	13948.11
795.871	13982.01
796.203	13913.76
796.535	13798.73
796.867	13828.79
797.198	13822.69
797.53	13758.73
797.862	13640.09
798.193	13771.62
798.525	13649.36
798.856	13706.08
799.188	13574.78
799.519	13532.53
799.85	13456.37
800.182	13517.16
800.513	13467.22
800.844	13382.7
801.175	13433.55
801.506	13365.98
801.837	13369.37
802.168	13322.36
802.499	13234.68
802.83	13221.8
803.161	13162.82
803.491	13250.73
803.822	13189.03
804.153	13105.19
804.483	13029.94
804.814	13030.84
805.145	13045.76
805.475	12991.75
805.805	12910.85
806.136	12979.55
806.466	12925.54
806.796	12830.62
807.126	12848.7
807.457	12733.45
807.787	12815.71
808.117	12758.53
808.447	12745.43
808.777	12757.18
809.107	12736.61
809.436	12681.7
809.766	12651.19
810.096	12576.17
810.426	12570.06
810.755	12610.52
811.085	12481.71
811.414	12462.27
811.744	12427.47
812.073	12406.91
812.403	12395.83
812.732	12348.83
813.061	12343.86
813.39	12321.26
813.719	12326.68
814.049	12347.92
814.378	12313.57
814.707	12214.82
815.036	12184.99
815.365	12135.5
815.693	12066.8
816.022	12085.78
816.351	12081.26
816.68	11987.48
817.008	12121.49
817.337	11990.19
817.665	11925.56
817.994	11982.51
818.322	11963.53
818.651	11831.78
818.979	11827.94
819.307	11923.08
819.636	11838.33
819.964	11824.32
820.292	11862.96
820.62	11921.04
820.948	11786.81
821.276	11897.09
821.604	11783.19
821.932	11815.51
822.259	11766.7
822.587	11839.69
822.915	11717.43
823.243	11775.74
823.57	11712.69
823.898	11762.63
824.225	11769.18
824.553	11669.07
824.88	11715.4
825.207	11793.81
825.535	11749.75
825.862	11733.7
826.189	11768.73
826.516	11820.93
826.843	11797.43
827.17	11756.08
827.497	11711.78
827.824	11770.99
828.151	11790.42
828.478	11781.16
828.805	11778.22
829.131	11781.61
829.458	11703.87
829.785	11767.83
830.111	11694.61
830.438	11815.28
830.764	11829.75
831.09	11795.4
831.417	11734.15
831.743	11778
832.069	11770.76
832.395	11793.81
832.722	11789.29
833.048	11732.8
833.374	11763.53
833.7	11639.24
834.026	11717.21
834.351	11726.7
834.677	11636.08
835.003	11750.43
835.329	11607.38
835.654	11673.14
835.98	11614.16
836.306	11629.3
836.631	11554.05
836.956	11526.48
837.282	11665
837.607	11586.36
837.932	11512.47
838.258	11519.25
838.583	11540.71
838.908	11425.91
839.233	11469.75
839.558	11504.78
839.883	11458.68
840.208	11463.65
840.533	11415.29
840.858	11423.43
841.182	11472.92
841.507	11387.05
841.832	11294.62
842.156	11249.65
842.481	11284.22
842.805	11292.36
843.13	11204
843.454	11214.85
843.778	11193.15
844.103	11123.32
844.427	11146.37
844.751	11204.9
845.075	11078.13
845.399	11021.41
845.723	11001.29
846.047	11003.78
846.371	10959.49
846.695	10896.66
847.019	10894.4
847.343	10879.94
847.666	10756.78
847.99	10685.37
848.313	10706.39
848.637	10602.43
848.96	10615.31
849.284	10585.48
849.607	10560.4
849.931	10543
850.254	10413.29
850.577	10372.38
850.9	10335.32
851.223	10350.24
851.546	10284.7
851.869	10209.9
852.192	10237.02
852.515	10143.24
852.838	10136.91
853.161	10164.03
853.483	10079.28
853.806	10036.57
854.129	9980.3
854.451	9970.81
854.774	9912.73
855.096	9915.45
855.419	9905.28
855.741	9879.29
856.063	9761.1
856.385	9834.54
856.708	9772.4
857.03	9727.2
857.352	9749.8
857.674	9664.83
857.996	9611.27
858.318	9557.94
858.64	9562.69
858.961	9509.58
859.283	9534.44
859.605	9506.19
859.926	9504.16
860.248	9447.66
860.57	9384.84
860.891	9388.23
861.212	9355.91
861.534	9305.97
861.855	9264.84
862.176	9351.39
862.498	9358.4
862.819	9352.97
863.14	9262.81
863.461	9292.64
863.782	9242.47
864.103	9242.24
864.424	9125.86
864.745	9282.02
865.065	9157.5
865.386	9112.75
865.707	9078.18
866.027	9095.81
866.348	9098.97
866.668	9094
866.989	9124.73
867.309	9023.04
867.63	9056.71
867.95	8997.96
868.27	8985.07
868.59	8950.05
868.91	9007.22
869.23	8946.21
869.55	8972.42
869.87	9025.75
870.19	8886.09
870.51	8921.57
870.83	8914.79
871.15	8912.53
871.469	8792.99
871.789	8936.94
872.109	8906.21
872.428	8777.62
872.748	8910.95
873.067	8813.55
873.386	8859.2
873.706	8871.18
874.025	8766.32
874.344	8686.78
874.663	8718.64
874.982	8728.58
875.301	8651.07
875.62	8668.25
875.939	8692.43
876.258	8682.26
876.577	8681.13
876.896	8659.66
877.214	8598.19
877.533	8672.09
877.852	8579.89
878.17	8644.52
878.489	8597.06
878.807	8601.36
879.125	8568.36
879.444	8555.26
879.762	8476.39
880.08	8521.36
880.398	8507.57
880.716	8535.82
881.034	8442.94
881.352	8495.37
881.67	8387.8
881.988	8378.31
882.306	8402.94
882.624	8361.59
882.941	8335.6
883.259	8308.03
883.577	8316.39
883.894	8315.94
884.212	8258.77
884.529	8252.44
884.846	8224.19
885.164	8201.59
885.481	8189.16
885.798	8150.07
886.115	8121.14
886.432	8092.67
886.75	8156.85
887.067	8117.75
887.383	8080.47
887.7	8061.93
888.017	8002.73
888.334	8028.26
888.651	8014.93
888.967	7979.9
889.284	7984.2
889.6	7934.71
889.917	7878.89
890.233	7943.75
890.55	7850.64
890.866	7855.39
891.182	7831.66
891.498	7789.4
891.815	7766.58
892.131	7713.02
892.447	7665.34
892.763	7672.57
893.079	7652.68
893.395	7660.14
893.71	7630.53
894.026	7591.44
894.342	7546.92
894.657	7476.41
894.973	7517.77
895.289	7563.87
895.604	7484.55
895.92	7444.55
896.235	7375.85
896.55	7360.48
896.865	7364.1
897.181	7401.61
897.496	7294.27
897.811	7335.85
898.126	7246.82
898.441	7230.32
898.756	7251.11
899.071	7185.57
899.386	7172.47
899.7	7131.56
900.015	7061.28
900.33	7075.29
900.644	7072.36
900.959	7057.22
901.273	7017.89
901.588	7005.01
901.902	6935.86
902.216	6955.98
902.531	6947.16
902.845	6935.41
903.159	6826.94
903.473	6823.1
903.787	6846.37
904.101	6811.12
904.415	6754.4
904.729	6786.94
905.042	6681.18
905.356	6705.13
905.67	6678.02
905.984	6706.04
906.297	6665.14
906.611	6593.95
906.924	6586.49
907.237	6568.41
907.551	6558.02
907.864	6514.63
908.177	6470.79
908.491	6442.32
908.804	6418.14
909.117	6384.46
909.43	6357.35
909.743	6320.74
910.056	6275.77
910.368	6334.97
910.681	6251.59
910.994	6225.83
911.307	6217.24
911.619	6147.41
911.932	6192.61
912.244	6132.27
912.557	6096.11
912.869	6101.53
913.181	6052.5
913.494	6089.33
913.806	6015.89
914.118	5988.54
914.43	5935.44
914.742	5964.59
915.054	5935.21
915.366	5911.71
915.678	5870.35
915.99	5866.51
916.302	5832.16
916.613	5829.23
916.925	5777.25
917.236	5835.55
917.548	5725.05
917.859	5727.98
918.171	5719.85
918.482	5681.88
918.794	5673.3
919.105	5681.21
919.416	5621.32
919.727	5629.91
920.038	5556.24
920.349	5513.08
920.66	5520.08
920.971	5486.64
921.282	5510.59
921.593	5454.55
921.903	5394.66
922.214	5389.91
922.525	5392.63
922.835	5403.25
923.146	5303.82
923.456	5304.27
923.767	5288.22
924.077	5277.38
924.387	5223.59
924.697	5202.58
925.008	5231.05
925.318	5180.65
925.628	5227.43
925.938	5182.46
926.248	5075.57
926.558	5141.11
926.867	5109.24
927.177	5068.57
927.487	5076.93
927.796	5051.17
928.106	4978.17
928.416	5023.14
928.725	4995.35
929.034	4958.51
929.344	4951.28
929.653	4939.53
929.962	4877.84
930.271	4873.32
930.581	4837.16
930.89	4787.44
931.199	4793.77
931.508	4757.62
931.817	4816.37
932.125	4771.85
932.434	4749.25
932.743	4708.35
933.051	4675.81
933.36	4649.82
933.669	4647.56
933.977	4650.5
934.286	4648.92
934.594	4652.76
934.902	4587
935.21	4550.84
935.519	4541.58
935.827	4499.09
936.135	4460.9
936.443	4468.36
936.751	4470.16
937.059	4480.56
937.367	4448.92
937.674	4455.02
937.982	4375.48
938.29	4373.67
938.597	4417.51
938.905	4330.96
939.213	4327.34
939.52	4332.54
939.827	4287.12
940.135	4262.03
940.442	4241.92
940.749	4265.65
941.056	4244.86
941.363	4142.94
941.67	4153.79
941.977	4160.34
942.284	4143.17
942.591	4101.81
942.898	4129.61
943.205	4103.85
943.511	4038.76
943.818	4110.85
944.125	4015.71
944.431	4018.65
944.738	4010.97
945.044	4013.68
945.35	3973.68
945.657	3923.29
945.963	3915.6
946.269	3923.06
946.575	3913.12
946.881	3906.11
947.187	3843.74
947.493	3831.99
947.799	3839
948.105	3803.74
948.41	3791.76
948.716	3808.71
949.022	3777.3
949.327	3789.28
949.633	3723.29
949.938	3736.4
950.244	3723.52
950.549	3721.71
950.854	3666.8
951.16	3680.58
951.465	3642.39
951.77	3650.75
952.075	3641.71
952.38	3604.43
952.685	3589.06
952.99	3571.88
953.294	3564.43
953.599	3523.52
953.904	3489.4
954.209	3476.29
954.513	3522.39
954.818	3496.63
955.122	3475.16
955.426	3438.1
955.731	3456.41
956.035	3411.21
956.339	3406.92
956.643	3394.94
956.948	3375.5
957.252	3370.98
957.556	3366.69
957.86	3324.21
958.163	3348.84
958.467	3280.14
958.771	3289.86
959.075	3316.52
959.378	3294.6
959.682	3266.13
959.985	3271.55
960.289	3239.69
960.592	3232.23
960.896	3216.19
961.199	3171.22
961.502	3168.73
961.805	3192.01
962.108	3149.52
962.411	3156.53
962.714	3128.28
963.017	3131.22
963.32	3116.75
963.623	3095.96
963.926	3072.24
964.228	3051.45
964.531	3060.94
964.833	3049.86
965.136	3038.34
965.438	3000.15
965.741	2991.33
966.043	2967.61
966.345	2985.46
966.648	2960.15
966.95	2975.06
967.252	2949.53
967.554	2907.72
967.856	2890.09
968.158	2906.36
968.46	2885.12
968.761	2902.52
969.063	2902.97
969.365	2881.73
969.666	2852.58
969.968	2827.95
970.269	2828.63
970.571	2810.1
970.872	2783.88
971.174	2773.49
971.475	2781.17
971.776	2730.32
972.077	2765.8
972.378	2767.16
972.679	2731
972.98	2688.52
973.281	2709.08
973.582	2711.57
973.883	2704.34
974.183	2680.16
974.484	2678.35
974.785	2666.37
975.085	2612.36
975.386	2621.63
975.686	2592.25
975.986	2613.04
976.287	2580.95
976.587	2566.26
976.887	2549.76
977.187	2557.22
977.487	2519.48
977.787	2532.36
978.087	2511.57
978.387	2535.75
978.687	2488.07
978.987	2471.35
979.286	2436.77
979.586	2476.32
979.885	2412.37
980.185	2399.48
980.484	2441.52
980.784	2447.39
981.083	2398.81
981.382	2389.99
981.682	2404
981.981	2374.85
982.28	2355.64
982.579	2358.58
982.878	2352.03
983.177	2361.29
983.475	2319.49
983.774	2315.65
984.073	2302.09
984.372	2301.63
984.67	2280.62
984.969	2234.52
985.267	2270.67
985.566	2243.56
985.864	2270.22
986.162	2227.29
986.461	2239.26
986.759	2219.83
987.057	2195.2
987.355	2188.19
987.653	2190.9
987.951	2197.46
988.249	2145.03
988.547	2166.27
988.844	2128.76
989.142	2108.65
989.44	2099.15
989.737	2141.64
990.035	2111.81
990.332	2119.49
990.63	2104.35
990.927	2085.14
991.224	2071.58
991.521	2104.58
991.819	2053.51
992.116	2034.75
992.413	2043.79
992.71	2038.36
993.006	1989.33
993.303	2051.7
993.6	1994.98
993.897	2007.63
994.193	2017.12
994.49	1970.57
994.787	1949.1
995.083	1962.66
995.379	1948.88
995.676	1975.77
995.972	1924.7
996.268	1893.06
996.565	1910.01
996.861	1891.02
997.157	1869.1
997.453	1899.16
997.749	1853.96
998.044	1856.9
998.34	1859.84
998.636	1849.22
998.932	1830.23
999.227	1776.45
999.523	1814.42
999.818	1799.05
1000.114	1789.78
1000.409	1780.52
1000.704	1768.32
1001	1762.67
1001.295	1747.98
1001.59	1738.94
1001.885	1759.5
1002.18	1733.74
1002.475	1712.05
1002.77	1700.52
1003.065	1722.21
1003.359	1720.86
1003.654	1701.65
1003.949	1689.9
1004.243	1632.95
1004.538	1671.37
1004.832	1650.58
1005.127	1644.93
1005.421	1625.72
1005.715	1639.5
1006.009	1601.31
1006.304	1604.93
1006.598	1596.57
1006.892	1611.26
1007.186	1577.36
1007.48	1575.1
1007.773	1563.35
1008.067	1548.43
1008.361	1553.86
1008.655	1518.83
1008.948	1542.33
1009.242	1545.04
1009.535	1499.4
1009.829	1514.76
1010.122	1507.98
1010.415	1471.83
1010.708	1465.95
1011.001	1481.54
1011.295	1458.49
1011.588	1437.93
1011.881	1430.02
1012.173	1443.8
1012.466	1428.44
1012.759	1442.22
1013.052	1418.72
1013.344	1408.78
1013.637	1409.23
1013.93	1391.83
1014.222	1369.91
1014.514	1399.74
1014.807	1345.5
1015.099	1338.5
1015.391	1358.83
1015.683	1359.29
1015.976	1355.9
1016.268	1331.04
1016.56	1303.02
1016.851	1322
1017.143	1303.02
1017.435	1318.61
1017.727	1321.77
1018.018	1303.02
1018.31	1285.39
1018.602	1269.35
1018.893	1274.54
1019.185	1258.72
1019.476	1232.74
1019.767	1247.65
1020.058	1236.58
1020.35	1202.91
1020.641	1224.83
1020.932	1201.78
1021.223	1189.35
1021.514	1190.25
1021.804	1218.27
1022.095	1167.65
1022.386	1166.3
1022.677	1174.88
1022.967	1153.19
1023.258	1149.8
1023.548	1137.15
1023.839	1140.99
1024.129	1159.52
1024.419	1099.63
1024.709	1099.86
1025	1112.74
1025.29	1089.24
1025.58	1083.36
1025.87	1103.25
1026.16	1104.38
1026.449	1067.99
1026.739	1091.95
1027.029	1068.22
1027.319	1066.19
1027.608	1034.55
1027.898	1037.49
1028.187	1039.75
1028.477	1045.4
1028.766	1033.19
1029.055	1023.7
1029.344	1030.48
1029.634	991.39
1029.923	1009.01
1030.212	984.83
1030.501	998.17
1030.79	993.42
1031.078	978.96
1031.367	948.9
1031.656	937.83
1031.945	951.61
1032.233	955.91
1032.522	929.02
1032.81	949.13
1033.099	951.39
1033.387	946.42
1033.675	948.22
1033.963	908.45
1034.251	910.71
1034.54	896.93
1034.828	923.37
1035.116	879.3
1035.403	898.73
1035.691	894.44
1035.979	874.33
1036.267	877.04
1036.554	865.06
1036.842	859.19
1037.129	878.85
1037.417	843.37
1037.704	866.42
1037.992	839.75
1038.279	826.42
1038.566	823.71
1038.853	823.71
1039.14	823.71
