Data from hue_100_FLMS001491_00066.txt Node
Date: Tue Feb 07 17:03:30 GMT 2017
User: dcchb
Spectrometer: FLMS00149
Trigger mode: 0
Integration Time (sec): 2.000000E-2
Scans to average: 10
Electric dark correction enabled: true
Nonlinearity correction enabled: false
Boxcar width: 0
XAxis mode: Wavelengths
Number of Pixels in Spectrum: 2048
>>>>>Begin Spectral Data<<<<<
341.393	-33.66
341.776	-33.66
342.16	-33.66
342.543	-57.39
342.927	-66.88
343.31	-63.49
343.693	-58.06
344.077	-75.92
344.46	-57.84
344.843	-44.73
345.226	-32.98
345.61	-32.53
345.993	-22.13
346.376	-11.74
346.759	6.57
347.142	14.93
347.525	45.44
347.908	58.32
348.291	79.11
348.674	86.11
349.057	108.94
349.44	125.21
349.823	149.39
350.206	169.95
350.588	197.3
350.971	223.96
351.354	223.96
351.737	256.73
352.119	255.15
352.502	264.41
352.884	279.55
353.267	286.79
353.65	295.15
354.032	305.99
354.414	292.44
354.797	329.95
355.179	328.37
355.562	330.85
355.944	339.67
356.326	364.98
356.709	334.02
357.091	329.05
357.473	340.34
357.855	326.33
358.238	358.42
358.62	335.82
359.002	332.89
359.384	343.51
359.766	339.67
360.148	346.9
360.53	357.52
360.912	310.74
361.294	355.49
361.676	337.18
362.057	325.43
362.439	337.86
362.821	337.86
363.203	340.34
363.584	333.79
363.966	315.94
364.348	334.69
364.729	345.77
365.111	315.94
365.493	323.4
365.874	330.17
366.256	312.77
366.637	315.94
367.019	333.56
367.4	342.38
367.781	338.54
368.163	303.96
368.544	287.46
368.925	305.09
369.306	324.07
369.688	320.91
370.069	314.58
370.45	332.43
370.831	316.39
371.212	336.5
371.593	319.55
371.974	351.64
372.355	327.46
372.736	312.1
373.117	340.57
373.498	304.64
373.879	324.98
374.26	332.89
374.641	319.1
375.021	301.7
375.402	341.93
375.783	336.5
376.163	318.2
376.544	337.41
376.925	317.07
377.305	350.29
377.686	331.53
378.066	361.59
378.447	328.14
378.827	341.02
379.208	341.7
379.588	331.98
379.968	328.82
380.349	334.02
380.729	323.62
381.109	325.2
381.489	356.84
381.87	346.45
382.25	346.9
382.63	353
383.01	355.71
383.39	341.93
383.77	375.6
384.15	366.78
384.53	339.21
384.91	348.48
385.29	361.13
385.67	343.96
386.049	379.21
386.429	346.9
386.809	346.67
387.189	365.2
387.568	367.46
387.948	351.42
388.328	390.96
388.707	373.34
389.087	350.06
389.466	373.34
389.846	395.71
390.225	362.72
390.605	386.44
390.984	378.08
391.363	388.48
391.743	379.67
392.122	381.02
392.501	386.67
392.881	373.34
393.26	385.54
393.639	390.29
394.018	410.62
394.397	404.98
394.776	394.81
395.155	391.87
395.534	421.25
395.913	407.01
396.292	381.7
396.671	415.82
397.05	425.31
397.429	396.84
397.808	429.83
398.186	411.53
398.565	419.44
398.944	413.11
399.323	426.22
399.701	420.79
400.08	408.14
400.458	426.9
400.837	421.7
401.215	424.86
401.594	450.62
401.972	425.77
402.351	421.47
402.729	407.24
403.107	419.89
403.486	419.21
403.864	455.6
404.242	451.53
404.62	431.42
404.999	441.58
405.377	453.11
405.755	436.39
406.133	447.91
406.511	465.76
406.889	463.28
407.267	463.73
407.645	478.42
408.023	494.46
408.401	474.58
408.779	496.05
409.156	483.17
409.534	456.95
409.912	497.85
410.29	472.77
410.667	490.62
411.045	493.56
411.422	488.59
411.8	495.37
412.178	511.64
412.555	518.87
412.933	494.01
413.31	519.32
413.687	525.88
414.065	522.03
414.442	511.19
414.819	523.39
415.197	540.34
415.574	535.59
415.951	545.99
416.328	530.62
416.705	520.23
417.082	562.26
417.46	546.89
417.837	563.16
418.214	564.52
418.591	547.8
418.967	563.84
419.344	554.8
419.721	572.65
420.098	585.08
420.475	551.86
420.852	587.12
421.228	568.59
421.605	569.04
421.982	599.09
422.358	593.44
422.735	591.19
423.111	605.42
423.488	600
423.864	619.66
424.241	631.86
424.617	612.2
424.994	621.92
425.37	620.11
425.746	636.83
426.123	643.61
426.499	644.06
426.875	665.31
427.251	644.29
427.627	658.3
428.003	667.12
428.379	692.43
428.756	686.32
429.132	670.28
429.507	681.8
429.883	673.44
430.259	694.01
430.635	710.05
431.011	696.04
431.387	731.29
431.763	726.55
432.138	717.28
432.514	749.6
432.89	734.91
433.265	750.73
433.641	743.95
434.016	740.11
434.392	759.32
434.767	777.85
435.143	775.59
435.518	788.92
435.894	772.65
436.269	769.71
436.644	802.48
437.02	805.42
437.395	822.14
437.77	814.23
438.145	822.82
438.52	828.69
438.895	843.16
439.271	854.23
439.646	869.82
440.021	868.47
440.395	880.89
440.77	860.78
441.145	860.78
441.52	917.5
441.895	905.53
442.27	903.72
442.645	909.82
443.019	905.75
443.394	938.97
443.769	934.9
444.143	916.83
444.518	938.29
444.892	918.41
445.267	948.46
445.641	938.75
446.016	951.85
446.39	970.16
446.764	978.75
447.139	992.08
447.513	968.8
447.887	997.95
448.262	1004.73
448.636	1013.32
449.01	988.91
449.384	993.43
449.758	1010.61
450.132	1031.85
450.506	1041.34
450.88	1039.08
451.254	1054.68
451.628	1068.01
452.002	1092.19
452.376	1090.38
452.75	1090.38
453.123	1085.86
453.497	1115.92
453.871	1124.05
454.244	1151.17
454.618	1144.84
454.992	1167.22
455.365	1154.33
455.739	1183.71
456.112	1194.33
456.486	1216.25
456.859	1212.86
457.232	1256.48
457.606	1264.61
457.979	1289.47
458.352	1273.65
458.725	1273.2
459.099	1318.4
459.472	1320.43
459.845	1320.21
460.218	1366.08
460.591	1373.09
460.964	1382.35
461.337	1405.63
461.71	1424.84
462.083	1407.66
462.456	1440.2
462.829	1466.19
463.201	1476.81
463.574	1494.66
463.947	1523.14
464.32	1559.3
464.692	1573.76
465.065	1597.94
465.438	1615.56
465.81	1619.86
466.183	1643.13
466.555	1685.85
466.928	1699.4
467.3	1707.54
467.672	1731.27
468.045	1806.97
468.417	1820.76
468.789	1838.84
469.161	1820.76
469.534	1879.51
469.906	1957.7
470.278	1977.82
470.65	2026.85
471.022	2036.34
471.394	2081.77
471.766	2096.91
472.138	2134.2
472.51	2221.65
472.882	2256.23
473.253	2336.9
473.625	2342.33
473.997	2381.42
474.369	2456.45
474.74	2491.47
475.112	2536.9
475.484	2613.96
475.855	2649.21
476.227	2712.26
476.598	2790.22
476.97	2840.62
477.341	2947.06
477.713	2995.64
478.084	3044
478.455	3170.78
478.827	3223.88
479.198	3327.84
479.569	3357.67
479.94	3539.81
480.311	3544.55
480.682	3719.92
481.053	3815.73
481.424	3926.01
481.795	3983.19
482.166	4111.09
482.537	4180.47
482.908	4361.03
483.279	4485.32
483.65	4593.11
484.021	4753.79
484.391	4810.74
484.762	4950.84
485.133	5053.21
485.503	5221.8
485.874	5355.58
486.244	5430.38
486.615	5615.23
486.985	5786.98
487.356	5931.61
487.726	6051.15
488.097	6219.51
488.467	6332.73
488.837	6560.52
489.207	6700.63
489.578	6886.61
489.948	6961.41
490.318	7257.9
490.688	7336.77
491.058	7458.8
491.428	7656.76
491.798	7858.79
492.168	8057.66
492.538	8121.83
492.908	8352.56
493.278	8512.11
493.648	8590.75
494.017	8797.75
494.387	8981.25
494.757	9080.23
495.126	9314.8
495.496	9445.64
495.866	9562.47
496.235	9725.86
496.605	9835.91
496.974	9947.32
497.344	10120.65
497.713	10266.18
498.082	10396.12
498.452	10653.75
498.821	10655.55
499.19	10729
499.559	11004.24
499.928	11104.35
500.298	11201.98
500.667	11378.7
501.036	11507.73
501.405	11599.03
501.774	11656.88
502.143	11814.39
502.512	11832.02
502.88	12020.94
503.249	12133.48
503.618	12212.8
503.987	12268.62
504.356	12427.48
504.724	12562.62
505.093	12627.7
505.462	12705.89
505.83	12879.68
506.199	12904.53
506.567	13153.79
506.936	13188.59
507.304	13384.75
507.672	13432.2
508.041	13480.34
508.409	13631.07
508.777	13694.8
509.145	13801.46
509.514	13791.97
509.882	13913.55
510.25	13887.78
510.618	14155.8
510.986	14081.68
511.354	14248.68
511.722	14321.22
512.09	14454.78
512.458	14404.38
512.826	14559.18
513.193	14648.44
513.561	14704.26
513.929	14746.07
514.297	14833.3
514.664	14852.05
515.032	15021.31
515.4	15039.84
515.767	14979.96
516.135	15168.2
516.502	15127.3
516.869	15233.51
517.237	15386.05
517.604	15276.45
517.972	15369.1
518.339	15541.75
518.706	15468.08
519.073	15606.84
519.44	15538.81
519.808	15645.7
520.175	15659.04
520.542	15814.06
520.909	15850.67
521.276	15833.5
521.643	15922.99
522.009	16016.99
522.376	16106.26
522.743	16062.87
523.11	16201.17
523.477	16298.79
523.843	16280.72
524.21	16398.68
524.577	16440.49
524.943	16408.62
525.31	16461.05
525.676	16673.02
526.043	16620.59
526.409	16607.26
526.776	16740.82
527.142	16698.78
527.508	16781.72
527.874	16856.07
528.241	16744.66
528.607	16767.48
528.973	16928.16
529.339	16767.03
529.705	16918.44
530.071	16992.11
530.437	17019
530.803	17027.59
531.169	17130.19
531.535	17003.86
531.901	16971.32
532.267	17010.64
532.632	16941.26
532.998	16968.61
533.364	17018.78
533.73	17058.32
534.095	17132.22
534.461	17005.44
534.826	16965.44
535.192	17080.24
535.557	17067.14
535.923	16927.48
536.288	16928.61
536.653	16908.27
537.019	16850.42
537.384	16899.68
537.749	16956.4
538.114	16870.76
538.479	16823.3
538.845	16855.39
539.21	16647.94
539.575	16720.25
539.94	16733.36
540.305	16783.98
540.67	16659.69
541.034	16690.65
541.399	16758.44
541.764	16677.99
542.129	16588.5
542.494	16516.42
542.858	16519.13
543.223	16443.88
543.587	16449.98
543.952	16462.86
544.316	16428.73
544.681	16341.96
545.045	16423.76
545.41	16388.28
545.774	16253.82
546.138	16137.89
546.503	16225.12
546.867	16182.87
547.231	16141.51
547.595	16135.64
547.959	16196.65
548.324	16073.26
548.688	16061.51
549.052	16007.95
549.416	15992.59
549.779	15888.64
550.143	15913.27
550.507	15953.72
550.871	15963.21
551.235	15888.41
551.599	15888.41
551.962	15773.84
552.326	15798.24
552.689	15831.46
553.053	15693.39
553.417	15687.96
553.78	15782.2
554.143	15669.43
554.507	15668.75
554.87	15703.56
555.234	15723.44
555.597	15604.58
555.96	15586.27
556.323	15558.93
556.686	15482.09
557.05	15550.11
557.413	15684.8
557.776	15520.28
558.139	15600.73
558.502	15601.41
558.865	15508.31
559.228	15609.1
559.59	15531.13
559.953	15558.02
560.316	15642.77
560.679	15642.99
561.041	15656.55
561.404	15654.29
561.767	15708.98
562.129	15605.93
562.492	15665.82
562.854	15676.44
563.217	15509.89
563.579	15550.34
563.941	15654.97
564.304	15635.76
564.666	15752.37
565.028	15752.82
565.39	15786.04
565.753	15756.21
566.115	15809.32
566.477	15838.47
566.839	15821.29
567.201	15891.8
567.563	15771.12
567.925	15898.35
568.287	15832.14
568.648	15919.82
569.01	15918.69
569.372	15953.27
569.734	15923.66
570.095	15981.97
570.457	15914.4
570.819	15960.72
571.18	15949.65
571.542	15993.49
571.903	15979.03
572.265	16048.18
572.626	16015.86
572.987	15984.9
573.349	16049.54
573.71	16163.88
574.071	16205.69
574.432	16032.59
574.794	16209.76
575.155	16235.29
575.516	16136.54
575.877	16223.09
576.238	16164.11
576.599	16238.23
576.96	16185.35
577.32	16143.32
577.681	16172.02
578.042	16187.61
578.403	16250.89
578.763	16254.95
579.124	16241.17
579.485	16232.81
579.845	16279.59
580.206	16254.05
580.566	16216.31
580.927	16119.36
581.287	16153.26
581.648	16191.9
582.008	16268.29
582.368	16253.82
582.728	16180.61
583.089	16238.01
583.449	16227.38
583.809	16231.68
584.169	16279.13
584.529	16137.89
584.889	16233.49
585.249	16080.5
585.609	16086.14
585.969	16139.25
586.329	16079.14
586.688	16144.9
587.048	16121.85
587.408	16018.58
587.768	15999.37
588.127	16044.11
588.487	15994.4
588.846	16122.3
589.206	16005.47
589.565	15993.27
589.925	16111
590.284	16062.64
590.643	16042.53
591.003	16036.65
591.362	16061.74
591.721	16033.94
592.08	16012.25
592.44	16054.28
592.799	16043.43
593.158	16003.89
593.517	15975.41
593.876	15887.73
594.235	15886.6
594.593	15907.39
594.952	15923.89
595.311	15887.51
595.67	15941.29
596.029	16055.64
596.387	15981.74
596.746	15977
597.104	15869.65
597.463	15893.16
597.822	15950.78
598.18	15886.83
598.538	15852.25
598.897	15861.07
599.255	15767.74
599.613	16064.22
599.972	15894.74
600.33	15896.77
600.688	15749.66
601.046	15956.88
601.404	15853.38
601.762	15927.96
602.12	15931.57
602.478	15900.39
602.836	15886.6
603.194	15785.81
603.552	15854.06
603.91	15861.52
604.268	15925.25
604.625	15876.66
604.983	15900.39
605.341	15800.73
605.698	15964.79
606.056	15935.41
606.413	15888.64
606.771	16000.72
607.128	15922.99
607.485	15842.31
607.843	15881.86
608.2	15946.04
608.557	16005.92
608.914	15969.54
609.272	16076.88
609.629	16007.5
609.986	16085.01
610.343	15994.62
610.7	16186.93
611.057	16084.34
611.414	16045.02
611.771	16039.59
612.127	16206.37
612.484	16132.02
612.841	16196.65
613.198	16181.51
613.554	16075.98
613.911	16181.06
614.267	16179.7
614.624	16179.7
614.98	16146.26
615.337	16228.97
615.693	16169.08
616.05	16188.06
616.406	16317.33
616.762	16181.28
617.118	16182.87
617.475	16189.19
617.831	16246.59
618.187	16263.54
618.543	16289.76
618.899	16331.11
619.255	16309.87
619.611	16366.14
619.967	16382.41
620.323	16407.94
620.678	16386.25
621.034	16283.43
621.39	16381.96
621.746	16358.68
622.101	16517.09
622.457	16362.75
622.812	16398.68
623.168	16445.23
623.523	16347.38
623.879	16454.5
624.234	16382.63
624.589	16411.33
624.945	16334.73
625.3	16376.76
625.655	16393.93
626.01	16381.73
626.365	16396.19
626.72	16386.93
627.075	16412.46
627.43	16414.5
627.785	16296.31
628.14	16312.81
628.495	16390.77
628.85	16320.04
629.205	16312.58
629.559	16435.74
629.914	16230.1
630.269	16340.6
630.623	16255.63
630.978	16235.07
631.332	16357.1
631.687	16271.45
632.041	16197.78
632.396	16192.81
632.75	16205.24
633.104	16191.23
633.459	16101.96
633.813	16121.62
634.167	16040.72
634.521	16106.48
634.875	16158.69
635.229	16060.38
635.583	16010.21
635.937	16130.89
636.291	16063.55
636.645	16015.64
636.999	15915.75
637.352	16101.51
637.706	15888.86
638.06	15981.51
638.413	15965.92
638.767	15885.25
639.121	15965.02
639.474	15748.3
639.828	15755.31
640.181	15773.84
640.534	15800.95
640.888	15775.19
641.241	15592.37
641.594	15754.18
641.947	15772.71
642.301	15761.41
642.654	15773.16
643.007	15748.53
643.36	15734.74
643.713	15663.11
644.066	15771.8
644.419	15629.89
644.771	15629.89
645.124	15466.27
645.477	15432.6
645.83	15345.83
646.182	15299.95
646.535	15264.25
646.888	15194.42
647.24	15140.18
647.593	15219.73
647.945	15189.67
648.298	15047.53
648.65	15060.41
649.002	15038.49
649.355	15198.94
649.707	15129.33
650.059	15195.09
650.411	15388.99
650.763	15410.91
651.115	15571.58
651.467	15506.73
651.819	15540.62
652.171	15356.9
652.523	15451.59
652.875	15366.39
653.227	15400.06
653.578	15482.32
653.93	15462.21
654.282	15445.26
654.633	15411.59
654.985	15441.64
655.337	15533.39
655.688	15459.72
656.039	15528.65
656.391	15377.91
656.742	15443
657.094	15468.08
657.445	15494.52
657.796	15404.13
658.147	15410.91
658.498	15443.22
658.849	15576.1
659.2	15534.29
659.551	15460.85
659.902	15494.75
660.253	15477.57
660.604	15550.57
660.955	15427.18
661.306	15486.61
661.656	15562.54
662.007	15559.83
662.358	15480.06
662.708	15462.43
663.059	15483
663.409	15498.59
663.76	15571.36
664.11	15501.08
664.461	15593.73
664.811	15490.23
665.161	15527.74
665.511	15465.37
665.862	15533.39
666.212	15445.26
666.562	15549.66
666.912	15567.97
667.262	15536.33
667.612	15484.35
667.962	15517.12
668.312	15601.19
668.662	15612.94
669.011	15508.76
669.361	15481.41
669.711	15550.11
670.06	15485.03
670.41	15475.54
670.76	15469.89
671.109	15533.62
671.459	15540.85
671.808	15475.31
672.157	15461.53
672.507	15341.31
672.856	15407.07
673.205	15474.86
673.554	15449.33
673.904	15380.17
674.253	15428.08
674.602	15346.73
674.951	15163.68
675.3	15057.47
675.649	15263.57
675.998	15317.8
676.346	15308.76
676.695	15267.64
677.044	15219.5
677.393	15233.51
677.741	15276.67
678.09	15199.61
678.438	15244.59
678.787	15150.12
679.135	15116.23
679.484	15103.35
679.832	15165.49
680.181	15090.92
680.529	15106.96
680.877	15090.01
681.225	15124.14
681.573	15102.22
681.922	15021.31
682.27	14916.68
682.618	14986.74
682.966	14957.36
683.314	14885.05
683.661	14943.8
684.009	14841.21
684.357	14786.97
684.705	14751.04
685.053	14669.23
685.4	14743.58
685.748	14613.87
686.095	14520.99
686.443	14520.31
686.79	14479.41
687.138	14578.84
687.485	14495.45
687.832	14485.51
688.18	14423.59
688.527	14361.22
688.874	14387.21
689.221	14313.08
689.568	14284.84
689.915	14219.3
690.262	14280.09
690.609	14192.41
690.956	14169.59
691.303	14187.66
691.65	13970.72
691.997	14038.52
692.344	13911.74
692.69	13914
693.037	13893.43
693.383	13742.7
693.73	13817.05
694.077	13716.72
694.423	13716.94
694.769	13761.46
695.116	13648.02
695.462	13537.51
695.808	13518.08
696.155	13493.9
696.501	13415.93
696.847	13417.29
697.193	13403.05
697.539	13350.4
697.885	13243.51
698.231	13234.24
698.577	13161.7
698.923	13195.37
699.269	13134.81
699.614	13006.68
699.96	13040.8
700.306	12978.88
700.651	12870.64
700.997	12768.49
701.342	12832.9
701.688	12785.21
702.033	12689.4
702.379	12663.18
702.724	12712.9
703.069	12691.21
703.415	12559.46
703.76	12515.39
704.105	12452.12
704.45	12549.74
704.795	12392.46
705.14	12367.6
705.485	12342.06
705.83	12323.08
706.175	12338.9
706.52	12269.75
706.865	12199.47
707.209	12166.93
707.554	12052.58
707.899	12114.5
708.243	12027.27
708.588	11979.13
708.932	11947.27
709.277	11828.4
709.621	11903.88
709.966	11774.85
710.31	11839.7
710.654	11745.69
710.998	11728.75
711.342	11767.39
711.687	11676.54
712.031	11660.05
712.375	11644.45
712.719	11665.7
713.063	11624.79
713.407	11660.5
713.75	11467.06
714.094	11516.55
714.438	11451.69
714.782	11420.5
715.125	11426.83
715.469	11426.15
715.812	11402.65
716.156	11310.23
716.499	11320.85
716.843	11353.39
717.186	11321.52
717.53	11357.23
717.873	11327.63
718.216	11258.02
718.559	11177.57
718.902	11161.75
719.246	11198.82
719.589	11159.49
719.932	11163.11
720.275	11160.4
720.617	11094.41
720.96	11049.44
721.303	11036.33
721.646	11106.84
721.989	11120.63
722.331	11087.18
722.674	11079.27
723.016	11011.48
723.359	10989.33
723.701	11043.34
724.044	10962.44
724.386	10935.77
724.729	11042.44
725.071	10993.85
725.413	10966.05
725.755	10987.52
726.097	10972.16
726.439	10876.11
726.782	10951.59
727.124	10948.88
727.465	10891.93
727.807	10889.22
728.149	10899.16
728.491	10865.49
728.833	10895.77
729.175	10874.08
729.516	10855.55
729.858	10824.81
730.199	10825.04
730.541	10824.81
730.882	10854.19
731.224	10814.87
731.565	10797.7
731.906	10820.75
732.248	10790.69
732.589	10796.34
732.93	10819.16
733.271	10797.7
733.612	10727.87
733.953	10877.02
734.294	10756.12
734.635	10762.89
734.976	10759.51
735.317	10793.85
735.658	10754.08
735.999	10827.53
736.339	10775.55
736.68	10772.84
737.021	10754.08
737.361	10749.11
737.702	10852.84
738.042	10763.57
738.383	10782.56
738.723	10886.28
739.063	10814.19
739.404	10924.47
739.744	10888.09
740.084	10883.8
740.424	10933.74
740.764	10928.77
741.104	10946.84
741.444	10890.12
741.784	10896
742.124	11018.71
742.464	11008.09
742.804	10981.19
743.143	11042.21
743.483	11023.68
743.823	11050.8
744.162	11033.62
744.502	11108.2
744.841	11115.88
745.181	11235.88
745.52	11208.31
745.86	11243.56
746.199	11326.27
746.538	11285.14
746.877	11439.26
747.216	11451.01
747.556	11530.11
747.895	11593.61
748.234	11700.5
748.573	11711.12
748.911	11772.59
749.25	11924.45
749.589	11827.5
749.928	11902.53
750.267	12056.87
750.605	12218
750.944	12177.55
751.283	12345.9
751.621	12384.32
751.96	12512.68
752.298	12639.23
752.636	12726.23
752.975	12746.57
753.313	12783.18
753.651	12975.94
753.989	13083.96
754.327	13271.98
754.666	13319.44
755.004	13472.65
755.342	13692.99
755.679	13817.5
756.017	13911.29
756.355	14130.26
756.693	14165.29
757.031	14479.41
757.368	14507.88
757.706	14707.42
758.044	14933.86
758.381	15111.71
758.719	15193.51
759.056	15411.13
759.394	15595.31
759.731	15624.46
760.068	15924.79
760.405	16110.55
760.743	16184.22
761.08	16500.6
761.417	16607.71
761.754	16861.27
762.091	17025.1
762.428	17128.15
762.765	17324.08
763.102	17579.66
763.438	17650.4
763.775	17873.67
764.112	18119.54
764.449	18325.41
764.785	18574.67
765.122	18567.89
765.458	18708.45
765.795	18869.12
766.131	19001.77
766.467	19172.84
766.804	19315.66
767.14	19526.96
767.476	19671.59
767.812	19787.52
768.148	19956.78
768.485	19945.25
768.821	20091.24
769.157	20251.69
769.492	20452.13
769.828	20518.12
770.164	20514.28
770.5	20632.69
770.836	20915.85
771.171	20865.91
771.507	20919.92
771.842	20956.53
772.178	21104.09
772.513	21226.12
772.849	21340.24
773.184	21440.13
773.519	21414.14
773.855	21516.51
774.19	21556.96
774.525	21623.4
774.86	21670.63
775.195	21664.53
775.53	21697.07
775.865	21713.57
776.2	21704.3
776.535	21716.73
776.87	21791.76
777.205	21785.43
777.539	21725.54
777.874	22024.52
778.209	21825.43
778.543	21967.35
778.878	21854.58
779.212	21945.2
779.547	21920.34
779.881	22041.69
780.215	21926.67
780.55	21907.01
780.884	21910.85
781.218	21997.63
781.552	22024.52
781.886	21991.75
782.22	21937.52
782.554	22037.4
782.888	21840.8
783.222	21801.47
783.556	21797.41
783.889	21864.98
784.223	21678.54
784.557	21680.12
784.89	21824.75
785.224	21736.84
785.557	21680.57
785.891	21690.74
786.224	21702.04
786.558	21714.25
786.891	21634.25
787.224	21500.92
787.557	21519.45
787.891	21565.77
788.224	21442.84
788.557	21500.01
788.89	21364.88
789.223	21581.82
789.556	21296.63
789.888	21272.9
790.221	21269.96
790.554	21154.26
790.887	21051.21
791.219	21020.25
791.552	21023.64
791.884	20940.25
792.217	20958.11
792.549	21029.97
792.882	20861.84
793.214	20797.89
793.546	20761.95
793.879	20605.35
794.211	20631.34
794.543	20699.58
794.875	20579.36
795.207	20702.52
795.539	20550.66
795.871	20578
796.203	20450.78
796.535	20372.59
796.867	20262.53
797.198	20101.41
797.53	20239.48
797.862	20203.32
798.193	20133.95
798.525	20062.09
798.856	20087.62
799.188	19768.31
799.519	19946.38
799.85	19814.18
800.182	19786.84
800.513	19770.57
800.844	19681.76
801.175	19785.03
801.506	19683.79
801.837	19575.54
802.168	19616.9
802.499	19503.91
802.83	19525.15
803.161	19411.93
803.491	19373.97
803.822	19344.14
804.153	19257.81
804.483	19034.54
804.814	19126.06
805.145	19151.15
805.475	19129.91
805.805	19072.28
806.136	18959.52
806.466	18978.05
806.796	19050.36
807.126	18855.11
807.457	18857.37
807.787	18774.66
808.117	18668.45
808.447	18707.77
808.777	18632.74
809.107	18529.24
809.436	18525.63
809.766	18588.9
810.096	18410.15
810.426	18368.57
810.755	18477.49
811.085	18417.83
811.414	18373.77
811.744	18163.6
812.073	18263.26
812.403	18199.31
812.732	18080.89
813.061	18131.06
813.39	17980.11
813.719	17931.29
814.049	18124.96
814.378	17998.64
814.707	17973.78
815.036	17840.9
815.365	17802.48
815.693	17676.84
816.022	17728.81
816.351	17706.67
816.68	17559.33
817.008	17614.92
817.337	17429.39
817.665	17450.18
817.994	17470.52
818.322	17490.63
818.651	17350.74
818.979	17334.47
819.307	17517.75
819.636	17355.04
819.964	17336.06
820.292	17348.48
820.62	17394.36
820.948	17281.37
821.276	17325.43
821.604	17248.83
821.932	17284.98
822.259	17244.53
822.587	17256.96
822.915	17235.72
823.243	17356.39
823.57	17222.16
823.898	17235.27
824.225	17177.87
824.553	17086.34
824.88	17121.15
825.207	17320.01
825.535	17225.55
825.862	17310.29
826.189	17218.09
826.516	17361.37
826.843	17271.65
827.17	17355.72
827.497	17329.05
827.824	17304.42
828.151	17228.94
828.478	17228.04
828.805	17341.93
829.131	17306.68
829.458	17208.15
829.785	17163.86
830.111	17167.92
830.438	17327.69
830.764	17212.67
831.09	17208.15
831.417	17132.67
831.743	17276.17
832.069	17221.48
832.395	17148.72
832.722	17216.28
833.048	17155.04
833.374	17170.41
833.7	17073.24
834.026	17077.76
834.351	17184.87
834.677	17025.78
835.003	17107.13
835.329	17113.46
835.654	16976.97
835.98	17034.59
836.306	16997.99
836.631	16955.95
836.956	16963.18
837.282	16961.38
837.607	16885.22
837.932	16925.22
838.258	16902.62
838.583	16844.09
838.908	16749.63
839.233	16867.59
839.558	16835.05
839.883	16658.33
840.208	16586.7
840.533	16699.69
840.858	16603.19
841.182	16568.62
841.507	16577.21
841.832	16523.87
842.156	16440.71
842.481	16449.3
842.805	16376.98
843.13	16467.6
843.454	16393.93
843.778	16259.25
844.103	16248.17
844.427	16196.2
844.751	16176.09
845.075	16143.32
845.399	16071.91
845.723	15997.79
846.047	16109.65
846.371	15915.3
846.695	15858.13
847.019	15809.32
847.343	15759.83
847.666	15664.91
847.99	15617.23
848.313	15519.15
848.637	15468.08
848.96	15516.22
849.284	15335.2
849.607	15341.98
849.931	15251.14
850.254	15189.45
850.577	15043.91
850.9	15009.11
851.223	15022.22
851.546	14897.02
851.869	14893.18
852.192	14855.67
852.515	14777.93
852.838	14714.43
853.161	14656.58
853.483	14639.86
853.806	14565.96
854.129	14453.65
854.451	14495.45
854.774	14374.1
855.096	14400.09
855.419	14393.99
855.741	14201
856.063	14205.97
856.385	14126.2
856.708	14157.83
857.03	14118.74
857.352	14125.52
857.674	14050.94
857.996	14003.49
858.318	13980.66
858.64	13925.98
858.961	13915.81
859.283	13860.67
859.605	13698.86
859.926	13843.49
860.248	13716.49
860.57	13662.25
860.891	13668.13
861.212	13601.01
861.534	13626.55
861.855	13508.59
862.176	13551.52
862.498	13543.39
862.819	13489.38
863.14	13472.43
863.461	13430.85
863.782	13338.65
864.103	13431.98
864.424	13365.31
864.745	13401.47
865.065	13278.31
865.386	13228.82
865.707	13217.07
866.027	13273.79
866.348	13193.57
866.668	13142.95
866.989	13204.19
867.309	13054.59
867.63	13134.58
867.95	13086.22
868.27	12956.28
868.59	13003.51
868.91	12977.75
869.23	12952.22
869.55	12906.34
869.87	12994.7
870.19	12963.29
870.51	12904.99
870.83	12854.14
871.15	12864.08
871.469	12865.66
871.789	12857.08
872.109	12820.47
872.428	12726.46
872.748	12791.09
873.067	12748.61
873.386	12791.54
873.706	12733.69
874.025	12627.48
874.344	12626.35
874.663	12636.74
874.982	12635.16
875.301	12583.86
875.62	12549.74
875.939	12461.16
876.258	12533.02
876.577	12461.61
876.896	12492.57
877.214	12427.94
877.533	12443.98
877.852	12375.73
878.17	12352.46
878.489	12427.26
878.807	12346.58
879.125	12341.61
879.444	12341.84
879.762	12340.48
880.08	12307.94
880.398	12250.09
880.716	12225.68
881.034	12227.49
881.352	12158.11
881.67	12166.7
881.988	12150.2
882.306	12123.99
882.624	12084.44
882.941	12025.01
883.259	11988.63
883.577	12050.32
883.894	11941.62
884.212	11867.5
884.529	11942.75
884.846	11834.96
885.164	11860.95
885.481	11793.6
885.798	11817.78
886.115	11761.06
886.432	11714.96
886.75	11669.09
887.067	11681.74
887.383	11674.74
887.7	11664.34
888.017	11618.24
888.334	11620.73
888.651	11568.75
888.967	11541.86
889.284	11515.42
889.6	11409.88
889.917	11371.47
890.233	11365.37
890.55	11357.23
890.866	11378.47
891.182	11285.14
891.498	11265.71
891.815	11201.53
892.131	11123.11
892.447	11153.17
892.763	11120.17
893.079	11114.75
893.395	10993.62
893.71	11042.44
894.026	11004.7
894.342	10970.12
894.657	10901.2
894.973	10873.63
895.289	10874.08
895.604	10790.01
895.92	10708.89
896.235	10662.33
896.55	10702.33
896.865	10659.17
897.181	10620.3
897.496	10596.57
897.811	10553.18
898.126	10504.37
898.441	10496.24
898.756	10465.5
899.071	10386.41
899.386	10353.19
899.7	10279.97
900.015	10227.77
900.33	10234.77
900.644	10183.25
900.959	10197.03
901.273	10067.55
901.588	10095.79
901.902	9987.55
902.216	10000.43
902.531	9978.06
902.845	9991.84
903.159	9872.52
903.473	9852.86
903.787	9754.33
904.101	9773.32
904.415	9801.79
904.729	9666.88
905.042	9638.4
905.356	9632.76
905.67	9611.51
905.984	9610.61
906.297	9609.03
906.611	9564.73
906.924	9437.51
907.237	9411.29
907.551	9502.14
907.864	9432.99
908.177	9338.53
908.491	9287.68
908.804	9250.62
909.117	9158.87
909.43	9195.93
909.743	9096.05
910.056	9165.87
910.368	8965.65
910.681	8983.96
910.994	8973.11
911.307	8958.87
911.619	8873.23
911.932	8924.75
912.244	8811.53
912.557	8857.86
912.869	8729.95
913.181	8730.86
913.494	8657.64
913.806	8658.77
914.118	8556.4
914.43	8534.25
914.742	8539.45
915.054	8510.98
915.366	8455.61
915.678	8436.18
915.99	8391.88
916.302	8332
916.613	8348.72
916.925	8343.52
917.236	8300.13
917.548	8236.18
917.859	8249.97
918.171	8207.71
918.482	8072.12
918.794	8107.37
919.105	8096.98
919.416	8014.72
919.727	8005.68
920.038	7995.06
920.349	7969.07
920.66	7907.83
920.971	7829.86
921.282	7854.72
921.593	7777.44
921.903	7785.8
922.214	7740.83
922.525	7713.03
922.835	7681.85
923.146	7569.76
923.456	7626.71
923.767	7595.75
924.077	7563.43
924.387	7517.1
924.697	7431.23
925.008	7457.22
925.318	7370.67
925.628	7392.59
925.938	7309.65
926.248	7334.06
926.558	7289.77
926.867	7220.84
927.177	7210.22
927.487	7170.22
927.796	7117.79
928.106	7109.88
928.416	7164.8
928.725	7082.54
929.034	7031.69
929.344	7077.12
929.653	6976.55
929.962	6951.02
930.271	6894.75
930.581	6903.56
930.89	6887.52
931.199	6806.84
931.508	6789.89
931.817	6809.33
932.125	6768.65
932.434	6764.81
932.743	6672.61
933.051	6639.39
933.36	6634.64
933.669	6567.75
933.977	6561.65
934.286	6543.8
934.594	6573.4
934.902	6480.3
935.21	6488.88
935.519	6445.95
935.827	6404.82
936.135	6350.13
936.443	6375.21
936.751	6302
937.059	6319.17
937.367	6284.82
937.674	6306.06
937.982	6290.24
938.29	6232.84
938.597	6210.92
938.905	6126.63
939.213	6147.42
939.52	6078.27
939.827	6128.67
940.135	6065.39
940.442	6046.41
940.749	5977.26
941.056	6020.19
941.363	5949.46
941.67	5903.14
941.977	5887.99
942.284	5824.49
942.591	5851.61
942.898	5824.04
943.205	5784.49
943.511	5788.11
943.818	5765.06
944.125	5763.93
944.431	5684.38
944.738	5691.16
945.044	5652.29
945.35	5587.89
945.657	5604.39
945.963	5550.15
946.269	5527.78
946.575	5522.81
946.881	5469.47
947.187	5483.49
947.493	5405.52
947.799	5437.61
948.105	5423.37
948.41	5433.54
948.716	5380.44
949.022	5358.74
949.327	5318.29
949.633	5293.21
949.938	5272.42
950.244	5282.36
950.549	5255.7
950.854	5195.58
951.16	5171.18
951.465	5120.56
951.77	5150.16
952.075	5074.46
952.38	5049.37
952.685	5052.08
952.99	5021.8
953.294	5011.63
953.599	4968.25
953.904	4999.66
954.209	4996.27
954.513	4924.86
954.818	4930.05
955.122	4893.44
955.426	4884.18
955.731	4855.93
956.035	4791.75
956.339	4777.29
956.643	4740.68
956.948	4749.04
957.252	4730.74
957.556	4705.88
957.86	4700.91
958.163	4737.97
958.467	4653.68
958.771	4619.1
959.075	4618.42
959.378	4593.34
959.682	4603.96
959.985	4584.07
960.289	4531.19
960.592	4525.54
960.896	4503.4
961.199	4448.71
961.502	4499.78
961.805	4406
962.108	4401.71
962.411	4411.2
962.714	4346.57
963.017	4328.71
963.32	4366
963.623	4303.86
963.926	4316.28
964.228	4294.59
964.531	4216.17
964.833	4234.48
965.136	4205.33
965.438	4205.1
965.741	4219.79
966.043	4168.27
966.345	4133.01
966.648	4172.11
966.95	4150.19
967.252	4080.58
967.554	4067.03
967.856	4075.61
968.158	4041.49
968.46	4033.58
968.761	4033.35
969.063	3984.54
969.365	3999.23
969.666	3963.53
969.968	3941.61
970.269	3936.41
970.571	3955.84
970.872	3896.86
971.174	3847.14
971.475	3862.96
971.776	3847.82
972.077	3793.13
972.378	3838.33
972.679	3781.61
972.98	3815.73
973.281	3736.19
973.582	3776.64
973.883	3691.67
974.183	3761.95
974.484	3716.53
974.785	3664.32
975.085	3686.24
975.386	3645.34
975.686	3617.55
975.986	3607.6
976.287	3613.7
976.587	3560.6
976.887	3554.72
977.187	3559.69
977.487	3535.74
977.787	3537.32
978.087	3495.74
978.387	3488.51
978.687	3490.32
978.987	3458.23
979.286	3441.96
979.586	3420.94
979.885	3396.08
980.185	3413.26
980.484	3375.52
980.784	3371.68
981.083	3340.94
981.382	3349.76
981.682	3354.73
981.981	3319.47
982.28	3280.15
982.579	3258.23
982.878	3220.72
983.177	3241.06
983.475	3244.67
983.774	3210.1
984.073	3199.48
984.372	3208.29
984.67	3124.68
984.969	3158.58
985.267	3164.22
985.566	3126.26
985.864	3091.91
986.162	3111.12
986.461	3088.97
986.759	3089.42
987.057	3046.04
987.355	3062.98
987.653	2988.86
987.951	3028.64
988.249	2978.69
988.547	3032.48
988.844	2946.38
989.142	2957
989.44	2892.37
989.737	2937.11
990.035	2889.88
990.332	2934.4
990.63	2879.03
990.927	2863.89
991.224	2827.06
991.521	2847.62
991.819	2806.04
992.116	2813.27
992.413	2817.34
992.71	2776.66
993.006	2774.86
993.303	2766.27
993.6	2754.29
993.897	2726.5
994.193	2723.33
994.49	2697.57
994.787	2731.47
995.083	2708.42
995.379	2669.77
995.676	2669.77
995.972	2649.89
996.268	2631.58
996.565	2619.83
996.861	2605.14
997.157	2580.51
997.453	2559.72
997.749	2574.64
998.044	2552.49
998.34	2554.98
998.636	2565.14
998.932	2514.3
999.227	2503
999.523	2486.28
999.818	2484.47
1000.114	2455.77
1000.409	2410.35
1000.704	2436.56
1001	2419.61
1001.295	2410.8
1001.59	2374.19
1001.885	2360.4
1002.18	2368.54
1002.475	2392.49
1002.77	2333.74
1003.065	2303
1003.359	2300.07
1003.654	2299.61
1003.949	2277.92
1004.243	2261.88
1004.538	2264.36
1004.832	2252.84
1005.127	2225.49
1005.421	2212.16
1005.715	2221.42
1006.009	2218.03
1006.304	2222.33
1006.598	2170.13
1006.892	2156.34
1007.186	2152.73
1007.48	2151.82
1007.773	2129.22
1008.067	2111.15
1008.361	2177.13
1008.655	2119.05
1008.948	2073.41
1009.242	2062.33
1009.535	2060.98
1009.829	2023.69
1010.122	2024.14
1010.415	2003.35
1010.708	1993.41
1011.001	2014.42
1011.295	1974.43
1011.588	1964.48
1011.881	1927.42
1012.173	1969.91
1012.466	1935.1
1012.759	1945.5
1013.052	1890.36
1013.344	1915.67
1013.637	1875.22
1013.93	1871.38
1014.222	1848.55
1014.514	1859.85
1014.807	1848.1
1015.099	1848.33
1015.391	1808.1
1015.683	1811.04
1015.976	1804.49
1016.268	1792.06
1016.56	1790.02
1016.851	1776.46
1017.143	1776.69
1017.435	1751.61
1017.727	1728.78
1018.018	1751.83
1018.31	1731.27
1018.602	1679.52
1018.893	1662.34
1019.185	1663.7
1019.476	1681.33
1019.767	1642.91
1020.058	1636.81
1020.35	1623.47
1020.641	1624.6
1020.932	1617.15
1021.223	1600.2
1021.514	1603.36
1021.804	1571.27
1022.095	1553.42
1022.386	1561.55
1022.677	1554.55
1022.967	1520.65
1023.258	1540.76
1023.548	1515.91
1023.839	1507.32
1024.129	1497.15
1024.419	1498.28
1024.709	1486.08
1025	1512.29
1025.29	1467.09
1025.58	1428.9
1025.87	1440.43
1026.16	1406.53
1026.449	1399.98
1026.739	1398.4
1027.029	1405.4
1027.319	1402.69
1027.608	1383.25
1027.898	1364.05
1028.187	1355.68
1028.477	1345.29
1028.766	1377.38
1029.055	1309.81
1029.344	1324.05
1029.634	1323.37
1029.923	1295.12
1030.212	1326.31
1030.501	1271.17
1030.79	1278.17
1031.078	1280.88
1031.367	1272.07
1031.656	1244.73
1031.945	1256.25
1032.233	1240.66
1032.522	1244.28
1032.81	1211.28
1033.099	1212.19
1033.387	1216.93
1033.675	1205.86
1033.963	1183.49
1034.251	1198.4
1034.54	1152.98
1034.828	1161.11
1035.116	1156.37
1035.403	1149.14
1035.691	1145.75
1035.979	1102.58
1036.267	1115.69
1036.554	1117.72
1036.842	1117.95
1037.129	1115.24
1037.417	1084.05
1037.704	1109.14
1037.992	1082.47
1038.279	1081.34
1038.566	1051.06
1038.853	1051.06
1039.14	1051.06
