Data from hue_30_FLMS001491_53.txt Node
Date: Mon Feb 06 15:05:35 GMT 2017
User: dcchb
Spectrometer: FLMS00149
Trigger mode: 0
Integration Time (sec): 2.000000E-2
Scans to average: 10
Electric dark correction enabled: true
Nonlinearity correction enabled: false
Boxcar width: 0
XAxis mode: Wavelengths
Number of Pixels in Spectrum: 2048
>>>>>Begin Spectral Data<<<<<
341.393	-15.34
341.776	-15.34
342.16	-15.34
342.543	-59.63
342.927	-71.61
343.31	-62.57
343.693	-60.54
344.077	-78.39
344.46	-46.52
344.843	-57.15
345.226	-28.9
345.61	-36.13
345.993	-49.91
346.376	7.49
346.759	9.07
347.142	20.37
347.525	29.63
347.908	55.39
348.291	86.81
348.674	102.62
349.057	108.73
349.44	101.27
349.823	125
350.206	162.96
350.588	190.53
350.971	210.87
351.354	203.19
351.737	222.17
352.119	273.24
352.502	249.74
352.884	276.63
353.267	279.79
353.65	286.12
354.032	302.62
354.414	289.96
354.797	301.49
355.179	313.92
355.562	321.38
355.944	313.01
356.326	326.8
356.709	334.26
357.091	333.58
357.473	346.46
357.855	336.06
358.238	352.56
358.62	346.91
359.002	333.58
359.384	330.64
359.766	339.23
360.148	342.39
360.53	332
360.912	331.54
361.294	319.12
361.676	324.09
362.057	309.62
362.439	318.21
362.821	321.83
363.203	327.93
363.584	327.93
363.966	326.8
364.348	317.76
364.729	338.1
365.111	327.25
365.493	332.22
365.874	334.48
366.256	300.36
366.637	306.69
367.019	316.18
367.4	321.83
367.781	323.64
368.163	314.82
368.544	293.81
368.925	282.28
369.306	319.34
369.688	306.46
370.069	307.36
370.45	331.77
370.831	290.42
371.212	304.43
371.593	291.09
371.974	314.6
372.355	321.15
372.736	319.12
373.117	294.71
373.498	335.61
373.879	312.56
374.26	297.2
374.641	301.49
375.021	295.16
375.402	315.5
375.783	315.95
376.163	330.87
376.544	329.29
376.925	337.42
377.305	319.12
377.686	301.26
378.066	318.44
378.447	312.79
378.827	330.87
379.208	333.58
379.588	347.14
379.968	327.03
380.349	320.92
380.729	307.59
381.109	336.97
381.489	338.78
381.87	321.15
382.25	339.91
382.63	332.22
383.01	330.42
383.39	326.35
383.77	345.78
384.15	338.78
384.53	339.23
384.91	340.81
385.29	352.56
385.67	329.29
386.049	348.27
386.429	338.78
386.809	333.35
387.189	341.71
387.568	357.08
387.948	364.54
388.328	367.93
388.707	368.61
389.087	350.3
389.466	353.24
389.846	356.63
390.225	366.35
390.605	355.27
390.984	368.38
391.363	348.04
391.743	379.91
392.122	374.93
392.501	372.45
392.881	369.28
393.26	327.93
393.639	389.62
394.018	344.65
394.397	362.96
394.776	369.74
395.155	382.17
395.534	364.76
395.913	384.2
396.292	358.66
396.671	388.04
397.05	370.64
397.429	365.67
397.808	381.49
398.186	408.61
398.565	369.74
398.944	372
399.323	384.88
399.701	393.69
400.08	384.65
400.458	366.57
400.837	381.26
401.215	374.26
401.594	400.24
401.972	384.42
402.351	383.3
402.729	397.31
403.107	386.68
403.486	406.12
403.864	382.62
404.242	402.05
404.62	397.53
404.999	396.4
405.377	402.5
405.755	405.89
406.133	409.96
406.511	394.82
406.889	442.28
407.267	397.98
407.645	437.98
408.023	414.25
408.401	414.71
408.779	415.84
409.156	428.49
409.534	420.13
409.912	435.27
410.29	453.12
410.667	432.33
411.045	444.31
411.422	448.15
411.8	452.45
412.178	451.09
412.555	419.23
412.933	461.26
413.31	443.86
413.687	454.03
414.065	466
414.442	472.56
414.819	451.77
415.197	470.07
415.574	484.99
415.951	476.4
416.328	461.26
416.705	478.89
417.082	458.55
417.46	473.69
417.837	504.65
418.214	506
418.591	497.64
418.967	496.06
419.344	501.03
419.721	511.88
420.098	487.25
420.475	516.4
420.852	510.52
421.228	519.79
421.605	533.12
421.982	513.24
422.358	510.3
422.735	512.56
423.111	520.92
423.488	528.6
423.864	515.72
424.241	530.18
424.617	545.1
424.994	540.13
425.37	540.13
425.746	560.92
426.123	545.78
426.499	556.17
426.875	557.98
427.251	551.2
427.627	564.76
428.003	571.76
428.379	577.19
428.756	561.14
429.132	568.83
429.507	585.1
429.883	596.4
430.259	583.74
430.635	573.8
431.011	593.01
431.387	610.41
431.763	601.14
432.138	606.34
432.514	618.77
432.89	625.55
433.265	629.84
433.641	629.39
434.016	631.2
434.392	643.63
434.767	646.79
435.143	654.47
435.518	653.8
435.894	661.93
436.269	682.5
436.644	660.35
437.02	664.19
437.395	654.47
437.77	663.97
438.145	682.72
438.52	708.48
438.895	709.39
439.271	688.82
439.646	716.17
440.021	717.3
440.395	702.83
440.77	710.52
441.145	723.4
441.52	741.03
441.895	755.26
442.27	731.76
442.645	727.69
443.019	765.21
443.394	747.13
443.769	759.33
444.143	753
444.518	769.95
444.892	754.81
445.267	782.61
445.641	791.65
446.016	761.36
446.39	774.02
446.764	798.2
447.139	788.26
447.513	789.61
447.887	797.52
448.262	779.67
448.636	811.53
449.01	810.4
449.384	808.14
449.758	829.84
450.132	814.7
450.506	819.44
450.88	827.58
451.254	835.94
451.628	843.62
452.002	856.73
452.376	848.14
452.75	860.57
453.123	872.1
453.497	872.77
453.871	890.63
454.244	913.45
454.618	888.82
454.992	896.28
455.365	933.79
455.739	920.68
456.112	931.98
456.486	908.25
456.859	950.51
457.232	951.87
457.606	943.96
457.979	989.83
458.352	999.78
458.725	996.39
459.099	1022.15
459.472	1019.89
459.845	1032.77
460.218	1030.96
460.591	1039.77
460.964	1029.61
461.337	1069.6
461.71	1073.9
462.083	1110.51
462.456	1085.65
462.829	1102.82
463.201	1116.38
463.574	1117.06
463.947	1137.17
464.32	1156.83
464.692	1162.48
465.065	1180.79
465.438	1184.86
465.81	1209.71
466.183	1225.98
466.555	1226.89
466.928	1257.62
467.3	1223.5
467.672	1281.35
468.045	1311.63
468.417	1294.91
468.789	1291.97
469.161	1318.19
469.534	1353.21
469.906	1386.66
470.278	1372.87
470.65	1407
471.022	1406.77
471.394	1454.23
471.766	1454
472.138	1479.09
472.51	1524.51
472.882	1543.49
473.253	1566.09
473.625	1618.29
473.997	1633.43
474.369	1630.95
474.74	1667.56
475.112	1721.34
475.484	1706.2
475.855	1778.06
476.227	1775.35
476.598	1811.73
476.97	1847.66
477.341	1879.75
477.713	1915.68
478.084	1941.67
478.455	2001.56
478.827	2028.68
479.198	2089.01
479.569	2128.11
479.94	2170.14
480.311	2185.96
480.682	2272.96
481.053	2287.2
481.424	2356.58
481.795	2405.39
482.166	2431.83
482.537	2476.8
482.908	2518.15
483.279	2576.68
483.65	2630.47
484.021	2683.35
484.391	2756.11
484.762	2785.49
485.133	2814.19
485.503	2859.84
485.874	2960.63
486.244	3003.11
486.615	3040.4
486.985	3075.88
487.356	3159.95
487.726	3204.69
488.097	3316.78
488.467	3301.18
488.837	3418.24
489.207	3451.01
489.578	3510.44
489.948	3604.68
490.318	3642.19
490.688	3691
491.058	3752.25
491.428	3796.54
491.798	3867.27
492.168	3947.5
492.538	3969.42
492.908	4085.57
493.278	4125.57
493.648	4137.32
494.017	4188.39
494.387	4236.98
494.757	4286.02
495.126	4352.23
495.496	4438.1
495.866	4495.28
496.235	4502.28
496.605	4597.42
496.974	4622.28
497.344	4706.12
497.713	4708.38
498.082	4769.62
498.452	4850.3
498.821	4850.52
499.19	4915.15
499.559	4944.08
499.928	4998.09
500.298	5040.12
500.667	5098.2
501.036	5086.67
501.405	5174.36
501.774	5170.06
502.143	5242.38
502.512	5296.61
502.88	5328.48
503.249	5307.46
503.618	5402.15
503.987	5436.5
504.356	5476.27
504.724	5517.62
505.093	5567.57
505.462	5588.36
505.83	5617.06
506.199	5659.77
506.567	5753.78
506.936	5725.08
507.304	5830.16
507.672	5786.09
508.041	5847.56
508.409	5907.22
508.777	5934.11
509.145	5976.14
509.514	5987.89
509.882	6033.99
510.25	6037.38
510.618	6101.56
510.986	6140.43
511.354	6145.63
511.722	6199.19
512.09	6218.4
512.458	6248.45
512.826	6380.88
513.193	6266.76
513.561	6386.53
513.929	6382.91
514.297	6442.57
514.664	6483.25
515.032	6462.91
515.4	6544.71
515.767	6529.12
516.135	6612.51
516.502	6568.44
516.869	6691.83
517.237	6686.41
517.604	6646.18
517.972	6807.31
518.339	6761.43
518.706	6770.92
519.073	6840.53
519.44	6850.47
519.808	6913.97
520.175	6887.98
520.542	6981.09
520.909	7037.81
521.276	7017.47
521.643	7046.17
522.009	7096.79
522.376	7129.11
522.743	7140.41
523.11	7187.41
523.477	7284.58
523.843	7315.99
524.21	7359.16
524.577	7392.83
524.943	7481.64
525.31	7474.63
525.676	7537.68
526.043	7542.88
526.409	7629.43
526.776	7691.8
527.142	7714.63
527.508	7729.32
527.874	7874.17
528.241	7840.5
528.607	7873.49
528.973	7911.01
529.339	7880.95
529.705	7982.42
530.071	8072.13
530.437	8036.2
530.803	8136.31
531.169	8203.65
531.535	8174.5
531.901	8214.5
532.267	8255.86
532.632	8271.45
532.998	8350.09
533.364	8454.04
533.73	8389.86
534.095	8432.35
534.461	8441.84
534.826	8513.93
535.192	8533.82
535.557	8635.51
535.923	8589.18
536.288	8589.18
536.653	8727.71
537.019	8730.19
537.384	8767.71
537.749	8784.66
538.114	8901.49
538.479	8880.7
538.845	8874.82
539.21	8888.16
539.575	8989.4
539.94	8957.76
540.305	9113.01
540.67	8995.5
541.034	9096.06
541.399	9158.66
541.764	9188.26
542.129	9261.48
542.494	9198.66
542.858	9287.47
543.223	9296.51
543.587	9362.04
543.952	9359.78
544.316	9444.75
544.681	9452.21
545.045	9487.01
545.41	9524.07
545.774	9612.66
546.138	9571.08
546.503	9671.41
546.867	9687.46
547.231	9731.75
547.595	9729.49
547.959	9786.44
548.324	9776.49
548.688	9794.12
549.052	9848.58
549.416	9963.38
549.779	9948.24
550.143	9980.1
550.507	9933.33
550.871	10059.88
551.235	10045.41
551.599	10170.16
551.962	10108.46
552.326	10187.56
552.689	10243.83
553.053	10183.72
553.417	10250.15
553.78	10361.56
554.143	10321.34
554.507	10439.3
554.87	10396.14
555.234	10485.63
555.597	10364.95
555.96	10465.52
556.323	10598.85
556.686	10527.89
557.05	10592.74
557.413	10708.9
557.776	10643.59
558.139	10710.93
558.502	10766.3
558.865	10722.68
559.228	10806.07
559.59	10886.75
559.953	10913.64
560.316	10997.25
560.679	10959.51
561.041	11094.88
561.404	11050.59
561.767	11183.46
562.129	11067.31
562.492	11173.52
562.854	11214.2
563.217	11207.87
563.579	11226.85
563.941	11430.69
564.304	11407.19
564.666	11377.36
565.028	11399.05
565.39	11503
565.753	11597.24
566.115	11551.36
566.477	11592.72
566.839	11630.23
567.201	11691.92
567.563	11700.51
567.925	11806.72
568.287	11792.94
568.648	11812.82
569.01	11871.58
569.372	11999.94
569.734	11981.18
570.095	11970.56
570.457	12110.67
570.819	12178.47
571.18	12235.86
571.542	12267.95
571.903	12214.62
572.265	12382.75
572.626	12381.4
572.987	12356.54
573.349	12588.4
573.71	12587.27
574.071	12620.04
574.432	12784.78
574.794	12831.56
575.155	12867.71
575.516	12823.65
575.877	13037.88
576.238	13049.18
576.599	13171.66
576.96	13251.21
577.32	13196.29
577.681	13398.55
578.042	13518.99
578.403	13554.7
578.763	13679.22
579.124	13780.68
579.485	13964.18
579.845	14038.76
580.206	14097.96
580.566	14240.78
580.927	14393.1
581.287	14502.02
581.648	14640.1
582.008	14859.98
582.368	14983.59
582.728	15087.99
583.089	15364.37
583.449	15390.58
583.809	15591.48
584.169	15831.02
584.529	15966.39
584.889	16192.82
585.249	16325.47
585.609	16429.65
585.969	16774.73
586.329	16977.43
586.688	17246.81
587.048	17420.81
587.408	17529.28
587.768	17800.24
588.127	18018.31
588.487	18198.65
588.846	18558.41
589.206	18712.98
589.565	18900.77
589.925	19209.69
590.284	19446.75
590.643	19671.6
591.003	19972.61
591.362	20229.55
591.721	20429.1
592.08	20635.87
592.44	20865.24
592.799	21272.69
593.158	21425.23
593.517	21655.73
593.876	22007.59
594.235	22214.13
594.593	22420
594.952	22727.57
595.311	22925.3
595.67	23215.24
596.029	23573.42
596.387	23836.01
596.746	24115.1
597.104	24247.3
597.463	24664.24
597.822	24844.35
598.18	24962.99
598.538	25139.71
598.897	25607.72
599.255	25702.18
599.613	26236.85
599.972	26210.86
600.33	26547.58
600.688	26691.3
601.046	26977.4
601.404	27280.44
601.762	27505.07
602.12	27776.02
602.478	27910.93
602.836	28288.78
603.194	28353.18
603.552	28689.9
603.91	28724.7
604.268	29046.72
604.625	29180.05
604.983	29447.62
605.341	29623.2
605.698	29847.38
606.056	30139.8
606.413	30254.37
606.771	30462.73
607.128	30631.99
607.485	30717.86
607.843	30984.07
608.2	31227.23
608.557	31675.58
608.914	31558.29
609.272	31907.44
609.629	32127.55
609.986	32408.44
610.343	32210.48
610.7	32751.03
611.057	32783.57
611.414	33021.98
611.771	33128.65
612.127	33252.94
612.484	33473.5
612.841	33601.86
613.198	33653.38
613.554	33798.01
613.911	34133.37
614.267	34160.03
614.624	34335.4
614.98	34470.76
615.337	34722.73
615.693	34578.1
616.05	34833.69
616.406	35235.49
616.762	35045.89
617.118	35237.29
617.475	35354.8
617.831	35447.01
618.187	35574.23
618.543	35790.73
618.899	35995.69
619.255	36027.1
619.611	36037.95
619.967	36296.48
620.323	36499.18
620.678	36450.37
621.034	36340.99
621.39	36476.13
621.746	36590.93
622.101	36958.38
622.457	36849
622.812	36821.66
623.168	36938.04
623.523	37113.4
623.879	37189.78
624.234	36964.48
624.589	37225.04
624.945	37183.01
625.3	37533.28
625.655	37418.25
626.01	37497.8
626.365	37565.14
626.72	37661.18
627.075	37630
627.43	37653.95
627.785	37580.51
628.14	37843.55
628.495	37904.12
628.85	37878.35
629.205	37749.77
629.559	38063.43
629.914	37838.36
630.269	37914.74
630.623	37801.97
630.978	37857.79
631.332	37961.29
631.687	38130.1
632.041	37910.44
632.396	38082.42
632.75	38022.31
633.104	38025.7
633.459	37839.49
633.813	37998.13
634.167	38082.19
634.521	37993.61
634.875	38050.1
635.229	37979.14
635.583	37896.88
635.937	37891.46
636.291	37876.09
636.645	37931.91
636.999	37882.42
637.352	38041.97
637.706	37855.76
638.06	38025.92
638.413	37923.1
638.767	37775.08
639.121	37963.1
639.474	37756.1
639.828	37832.71
640.181	37836.1
640.534	37914.06
640.888	37710
641.241	37696.66
641.594	37736.89
641.947	37879.48
642.301	37658.02
642.654	37789.09
643.007	37813.05
643.36	37703.67
643.713	37757.91
644.066	37788.64
644.419	37465.71
644.771	37437.91
645.124	37028.43
645.477	37092.39
645.83	36775.56
646.182	36644.26
646.535	36680.19
646.888	36693.07
647.24	36372.86
647.593	36621.44
647.945	36581.89
648.298	36421.67
648.65	36309.13
649.002	36323.14
649.355	36445.4
649.707	36402.01
650.059	36485.4
650.411	36957.25
650.763	36967.42
651.115	37457.35
651.467	37272.04
651.819	37267.07
652.171	37263.68
652.523	37177.13
652.875	37010.35
653.227	36865.73
653.578	37106.85
653.93	37042.44
654.282	36895.56
654.633	36936.91
654.985	37009.22
655.337	37013.97
655.688	37000.41
656.039	37203.34
656.391	36811.94
656.742	36942.33
657.094	36950.47
657.445	37137.13
657.796	36927.64
658.147	36959.96
658.498	36853.07
658.849	37007.87
659.2	36897.14
659.551	36753.19
659.902	36870.92
660.253	36805.61
660.604	37019.85
660.955	36656.69
661.306	36856.46
661.656	36754.99
662.007	36778.95
662.358	36765.84
662.708	36827.08
663.059	36718.38
663.409	36560.87
663.76	36786.86
664.11	36743.24
664.461	36837.93
664.811	36810.81
665.161	36710.93
665.511	36735.79
665.862	36687.2
666.212	36757.03
666.562	36828.44
666.912	36713.41
667.262	36792.96
667.612	36723.36
667.962	36739.85
668.312	36648.33
668.662	36758.61
669.011	36702.34
669.361	36651.95
669.711	36658.95
670.06	36605.62
670.41	36353.87
670.76	36491.05
671.109	36694.66
671.459	36532.18
671.808	36458.05
672.157	36549.35
672.507	36437.26
672.856	36457.83
673.205	36507.32
673.554	36424.38
673.904	36359.98
674.253	36599.07
674.602	36405.62
674.951	35965.18
675.3	35684.51
675.649	36303.71
675.998	36243.82
676.346	36368.11
676.695	36504.15
677.044	36145.29
677.393	36274.78
677.741	36250.6
678.09	36140.09
678.438	36082.24
678.787	36160.66
679.135	36009.02
679.484	35994.79
679.832	36029.36
680.181	35876.37
680.529	35972.87
680.877	35864.17
681.225	35821.46
681.573	36012.19
681.922	35704.17
682.27	35709.37
682.618	35712.08
682.966	35627.57
683.314	35565.19
683.661	35723.38
684.009	35583.27
684.357	35432.77
684.705	35369.27
685.053	35465.31
685.4	35351.19
685.748	35261.02
686.095	35260.34
686.443	34965.21
686.79	34941.26
687.138	34963.18
687.485	35024.19
687.832	34761.15
688.18	34861.94
688.527	34669.4
688.874	34720.47
689.221	34548.95
689.568	34463.53
689.915	34416.52
690.262	34367.71
690.609	34307.83
690.956	34132.24
691.303	34152.12
691.65	34091.11
691.997	34028.29
692.344	33869.87
692.69	33869.65
693.037	33915.97
693.383	33583.33
693.73	33713.04
694.077	33415.42
694.423	33548.52
694.769	33467.62
695.116	33261.98
695.462	33331.13
695.808	33073.73
696.155	33277.57
696.501	32938.6
696.847	32836.68
697.193	32791.03
697.539	32842.55
697.885	32681.88
698.231	32654.54
698.577	32626.29
698.923	32564.82
699.269	32303.81
699.614	32083.48
699.96	32220.2
700.306	32217.71
700.651	31981.56
700.997	31918.96
701.342	31871.28
701.688	31829.25
702.033	31637.39
702.379	31704.73
702.724	31636.71
703.069	31680.33
703.415	31262.94
703.76	31379.99
704.105	31469.48
704.45	31300
704.795	31153.56
705.14	30899.55
705.485	31043.73
705.83	30886.22
706.175	30863.85
706.52	30803.96
706.865	30643.97
707.209	30656.17
707.554	30582.27
707.899	30524.42
708.243	30426.35
708.588	30391.55
708.932	30217.09
709.277	30039.24
709.621	30157.2
709.966	29852.35
710.31	30048.28
710.654	29756.31
710.998	29801.73
711.342	29915.85
711.687	29688.74
712.031	29647.84
712.375	29531.23
712.719	29612.13
713.063	29538.46
713.407	29464.56
713.75	29358.58
714.094	29349.77
714.438	29248.75
714.782	29277
715.125	29060.51
715.469	29266.6
715.812	29013.95
716.156	28967.18
716.499	28888.08
716.843	29053.28
717.186	28784.36
717.53	28932.37
717.873	28802.21
718.216	28719.5
718.559	28593.4
718.902	28499.39
719.246	28517.7
719.589	28427.3
719.932	28306.85
720.275	28391.15
720.617	28310.92
720.96	28235.67
721.303	28256.69
721.646	28180.98
721.989	28086.52
722.331	28078.39
722.674	28091.27
723.016	28094.66
723.359	27904.61
723.701	28083.81
724.044	27814.89
724.386	27697.61
724.729	27804.49
725.071	27628.45
725.413	27746.19
725.755	27689.24
726.097	27604.5
726.439	27431.4
726.782	27526.99
727.124	27630.04
727.465	27469.81
727.807	27369.48
728.149	27478.63
728.491	27336.26
728.833	27398.63
729.175	27254
729.516	27121.8
729.858	27192.99
730.199	27130.16
730.541	27139.43
730.882	26986.89
731.224	27098.07
731.565	26847.91
731.906	27025.98
732.248	26867.34
732.589	26785.76
732.93	26717.07
733.271	26745.31
733.612	26668.93
733.953	26760
734.294	26646.33
734.635	26464.42
734.976	26691.98
735.317	26423.29
735.658	26405.89
735.999	26447.24
736.339	26350.07
736.68	26532.44
737.021	26360.01
737.361	26182.62
737.702	26448.37
738.042	26305.55
738.383	26197.53
738.723	26269.39
739.063	26031.21
739.404	26177.42
739.744	25986.24
740.084	26040.93
740.424	26044.09
740.764	25933.58
741.104	26009.29
741.444	25867.6
741.784	25754.61
742.124	25844.32
742.464	25827.6
742.804	25786.02
743.143	25734.94
743.483	25580.82
743.823	25564.78
744.162	25590.54
744.502	25483.43
744.841	25424.9
745.181	25482.97
745.52	25381.06
745.86	25438.68
746.199	25374.5
746.538	25253.38
746.877	25404.11
747.216	25340.38
747.556	25402.75
747.895	25345.12
748.234	25206.6
748.573	25101.52
748.911	25083.66
749.25	25142.64
749.589	24976.77
749.928	25115.75
750.267	24945.36
750.605	24953.27
750.944	24846.15
751.283	24745.59
751.621	24931.8
751.96	24805.25
752.298	24665.14
752.636	24663.56
752.975	24592.38
753.313	24459.5
753.651	24526.16
753.989	24466.73
754.327	24473.06
754.666	24399.39
755.004	24292.72
755.342	24355.55
755.679	24347.18
756.017	24188.77
756.355	24266.06
756.693	24139.96
757.031	24219.73
757.368	24023.13
757.706	23991.26
758.044	23828.33
758.381	23975.9
758.719	23820.19
759.056	23800.53
759.394	23701.55
759.731	23681.89
760.068	23553.76
760.405	23403.48
760.743	23431.05
761.08	23511.5
761.417	23342.92
761.754	23227.67
762.091	23224.73
762.428	23153.09
762.765	22978.18
763.102	23055.24
763.438	22923.49
763.775	22847.11
764.112	22835.59
764.449	22846.89
764.785	22754.23
765.122	22494.58
765.458	22586.78
765.795	22493
766.131	22405.31
766.467	22441.92
766.804	22316.96
767.14	22231.99
767.476	22135.27
767.812	22113.35
768.148	22055.72
768.485	22036.06
768.821	21816.18
769.157	21770.08
769.492	21726.01
769.828	21800.36
770.164	21574.38
770.5	21514.72
770.836	21485.34
771.171	21369.64
771.507	21335.74
771.842	21183.2
772.178	21236.53
772.513	21133.03
772.849	21098.68
773.184	20900.04
773.519	20924.68
773.855	20871.34
774.19	20750.67
774.525	20577.11
774.86	20714.51
775.195	20621.86
775.53	20429.1
775.865	20370.57
776.2	20242.21
776.535	20166.96
776.87	20137.13
777.205	20086.05
777.539	19993.4
777.874	19928.54
778.209	19771.03
778.543	19825.27
778.878	19693.75
779.212	19712.5
779.547	19516.35
779.881	19547.99
780.215	19409.46
780.55	19521.77
780.884	19345.28
781.218	19363.36
781.552	19322.91
781.886	19150.49
782.22	19048.34
782.554	18983.71
782.888	18685.19
783.222	18718.86
783.556	18651.97
783.889	18721.57
784.223	18482.25
784.557	18402.71
784.89	18501.01
785.224	18392.31
785.557	18386.21
785.891	18229.83
786.224	18279.32
786.558	18169.04
786.891	18051.98
787.224	18048.37
787.557	17920.46
787.891	17994.36
788.224	17892.44
788.557	17824.42
788.89	17852.89
789.223	17754.82
789.556	17619.68
789.888	17507.82
790.221	17542.62
790.554	17326.35
790.887	17385.11
791.219	17245.68
791.552	17181.95
791.884	17120.93
792.217	17085
792.549	17109.41
792.882	16904.89
793.214	16838.23
793.546	16870.77
793.879	16809.08
794.211	16691.11
794.543	16852.69
794.875	16700.38
795.207	16678.01
795.539	16624.45
795.871	16579.48
796.203	16444.57
796.535	16320.5
796.867	16337.45
797.198	16320.05
797.53	16264.46
797.862	16097.46
798.193	16124.8
798.525	16112.37
798.856	16048.87
799.188	15803
799.519	15939.04
799.85	15804.81
800.182	15787.41
800.513	15830.8
800.844	15699.28
801.175	15703.8
801.506	15682.78
801.837	15544.25
802.168	15537.25
802.499	15527.08
802.83	15314.2
803.161	15435.1
803.491	15388.1
803.822	15385.39
804.153	15196.46
804.483	15156.24
804.814	15041.21
805.145	15099.07
805.475	15017.26
805.805	14990.37
806.136	15022.01
806.466	14900.2
806.796	14826.31
807.126	14743.37
807.457	14743.6
807.787	14713.31
808.117	14753.54
808.447	14693.65
808.777	14598.51
809.107	14624.5
809.436	14465.64
809.766	14510.38
810.096	14500.66
810.426	14394.45
810.755	14465.64
811.085	14295.7
811.414	14337.05
811.744	14232.65
812.073	14257.28
812.403	14133.89
812.732	14110.39
813.061	14087.79
813.39	13972.99
813.719	13981.36
814.049	14063.16
814.378	13991.98
814.707	13996.04
815.036	13928.02
815.365	13856.84
815.693	13798.08
816.022	13734.58
816.351	13724.87
816.68	13662.49
817.008	13721.93
817.337	13537.07
817.665	13557.19
817.994	13628.82
818.322	13600.12
818.651	13508.15
818.979	13442.84
819.307	13408.26
819.636	13388.15
819.964	13375.04
820.292	13424.99
820.62	13423.63
820.948	13337.08
821.276	13390.86
821.604	13321.03
821.932	13261.6
822.259	13246.46
822.587	13315.61
822.915	13229.74
823.243	13326.01
823.57	13305.22
823.898	13276.29
824.225	13244.2
824.553	13250.3
824.88	13236.06
825.207	13208.95
825.535	13144.99
825.862	13227.25
826.189	13206.91
826.516	13274.71
826.843	13352.45
827.17	13276.74
827.497	13293.01
827.824	13207.36
828.151	13259.11
828.478	13239
828.805	13253.69
829.131	13118.1
829.458	13234.93
829.785	13110.87
830.111	13223.64
830.438	13208.04
830.764	13245.56
831.09	13193.13
831.417	13063.41
831.743	13205.1
832.069	13189.96
832.395	13150.19
832.722	13095.05
833.048	13065.9
833.374	13093.47
833.7	13041.72
834.026	13105.9
834.351	13107.03
834.677	12979.12
835.003	13110.87
835.329	13026.8
835.654	12941.61
835.98	12961.95
836.306	13029.97
836.631	12936.41
836.956	12994.26
837.282	12996.3
837.607	12850.31
837.932	12860.48
838.258	12900.93
838.583	12884.44
838.908	12787.04
839.233	12785.91
839.558	12690.54
839.883	12681.28
840.208	12752.24
840.533	12726.47
840.858	12696.87
841.182	12716.98
841.507	12645.8
841.832	12543.43
842.156	12578.91
842.481	12556.53
842.805	12525.12
843.13	12460.27
843.454	12435.18
843.778	12429.53
844.103	12409.65
844.427	12391.11
844.751	12362.64
845.075	12298.24
845.399	12333.49
845.723	12211.68
846.047	12221.18
846.371	12066.6
846.695	12128.3
847.019	11993.61
847.343	11977.11
847.666	11863.22
847.99	11940.96
848.313	11797.01
848.637	11746.61
848.96	11808.98
849.284	11785.03
849.607	11638.59
849.931	11567.63
850.254	11536
850.577	11551.36
850.9	11383.23
851.223	11393.4
851.546	11317.7
851.869	11251.03
852.192	11321.31
852.515	11192.5
852.838	11194.08
853.161	11221.88
853.483	11066.86
853.806	11116.57
854.129	11031.15
854.451	11022.34
854.774	10924.49
855.096	10903.7
855.419	10969.68
855.741	10827.54
856.063	10813.08
856.385	10800.2
856.708	10732.63
857.03	10760.65
857.352	10704.61
857.674	10654.89
857.996	10574.89
858.318	10649.69
858.64	10570.37
858.961	10533.08
859.283	10547.55
859.605	10446.53
859.926	10420.77
860.248	10431.17
860.57	10321.79
860.891	10442.69
861.212	10337.61
861.534	10275.01
861.855	10277.95
862.176	10255.35
862.498	10287.67
862.819	10252.87
863.14	10266.42
863.461	10290.61
863.782	10197.05
864.103	10201.12
864.424	10121.34
864.745	10214.67
865.065	10102.59
865.386	10053.1
865.707	10061.91
866.027	10150.72
866.348	10015.81
866.668	10089.03
866.989	10017.39
867.309	9931.97
867.63	9944.85
867.95	9917.51
868.27	9869.83
868.59	9919.77
868.91	9870.96
869.23	9860.33
869.55	9827.79
869.87	9901.24
870.19	9851.97
870.51	9837.06
870.83	9802.71
871.15	9791.86
871.469	9764.74
871.789	9774.91
872.109	9785.31
872.428	9733.78
872.748	9718.42
873.067	9724.52
873.386	9698.76
873.706	9669.15
874.025	9614.01
874.344	9599.78
874.663	9676.38
874.982	9579.66
875.301	9611.07
875.62	9510.74
875.939	9487.01
876.258	9495.6
876.577	9428.93
876.896	9524.07
877.214	9397.75
877.533	9425.32
877.852	9429.16
878.17	9391.65
878.489	9387.58
878.807	9353.45
879.125	9423.51
879.444	9375.15
879.762	9332.44
880.08	9278.43
880.398	9257.64
880.716	9284.98
881.034	9277.52
881.352	9297.18
881.67	9217.19
881.988	9215.38
882.306	9158.88
882.624	9225.55
882.941	9104.65
883.259	9100.81
883.577	9090.18
883.894	9057.64
884.212	9056.51
884.529	9034.14
884.846	9016.97
885.164	9003.18
885.481	8962.96
885.798	8973.35
886.115	8930.87
886.432	8925.44
886.75	8931.32
887.067	8958.21
887.383	8860.59
887.7	8865.56
888.017	8849.29
888.334	8873.02
888.651	8732.23
888.967	8797.09
889.284	8757.54
889.6	8721.15
889.917	8675.28
890.233	8675.96
890.55	8640.71
890.866	8660.82
891.182	8646.81
891.498	8604.32
891.815	8569.07
892.131	8576.75
892.447	8493.36
892.763	8492.91
893.079	8434.38
893.395	8419.02
893.71	8409.98
894.026	8340.15
894.342	8359.58
894.657	8279.13
894.973	8270.77
895.289	8281.39
895.604	8258.57
895.92	8182.86
896.235	8110.55
896.55	8101.06
896.865	8159.81
897.181	8102.41
897.496	8096.31
897.811	7991
898.126	7979.48
898.441	8007.5
898.756	7916.43
899.071	8001.4
899.386	7889.54
899.7	7842.99
900.015	7865.36
900.33	7749.43
900.644	7746.72
900.959	7819.48
901.273	7766.15
901.588	7729.99
901.902	7680.73
902.216	7668.75
902.531	7673.05
902.845	7559.15
903.159	7528.64
903.473	7576.33
903.787	7553.05
904.101	7439.61
904.415	7456.56
904.729	7409.1
905.042	7421.98
905.356	7413.17
905.67	7336.11
905.984	7331.36
906.297	7322.1
906.611	7310.57
906.924	7304.92
907.237	7277.8
907.551	7166.62
907.864	7197.13
908.177	7144.93
908.491	7123.68
908.804	7087.07
909.117	7020.41
909.43	7014.31
909.743	6966.4
910.056	6941.54
910.368	6961.43
910.681	6935.89
910.994	6872.84
911.307	6859.73
911.619	6802.11
911.932	6820.41
912.244	6781.54
912.557	6749.68
912.869	6725.28
913.181	6683.69
913.494	6657.93
913.806	6636.69
914.118	6631.04
914.43	6567.99
914.742	6556.69
915.054	6542
915.366	6502.68
915.678	6480.31
915.99	6372.74
916.302	6353.99
916.613	6341.78
916.925	6366.41
917.236	6333.65
917.548	6279.19
917.859	6347.66
918.171	6256.36
918.482	6220.66
918.794	6225.18
919.105	6147.44
919.416	6138.85
919.727	6163.48
920.038	6081.68
920.349	6118.06
920.66	6057.04
920.971	6000.32
921.282	6046.2
921.593	5953.54
921.903	5943.6
922.214	5929.82
922.525	5908.35
922.835	5870.61
923.146	5867.22
923.456	5826.32
923.767	5801.68
924.077	5789.93
924.387	5752.65
924.697	5728.24
925.008	5681.91
925.318	5668.13
925.628	5671.97
925.938	5699.09
926.248	5611.86
926.558	5584.97
926.867	5564.63
927.177	5533.67
927.487	5507.23
927.796	5431.52
928.106	5477.17
928.416	5430.62
928.725	5388.36
929.034	5359.44
929.344	5418.87
929.653	5341.36
929.962	5314.24
930.271	5335.93
930.581	5267.69
930.89	5255.71
931.199	5238.08
931.508	5210.74
931.817	5200.12
932.125	5167.12
932.434	5171.42
932.743	5131.87
933.051	5146.56
933.36	5078.31
933.669	5015.94
933.977	5064.98
934.286	5028.82
934.594	5010.07
934.902	4989.95
935.21	4970.75
935.519	4973.91
935.827	4926.9
936.135	4896.4
936.443	4853.91
936.751	4842.61
937.059	4860.47
937.367	4811.43
937.674	4820.24
937.982	4803.97
938.29	4735.04
938.597	4771.65
938.905	4701.15
939.213	4732.79
939.52	4687.14
939.827	4692.33
940.135	4620.25
940.442	4596.52
940.749	4582.51
941.056	4597.42
941.363	4554.26
941.67	4549.29
941.977	4534.15
942.284	4501.38
942.591	4516.52
942.898	4483.53
943.205	4461.38
943.511	4436.97
943.818	4425.67
944.125	4362.17
944.431	4369.18
944.738	4387.48
945.044	4362.17
945.35	4311.33
945.657	4291.89
945.963	4275.85
946.269	4254.15
946.575	4267.49
946.881	4186.81
947.187	4229.07
947.493	4218.9
947.799	4211.89
948.105	4134.16
948.41	4098
948.716	4099.58
949.022	4090.09
949.327	4109.75
949.633	4054.38
949.938	4079.92
950.244	4022.3
950.549	4030.43
950.854	3979.58
951.16	4009.19
951.465	3946.59
951.77	3936.42
952.075	3882.64
952.38	3905.01
952.685	3935.97
952.99	3875.18
953.294	3850.1
953.599	3816.2
953.904	3799.25
954.209	3770.78
954.513	3784.79
954.818	3751.12
955.122	3730.55
955.426	3731.46
955.731	3710.67
956.035	3679.25
956.339	3671.12
956.643	3665.92
956.948	3646.03
957.252	3631.8
957.556	3625.02
957.86	3577.56
958.163	3601.29
958.467	3607.62
958.771	3581.63
959.075	3586.6
959.378	3538.24
959.682	3557.9
959.985	3523.55
960.289	3476.32
960.592	3485.81
960.896	3457.56
961.199	3485.13
961.502	3420.05
961.805	3422.09
962.108	3399.94
962.411	3370.79
962.714	3384.35
963.017	3366.27
963.32	3361.52
963.623	3310.22
963.926	3299.6
964.228	3313.39
964.531	3264.12
964.833	3312.03
965.136	3256.89
965.438	3245.82
965.741	3235.65
966.043	3225.25
966.345	3193.62
966.648	3175.99
966.95	3194.75
967.252	3143
967.554	3123.34
967.856	3123.56
968.158	3122.21
968.46	3128.53
968.761	3102.32
969.063	3073.17
969.365	3073.39
969.666	3028.2
969.968	3071.59
970.269	3023.45
970.571	2979.38
970.872	3023.23
971.174	3000.4
971.475	2968.09
971.776	2976
972.077	2953.62
972.378	2928.54
972.679	2929.89
972.98	2931.48
973.281	2903.23
973.582	2897.13
973.883	2859.84
974.183	2876.34
974.484	2837.02
974.785	2832.27
975.085	2786.85
975.386	2834.08
975.686	2833.4
975.986	2819.16
976.287	2797.47
976.587	2735.78
976.887	2741.2
977.187	2729.67
977.487	2754.98
977.787	2717.47
978.087	2731.93
978.387	2707.3
978.687	2684.7
978.987	2663.91
979.286	2682.67
979.586	2642.44
979.885	2637.02
980.185	2600.19
980.484	2616.46
980.784	2597.47
981.083	2551.6
981.382	2607.64
981.682	2598.6
981.981	2549.57
982.28	2541.88
982.579	2521.09
982.878	2536.68
983.177	2520.87
983.475	2526.06
983.774	2488.78
984.073	2454.2
984.372	2466.86
984.67	2485.61
984.969	2451.49
985.267	2418.5
985.566	2435.22
985.864	2410.36
986.162	2421.21
986.461	2405.39
986.759	2352.51
987.057	2357.93
987.355	2342.11
987.653	2363.81
987.951	2332.17
988.249	2319.52
988.547	2347.09
988.844	2312.74
989.142	2308.67
989.44	2275.22
989.737	2282.45
990.035	2272.28
990.332	2258.73
990.63	2219.63
990.927	2221.21
991.224	2229.35
991.521	2190.03
991.819	2221.66
992.116	2227.31
992.413	2196.35
992.71	2187.32
993.006	2190.03
993.303	2157.49
993.6	2122.68
993.897	2154.32
994.193	2109.58
994.49	2124.49
994.787	2099.63
995.083	2107.77
995.379	2082.01
995.676	2068
995.972	2064.38
996.268	2070.26
996.565	2047.43
996.861	2034.78
997.157	2046.3
997.453	1996.13
997.749	2004.72
998.044	1985.96
998.34	1990.71
998.636	1970.15
998.932	1963.59
999.227	1953.2
999.523	1943.03
999.818	1922.92
1000.114	1928.79
1000.409	1925.63
1000.704	1919.3
1001	1893.54
1001.295	1889.02
1001.59	1894.89
1001.885	1877.72
1002.18	1864.16
1002.475	1861.45
1002.77	1869.58
1003.065	1820.09
1003.359	1808.34
1003.654	1831.62
1003.949	1814.22
1004.243	1797.04
1004.538	1769.47
1004.832	1770.15
1005.127	1762.24
1005.421	1753.65
1005.715	1759.3
1006.009	1744.39
1006.304	1761.11
1006.598	1729.02
1006.892	1688.12
1007.186	1698.74
1007.48	1696.03
1007.773	1677.5
1008.067	1674.79
1008.361	1662.13
1008.655	1668.46
1008.948	1662.58
1009.242	1642.7
1009.535	1614.45
1009.829	1604.51
1010.122	1606.09
1010.415	1576.26
1010.708	1562.25
1011.001	1609.93
1011.295	1583.72
1011.588	1563.15
1011.881	1568.12
1012.173	1550.04
1012.466	1531.29
1012.759	1517.28
1013.052	1524.73
1013.344	1501.01
1013.637	1482.25
1013.93	1512.08
1014.222	1473.89
1014.514	1456.49
1014.807	1469.14
1015.099	1462.81
1015.391	1444.28
1015.683	1421.69
1015.976	1432.76
1016.268	1437.28
1016.56	1381.46
1016.851	1398.41
1017.143	1400.22
1017.435	1395.25
1017.727	1408.8
1018.018	1363.83
1018.31	1365.87
1018.602	1378.07
1018.893	1359.09
1019.185	1355.02
1019.476	1321.35
1019.767	1345.76
1020.058	1322.48
1020.35	1296.94
1020.641	1299.66
1020.932	1284.74
1021.223	1284.29
1021.514	1274.12
1021.804	1261.69
1022.095	1239.09
1022.386	1240.22
1022.677	1244.29
1022.967	1248.58
1023.258	1198.87
1023.548	1221.01
1023.839	1238.87
1024.129	1211.52
1024.419	1210.84
1024.709	1214.69
1025	1198.41
1025.29	1181.47
1025.58	1194.35
1025.87	1158.42
1026.16	1153.9
1026.449	1149.15
1026.739	1158.64
1027.029	1109.83
1027.319	1128.13
1027.608	1132.43
1027.898	1107.8
1028.187	1099.43
1028.477	1101.24
1028.766	1098.98
1029.055	1077.51
1029.344	1084.52
1029.634	1059.89
1029.923	1069.83
1030.212	1051.75
1030.501	1050.62
1030.79	1047.68
1031.078	1035.48
1031.367	1037.52
1031.656	1061.02
1031.945	1019.89
1032.233	1005.2
1032.522	995.48
1032.81	973.79
1033.099	974.92
1033.387	969.49
1033.675	965.88
1033.963	973.79
1034.251	978.99
1034.54	962.71
1034.828	966.1
1035.116	956.84
1035.403	966.33
1035.691	932.21
1035.979	913.9
1036.267	939.89
1036.554	926.56
1036.842	913
1037.129	904.19
1037.417	900.12
1037.704	892.89
1037.992	904.86
1038.279	880.46
1038.566	914.35
1038.853	914.35
1039.14	914.35
