Data from hue_280_FLMS001491_00048.txt Node
Date: Tue Feb 07 15:55:20 GMT 2017
User: dcchb
Spectrometer: FLMS00149
Trigger mode: 0
Integration Time (sec): 2.000000E-2
Scans to average: 10
Electric dark correction enabled: true
Nonlinearity correction enabled: false
Boxcar width: 0
XAxis mode: Wavelengths
Number of Pixels in Spectrum: 2048
>>>>>Begin Spectral Data<<<<<
341.393	-6.43
341.776	-6.43
342.16	-6.43
342.543	-54.79
342.927	-74
343.31	-71.96
343.693	-65.18
344.077	-67.67
344.46	-68.57
344.843	-43.49
345.226	-49.14
345.61	-29.93
345.993	-19.99
346.376	10.3
346.759	33.8
347.142	26.79
347.525	54.59
347.908	53.23
348.291	53.91
348.674	73.35
349.057	109.95
349.44	131.42
349.823	138.88
350.206	177.3
350.588	216.17
350.971	213.91
351.354	221.59
351.737	266.11
352.119	243.28
352.502	241.93
352.884	258.43
353.267	261.82
353.65	287.58
354.032	289.16
354.414	276.28
354.797	301.81
355.179	313.34
355.562	320.8
355.944	308.37
356.326	315.6
356.709	335.49
357.091	331.19
357.473	327.58
357.855	329.38
358.238	334.13
358.62	318.31
359.002	322.6
359.384	336.39
359.766	322.38
360.148	347.46
360.53	327.8
360.912	329.16
361.294	311.08
361.676	325.54
362.057	326.45
362.439	326.9
362.821	333.23
363.203	311.76
363.584	302.27
363.966	312.66
364.348	329.84
364.729	330.06
365.111	328.93
365.493	307.24
365.874	320.34
366.256	320.34
366.637	323.06
367.019	312.21
367.4	291.19
367.781	292.1
368.163	303.85
368.544	317.41
368.925	304.3
369.306	308.37
369.688	292.32
370.069	303.85
370.45	311.08
370.831	310.18
371.212	303.85
371.593	315.37
371.974	311.31
372.355	284.64
372.736	309.72
373.117	296.84
373.498	305.2
373.879	324.64
374.26	318.08
374.641	302.94
375.021	296.62
375.402	303.85
375.783	319.89
376.163	314.47
376.544	311.31
376.925	325.09
377.305	324.19
377.686	325.99
378.066	334.36
378.447	324.19
378.827	322.38
379.208	329.84
379.588	342.27
379.968	337.07
380.349	323.51
380.729	318.54
381.109	309.05
381.489	324.19
381.87	304.07
382.25	345.43
382.63	334.13
383.01	327.8
383.39	353.11
383.77	332.55
384.15	350.63
384.53	335.71
384.91	328.93
385.29	339.33
385.67	360.12
386.049	333
386.429	332.55
386.809	349.5
387.189	360.34
387.568	341.36
387.948	341.36
388.328	344.75
388.707	347.24
389.087	369.61
389.466	339.55
389.846	349.27
390.225	363.51
390.605	358.76
390.984	358.99
391.363	369.61
391.743	360.8
392.122	361.02
392.501	354.24
392.881	380.46
393.26	380.23
393.639	383.39
394.018	395.6
394.397	380.68
394.776	396.5
395.155	383.62
395.534	382.26
395.913	365.99
396.292	376.16
396.671	381.36
397.05	384.75
397.429	394.02
397.808	410.29
398.186	385.88
398.565	381.36
398.944	388.59
399.323	406.67
399.701	397.63
400.08	397.18
400.458	408.48
400.837	414.58
401.215	406.67
401.594	402.6
401.972	407.57
402.351	408.48
402.729	427.23
403.107	430.85
403.486	439.21
403.864	444.64
404.242	423.84
404.62	439.66
404.999	432.21
405.377	418.42
405.755	432.43
406.133	431.3
406.511	438.76
406.889	453.45
407.267	456.61
407.645	462.49
408.023	465.65
408.401	467.91
408.779	450.28
409.156	465.88
409.534	489.61
409.912	472.88
410.29	488.48
410.667	497.29
411.045	502.03
411.422	505.65
411.8	495.48
412.178	525.54
412.555	533.22
412.933	543.84
413.31	541.81
413.687	549.27
414.065	563.28
414.442	562.37
414.819	570.51
415.197	573.9
415.574	571.41
415.951	593.33
416.328	613.9
416.705	579.55
417.082	596.72
417.46	605.08
417.837	638.3
418.214	625.2
418.591	625.2
418.967	648.7
419.344	642.6
419.721	645.53
420.098	658.64
420.475	667.68
420.852	666.78
421.228	675.82
421.605	711.07
421.982	690.96
422.358	697.96
422.735	723.95
423.111	706.1
423.488	738.41
423.864	711.52
424.241	749.26
424.617	744.74
424.994	757.62
425.37	789.48
425.746	773.67
426.123	781.58
426.499	781.58
426.875	802.59
427.251	812.76
427.627	836.94
428.003	835.81
428.379	810.95
428.756	841.91
429.132	866.09
429.507	864.74
429.883	867.45
430.259	884.85
430.635	907.67
431.011	925.07
431.387	931.4
431.763	935.47
432.138	933.66
432.514	953.1
432.89	981.34
433.265	982.7
433.641	998.52
434.016	1007.11
434.392	1030.61
434.767	1031.74
435.143	1060.44
435.518	1069.93
435.894	1086.88
436.269	1070.16
436.644	1097.95
437.02	1111.06
437.395	1122.36
437.77	1159.87
438.145	1142.47
438.52	1155.12
438.895	1196.03
439.271	1175.92
439.646	1207.33
440.021	1185.86
440.395	1244.39
440.77	1215.91
441.145	1224.28
441.52	1245.07
441.895	1254.56
442.27	1258.4
442.645	1249.36
443.019	1292.07
443.394	1287.78
443.769	1285.52
444.143	1281.9
444.518	1332.75
444.892	1307.21
445.267	1326.42
445.641	1327.32
446.016	1358.28
446.39	1357.61
446.764	1375.23
447.139	1330.26
447.513	1375.46
447.887	1371.62
448.262	1378.4
448.636	1396.02
449.01	1409.81
449.384	1422.91
449.758	1413.2
450.132	1431.28
450.506	1459.75
450.88	1438.96
451.254	1415.23
451.628	1451.39
452.002	1491.61
452.376	1480.99
452.75	1501.78
453.123	1483.03
453.497	1528.45
453.871	1526.41
454.244	1524.15
454.618	1545.85
454.992	1564.38
455.365	1564.83
455.739	1605.73
456.112	1611.84
456.486	1600.31
456.859	1626.53
457.232	1642.8
457.606	1671.27
457.979	1668.78
458.352	1686.18
458.725	1676.69
459.099	1720.31
459.472	1723.25
459.845	1727.77
460.218	1735
460.591	1764.83
460.964	1757.6
461.337	1772.28
461.71	1821.1
462.083	1822.23
462.456	1845.95
462.829	1854.77
463.201	1874.88
463.574	1881.21
463.947	1921.21
464.32	1924.14
464.692	1921.66
465.065	1936.35
465.438	1981.32
465.81	2006.85
466.183	2024.25
466.555	2028.55
466.928	2056.12
467.3	2051.15
467.672	2073.29
468.045	2137.92
468.417	2114.2
468.789	2110.81
469.161	2135.66
469.534	2182.44
469.906	2219.5
470.278	2244.59
470.65	2219.28
471.022	2234.87
471.394	2293.17
471.766	2320.52
472.138	2297.92
472.51	2381.53
472.882	2368.2
473.253	2414.75
473.625	2427.41
473.997	2463.57
474.369	2459.95
474.74	2506.05
475.112	2499.95
475.484	2564.81
475.855	2586.73
476.227	2618.82
476.598	2669.66
476.97	2655.88
477.341	2710.11
477.713	2775.65
478.084	2759.15
478.455	2847.06
478.827	2807.06
479.198	2918.92
479.569	2887.06
479.94	2977.68
480.311	3029.43
480.682	3074.62
481.053	3032.14
481.424	3086.37
481.795	3148.74
482.166	3169.31
482.537	3194.17
482.908	3247.05
483.279	3274.84
483.65	3305.8
484.021	3389.19
484.391	3396.2
484.762	3398
485.133	3419.7
485.503	3456.31
485.874	3503.09
486.244	3557.77
486.615	3597.32
486.985	3622.86
487.356	3646.81
487.726	3687.49
488.097	3694.27
488.467	3768.84
488.837	3819.24
489.207	3825.34
489.578	3887.03
489.948	3895.17
490.318	3936.97
490.688	3979.01
491.058	3983.98
491.428	4035.95
491.798	4060.59
492.168	4101.49
492.538	4125.44
492.908	4148.27
493.278	4166.12
493.648	4189.4
494.017	4283.18
494.387	4267.36
494.757	4301.03
495.126	4329.96
495.496	4338.09
495.866	4334.25
496.235	4409.95
496.605	4442.5
496.974	4475.72
497.344	4466
497.713	4466.22
498.082	4480.46
498.452	4532.44
498.821	4544.41
499.19	4544.87
499.559	4585.32
499.928	4628.03
500.298	4630.97
500.667	4670.74
501.036	4633.68
501.405	4704.18
501.774	4635.26
502.143	4716.16
502.512	4699.66
502.88	4735.37
503.249	4740.57
503.618	4784.86
503.987	4829.15
504.356	4801.81
504.724	4865.54
505.093	4829.38
505.462	4819.89
505.83	4907.79
506.199	4937.17
506.567	4897.17
506.936	4915.7
507.304	4970.62
507.672	4960.45
508.041	4998.41
508.409	5033.89
508.777	5047.23
509.145	5082.25
509.514	5077.51
509.882	5073.21
510.25	5074.57
510.618	5056.72
510.986	5155.92
511.354	5104.63
511.722	5114.34
512.09	5230.05
512.458	5152.76
512.826	5215.58
513.193	5211.97
513.561	5172.87
513.929	5242.7
514.297	5251.74
514.664	5303.49
515.032	5264.4
515.4	5354.56
515.767	5312.08
516.135	5345.52
516.502	5308.46
516.869	5343.26
517.237	5346.65
517.604	5317.28
517.972	5385.97
518.339	5441.34
518.706	5367.67
519.073	5411.06
519.44	5443.83
519.808	5493.54
520.175	5452.19
520.542	5559.53
520.909	5548.46
521.276	5551.17
521.643	5545.07
522.009	5591.84
522.376	5621.22
522.743	5617.15
523.11	5643.82
523.477	5663.03
523.843	5681.33
524.21	5691.05
524.577	5740.99
524.943	5730.15
525.31	5702.35
525.676	5763.37
526.043	5804.04
526.409	5809.01
526.776	5844.72
527.142	5848.33
527.508	5896.7
527.874	5938.73
528.241	5950.25
528.607	5936.69
528.973	5988.9
529.339	5995.9
529.705	6011.27
530.071	5966.98
530.437	6071.83
530.803	6060.76
531.169	6108.44
531.535	6084.26
531.901	6093.07
532.267	6101.44
532.632	6191.83
532.998	6135.56
533.364	6247.65
533.73	6230.25
534.095	6215.33
534.461	6229.57
534.826	6211.94
535.192	6295.1
535.557	6282.45
535.923	6305.5
536.288	6325.16
536.653	6284.93
537.019	6304.59
537.384	6331.26
537.749	6350.69
538.114	6334.2
538.479	6322.67
538.845	6394.76
539.21	6347.53
539.575	6445.38
539.94	6405.16
540.305	6427.3
540.67	6451.48
541.034	6489
541.399	6477.47
541.764	6447.42
542.129	6510.92
542.494	6517.92
542.858	6562.89
543.223	6501.43
543.587	6548.2
543.952	6607.41
544.316	6524.48
544.681	6549.33
545.045	6664.81
545.41	6645.6
545.774	6562.44
546.138	6615.77
546.503	6674.75
546.867	6646.51
547.231	6700.29
547.595	6682.66
547.959	6686.05
548.324	6695.77
548.688	6676.34
549.052	6679.05
549.416	6701.87
549.779	6710.46
550.143	6723.34
550.507	6787.07
550.871	6801.08
551.235	6733.96
551.599	6785.03
551.962	6834.52
552.326	6805.82
552.689	6844.01
553.053	6801.76
553.417	6839.72
553.78	6860.06
554.143	6839.04
554.507	6884.24
554.87	6917.46
555.234	6938.25
555.597	6905.93
555.96	6914.97
556.323	6949.1
556.686	6960.85
557.05	6951.13
557.413	7031.13
557.776	7017.12
558.139	7049.43
558.502	7013.5
558.865	7067.29
559.228	7070.9
559.59	7124.69
559.953	7135.31
560.316	7167.4
560.679	7163.1
561.041	7190.22
561.404	7284
561.767	7272.03
562.129	7246.26
562.492	7297.34
562.854	7284
563.217	7241.74
563.579	7335.53
563.941	7352.93
564.304	7381.63
564.666	7428.41
565.028	7357.67
565.39	7462.3
565.753	7497.56
566.115	7490.78
566.477	7542.08
566.839	7542.53
567.201	7624.56
567.563	7621.17
567.925	7658
568.287	7687.83
568.648	7669.98
569.01	7645.35
569.372	7753.14
569.734	7741.39
570.095	7799.7
570.457	7838.34
570.819	7811.67
571.18	7733.26
571.542	7883.08
571.903	7872.24
572.265	7924.66
572.626	7998.33
572.987	7994.27
573.349	7964.89
573.71	8009.86
574.071	8008.28
574.432	8081.04
574.794	8168.27
575.155	8097.99
575.516	8126.47
575.877	8152.91
576.238	8269.29
576.599	8265.22
576.96	8306.35
577.32	8348.61
577.681	8359.23
578.042	8405.1
578.403	8422.73
578.763	8465.67
579.124	8502.05
579.485	8546.8
579.845	8587.47
580.206	8646.91
580.566	8665.21
580.927	8643.52
581.287	8777.75
581.648	8765.32
582.008	8849.16
582.368	8844.19
582.728	8971.42
583.089	9023.84
583.449	8956.5
583.809	9056.61
584.169	9151.52
584.529	9141.58
584.889	9233.56
585.249	9143.62
585.609	9205.31
585.969	9298.64
586.329	9360.78
586.688	9453.66
587.048	9518.29
587.408	9554.45
587.768	9624.96
588.127	9592.42
588.487	9668.57
588.846	9787.89
589.206	9804.84
589.565	9892.52
589.925	10021.56
590.284	10017.94
590.643	10066.3
591.003	10134.78
591.362	10261.33
591.721	10229.24
592.08	10326.41
592.44	10401.89
592.799	10443.47
593.158	10516.69
593.517	10485.73
593.876	10671.48
594.235	10658.15
594.593	10742.22
594.952	10747.87
595.311	10783.8
595.67	10887.98
596.029	11003.68
596.387	11020.63
596.746	11107.41
597.104	11149.66
597.463	11128.2
597.822	11315.99
598.18	11284.58
598.538	11312.6
598.897	11388.08
599.255	11369.55
599.613	11558.47
599.972	11476.44
600.33	11577.68
600.688	11558.69
601.046	11663.55
601.404	11722.08
601.762	11737.9
602.12	11718.69
602.478	11854.05
602.836	11868.29
603.194	11851.57
603.552	11997.33
603.91	12022.41
604.268	11986.7
604.625	12018.57
604.983	12116.87
605.341	12078.91
605.698	12133.82
606.056	12230.54
606.413	12249.75
606.771	12279.8
607.128	12302.18
607.485	12253.82
607.843	12327.71
608.2	12468.73
608.557	12484.09
608.914	12446.81
609.272	12536.07
609.629	12560.47
609.986	12633.92
610.343	12587.82
610.7	12652.68
611.057	12668.72
611.414	12737.87
611.771	12704.43
612.127	12772.67
612.484	12835.95
612.841	12771.77
613.198	12791.66
613.554	12868.94
613.911	12926.57
614.267	12922.73
614.624	12965.21
614.98	12964.53
615.337	13053.34
615.693	13061.93
616.05	13137.18
616.406	13135.37
616.762	13045.43
617.118	13049.73
617.475	13140.57
617.831	13221.02
618.187	13166.11
618.543	13202.94
618.899	13252.21
619.255	13209.72
619.611	13270.51
619.967	13296.5
620.323	13391.87
620.678	13333.56
621.034	13258.99
621.39	13346.67
621.746	13361.81
622.101	13461.47
622.457	13414.01
622.812	13428.02
623.168	13417.18
623.523	13457.85
623.879	13491.3
624.234	13421.02
624.589	13401.13
624.945	13455.37
625.3	13437.74
625.655	13447.23
626.01	13411.98
626.365	13461.92
626.72	13486.78
627.075	13487.91
627.43	13492.43
627.785	13369.27
628.14	13484.52
628.495	13533.56
628.85	13424.41
629.205	13390.96
629.559	13482.03
629.914	13404.97
630.269	13387.8
630.623	13386.67
630.978	13396.39
631.332	13398.64
631.687	13393.67
632.041	13349.61
632.396	13439.1
632.75	13380.34
633.104	13423.95
633.459	13274.81
633.813	13382.83
634.167	13339.21
634.521	13335.6
634.875	13404.97
635.229	13376.72
635.583	13329.49
635.937	13331.08
636.291	13261.7
636.645	13298.31
636.999	13253.11
637.352	13354.8
637.706	13241.36
638.06	13218.76
638.413	13234.13
638.767	13189.38
639.121	13169.05
639.474	13184.64
639.828	13136.73
640.181	13080.69
640.534	13182.83
640.888	13142.61
641.241	13078.43
641.594	13128.14
641.947	13087.92
642.301	13143.06
642.654	13167.69
643.007	13188.03
643.36	13061.7
643.713	13105.55
644.066	13166.11
644.419	13056.06
644.771	12993.01
645.124	12885.66
645.477	12852.22
645.83	12751.88
646.182	12755.05
646.535	12750.98
646.888	12679.12
647.24	12641.83
647.593	12724.54
647.945	12681.6
648.298	12608.61
648.65	12658.33
649.002	12620.36
649.355	12741.04
649.707	12738.78
650.059	12787.14
650.411	12884.53
650.763	12901.71
651.115	13030.74
651.467	13054.02
651.819	13028.71
652.171	12946.91
652.523	12972.89
652.875	12989.84
653.227	12884.76
653.578	12948.71
653.93	12987.81
654.282	12955.27
654.633	12916.4
654.985	12941.48
655.337	12956.85
655.688	13004.3
656.039	13062.16
656.391	12959.11
656.742	12936.96
657.094	13001.82
657.445	13118.88
657.796	13001.82
658.147	13013.34
658.498	12987.58
658.849	12988.26
659.2	13034.36
659.551	12958.43
659.902	13018.77
660.253	12957.75
660.604	13005.43
660.955	12942.84
661.306	13035.04
661.656	13030.07
662.007	13013.57
662.358	13027.36
662.708	13099.22
663.059	13035.49
663.409	13066.68
663.76	13107.13
664.11	13087.24
664.461	13075.04
664.811	13080.69
665.161	13043.17
665.511	13043.17
665.862	13068.94
666.212	13125.88
666.562	13089.5
666.912	13110.97
667.262	13053.57
667.612	13067.58
667.962	13020.12
668.312	13085.88
668.662	13104.87
669.011	13140.57
669.361	13102.38
669.711	13076.17
670.06	13079.56
670.41	12987.81
670.76	13100.12
671.109	13028.49
671.459	13046.79
671.808	13058.99
672.157	13033.23
672.507	12971.31
672.856	12977.64
673.205	13013.34
673.554	13028.03
673.904	12953.01
674.253	13077.52
674.602	13013.57
674.951	12799.34
675.3	12743.07
675.649	12873.46
675.998	13026.45
676.346	12887.25
676.695	12910.3
677.044	12922.05
677.393	12895.38
677.741	12815.61
678.09	12781.49
678.438	12769.51
678.787	12797.53
679.135	12789.17
679.484	12744.65
679.832	12768.83
680.181	12694.48
680.529	12726.12
680.877	12698.1
681.225	12597.54
681.573	12781.94
681.922	12630.3
682.27	12597.76
682.618	12586.01
682.966	12560.7
683.314	12554.83
683.661	12555.96
684.009	12563.41
684.357	12423.98
684.705	12454.49
685.053	12416.98
685.4	12444.77
685.748	12471.21
686.095	12368.84
686.443	12343.76
686.79	12407.03
687.138	12397.99
687.485	12307.37
687.832	12254.04
688.18	12296.75
688.527	12152.35
688.874	12165
689.221	12149.19
689.568	12090.2
689.915	12114.84
690.262	11971.11
690.609	12022.41
690.956	11973.15
691.303	11925.01
691.65	11853.37
691.997	11840.04
692.344	11727.5
692.69	11731.8
693.037	11738.58
693.383	11645.02
693.73	11685.92
694.077	11585.59
694.423	11575.42
694.769	11587.85
695.116	11478.92
695.462	11423.78
695.808	11434.85
696.155	11493.16
696.501	11314.18
696.847	11261.98
697.193	11224.01
697.539	11266.27
697.885	11139.27
698.231	11129.78
698.577	11108.76
698.923	11098.14
699.269	11039.38
699.614	10946.51
699.96	10970.69
700.306	10942.21
700.651	10901.31
700.997	10790.58
701.342	10850.24
701.688	10782.44
702.033	10791.26
702.379	10776.79
702.724	10635.78
703.069	10616.12
703.415	10576.8
703.76	10598.94
704.105	10509.46
704.45	10569.57
704.795	10434.43
705.14	10480.76
705.485	10391.94
705.83	10329.12
706.175	10371.61
706.52	10338.84
706.865	10287.31
707.209	10246.64
707.554	10141.33
707.899	10200.99
708.243	10083.03
708.588	10079.64
708.932	10102.23
709.277	10044.61
709.621	10080.99
709.966	9994.21
710.31	9988.79
710.654	9909.25
710.998	9930.94
711.342	9958.96
711.687	9898.62
712.031	9797.38
712.375	9779.76
712.719	9865.86
713.063	9851.17
713.407	9833.09
713.75	9776.37
714.094	9738.85
714.438	9726.65
714.782	9759.19
715.125	9693.43
715.469	9646.88
715.812	9636.48
716.156	9577.05
716.499	9610.5
716.843	9598.52
717.186	9560.55
717.53	9574.56
717.873	9542.7
718.216	9489.14
718.559	9462.48
718.902	9458.41
719.246	9532.31
719.589	9442.36
719.932	9418.41
720.275	9470.39
720.617	9392.87
720.96	9347.68
721.303	9375.25
721.646	9328.47
721.989	9331.63
722.331	9424.51
722.674	9381.35
723.016	9335.7
723.359	9300
723.701	9414.34
724.044	9322.59
724.386	9236.95
724.729	9329.83
725.071	9181.13
725.413	9290.96
725.755	9248.25
726.097	9219.77
726.439	9151.3
726.782	9196.95
727.124	9243.5
727.465	9216.83
727.807	9296.15
728.149	9147.68
728.491	9174.8
728.833	9178.87
729.175	9255.25
729.516	9204.18
729.858	9120.34
730.199	9180
730.541	9186.78
730.882	9179.32
731.224	9226.1
731.565	9189.94
731.906	9168.02
732.248	9170.96
732.589	9111.75
732.93	9200.56
733.271	9173.9
733.612	9153.56
733.953	9216.61
734.294	9140.9
734.635	9109.72
734.976	9198.98
735.317	9142.71
735.658	9154.24
735.999	9170.51
736.339	9157.63
736.68	9135.25
737.021	9244.18
737.361	9140
737.702	9213.67
738.042	9130.51
738.383	9088.93
738.723	9173.67
739.063	9226.1
739.404	9217.96
739.744	9173.22
740.084	9212.54
740.424	9300.67
740.764	9253.9
741.104	9302.71
741.444	9290.05
741.784	9294.8
742.124	9295.25
742.464	9301.13
742.804	9343.61
743.143	9321.24
743.483	9364.85
743.823	9406.43
744.162	9420.9
744.502	9489.6
744.841	9463.83
745.181	9532.76
745.52	9519.2
745.86	9653.21
746.199	9684.17
746.538	9663.83
746.877	9718.52
747.216	9757.16
747.556	9798.29
747.895	9823.15
748.234	9849.13
748.573	9866.31
748.911	9982.46
749.25	10095.91
749.589	10065.17
749.928	10155.57
750.267	10242.57
750.605	10237.37
750.944	10360.08
751.283	10379.06
751.621	10557.82
751.96	10600.07
752.298	10630.36
752.636	10771.6
752.975	10905.38
753.313	11026.73
753.651	11046.16
753.989	11161.42
754.327	11214.52
754.666	11383.1
755.004	11495.19
755.342	11570.22
755.679	11725.24
756.017	11793.49
756.355	12035.29
756.693	12052.69
757.031	12223.08
757.368	12284.1
757.706	12493.13
758.044	12616.74
758.381	12699.23
758.719	12798.89
759.056	12950.3
759.394	13057.41
759.731	13221.47
760.068	13366.1
760.405	13425.54
760.743	13617.85
761.08	13768.58
761.417	13870.27
761.754	14017.61
762.091	14235.01
762.428	14393.19
762.765	14350.94
763.102	14635.22
763.438	14712.96
763.775	14816.46
764.112	15037.25
764.449	15154.76
764.785	15261.87
765.122	15251.48
765.458	15510.23
765.795	15612.15
766.131	15725.14
766.467	15855.98
766.804	15854.4
767.14	15999.25
767.476	16129.87
767.812	16215.07
768.148	16410.54
768.485	16333.48
768.821	16396.08
769.157	16636.3
769.492	16609.86
769.828	16756.3
770.164	16702.74
770.5	16887.14
770.836	16896.18
771.171	17079
771.507	17080.13
771.842	17001.04
772.178	17209.84
772.513	17191.09
772.849	17298.88
773.184	17325.77
773.519	17493
773.855	17444.19
774.19	17456.84
774.525	17434.02
774.86	17540.46
775.195	17655.71
775.53	17557.63
775.865	17519.89
776.2	17603.96
776.535	17525.77
776.87	17533
777.205	17577.97
777.539	17605.54
777.874	17692.54
778.209	17598.99
778.543	17583.17
778.878	17648.48
779.212	17619.1
779.547	17593.56
779.881	17756.72
780.215	17645.31
780.55	17767.12
780.884	17685.54
781.218	17681.7
781.552	17695.93
781.886	17664.52
782.22	17572.55
782.554	17612.77
782.888	17479.67
783.222	17488.25
783.556	17536.16
783.889	17499.55
784.223	17398.99
784.557	17404.19
784.89	17376.62
785.224	17387.24
785.557	17304.76
785.891	17382.04
786.224	17264.98
786.558	17321.93
786.891	17107.02
787.224	17075.16
787.557	17146.34
787.891	17147.7
788.224	17109.51
788.557	17043.07
788.89	17051.66
789.223	17080.58
789.556	17003.75
789.888	16987.25
790.221	16904.54
790.554	16782.28
790.887	16836.07
791.219	16759.91
791.552	16745.68
791.884	16746.81
792.217	16728.27
792.549	16606.7
792.882	16543.42
793.214	16519.92
793.546	16563.53
793.879	16448.06
794.211	16382.75
794.543	16491.9
794.875	16328.51
795.207	16477.43
795.539	16337.32
795.871	16309.08
796.203	16223.2
796.535	16151.11
796.867	16080.16
797.198	16028.86
797.53	16069.99
797.862	15996.54
798.193	16069.54
798.525	15917.9
798.856	16015.07
799.188	15865.25
799.519	15752.48
799.85	15709.32
800.182	15794.06
800.513	15705.02
800.844	15519.49
801.175	15681.97
801.506	15664.12
801.837	15552.03
802.168	15581.86
802.499	15524.46
802.83	15479.95
803.161	15413.51
803.491	15411.47
803.822	15411.25
804.153	15291.25
804.483	15161.76
804.814	15115.44
805.145	15085.38
805.475	15164.47
805.805	15037.7
806.136	15065.04
806.466	15064.14
806.796	15097.13
807.126	14904.82
807.457	14950.47
807.787	14873.86
808.117	14735.56
808.447	14820.08
808.777	14852.39
809.107	14874.31
809.436	14791.38
809.766	14763.13
810.096	14700.53
810.426	14611.95
810.755	14596.81
811.085	14533.98
811.414	14474.55
811.744	14440.65
812.073	14424.83
812.403	14457.37
812.732	14350.94
813.061	14418.73
813.39	14341.9
813.719	14194.1
814.049	14300.54
814.378	14239.07
814.707	14211.96
815.036	14218.51
815.365	14088.57
815.693	14066.42
816.022	14019.42
816.351	13959.08
816.68	13878.41
817.008	13976.48
817.337	13867.56
817.665	13836.15
817.994	13919.31
818.322	13921.34
818.651	13829.37
818.979	13726.55
819.307	13806.54
819.636	13780.1
819.964	13691.29
820.292	13745.98
820.62	13776.26
820.948	13680.67
821.276	13667.34
821.604	13642.93
821.932	13604.52
822.259	13714.79
822.587	13641.35
822.915	13668.92
823.243	13598.64
823.57	13641.12
823.898	13678.41
824.225	13577.62
824.553	13523.16
824.88	13642.93
825.207	13651.52
825.535	13675.25
825.862	13679.77
826.189	13598.64
826.516	13660.78
826.843	13633.67
827.17	13677.51
827.497	13684.74
827.824	13637.96
828.151	13729.26
828.478	13676.15
828.805	13789.6
829.131	13726.55
829.458	13735.36
829.785	13536.72
830.111	13570.62
830.438	13605.19
830.764	13600.45
831.09	13687.45
831.417	13661.46
831.743	13625.08
832.069	13603.16
832.395	13508.7
832.722	13630.73
833.048	13487.91
833.374	13542.37
833.7	13531.07
834.026	13579.43
834.351	13493.78
834.677	13511.18
835.003	13516.38
835.329	13524.52
835.654	13465.54
835.98	13463.5
836.306	13429.83
836.631	13391.41
836.956	13381.7
837.282	13428.47
837.607	13315.48
837.932	13334.01
838.258	13380.79
838.583	13368.14
838.908	13338.76
839.233	13291.3
839.558	13271.19
839.883	13180.12
840.208	13146
840.533	13154.36
840.858	13188.25
841.182	13186.9
841.507	13128.14
841.832	13059.22
842.156	13112.32
842.481	13063.74
842.805	12966.11
843.13	12986
843.454	12990.75
843.778	12919.11
844.103	12926.79
844.427	12845.89
844.751	12817.42
845.075	12849.28
845.399	12772.45
845.723	12706.01
846.047	12647.7
846.371	12527.71
846.695	12558.67
847.019	12562.51
847.343	12471.89
847.666	12375.17
847.99	12381.72
848.313	12371.55
848.637	12249.3
848.96	12234.16
849.284	12232.12
849.607	12085.91
849.931	12033.26
850.254	12061.05
850.577	11967.04
850.9	11896.31
851.223	11866.48
851.546	11854.05
851.869	11725.02
852.192	11774.51
852.515	11748.29
852.838	11623.55
853.161	11569.09
853.483	11580.61
853.806	11468.75
854.129	11523.67
854.451	11447.74
854.774	11436.66
855.096	11337.68
855.419	11358.02
855.741	11397.57
856.063	11278.25
856.385	11234.41
856.708	11227.63
857.03	11172.49
857.352	11256.55
857.674	11102.66
857.996	11149.21
858.318	11002.1
858.64	11028.09
858.961	10971.59
859.283	10960.52
859.605	10963
859.926	10914.87
860.248	10940.18
860.57	10822.89
860.891	10789.67
861.212	10771.14
861.534	10709.9
861.855	10755.55
862.176	10702.44
862.498	10728.21
862.819	10767.98
863.14	10604.82
863.461	10633.29
863.782	10583.35
864.103	10567.98
864.424	10644.37
864.745	10525.73
865.065	10541.54
865.386	10565.27
865.707	10442.79
866.027	10464.48
866.348	10520.08
866.668	10426.97
866.989	10411.38
867.309	10305.84
867.63	10391.27
867.95	10392.62
868.27	10325.28
868.59	10311.72
868.91	10321.44
869.23	10290.93
869.55	10278.95
869.87	10188.56
870.19	10275.11
870.51	10286.86
870.83	10249.12
871.15	10195.79
871.469	10182.68
871.789	10231.95
872.109	10193.08
872.428	10162.57
872.748	10178.62
873.067	10109.47
873.386	10151.27
873.706	10093.87
874.025	10026.76
874.344	10036.02
874.663	10059.52
874.982	10054.78
875.301	9974.55
875.62	10015.68
875.939	9995.57
876.258	9936.14
876.577	9935.91
876.896	9896.82
877.214	9916.25
877.533	9921.45
877.852	9883.71
878.17	9870.38
878.489	9846.42
878.807	9834.44
879.125	9813.65
879.444	9755.58
879.762	9762.58
880.08	9812.75
880.398	9738.18
880.716	9694.11
881.034	9713.32
881.352	9697.95
881.67	9685.75
881.988	9626.09
882.306	9676.71
882.624	9604.39
882.941	9542.93
883.259	9456.6
883.577	9451.86
883.894	9488.47
884.212	9487.79
884.529	9495.02
884.846	9419.99
885.164	9353.78
885.481	9398.75
885.798	9385.19
886.115	9253.44
886.432	9269.04
886.75	9333.22
887.067	9263.16
887.383	9234.91
887.7	9345.19
888.017	9203.5
888.334	9224.29
888.651	9196.95
888.967	9176.83
889.284	9118.98
889.6	9089.61
889.917	9048.48
890.233	9057.52
890.55	9025.65
890.866	9031.98
891.182	8897.97
891.498	8964.19
891.815	8904.98
892.131	8906.33
892.447	8835.15
892.763	8796.73
893.079	8787.24
893.395	8783.17
893.71	8796.73
894.026	8777.52
894.342	8719.67
894.657	8682.16
894.973	8622.73
895.289	8578.66
895.604	8568.94
895.92	8544.08
896.235	8505.21
896.55	8502.73
896.865	8410.3
897.181	8439.68
897.496	8428.61
897.811	8363.52
898.126	8415.73
898.441	8305.45
898.756	8317.65
899.071	8257.76
899.386	8246.46
899.7	8116.3
900.015	8132.57
900.33	8066.81
900.644	8092.57
900.959	8079.69
901.273	7972.12
901.588	8012.35
901.902	8014.15
902.216	8014.38
902.531	7930.99
902.845	7932.12
903.159	7854.61
903.473	7832.01
903.787	7839.92
904.101	7782.97
904.415	7741.84
904.729	7717.21
905.042	7647.38
905.356	7623.2
905.67	7667.95
905.984	7647.61
906.297	7619.14
906.611	7538.69
906.924	7501.4
907.237	7538.69
907.551	7499.82
907.864	7426.37
908.177	7401.29
908.491	7399.48
908.804	7374.4
909.117	7325.36
909.43	7285.36
909.743	7241.74
910.056	7227.28
910.368	7137.57
910.681	7142.54
910.994	7152.71
911.307	7101.18
911.619	7055.99
911.932	7069.77
912.244	7008.53
912.557	7004.69
912.869	6964.69
913.181	6923.79
913.494	6921.53
913.806	6836.78
914.118	6864.13
914.43	6776.45
914.742	6848.76
915.054	6776.9
915.366	6706.39
915.678	6761.08
915.99	6640.4
916.302	6645.15
916.613	6612.16
916.925	6567.19
917.236	6609.22
917.548	6505.49
917.859	6499.84
918.171	6469.34
918.482	6410.58
918.794	6441.77
919.105	6402.67
919.416	6417.36
919.727	6366.74
920.038	6315.67
920.349	6276.12
920.66	6254.88
920.971	6273.86
921.282	6284.26
921.593	6148.44
921.903	6181.66
922.214	6187.99
922.525	6147.31
922.835	6154.09
923.146	6005.17
923.456	6055.34
923.767	6006.75
924.077	6046.75
924.387	5976.92
924.697	5954.77
925.008	5995.22
925.318	5894.21
925.628	5870.48
925.938	5843.36
926.248	5829.58
926.558	5811.95
926.867	5828
927.177	5797.26
927.487	5719.52
927.796	5667.1
928.106	5664.16
928.416	5676.59
928.725	5620.77
929.034	5623.03
929.344	5589.36
929.653	5603.14
929.962	5537.83
930.271	5560.88
930.581	5532.19
930.89	5464.84
931.199	5409.48
931.508	5422.36
931.817	5447.67
932.125	5422.81
932.434	5339.42
932.743	5350.04
933.051	5317.95
933.36	5305.52
933.669	5248.8
933.977	5244.96
934.286	5244.06
934.594	5246.54
934.902	5210.16
935.21	5143.95
935.519	5188.92
935.827	5102.37
936.135	5095.13
936.443	5103.72
936.751	5080.45
937.059	5037.28
937.367	5036.83
937.674	5055.59
937.982	5020.56
938.29	4972.65
938.597	4943.73
938.905	4961.13
939.213	4874.35
939.52	4892.2
939.827	4886.33
940.135	4913.44
940.442	4798.19
940.749	4826.44
941.056	4809.94
941.363	4776.95
941.67	4816.72
941.977	4759.55
942.284	4653.79
942.591	4670.96
942.898	4665.77
943.205	4609.95
943.511	4622.15
943.818	4635.94
944.125	4573.57
944.431	4559.1
944.738	4531.08
945.044	4541.02
945.35	4508.26
945.657	4488.37
945.963	4448.15
946.269	4464.19
946.575	4429.62
946.881	4402.5
947.187	4392.78
947.493	4354.59
947.799	4353.01
948.105	4298.32
948.41	4304.42
948.716	4255.16
949.022	4245.67
949.327	4215.38
949.633	4207.25
949.938	4206.57
950.244	4204.31
950.549	4184.42
950.854	4161.15
951.16	4157.98
951.465	4114.82
951.77	4102.17
952.075	4072.56
952.38	4079.34
952.685	4012.9
952.99	4047.25
953.294	4015.84
953.599	3978.33
953.904	3949.85
954.209	3944.88
954.513	3949.63
954.818	3963.86
955.122	3914.6
955.426	3903.53
955.731	3897.2
956.035	3873.47
956.339	3842.29
956.643	3827.6
956.948	3848.39
957.252	3821.27
957.556	3770.2
957.86	3779.24
958.163	3814.72
958.467	3696.98
958.771	3717.09
959.075	3719.58
959.378	3681.61
959.682	3691.33
959.985	3650.88
960.289	3673.02
960.592	3639.13
960.896	3640.26
961.199	3620.14
961.502	3577.43
961.805	3559.81
962.108	3534.05
962.411	3528.4
962.714	3519.58
963.017	3518.45
963.32	3497.44
963.623	3465.12
963.926	3487.27
964.228	3463.54
964.531	3410.66
964.833	3412.24
965.136	3404.33
965.438	3386.48
965.741	3344.45
966.043	3351
966.345	3350.1
966.648	3306.71
966.95	3339.25
967.252	3266.71
967.554	3284.79
967.856	3292.7
968.158	3255.41
968.46	3264.67
968.761	3231.91
969.063	3251.34
969.365	3222.19
969.666	3188.07
969.968	3153.26
970.269	3139.71
970.571	3159.82
970.872	3178.8
971.174	3154.62
971.475	3098.8
971.776	3093.83
972.077	3088.63
972.378	3087.96
972.679	3057.22
972.98	2995.08
973.281	3051.12
973.582	2995.75
973.883	2992.82
974.183	2970.67
974.484	2971.35
974.785	2979.48
975.085	2985.59
975.386	2976.09
975.686	2925.7
975.986	2869.2
976.287	2906.27
976.587	2861.97
976.887	2825.14
977.187	2896.1
977.487	2895.19
977.787	2790.56
978.087	2812.71
978.387	2788.3
978.687	2792.37
978.987	2785.59
979.286	2786.95
979.586	2729.55
979.885	2707.17
980.185	2740.39
980.484	2698.81
980.784	2730.9
981.083	2706.95
981.382	2698.14
981.682	2684.8
981.981	2664.69
982.28	2676.21
982.579	2616.78
982.878	2619.04
983.177	2636.44
983.475	2602.77
983.774	2605.48
984.073	2556.67
984.372	2583.34
984.67	2564.81
984.969	2568.42
985.267	2556.9
985.566	2503.56
985.864	2495.88
986.162	2486.39
986.461	2474.86
986.759	2466.5
987.057	2443
987.355	2457.24
987.653	2433.51
987.951	2432.83
988.249	2401.87
988.547	2425.15
988.844	2411.14
989.142	2391.25
989.44	2352.16
989.737	2339.5
990.035	2344.02
990.332	2349.44
990.63	2301.31
990.927	2327.3
991.224	2307.41
991.521	2309.22
991.819	2296.79
992.116	2276.45
992.413	2279.16
992.71	2236.9
993.006	2280.97
993.303	2237.36
993.6	2247.75
993.897	2229.67
994.193	2205.27
994.49	2219.5
994.787	2170.24
995.083	2145.83
995.379	2142.44
995.676	2165.27
995.972	2134.99
996.268	2129.56
996.565	2118.26
996.861	2121.65
997.157	2082.56
997.453	2084.14
997.749	2108.09
998.044	2063.58
998.34	2050.47
998.636	2057.25
998.932	2021.54
999.227	2013.41
999.523	2006.85
999.818	2042.33
1000.114	2009.11
1000.409	1984.03
1000.704	1934.54
1001	1946.97
1001.295	1921.21
1001.59	1941.09
1001.885	1925.73
1002.18	1911.94
1002.475	1913.75
1002.77	1871.04
1003.065	1866.74
1003.359	1898.16
1003.654	1870.36
1003.949	1861.55
1004.243	1848.21
1004.538	1854.54
1004.832	1855.22
1005.127	1832.62
1005.421	1829.68
1005.715	1826.52
1006.009	1794.2
1006.304	1803.92
1006.598	1753.53
1006.892	1757.6
1007.186	1775.22
1007.48	1755.34
1007.773	1737.03
1008.067	1704.26
1008.361	1701.33
1008.655	1730.03
1008.948	1669.01
1009.242	1675.56
1009.535	1676.47
1009.829	1663.59
1010.122	1677.15
1010.415	1653.19
1010.708	1659.52
1011.001	1630.82
1011.295	1594.21
1011.588	1620.65
1011.881	1609.58
1012.173	1581.78
1012.466	1577.49
1012.759	1598.28
1013.052	1582.23
1013.344	1558.05
1013.637	1556.47
1013.93	1535.45
1014.222	1556.92
1014.514	1546.3
1014.807	1506.3
1015.099	1495.46
1015.391	1493.42
1015.683	1483.03
1015.976	1476.92
1016.268	1479.86
1016.56	1471.05
1016.851	1453.42
1017.143	1454.55
1017.435	1437.15
1017.727	1426.76
1018.018	1420.2
1018.31	1402.58
1018.602	1416.81
1018.893	1404.61
1019.185	1357.83
1019.476	1363.71
1019.767	1392.18
1020.058	1345.4
1020.35	1336.82
1020.641	1305.18
1020.932	1319.19
1021.223	1311.96
1021.514	1303.6
1021.804	1303.14
1022.095	1311.51
1022.386	1305.4
1022.677	1281
1022.967	1242.81
1023.258	1251.62
1023.548	1231.73
1023.839	1275.12
1024.129	1243.94
1024.419	1240.77
1024.709	1227.44
1025	1237.16
1025.29	1201.68
1025.58	1189.7
1025.87	1174.56
1026.16	1196.71
1026.449	1193.09
1026.739	1167.78
1027.029	1145.63
1027.319	1146.31
1027.608	1163.03
1027.898	1121.68
1028.187	1115.8
1028.477	1107.44
1028.766	1109.25
1029.055	1125.07
1029.344	1106.09
1029.634	1077.61
1029.923	1107.44
1030.212	1085.52
1030.501	1075.35
1030.79	1066.77
1031.078	1066.99
1031.367	1045.98
1031.656	1052.53
1031.945	1040.33
1032.233	1048.46
1032.522	1040.55
1032.81	1051.17
1033.099	1024.73
1033.387	994.45
1033.675	998.29
1033.963	990.16
1034.251	1020.21
1034.54	985.19
1034.828	992.19
1035.116	969.37
1035.403	957.16
1035.691	961.46
1035.979	978.63
1036.267	988.58
1036.554	963.94
1036.842	937.5
1037.129	933.44
1037.417	911.29
1037.704	929.82
1037.992	926.43
1038.279	925.75
1038.566	898.41
1038.853	898.41
1039.14	898.41
