Data from hue_160_FLMS001491_00031.txt Node
Date: Tue Feb 07 16:51:05 GMT 2017
User: dcchb
Spectrometer: FLMS00149
Trigger mode: 0
Integration Time (sec): 2.000000E-2
Scans to average: 10
Electric dark correction enabled: true
Nonlinearity correction enabled: false
Boxcar width: 0
XAxis mode: Wavelengths
Number of Pixels in Spectrum: 2048
>>>>>Begin Spectral Data<<<<<
341.393	-8.14
341.776	-8.14
342.16	-8.14
342.543	-65.76
342.927	-80.45
343.31	-64.41
343.693	-78.19
344.077	-66.44
344.46	-54.24
344.843	-38.19
345.226	-64.18
345.61	-39.55
345.993	-2.49
346.376	-8.14
346.759	31.19
347.142	40.45
347.525	41.35
347.908	60.79
348.291	68.7
348.674	69.38
349.057	103.95
349.44	133.33
349.823	132.43
350.206	152.76
350.588	193.22
350.971	222.82
351.354	213.55
351.737	254.91
352.119	249.03
352.502	264.17
352.884	273.89
353.267	265.3
353.65	290.84
354.032	283.38
354.414	301.69
354.797	299.88
355.179	314.12
355.562	315.25
355.944	320.9
356.326	328.13
356.709	328.58
357.091	300.78
357.473	334
357.855	331.52
358.238	343.04
358.62	339.2
359.002	324.51
359.384	339.65
359.766	322.25
360.148	341.69
360.53	322.93
360.912	313.89
361.294	349.14
361.676	327.45
362.057	331.06
362.439	304.85
362.821	319.09
363.203	330.61
363.584	317.96
363.966	313.44
364.348	313.66
364.729	306.21
365.111	318.64
365.493	331.29
365.874	322.48
366.256	307.79
366.637	317.28
367.019	305.08
367.4	332.19
367.781	298.75
368.163	296.49
368.544	303.04
368.925	295.36
369.306	307.79
369.688	286.55
370.069	311.63
370.45	302.59
370.831	311.63
371.212	323.16
371.593	315.25
371.974	319.77
372.355	291.07
372.736	310.05
373.117	317.96
373.498	309.14
373.879	309.37
374.26	299.43
374.641	322.48
375.021	311.18
375.402	315.47
375.783	336.49
376.163	329.26
376.544	337.39
376.925	324.06
377.305	287
377.686	314.34
378.066	316.38
378.447	330.16
378.827	311.4
379.208	341.69
379.588	336.26
379.968	315.7
380.349	342.36
380.729	312.08
381.109	325.87
381.489	324.29
381.87	338.75
382.25	324.51
382.63	322.03
383.01	322.25
383.39	354.11
383.77	328.58
384.15	333.78
384.53	352.76
384.91	323.61
385.29	316.83
385.67	338.07
386.049	360.89
386.429	335.13
386.809	339.43
387.189	342.14
387.568	354.11
387.948	357.5
388.328	333.55
388.707	348.47
389.087	339.88
389.466	352.99
389.846	366.77
390.225	348.69
390.605	369.03
390.984	361.8
391.363	345.3
391.743	349.82
392.122	363.38
392.501	344.85
392.881	378.07
393.26	364.96
393.639	377.84
394.018	348.47
394.397	351.63
394.776	362.48
395.155	375.36
395.534	343.95
395.913	350.05
396.292	376.26
396.671	371.74
397.05	373.32
397.429	370.39
397.808	368.13
398.186	383.27
398.565	395.02
398.944	392.31
399.323	375.81
399.701	359.31
400.08	403.15
400.458	373.78
400.837	402.48
401.215	369.26
401.594	376.04
401.972	391.18
402.351	395.92
402.729	401.8
403.107	388.92
403.486	380.1
403.864	396.15
404.242	417.16
404.62	392.98
404.999	427.56
405.377	414.45
405.755	405.19
406.133	419.2
406.511	433.21
406.889	410.38
407.267	412.64
407.645	424.4
408.023	426.88
408.401	433.21
408.779	414.45
409.156	442.93
409.534	431.4
409.912	416.49
410.29	444.51
410.667	464.85
411.045	432.31
411.422	444.96
411.8	444.96
412.178	449.71
412.555	456.03
412.933	473.21
413.31	445.64
413.687	455.81
414.065	475.69
414.442	474.56
414.819	450.16
415.197	479.08
415.574	471.85
415.951	489.93
416.328	494.45
416.705	471.4
417.082	480.21
417.46	502.59
417.837	486.99
418.214	483.15
418.591	507.56
418.967	511.85
419.344	499.2
419.721	516.82
420.098	520.44
420.475	517.5
420.852	510.27
421.228	521.57
421.605	519.99
421.982	518.86
422.358	516.14
422.735	533.55
423.111	545.97
423.488	545.52
423.864	529.03
424.241	573.77
424.617	552.53
424.994	565.18
425.37	553.21
425.746	578.74
426.123	593.43
426.499	583.04
426.875	566.54
427.251	570.61
427.627	553.21
428.003	598.4
428.379	600.44
428.756	602.02
429.132	609.7
429.507	588.46
429.883	595.69
430.259	600.89
430.635	613.54
431.011	616.25
431.387	613.09
431.763	646.08
432.138	624.39
432.514	644.5
432.89	625.97
433.265	661.9
433.641	670.26
434.016	679.08
434.392	673.88
434.767	679.08
435.143	678.63
435.518	685.63
435.894	708
436.269	714.56
436.644	710.72
437.02	730.15
437.395	720.21
437.77	722.69
438.145	736.48
438.52	760.21
438.895	749.36
439.271	752.97
439.646	775.8
440.021	773.09
440.395	756.36
440.77	769.25
441.145	784.16
441.52	786.65
441.895	799.3
442.27	789.13
442.645	780.54
443.019	798.62
443.394	806.98
443.769	812.41
444.143	818.74
444.518	838.85
444.892	835.23
445.267	841.33
445.641	809.47
446.016	812.63
446.39	859.41
446.764	856.02
447.139	853.54
447.513	841.56
447.887	852.86
448.262	874.1
448.636	872.75
449.01	881.33
449.384	874.55
449.758	891.05
450.132	922.91
450.506	904.61
450.88	885.85
451.254	899.41
451.628	950.94
452.002	919.75
452.376	946.42
452.75	954.55
453.123	966.75
453.497	972.86
453.871	983.7
454.244	979.64
454.618	998.62
454.992	1016.7
455.365	998.84
455.739	1063.02
456.112	1055.11
456.486	1056.7
456.859	1086.3
457.232	1071.38
457.606	1064.6
457.979	1094.66
458.352	1130.14
458.725	1104.6
459.099	1135.34
459.472	1154.09
459.845	1178.27
460.218	1178.95
460.591	1158.61
460.964	1184.83
461.337	1197.03
461.71	1211.27
462.083	1247.88
462.456	1250.59
462.829	1257.59
463.201	1293.75
463.574	1307.08
463.947	1307.99
464.32	1347.99
464.692	1371.94
465.065	1379.4
465.438	1400.87
465.81	1423.69
466.183	1455.78
466.555	1456.01
466.928	1475.67
467.3	1507.08
467.672	1537.81
468.045	1539.62
468.417	1558.38
468.789	1583.01
469.161	1609.9
469.534	1647.19
469.906	1688.54
470.278	1713.85
470.65	1703.46
471.022	1732.38
471.394	1788.43
471.766	1839.27
472.138	1872.49
472.51	1881.76
472.882	1927.63
473.253	1973.51
473.625	1995.65
473.997	2030.68
474.369	2093.28
474.74	2120.85
475.112	2172.37
475.484	2247.17
475.855	2300.73
476.227	2354.29
476.598	2362.88
476.97	2441.74
477.341	2497.11
477.713	2569.88
478.084	2601.51
478.455	2699.36
478.827	2739.81
479.198	2823.65
479.569	2923.54
479.94	2999.7
480.311	3050.54
480.682	3143.42
481.053	3245.11
481.424	3341.38
481.795	3350.65
482.166	3470.87
482.537	3556.29
482.908	3663.41
483.279	3733.69
483.65	3855.72
484.021	3958.09
484.391	4064.53
484.762	4085.09
485.133	4212.54
485.503	4284.41
485.874	4440.34
486.244	4546.32
486.615	4678.3
486.985	4815.01
487.356	4950.83
487.726	5003.03
488.097	5105.63
488.467	5182.46
488.837	5366.19
489.207	5487.09
489.578	5547.42
489.948	5661.32
490.318	5796.01
490.688	5935.66
491.058	6064.7
491.428	6206.39
491.798	6263.34
492.168	6479.15
492.538	6512.15
492.908	6676.89
493.278	6879.59
493.648	6893.83
494.017	7049.08
494.387	7186.25
494.757	7202.07
495.126	7411.1
495.496	7470.76
495.866	7566.81
496.235	7722.51
496.605	7796.41
496.974	7930.64
497.344	8077.3
497.713	8117.75
498.082	8202.04
498.452	8417.86
498.821	8367.46
499.19	8474.35
499.559	8568.14
499.928	8642.71
500.298	8785.08
500.667	8830.05
501.036	8826.21
501.405	9009.25
501.774	9020.78
502.143	9143.26
502.512	9211.51
502.88	9267.33
503.249	9331.51
503.618	9544.16
503.987	9580.54
504.356	9551.61
504.724	9616.02
505.093	9694.89
505.462	9684.49
505.83	9828.22
506.199	9866.86
506.567	10007.87
506.936	10014.65
507.304	10131.71
507.672	10186.4
508.041	10289.67
508.409	10301.2
508.777	10394.3
509.145	10479.95
509.514	10433.85
509.882	10518.37
510.25	10510.46
510.618	10588.65
510.986	10587.74
511.354	10733.28
511.722	10794.52
512.09	10867.28
512.458	10810.79
512.826	10805.37
513.193	10908.41
513.561	10940.5
513.929	10964.23
514.297	11022.99
514.664	11150.44
515.032	11133.72
515.4	11165.58
515.767	11168.75
516.135	11169.42
516.502	11162.87
516.869	11253.26
517.237	11301.62
517.604	11229.54
517.972	11340.72
518.339	11343.88
518.706	11395.86
519.073	11438.34
519.44	11415.07
519.808	11484.9
520.175	11454.16
520.542	11528.28
520.909	11567.83
521.276	11496.42
521.643	11585.46
522.009	11655.74
522.376	11587.94
522.743	11645.8
523.11	11725.12
523.477	11848.73
523.843	11773.25
524.21	11838.11
524.577	11876.98
524.943	11840.82
525.31	11866.35
525.676	11959.91
526.043	11911.1
526.409	12052.56
526.776	12047.37
527.142	12056.41
527.508	11963.53
527.874	12033.36
528.241	12039.23
528.607	12055.73
528.973	12078.78
529.339	12092.79
529.705	12036.75
530.071	12086.46
530.437	12078.33
530.803	12116.29
531.169	12125.33
531.535	12061.38
531.901	11973.7
532.267	12058.21
532.632	12068.84
532.998	11977.09
533.364	12042.17
533.73	12001.04
534.095	12041.27
534.461	12013.47
534.826	12005.56
535.192	12085.11
535.557	11975.96
535.923	11934.83
536.288	11876.07
536.653	11894.6
537.019	11795.4
537.384	11808.05
537.749	11875.17
538.114	11732.35
538.479	11675.4
538.845	11673.14
539.21	11720.14
539.575	11557.66
539.94	11630.88
540.305	11632.69
540.67	11562.63
541.034	11603.31
541.399	11487.16
541.764	11507.72
542.129	11416.42
542.494	11477.21
542.858	11326.03
543.223	11343.2
543.587	11484.22
543.952	11338.91
544.316	11323.09
544.681	11243.77
545.045	11249.42
545.41	11189.76
545.774	11251.46
546.138	11119.26
546.503	11131.46
546.867	11045.36
547.231	11121.74
547.595	11117.9
547.959	11084.91
548.324	10965.14
548.688	10907.51
549.052	10944.12
549.416	10844.69
549.779	10854.86
550.143	10833.61
550.507	10797.68
550.871	10795.42
551.235	10746.16
551.599	10713.39
551.962	10688.98
552.326	10648.31
552.689	10714.52
553.053	10621.42
553.417	10648.08
553.78	10760.62
554.143	10611.92
554.507	10595.65
554.87	10664.35
555.234	10605.82
555.597	10501.19
555.96	10557.91
556.323	10466.62
556.686	10472.49
557.05	10444.47
557.413	10426.39
557.776	10489.67
558.139	10455.77
558.502	10391.37
558.865	10438.6
559.228	10456.67
559.59	10434.53
559.953	10389.33
560.316	10440.4
560.679	10415.09
561.041	10431.82
561.404	10387.52
561.767	10474.98
562.129	10391.37
562.492	10501.19
562.854	10391.82
563.217	10415.55
563.579	10380.07
563.941	10496.45
564.304	10498.48
564.666	10428.65
565.028	10431.14
565.39	10558.59
565.753	10508.88
566.115	10514.75
566.477	10408.77
566.839	10502.55
567.201	10568.08
567.563	10522.21
567.925	10524.24
568.287	10490.8
568.648	10588.42
569.01	10521.98
569.372	10565.82
569.734	10514.53
570.095	10611.25
570.457	10656.44
570.819	10559.95
571.18	10658.25
571.542	10559.5
571.903	10684.01
572.265	10678.59
572.626	10640.17
572.987	10672.71
573.349	10690.57
573.71	10692.15
574.071	10654.41
574.432	10715.65
574.794	10700.96
575.155	10749.32
575.516	10709.55
575.877	10678.82
576.238	10696.44
576.599	10742.32
576.96	10763.33
577.32	10707.29
577.681	10799.72
578.042	10772.6
578.403	10762.2
578.763	10791.13
579.124	10756.55
579.485	10806.04
579.845	10818.7
580.206	10847.85
580.566	10775.76
580.927	10743.45
581.287	10845.36
581.648	10736.67
582.008	10856.21
582.368	10714.29
582.728	10785.25
583.089	10747.51
583.449	10743.22
583.809	10769.66
584.169	10649.44
584.529	10702.54
584.889	10733.96
585.249	10774.63
585.609	10714.52
585.969	10759.94
586.329	10701.64
586.688	10699.15
587.048	10686.72
587.408	10633.62
587.768	10654.86
588.127	10560.4
588.487	10585.71
588.846	10610.79
589.206	10609.44
589.565	10619.83
589.925	10586.84
590.284	10582.09
590.643	10479.72
591.003	10623.9
591.362	10584.81
591.721	10560.17
592.08	10548.65
592.44	10556.78
592.799	10612.38
593.158	10508.88
593.517	10531.7
593.876	10530.34
594.235	10517.24
594.593	10559.04
594.952	10538.71
595.311	10455.77
595.67	10509.33
596.029	10514.98
596.387	10505.26
596.746	10598.59
597.104	10531.7
597.463	10519.95
597.822	10576.67
598.18	10520.85
598.538	10447.41
598.897	10556.33
599.255	10445.15
599.613	10660.74
599.972	10436.79
600.33	10585.71
600.688	10461.19
601.046	10530.57
601.404	10563.34
601.762	10458.93
602.12	10559.72
602.478	10590
602.836	10549.78
603.194	10534.19
603.552	10552.72
603.91	10525.37
604.268	10560.63
604.625	10482.44
604.983	10475.88
605.341	10506.39
605.698	10522.66
606.056	10587.52
606.413	10554.3
606.771	10541.42
607.128	10552.94
607.485	10491.7
607.843	10493.74
608.2	10561.76
608.557	10613.51
608.914	10560.17
609.272	10569.21
609.629	10614.18
609.986	10604.47
610.343	10535.99
610.7	10642.66
611.057	10609.44
611.414	10589.1
611.771	10568.54
612.127	10668.19
612.484	10613.05
612.841	10628.87
613.198	10597.01
613.554	10636.78
613.911	10670.68
614.267	10674.3
614.624	10659.15
614.98	10625.26
615.337	10786.16
615.693	10723.33
616.05	10693.5
616.406	10768.98
616.762	10693.73
617.118	10758.59
617.475	10740.51
617.831	10750.68
618.187	10745.48
618.543	10835.65
618.899	10808.98
619.255	10750
619.611	10799.49
619.967	10807.17
620.323	10836.1
620.678	10724.24
621.034	10745.03
621.39	10802.88
621.746	10659.15
622.101	10903.44
622.457	10751.36
622.812	10768.08
623.168	10784.35
623.523	10761.07
623.879	10780.51
624.234	10746.61
624.589	10818.25
624.945	10805.82
625.3	10801.75
625.655	10748.87
626.01	10813.05
626.365	10778.93
626.72	10746.61
627.075	10727.18
627.43	10727.18
627.785	10741.64
628.14	10783.45
628.495	10731.02
628.85	10774.86
629.205	10711.58
629.559	10824.35
629.914	10721.53
630.269	10720.4
630.623	10663
630.978	10682.66
631.332	10768.08
631.687	10738.25
632.041	10697.12
632.396	10736.44
632.75	10655.31
633.104	10671.58
633.459	10608.53
633.813	10647.18
634.167	10618.03
634.521	10624.13
634.875	10591.13
635.229	10659.15
635.583	10539.16
635.937	10583.22
636.291	10552.49
636.645	10530.34
636.999	10492.15
637.352	10549.78
637.706	10436.11
638.06	10538.93
638.413	10467.75
638.767	10437.47
639.121	10435.43
639.474	10376.68
639.828	10348.88
640.181	10405.83
640.534	10374.87
640.888	10369.9
641.241	10369.22
641.594	10324.47
641.947	10359.5
642.301	10281.76
642.654	10376
643.007	10308.2
643.36	10340.75
643.713	10246.06
644.066	10404.92
644.419	10328.77
644.771	10323.8
645.124	10177.59
645.477	10199.96
645.83	10006.06
646.182	10089.23
646.535	9997.7
646.888	10026.63
647.24	9966.74
647.593	10016.23
647.945	10021.43
648.298	10015.33
648.65	9957.7
649.002	9970.59
649.355	10041.77
649.707	9982.79
650.059	10018.27
650.411	10134.2
650.763	10138.94
651.115	10209.9
651.467	10323.34
651.819	10170.81
652.171	10147.53
652.523	10184.36
652.875	10177.59
653.227	10093.52
653.578	10249.9
653.93	10215.32
654.282	10158.83
654.633	10146.17
654.985	10196.12
655.337	10170.35
655.688	10148.43
656.039	10204.03
656.391	10078.83
656.742	10190.01
657.094	10188.66
657.445	10213.97
657.796	10171.48
658.147	10202.67
658.498	10187.3
658.849	10249
659.2	10164.7
659.551	10140.75
659.902	10185.27
660.253	10170.58
660.604	10220.97
660.955	10136.68
661.306	10232.73
661.656	10180.52
662.007	10143.91
662.358	10151.6
662.708	10191.82
663.059	10195.89
663.409	10132.84
663.76	10210.8
664.11	10158.83
664.461	10330.35
664.811	10218.26
665.161	10233.18
665.511	10241.76
665.862	10214.19
666.212	10251.71
666.562	10246.51
666.912	10285.15
667.262	10236.34
667.612	10213.29
667.962	10288.32
668.312	10272.27
668.662	10286.74
669.011	10279.5
669.361	10219.84
669.711	10230.92
670.06	10238.83
670.41	10248.54
670.76	10128.32
671.109	10230.69
671.459	10246.28
671.808	10204.7
672.157	10190.24
672.507	10141.2
672.856	10105.05
673.205	10132.84
673.554	10198.38
673.904	10178.49
674.253	10186.4
674.602	10045.16
674.951	9995.44
675.3	9936.91
675.649	10184.82
675.998	10097.36
676.346	10114.08
676.695	10114.08
677.044	10017.14
677.393	10085.16
677.741	10112.05
678.09	10006.52
678.438	10021.66
678.787	10095.78
679.135	10007.19
679.484	9957.48
679.832	9971.26
680.181	10017.36
680.529	10033.63
680.877	9922.68
681.225	9883.58
681.573	9936.01
681.922	9839.74
682.27	9838.16
682.618	9893.3
682.966	9765.39
683.314	9891.94
683.661	9822.57
684.009	9757.71
684.357	9777.82
684.705	9806.3
685.053	9767.65
685.4	9658.05
685.748	9649.01
686.095	9667.99
686.443	9630.71
686.79	9655.34
687.138	9644.72
687.485	9649.92
687.832	9573.08
688.18	9572.63
688.527	9550.03
688.874	9542.12
689.221	9487.43
689.568	9477.72
689.915	9418.51
690.262	9389.58
690.609	9447.89
690.956	9363.14
691.303	9278.4
691.65	9270.94
691.997	9230.04
692.344	9227.1
692.69	9187.78
693.037	9214.9
693.383	9152.53
693.73	9146.43
694.077	9031.17
694.423	9081.12
694.769	9039.76
695.116	8966.54
695.462	8945.53
695.808	8953.89
696.155	8974.91
696.501	8905.53
696.847	8877.05
697.193	8792.31
697.539	8856.72
697.885	8769.94
698.231	8750.28
698.577	8689.94
698.923	8726.78
699.269	8640.22
699.614	8598.19
699.96	8675.03
700.306	8584.86
700.651	8525.43
700.997	8518.42
701.342	8497.4
701.688	8439.1
702.033	8444.3
702.379	8354.36
702.724	8338.09
703.069	8369.72
703.415	8301.48
703.76	8270.52
704.105	8313.91
704.45	8221.48
704.795	8125.66
705.14	8228.71
705.485	8183.51
705.83	8092.67
706.175	8094.48
706.52	8026
706.865	8068.94
707.209	8053.8
707.554	7995.72
707.899	8000.69
708.243	7957.53
708.588	8017.42
708.932	7884.99
709.277	7939
709.621	7911.88
709.966	7841.6
710.31	7860.13
710.654	7834.6
710.998	7835.05
711.342	7822.17
711.687	7778.78
712.031	7804.77
712.375	7697.88
712.719	7724.99
713.063	7706.69
713.407	7691.32
713.75	7677.31
714.094	7670.76
714.438	7607.94
714.782	7655.17
715.125	7551.67
715.469	7567.48
715.812	7567.94
716.156	7506.92
716.499	7469.41
716.843	7550.31
717.186	7462.85
717.53	7556.64
717.873	7550.08
718.216	7518.67
718.559	7453.82
718.902	7423.31
719.246	7431.67
719.589	7389.41
719.932	7413.36
720.275	7393.03
720.617	7407.04
720.96	7340.82
721.303	7303.76
721.646	7399.13
721.989	7272.58
722.331	7383.08
722.674	7317.77
723.016	7406.36
723.359	7320.71
723.701	7366.81
724.044	7271.9
724.386	7273.71
724.729	7306.47
725.071	7271.9
725.413	7289.3
725.755	7290.2
726.097	7279.36
726.439	7198.91
726.782	7249.07
727.124	7288.4
727.465	7266.48
727.807	7250.43
728.149	7239.36
728.491	7220.6
728.833	7216.53
729.175	7165.01
729.516	7215.86
729.858	7207.04
730.199	7206.82
730.541	7194.16
730.882	7191
731.224	7238.68
731.565	7178.57
731.906	7206.82
732.248	7276.19
732.589	7168.4
732.93	7128.85
733.271	7140.38
733.612	7191.22
733.953	7202.3
734.294	7172.92
734.635	7129.53
734.976	7240.94
735.317	7172.47
735.658	7165.01
735.999	7137.89
736.339	7159.36
736.68	7200.26
737.021	7197.1
737.361	7165.24
737.702	7194.39
738.042	7182.86
738.383	7198.91
738.723	7236.42
739.063	7238.23
739.404	7209.53
739.744	7270.09
740.084	7262.63
740.424	7282.52
740.764	7316.87
741.104	7355.74
741.444	7308.28
741.784	7317.55
742.124	7338.56
742.464	7315.06
742.804	7392.12
743.143	7325.01
743.483	7386.7
743.823	7369.98
744.162	7372.69
744.502	7451.78
744.841	7484.77
745.181	7588.28
745.52	7522.06
745.86	7587.6
746.199	7572
746.538	7583.98
746.877	7654.49
747.216	7695.62
747.556	7760.93
747.895	7840.25
748.234	7833.47
748.573	7877.53
748.911	7904.2
749.25	7930.19
749.589	8002.73
749.928	8129.73
750.267	8115.72
750.605	8146.45
750.944	8223.96
751.283	8257.18
751.621	8404.75
751.96	8418.99
752.298	8519.32
752.636	8583.96
752.975	8655.14
753.313	8759.54
753.651	8886.32
753.989	8894.91
754.327	9034.11
754.666	9131.06
755.004	9249.47
755.342	9350.04
755.679	9549.81
756.017	9582.35
756.355	9774.66
756.693	9844.94
757.031	10007.65
757.368	10065.95
757.706	10213.06
758.044	10356.11
758.381	10469.33
758.719	10590.23
759.056	10797
759.394	10902.31
759.731	11020.5
760.068	11225.92
760.405	11293.71
760.743	11462.3
761.08	11640.15
761.417	11716.3
761.754	11930.08
762.091	12096.86
762.428	12195.39
762.765	12353.35
763.102	12588.6
763.438	12619.78
763.775	12829.95
764.112	12928.25
764.449	13132.99
764.785	13257.96
765.122	13360.1
765.458	13516.25
765.795	13690.94
766.131	13868.11
766.467	14024.04
766.804	14102.91
767.14	14243.47
767.476	14398.04
767.812	14398.49
768.148	14605.72
768.485	14730.91
768.821	14752.38
769.157	14907.86
769.492	15013.39
769.828	15146.49
770.164	15172.03
770.5	15360.73
770.836	15439.82
771.171	15472.14
771.507	15659.25
771.842	15684.56
772.178	15793.26
772.513	15789.87
772.849	15977.21
773.184	15993.48
773.519	16056.3
773.855	16088.16
774.19	16188.5
774.525	16220.59
774.86	16330.42
775.195	16440.47
775.53	16527.02
775.865	16362.51
776.2	16445.9
776.535	16388.72
776.87	16496.97
777.205	16527.25
777.539	16530.19
777.874	16664.87
778.209	16618.09
778.543	16719.79
778.878	16630.07
779.212	16639.11
779.547	16682.05
779.881	16773.12
780.215	16806.34
780.55	16789.39
780.884	16763.4
781.218	16766.56
781.552	16771.08
781.886	16886.34
782.22	16779.9
782.554	16824.87
782.888	16769.05
783.222	16781.25
783.556	16722.95
783.889	16702.61
784.223	16642.73
784.557	16690.41
784.89	16825.55
785.224	16786.9
785.557	16666
785.891	16728.15
786.224	16679.11
786.558	16728.6
786.891	16640.47
787.224	16576.74
787.557	16569.28
787.891	16630.98
788.224	16633.23
788.557	16560.69
788.89	16616.96
789.223	16487.93
789.556	16527.93
789.888	16469.85
790.221	16387.37
790.554	16294.49
790.887	16358.44
791.219	16311.66
791.552	16349.4
791.884	16281.38
792.217	16246.13
792.549	16184.21
792.882	16170.2
793.214	16083.64
793.546	16153.7
793.879	16114.38
794.211	16054.95
794.543	16095.4
794.875	16031.22
795.207	16023.76
795.539	15979.47
795.871	15970.43
796.203	15890.88
796.535	15834.16
796.867	15747.83
797.198	15671
797.53	15768.17
797.862	15696.31
798.193	15695.86
798.525	15681.85
798.856	15654.28
799.188	15499.25
799.519	15461.51
799.85	15365.47
800.182	15398.69
800.513	15372.7
800.844	15242.09
801.175	15286.38
801.506	15318.92
801.837	15376.54
802.168	15249.54
802.499	15155.53
802.83	15144.46
803.161	15051.81
803.491	15095.42
803.822	15116.44
804.153	15057.68
804.483	14946.95
804.814	14891.13
805.145	14874.41
805.475	14944.47
805.805	14890.23
806.136	14874.86
806.466	14786.28
806.796	14825.37
807.126	14749.22
807.457	14692.95
807.787	14645.94
808.117	14609.11
808.447	14593.51
808.777	14516.45
809.107	14500.41
809.436	14447.53
809.766	14367.53
810.096	14419.96
810.426	14394.2
810.755	14383.58
811.085	14342.45
811.414	14358.72
811.744	14202.11
812.073	14199.85
812.403	14275.78
812.732	14122.57
813.061	14160.76
813.39	14099.74
813.719	14094.32
814.049	14137.03
814.378	14129.12
814.707	14131.61
815.036	14072.17
815.365	13946.98
815.693	13804.61
816.022	13922.8
816.351	13851.84
816.68	13773.42
817.008	13860.88
817.337	13736.36
817.665	13667.21
817.994	13711.73
818.322	13708.11
818.651	13631.73
818.979	13542.69
819.307	13665.18
819.636	13683.26
819.964	13459.31
820.292	13649.36
820.62	13590.15
820.948	13639.42
821.276	13594.22
821.604	13544.73
821.932	13569.81
822.259	13575.69
822.587	13554.22
822.915	13523.26
823.243	13572.07
823.57	13561.68
823.898	13542.02
824.225	13540.21
824.553	13460.44
824.88	13520.32
825.207	13569.59
825.535	13513.77
825.862	13517.84
826.189	13461.11
826.516	13483.71
826.843	13604.39
827.17	13568.91
827.497	13502.24
827.824	13558.74
828.151	13561.23
828.478	13591.73
828.805	13622.24
829.131	13551.51
829.458	13575.91
829.785	13513.09
830.111	13537.5
830.438	13628.79
830.764	13547.67
831.09	13611.85
831.417	13505.63
831.743	13507.22
832.069	13509.02
832.395	13456.6
832.722	13563.71
833.048	13495.69
833.374	13498.63
833.7	13410.72
834.026	13438.29
834.351	13515.58
834.677	13473.77
835.003	13542.02
835.329	13493.2
835.654	13458.86
835.98	13358.74
836.306	13468.12
836.631	13363.49
836.956	13418.86
837.282	13357.61
837.607	13345.86
837.932	13238.07
838.258	13340.67
838.583	13289.59
838.908	13201.91
839.233	13296.37
839.558	13173.44
839.883	13101.8
840.208	13067.23
840.533	13079.66
840.858	13128.24
841.182	13105.87
841.507	13052.76
841.832	12992.65
842.156	13074.91
842.481	12962.37
842.805	12960.79
843.13	12888.25
843.454	12891.86
843.778	12808.93
844.103	12803.96
844.427	12814.58
844.751	12783.17
845.075	12737.97
845.399	12741.81
845.723	12623.4
846.047	12680.12
846.371	12474.47
846.695	12625.88
847.019	12442.61
847.343	12376.4
847.666	12338.66
847.99	12322.39
848.313	12366.68
848.637	12263.63
848.96	12216.85
849.284	12177.31
849.607	12093.92
849.931	12028.16
850.254	11949.74
850.577	11957.43
850.9	11870.65
851.223	11814.38
851.546	11773.02
851.869	11674.04
852.192	11796.98
852.515	11594.05
852.838	11609.64
853.161	11571.45
853.483	11529.19
853.806	11479.02
854.129	11476.31
854.451	11406.93
854.774	11380.04
855.096	11274.05
855.419	11329.42
855.741	11332.81
856.063	11211.46
856.385	11212.59
856.708	11111.57
857.03	11124.23
857.352	11117
857.674	11023.66
857.996	11085.36
858.318	10955.19
858.64	10986.6
858.961	10908.41
859.283	10880.17
859.605	10861.86
859.926	10864.8
860.248	10778.7
860.57	10775.76
860.891	10771.47
861.212	10778.02
861.534	10712.94
861.855	10690.57
862.176	10687.18
862.498	10640.17
862.819	10675.88
863.14	10512.27
863.461	10652.38
863.782	10557.01
864.103	10616.9
864.424	10494.64
864.745	10470.69
865.065	10517.01
865.386	10491.7
865.707	10456
866.027	10419.16
866.348	10484.47
866.668	10423.91
866.989	10333.29
867.309	10331.48
867.63	10363.12
867.95	10369.44
868.27	10273.18
868.59	10337.58
868.91	10243.12
869.23	10276.11
869.55	10204.25
869.87	10315.21
870.19	10208.77
870.51	10200.18
870.83	10258.94
871.15	10154.76
871.469	10151.37
871.789	10167.64
872.109	10200.18
872.428	10083.35
872.748	10111.37
873.067	10080.19
873.386	10056.91
873.706	10064.14
874.025	9995.9
874.344	9941.43
874.663	9991.6
874.982	9958.38
875.301	10042
875.62	9904.37
875.939	9969.46
876.258	9881.77
876.577	9892.85
876.896	9808.56
877.214	9825.96
877.533	9825.5
877.852	9836.13
878.17	9750.25
878.489	9842.68
878.807	9824.6
879.125	9765.17
879.444	9762.46
879.762	9811.27
880.08	9681.55
880.398	9675.23
880.716	9697.82
881.034	9652.18
881.352	9708.67
881.67	9608.79
881.988	9638.39
882.306	9536.02
882.624	9623.48
882.941	9540.54
883.259	9556.81
883.577	9493.08
883.894	9446.31
884.212	9406.31
884.529	9447.66
884.846	9415.12
885.164	9355.69
885.481	9343.71
885.798	9333.09
886.115	9294.44
886.432	9292.86
886.75	9268.46
887.067	9345.07
887.383	9265.07
887.7	9271.39
888.017	9121.79
888.334	9218.51
888.651	9254.67
888.967	9162.24
889.284	9138.97
889.6	9087.22
889.917	9000.89
890.233	9043.6
890.55	8961.57
890.866	8979.2
891.182	8940.56
891.498	8985.53
891.815	8813.55
892.131	8879.99
892.447	8851.97
892.763	8796.15
893.079	8797.51
893.395	8817.4
893.71	8696.04
894.026	8718.19
894.342	8740.11
894.657	8592.77
894.973	8632.77
895.289	8673.44
895.604	8574.46
895.92	8484.75
896.235	8467.35
896.55	8474.35
896.865	8515.26
897.181	8417.18
897.496	8454.69
897.811	8367.46
898.126	8363.85
898.441	8350.74
898.756	8257.41
899.071	8224.19
899.386	8187.81
899.7	8194.13
900.015	8177.86
900.33	8070.3
900.644	8053.57
900.959	8094.7
901.273	8023.97
901.588	8052.22
901.902	7938.55
902.216	7973.58
902.531	7936.97
902.845	7846.12
903.159	7801.6
903.473	7779.23
903.787	7801.83
904.101	7746.91
904.415	7791.89
904.729	7718.44
905.042	7656.97
905.356	7650.65
905.67	7592.12
905.984	7649.74
906.297	7553.25
906.611	7518.22
906.924	7528.39
907.237	7448.62
907.551	7427.38
907.864	7384.89
908.177	7386.92
908.491	7379.47
908.804	7301.5
909.117	7234.61
909.43	7220.83
909.743	7254.05
910.056	7180.38
910.368	7205.01
910.681	7135.86
910.994	7144.9
911.307	7119.59
911.619	7069.19
911.932	7000.72
912.244	6996.43
912.557	6948.07
912.869	6883.21
913.181	6887.05
913.494	6900.61
913.806	6860.38
914.118	6772.7
914.43	6768.86
914.742	6766.83
915.054	6755.98
915.366	6759.37
915.678	6714.4
915.99	6626.94
916.302	6579.94
916.613	6559.15
916.925	6556.89
917.236	6547.85
917.548	6536.33
917.859	6505.14
918.171	6496.33
918.482	6465.37
918.794	6400.96
919.105	6395.31
919.416	6414.52
919.727	6371.13
920.038	6330
920.349	6277.12
920.66	6237.58
920.971	6226.95
921.282	6273.73
921.593	6166.84
921.903	6151.93
922.214	6086.39
922.525	6103.12
922.835	6104.25
923.146	6033.97
923.456	6045.94
923.767	6012.27
924.077	5984.7
924.387	5929.79
924.697	5931.14
925.008	5929.56
925.318	5895.21
925.628	5861.54
925.938	5877.36
926.248	5824.48
926.558	5785.84
926.867	5778.38
927.177	5715.78
927.487	5732.28
927.796	5682.34
928.106	5676.23
928.416	5638.27
928.725	5613.64
929.034	5570.48
929.344	5610.47
929.653	5633.3
929.962	5542.23
930.271	5552.4
930.581	5476.92
930.89	5458.61
931.199	5443.7
931.508	5426.3
931.817	5418.39
932.125	5391.5
932.434	5357.83
932.743	5300.2
933.051	5339.07
933.36	5311.05
933.669	5260.65
933.977	5270.82
934.286	5234.66
934.594	5222.01
934.902	5180.43
935.21	5195.12
935.519	5156.7
935.827	5110.6
936.135	5100.43
936.443	5029.47
936.751	5058.4
937.059	5066.08
937.367	5013.88
937.674	5013.43
937.982	5000.55
938.29	4950.15
938.597	4932.98
938.905	4906.09
939.213	4906.99
939.52	4871.28
939.827	4858.86
940.135	4860.89
940.442	4854.56
940.749	4780.21
941.056	4807.78
941.363	4783.6
941.67	4725.53
941.977	4707.22
942.284	4661.12
942.591	4688.69
942.898	4615.92
943.205	4709.93
943.511	4626.77
943.818	4608.47
944.125	4545.87
944.431	4551.74
944.738	4511.75
945.044	4492.76
945.35	4472.88
945.657	4438.53
945.963	4500.67
946.269	4435.14
946.575	4394.91
946.881	4400.11
947.187	4418.64
947.493	4392.43
947.799	4328.47
948.105	4317.85
948.41	4340
948.716	4301.36
949.022	4304.29
949.327	4271.53
949.633	4254.13
949.938	4249.61
950.244	4260
950.549	4172.55
950.854	4154.24
951.16	4179.55
951.465	4122.6
951.77	4083.06
952.075	4106.11
952.38	4080.57
952.685	4079.89
952.99	4063.17
953.294	4039.22
953.599	3970.97
953.904	4008.03
954.209	3975.49
954.513	3972.78
954.818	3982.95
955.122	3949.5
955.426	3951.76
955.731	3898.88
956.035	3902.27
956.339	3878.32
956.643	3866.79
956.948	3810.07
957.252	3841.25
957.556	3813.46
957.86	3842.84
958.163	3776.62
958.467	3754.03
958.771	3740.01
959.075	3739.79
959.378	3718.09
959.682	3688.26
959.985	3694.37
960.289	3651.66
960.592	3632.22
960.896	3655.72
961.199	3607.36
961.502	3599
961.805	3603.52
962.108	3499.12
962.411	3564.43
962.714	3505.9
963.017	3499.12
963.32	3527.36
963.623	3457.31
963.926	3519.23
964.228	3404.88
964.531	3446.69
964.833	3470.87
965.136	3375.73
965.438	3388.39
965.741	3403.75
966.043	3344.09
966.345	3336.86
966.648	3349.52
966.95	3352
967.252	3319.46
967.554	3282.63
967.856	3261.16
968.158	3220.25
968.46	3229.75
968.761	3222.97
969.063	3204.89
969.365	3197.88
969.666	3186.58
969.968	3146.36
970.269	3130.77
970.571	3181.84
970.872	3154.95
971.174	3114.04
971.475	3128.28
971.776	3043.54
972.077	3098.9
972.378	3100.48
972.679	3097.09
972.98	3053.71
973.281	3027.04
973.582	3010.99
973.883	3001.5
974.183	2991.79
974.484	2971.45
974.785	2974.39
975.085	2949.3
975.386	2955.85
975.686	2950.2
975.986	2913.82
976.287	2898.45
976.587	2896.65
976.887	2900.71
977.187	2844.67
977.487	2867.95
977.787	2843.54
978.087	2872.24
978.387	2800.83
978.687	2808.97
978.987	2810.77
979.286	2758.35
979.586	2757.67
979.885	2757.44
980.185	2704.56
980.484	2754.28
980.784	2718.35
981.083	2738.46
981.382	2719.25
981.682	2705.24
981.981	2675.64
982.28	2687.84
982.579	2641.29
982.878	2635.18
983.177	2625.02
983.475	2604.45
983.774	2617.11
984.073	2586.6
984.372	2582.08
984.67	2586.82
984.969	2595.64
985.267	2557.67
985.566	2547.5
985.864	2546.6
986.162	2504.79
986.461	2524.45
986.759	2483.78
987.057	2451.91
987.355	2458.24
987.653	2460.27
987.951	2438.81
988.249	2405.59
988.547	2428.18
988.844	2424.34
989.142	2421.18
989.44	2376.89
989.737	2407.85
990.035	2374.63
990.332	2373.04
990.63	2328.3
990.927	2347.96
991.224	2361.75
991.521	2294.4
991.819	2289.43
992.116	2287.17
992.413	2280.62
992.71	2240.17
993.006	2268.64
993.303	2265.03
993.6	2260.05
993.897	2216.44
994.193	2221.18
994.49	2221.64
994.787	2214.63
995.083	2162.88
995.379	2176.89
995.676	2135.99
995.972	2163.56
996.268	2151.81
996.565	2107.74
996.861	2119.72
997.157	2147.06
997.453	2132.6
997.749	2109.55
998.044	2105.48
998.34	2082.66
998.636	2063.9
998.932	2084.46
999.227	2048.99
999.523	2066.16
999.818	2033.84
1000.114	1997.01
1000.409	1997.69
1000.704	1988.87
1001	1989.78
1001.295	1964.47
1001.59	1995.65
1001.885	1958.14
1002.18	1956.78
1002.475	1952.04
1002.77	1926.28
1003.065	1905.49
1003.359	1905.71
1003.654	1888.76
1003.949	1868.65
1004.243	1874.3
1004.538	1851.48
1004.832	1831.82
1005.127	1849.67
1005.421	1817.81
1005.715	1803.34
1006.009	1819.39
1006.304	1817.13
1006.598	1783.23
1006.892	1774.42
1007.186	1759.95
1007.48	1747.98
1007.773	1740.07
1008.067	1749.33
1008.361	1711.82
1008.655	1720.86
1008.948	1686.74
1009.242	1735.1
1009.535	1678.15
1009.829	1666.4
1010.122	1668.88
1010.415	1649.22
1010.708	1627.53
1011.001	1648.32
1011.295	1646.96
1011.588	1658.26
1011.881	1595.44
1012.173	1587.53
1012.466	1602.44
1012.759	1623.46
1013.052	1594.99
1013.344	1556.12
1013.637	1578.26
1013.93	1547.3
1014.222	1554.54
1014.514	1507.76
1014.807	1543.24
1015.099	1481.54
1015.391	1472.96
1015.683	1465.27
1015.976	1480.64
1016.268	1493.97
1016.56	1458.49
1016.851	1465.95
1017.143	1451.94
1017.435	1442.67
1017.727	1443.8
1018.018	1432.5
1018.31	1415.33
1018.602	1422.79
1018.893	1371.72
1019.185	1409
1019.476	1387.08
1019.767	1379.85
1020.058	1367.87
1020.35	1346.41
1020.641	1348.67
1020.932	1338.5
1021.223	1338.5
1021.514	1324.26
1021.804	1315.9
1022.095	1293.98
1022.386	1287.88
1022.677	1278.61
1022.967	1278.38
1023.258	1292.62
1023.548	1263.02
1023.839	1249.91
1024.129	1244.94
1024.419	1251.27
1024.709	1233.41
1025	1199.52
1025.29	1206.75
1025.58	1213.75
1025.87	1219.18
1026.16	1182.57
1026.449	1178.05
1026.739	1177.6
1027.029	1165.39
1027.319	1147.31
1027.608	1165.17
1027.898	1138.73
1028.187	1166.75
1028.477	1140.31
1028.766	1139.86
1029.055	1132.63
1029.344	1117.26
1029.634	1091.95
1029.923	1115.45
1030.212	1095.34
1030.501	1103.7
1030.79	1090.37
1031.078	1067.09
1031.367	1075.68
1031.656	1048.11
1031.945	1054.89
1032.233	1047.66
1032.522	1040.88
1032.81	1028.45
1033.099	1015.34
1033.387	1019.41
1033.675	996.81
1033.963	998.39
1034.251	1020.31
1034.54	1000.88
1034.828	1001.33
1035.116	968.11
1035.403	998.39
1035.691	970.6
1035.979	967.88
1036.267	966.08
1036.554	949.13
1036.842	944.38
1037.129	954.1
1037.417	947.77
1037.704	942.57
1037.992	922.91
1038.279	899.64
1038.566	902.35
1038.853	902.35
1039.14	902.35
