Data from hue_270_FLMS001491_00080.txt Node
Date: Tue Feb 07 15:57:42 GMT 2017
User: dcchb
Spectrometer: FLMS00149
Trigger mode: 0
Integration Time (sec): 2.000000E-2
Scans to average: 10
Electric dark correction enabled: true
Nonlinearity correction enabled: false
Boxcar width: 0
XAxis mode: Wavelengths
Number of Pixels in Spectrum: 2048
>>>>>Begin Spectral Data<<<<<
341.393	-12.03
341.776	-12.03
342.16	-12.03
342.543	-76.21
342.927	-60.85
343.31	-68.08
343.693	-62.65
344.077	-77.34
344.46	-58.36
344.843	-62.2
345.226	-37.57
345.61	-38.93
345.993	-6.61
346.376	-8.64
346.759	12.37
347.142	18.93
347.525	44.46
347.908	45.14
348.291	59.83
348.674	123.56
349.057	116.1
349.44	123.56
349.823	151.8
350.206	162.43
350.588	183.44
350.971	200.39
351.354	193.61
351.737	231.35
352.119	231.58
352.502	279.26
352.884	255.3
353.267	262.31
353.65	289.88
354.032	304.79
354.414	305.25
354.797	309.31
355.179	323.1
355.562	305.47
355.944	312.25
356.326	298.24
356.709	329.43
357.091	320.16
357.473	331.91
357.855	317.9
358.238	332.59
358.62	300.95
359.002	320.39
359.384	329.88
359.766	339.14
360.148	347.28
360.53	326.04
360.912	315.87
361.294	333.72
361.676	327.39
362.057	318.58
362.439	307.28
362.821	323.78
363.203	321.07
363.584	315.42
363.966	301.4
364.348	300.95
364.729	325.13
365.111	305.7
365.493	313.61
365.874	300.5
366.256	306.83
366.637	299.14
367.019	297.79
367.4	318.13
367.781	304.79
368.163	295.98
368.544	282.87
368.925	308.64
369.306	306.38
369.688	309.31
370.069	301.63
370.45	312.03
370.831	309.54
371.212	304.34
371.593	307.28
371.974	307.05
372.355	299.6
372.736	304.57
373.117	313.16
373.498	286.94
373.879	306.6
374.26	296.88
374.641	312.25
375.021	331.91
375.402	309.77
375.783	321.07
376.163	328.07
376.544	336.88
376.925	316.09
377.305	320.39
377.686	323.32
378.066	326.26
378.447	351.57
378.827	335.75
379.208	347.05
379.588	320.61
379.968	310.44
380.349	338.01
380.729	305.02
381.109	329.2
381.489	326.26
381.87	345.02
382.25	347.5
382.63	331.46
383.01	332.36
383.39	323.32
383.77	341.18
384.15	342.08
384.53	353.38
384.91	331.91
385.29	344.12
385.67	340.5
386.049	345.02
386.429	347.5
386.809	366.26
387.189	360.16
387.568	338.69
387.948	353.83
388.328	342.31
388.707	350.89
389.087	359.71
389.466	367.84
389.846	345.92
390.225	362.87
390.605	364.23
390.984	379.59
391.363	387.96
391.743	378.69
392.122	377.79
392.501	363.32
392.881	386.37
393.26	363.78
393.639	407.16
394.018	377.79
394.397	379.37
394.776	391.35
395.155	377.11
395.534	413.94
395.913	391.8
396.292	397.22
396.671	421.18
397.05	396.09
397.429	398.8
397.808	383.66
398.186	400.16
398.565	428.63
398.944	395.19
399.323	403.55
399.701	396.77
400.08	394.74
400.458	406.03
400.837	389.54
401.215	431.34
401.594	424.11
401.972	417.79
402.351	412.36
402.729	420.27
403.107	412.81
403.486	438.8
403.864	425.7
404.242	411.01
404.62	425.24
404.999	458.01
405.377	420.27
405.755	453.72
406.133	467.95
406.511	454.85
406.889	459.82
407.267	460.95
407.645	477.67
408.023	455.52
408.401	480.16
408.779	483.55
409.156	486.03
409.534	506.37
409.912	505.01
410.29	502.53
410.667	501.85
411.045	517.9
411.422	507.73
411.8	508.86
412.178	539.36
412.555	541.62
412.933	541.17
413.31	555.86
413.687	554.51
414.065	569.19
414.442	557.44
414.819	588.4
415.197	580.72
415.574	594.73
415.951	608.74
416.328	613.26
416.705	611
417.082	620.27
417.46	623.66
417.837	631.11
418.214	643.99
418.591	654.84
418.967	666.37
419.344	652.13
419.721	662.98
420.098	665.69
420.475	668.4
420.852	667.72
421.228	714.05
421.605	696.87
421.982	722.64
422.358	725.12
422.735	729.42
423.111	748.62
423.488	765.57
423.864	773.71
424.241	791.11
424.617	783.43
424.994	794.72
425.37	833.37
425.746	841.28
426.123	852.35
426.499	836.08
426.875	838.57
427.251	840.37
427.627	879.24
428.003	900.48
428.379	893.03
428.756	906.81
429.132	910.2
429.507	929.41
429.883	923.54
430.259	959.01
430.635	950.88
431.011	954.72
431.387	974.38
431.763	986.58
432.138	984.55
432.514	1031.1
432.89	1029.97
433.265	1058.45
433.641	1072.01
434.016	1097.54
434.392	1109.52
434.767	1110.2
435.143	1099.8
435.518	1150.2
435.894	1141.16
436.269	1171.21
436.644	1209.4
437.02	1207.37
437.395	1213.92
437.77	1260.48
438.145	1243.53
438.52	1282.4
438.895	1285.33
439.271	1292.79
439.646	1295.05
440.021	1309.51
440.395	1327.59
440.77	1337.76
441.145	1366.46
441.52	1365.78
441.895	1359.91
442.27	1383.41
442.645	1403.97
443.019	1409.17
443.394	1444.2
443.769	1451.43
444.143	1422.28
444.518	1483.97
444.892	1468.61
445.267	1476.97
445.641	1493.24
446.016	1493.46
446.39	1523.75
446.764	1517.19
447.139	1514.71
447.513	1540.92
447.887	1506.12
448.262	1536.63
448.636	1563.07
449.01	1577.76
449.384	1572.56
449.758	1589.96
450.132	1616.85
450.506	1622.05
450.88	1630.18
451.254	1635.83
451.628	1629.28
452.002	1695.94
452.376	1699.11
452.75	1704.08
453.123	1694.59
453.497	1723.06
453.871	1753.12
454.244	1784.53
454.618	1768.03
454.992	1798.09
455.365	1807.58
455.739	1870.85
456.112	1850.74
456.486	1849.39
456.859	1884.41
457.232	1926.22
457.606	1915.37
457.979	1904.98
458.352	1984.07
458.725	1980
459.099	1994.69
459.472	2018.2
459.845	2053.9
460.218	2024.75
460.591	2055.71
460.964	2074.47
461.337	2102.26
461.71	2109.04
462.083	2176.16
462.456	2177.74
462.829	2178.42
463.201	2205.54
463.574	2202.15
463.947	2216.83
464.32	2258.87
464.692	2252.54
465.065	2312.43
465.438	2348.58
465.81	2317.85
466.183	2332.99
466.555	2396.94
466.928	2424.96
467.3	2412.54
467.672	2459.09
468.045	2525.07
468.417	2507.45
468.789	2514
469.161	2521.46
469.534	2592.42
469.906	2620.21
470.278	2598.97
470.65	2645.07
471.022	2703.6
471.394	2752.64
471.766	2776.59
472.138	2782.92
472.51	2818.17
472.882	2884.84
473.253	2903.37
473.625	2927.32
473.997	2946.76
474.369	2953.99
474.74	3027.89
475.112	3069.47
475.484	3072.18
475.855	3126.64
476.227	3130.71
476.598	3236.24
476.97	3207.09
477.341	3297.26
477.713	3368.22
478.084	3357.82
478.455	3438.05
478.827	3429.01
479.198	3499.06
479.569	3528.21
479.94	3622.22
480.311	3638.27
480.682	3688.21
481.053	3768.43
481.424	3843.01
481.795	3843.01
482.166	3854.08
482.537	3948.99
482.908	4004.81
483.279	4013.85
483.65	4056.33
484.021	4115.99
484.391	4156.67
484.762	4194.86
485.133	4172.72
485.503	4262.43
485.874	4352.15
486.244	4351.02
486.615	4418.81
486.985	4464.01
487.356	4504.68
487.726	4565.7
488.097	4620.39
488.467	4649.09
488.837	4724.57
489.207	4789.42
489.578	4816.77
489.948	4812.02
490.318	4891.57
490.688	4920.49
491.058	4945.58
491.428	5017.21
491.798	5102.63
492.168	5126.81
492.538	5172.91
492.908	5172.69
493.278	5222.86
493.648	5261.5
494.017	5299.92
494.387	5377.88
494.757	5376.75
495.126	5398.67
495.496	5412
495.866	5429.63
496.235	5483.42
496.605	5522.96
496.974	5525.67
497.344	5618.55
497.713	5615.84
498.082	5626.91
498.452	5704.88
498.821	5710.08
499.19	5710.98
499.559	5777.64
499.928	5748.27
500.298	5755.95
500.667	5776.06
501.036	5812.45
501.405	5861.03
501.774	5927.7
502.143	5912.1
502.512	5932.67
502.88	5972.89
503.249	6011.54
503.618	6008.37
503.987	6031.2
504.356	6035.94
504.724	6035.04
505.093	6109.16
505.462	6072.78
505.83	6149.39
506.199	6126.11
506.567	6238.2
506.936	6162.95
507.304	6252.66
507.672	6276.61
508.041	6277.29
508.409	6229.38
508.777	6343.73
509.145	6321.36
509.514	6310.29
509.882	6375.82
510.25	6344.64
510.618	6407.01
510.986	6422.15
511.354	6422.6
511.722	6415.14
512.09	6517.96
512.458	6454.24
512.826	6472.77
513.193	6534.91
513.561	6496.95
513.929	6553.22
514.297	6579.66
514.664	6592.54
515.032	6609.71
515.4	6646.77
515.767	6618.3
516.135	6667.11
516.502	6586.44
516.869	6634.35
517.237	6679.99
517.604	6719.09
517.972	6723.16
518.339	6745.08
518.706	6758.86
519.073	6668.69
519.44	6748.69
519.808	6795.92
520.175	6791.86
520.542	6797.28
520.909	6913.21
521.276	6824.62
521.643	6865.75
522.009	6912.53
522.376	6938.74
522.743	6955.69
523.11	6955.92
523.477	7006.76
523.843	7016.03
524.21	7028.23
524.577	7090.83
524.943	7096.25
525.31	7141.9
525.676	7194.33
526.043	7175.35
526.409	7199.08
526.776	7237.49
527.142	7220.09
527.508	7213.54
527.874	7250.15
528.241	7255.8
528.607	7307.77
528.973	7361.11
529.339	7362.01
529.705	7386.87
530.071	7405.85
530.437	7415.79
530.803	7394.33
531.169	7473.87
531.535	7393.65
531.901	7417.15
532.267	7481.55
532.632	7455.34
532.998	7514.32
533.364	7562.68
533.73	7549.8
534.095	7537.15
534.461	7527.43
534.826	7540.08
535.192	7553.87
535.557	7654.66
535.923	7619.86
536.288	7607.65
536.653	7657.6
537.019	7599.29
537.384	7639.29
537.749	7710.25
538.114	7642
538.479	7672.28
538.845	7686.07
539.21	7673.87
539.575	7664.15
539.94	7660.76
540.305	7691.72
540.67	7659.86
541.034	7748.21
541.399	7719.51
541.764	7728.33
542.129	7795.9
542.494	7744.15
542.858	7754.32
543.223	7722.9
543.587	7763.36
543.952	7726.75
544.316	7838.61
544.681	7751.6
545.045	7816.24
545.41	7829.12
545.774	7753.86
546.138	7877.25
546.503	7816.91
546.867	7833.41
547.231	7873.63
547.595	7867.99
547.959	7882
548.324	7876.35
548.688	7853.3
549.052	7873.18
549.416	7890.81
549.779	7872.73
550.143	7862.79
550.507	7937.81
550.871	7945.5
551.235	7891.26
551.599	7894.43
551.962	7911.37
552.326	7925.38
552.689	7966.97
553.053	7915.89
553.417	7947.98
553.78	8019.39
554.143	7964.71
554.507	7948.89
554.87	7971.03
555.234	8060.97
555.597	8031.14
555.96	8057.58
556.323	7989.11
556.686	8023.24
557.05	8049
557.413	8105.72
557.776	8125.15
558.139	8178.49
558.502	8124.25
558.865	8117.47
559.228	8232.72
559.59	8257.13
559.953	8219.39
560.316	8324.7
560.679	8261.87
561.041	8320.85
561.404	8321.31
561.767	8332.15
562.129	8353.4
562.492	8413.96
562.854	8449.66
563.217	8399.04
563.579	8420.74
563.941	8438.14
564.304	8436.11
564.666	8533.5
565.028	8548.19
565.39	8557.23
565.753	8581.86
566.115	8674.07
566.477	8667.06
566.839	8725.82
567.201	8707.74
567.563	8663.44
567.925	8739.6
568.287	8772.59
568.648	8848.98
569.01	8820.5
569.372	8920.84
569.734	8777.57
570.095	8865.47
570.457	8953.15
570.819	8930.1
571.18	9003.77
571.542	8986.15
571.903	8991.35
572.265	9101.85
572.626	9079.93
572.987	9110.66
573.349	9127.16
573.71	9210.77
574.071	9172.58
574.432	9244.67
574.794	9259.81
575.155	9248.06
575.516	9239.7
575.877	9307.27
576.238	9356.08
576.599	9367.38
576.96	9364.9
577.32	9382.52
577.681	9457.55
578.042	9516.98
578.403	9482.18
578.763	9543.2
579.124	9515.4
579.485	9574.61
579.845	9649.41
580.206	9673.14
580.566	9663.87
580.927	9657.32
581.287	9717.88
581.648	9789.97
582.008	9828.16
582.368	9754.49
582.728	9827.93
583.089	9814.6
583.449	9900.93
583.809	9984.54
584.169	9968.72
584.529	9975.27
584.889	10013.69
585.249	10025.44
585.609	9990.19
585.969	10100.02
586.329	10041.26
586.688	10109.06
587.048	10061.15
587.408	10114.48
587.768	10174.82
588.127	10157.19
588.487	10230.18
588.846	10274.93
589.206	10281.48
589.565	10268.37
589.925	10314.02
590.284	10361.48
590.643	10422.49
591.003	10429.27
591.362	10430.18
591.721	10437.18
592.08	10469.05
592.44	10505.43
592.799	10548.37
593.158	10513.11
593.517	10586.56
593.876	10633.11
594.235	10554.92
594.593	10610.96
594.952	10704.07
595.311	10638.99
595.67	10647.8
596.029	10729.15
596.387	10789.04
596.746	10728.25
597.104	10788.13
597.463	10771.19
597.822	10821.81
598.18	10823.84
598.538	10826.1
598.897	10846.44
599.255	10794.01
599.613	10936.15
599.972	10825.65
600.33	10899.09
600.688	10871.75
601.046	10985.87
601.404	10962.37
601.762	10985.42
602.12	11021.57
602.478	10948.58
602.836	11025.42
603.194	10958.98
603.552	11016.6
603.91	10940.67
604.268	11009.15
604.625	10977.96
604.983	11004.85
605.341	11012.99
605.698	11063.83
606.056	11081.01
606.413	11096.6
606.771	11116.04
607.128	11109.48
607.485	11086.21
607.843	11038.98
608.2	11173.44
608.557	11164.85
608.914	11128.24
609.272	11171.85
609.629	11158.97
609.986	11364.84
610.343	11146.77
610.7	11345.63
611.057	11267.44
611.414	11217.28
611.771	11267.9
612.127	11304.73
612.484	11288.69
612.841	11358.97
613.198	11258.86
613.554	11306.09
613.911	11404.84
614.267	11333.2
614.624	11420.66
614.98	11331.85
615.337	11404.62
615.693	11393.54
616.05	11417.04
616.406	11446.65
616.762	11420.21
617.118	11335.69
617.475	11470.15
617.831	11455.46
618.187	11490.26
618.543	11427.67
618.899	11495.69
619.255	11551.96
619.611	11572.29
619.967	11571.62
620.323	11617.04
620.678	11520.09
621.034	11496.14
621.39	11528.68
621.746	11476.7
622.101	11581.11
622.457	11534.1
622.812	11637.6
623.168	11567.32
623.523	11568.23
623.879	11582.46
624.234	11566.87
624.589	11605.74
624.945	11556.93
625.3	11641.9
625.655	11597.15
626.01	11618.85
626.365	11586.76
626.72	11543.37
627.075	11549.02
627.43	11549.7
627.785	11561.9
628.14	11552.41
628.495	11557.61
628.85	11521.22
629.205	11536.36
629.559	11584.05
629.914	11479.19
630.269	11533.88
630.623	11454.33
630.978	11470.83
631.332	11477.16
631.687	11494.1
632.041	11463.37
632.396	11471.96
632.75	11428.34
633.104	11438.96
633.459	11344.96
633.813	11379.76
634.167	11323.26
634.521	11268.57
634.875	11337.05
635.229	11254.11
635.583	11330.49
635.937	11284.62
636.291	11280.1
636.645	11293.88
636.999	11257.5
637.352	11267.9
637.706	11212.98
638.06	11233.09
638.413	11246.88
638.767	11215.92
639.121	11260.21
639.474	11173.21
639.828	11174.34
640.181	11169.82
640.534	11187.45
640.888	11116.26
641.241	11150.16
641.594	11107.9
641.947	11185.41
642.301	11094.12
642.654	11189.25
643.007	11148.8
643.36	11069.26
643.713	11031.29
644.066	11126.88
644.419	10989.71
644.771	11004.63
645.124	10877.62
645.477	10883.5
645.83	10845.08
646.182	10693
646.535	10729.6
646.888	10762.37
647.24	10705.88
647.593	10687.35
647.945	10775.48
648.298	10618.87
648.65	10620.68
649.002	10683.05
649.355	10663.39
649.707	10691.41
650.059	10799.89
650.411	10905.19
650.763	10837.4
651.115	10916.49
651.467	10914.01
651.819	10930.73
652.171	10935.48
652.523	10877.17
652.875	10915.36
653.227	10849.6
653.578	10957.62
653.93	10909.49
654.282	10923.05
654.633	10867.68
654.985	10867
655.337	10913.55
655.688	10902.48
656.039	10956.94
656.391	10865.19
656.742	10940.22
657.094	10936.61
657.445	10848.02
657.796	10914.46
658.147	10875.82
658.498	10842.82
658.849	10812.99
659.2	10802.37
659.551	10842.14
659.902	10886.21
660.253	10935.7
660.604	10940.45
660.955	10842.82
661.306	10883.95
661.656	10938.19
662.007	10903.61
662.358	10870.39
662.708	10916.04
663.059	10946.32
663.409	10892.99
663.76	10865.42
664.11	10926.89
664.461	10892.31
664.811	10879.43
665.161	10908.36
665.511	10888.02
665.862	10894.12
666.212	10983.16
666.562	10892.31
666.912	10908.13
667.262	10918.53
667.612	10954.01
667.962	10930.05
668.312	10947
668.662	10962.59
669.011	10930.73
669.361	10931.41
669.711	10879.66
670.06	10897.96
670.41	10849.15
670.76	10890.05
671.109	10858.64
671.459	10830.17
671.808	10811.18
672.157	10866.1
672.507	10800.34
672.856	10773.22
673.205	10794.24
673.554	10833.56
673.904	10776.61
674.253	10874.23
674.602	10831.07
674.951	10693.67
675.3	10609.83
675.649	10772.54
675.998	10783.61
676.346	10752.43
676.695	10749.04
677.044	10740.9
677.393	10732.32
677.741	10813.22
678.09	10709.04
678.438	10695.48
678.787	10725.76
679.135	10712.2
679.484	10557.86
679.832	10646.44
680.181	10535.03
680.529	10620.46
680.877	10619.55
681.225	10578.2
681.573	10627.01
681.922	10469.95
682.27	10480.57
682.618	10514.02
682.966	10471.76
683.314	10506.79
683.661	10462.27
684.009	10429.95
684.357	10425.66
684.705	10379.33
685.053	10324.19
685.4	10358.77
685.748	10290.75
686.095	10258.66
686.443	10251.43
686.79	10205.55
687.138	10259.11
687.485	10276.28
687.832	10187.02
688.18	10212.1
688.527	10120.81
688.874	10109.96
689.221	10086.91
689.568	10021.6
689.915	9955.16
690.262	9973.24
690.609	9999.45
690.956	9848.05
691.303	9929.17
691.65	9866.8
691.997	9873.13
692.344	9813.47
692.69	9826.8
693.037	9782.51
693.383	9694.83
693.73	9703.87
694.077	9681.5
694.423	9700.93
694.769	9641.05
695.116	9622.06
695.462	9561.05
695.808	9513.14
696.155	9503.65
696.501	9428.4
696.847	9380.71
697.193	9272.02
697.539	9403.99
697.885	9301.85
698.231	9284.45
698.577	9291.68
698.923	9265.69
699.269	9173.04
699.614	9124.68
699.96	9094.62
700.306	9102.53
700.651	9019.82
700.997	9043.32
701.342	9051.23
701.688	9056.88
702.033	8982.31
702.379	8944.57
702.724	8927.17
703.069	8960.61
703.415	8792.25
703.76	8821.63
704.105	8815.98
704.45	8733.5
704.795	8756.78
705.14	8661.18
705.485	8689.43
705.83	8632.03
706.175	8622.99
706.52	8647.17
706.865	8561.07
707.209	8544.35
707.554	8506.39
707.899	8493.51
708.243	8397.69
708.588	8455.77
708.932	8443.11
709.277	8379.61
709.621	8398.14
709.966	8342.1
710.31	8357.92
710.654	8234.08
710.998	8291.93
711.342	8263.23
711.687	8272.95
712.031	8239.95
712.375	8234.76
712.719	8184.59
713.063	8227.98
713.407	8234.53
713.75	8140.75
714.094	8200.86
714.438	8117.02
714.782	8147.3
715.125	8071.14
715.469	8090.13
715.812	8083.8
716.156	8014.42
716.499	8042.22
716.843	8032.5
717.186	8050.81
717.53	8016
717.873	8071.82
718.216	7987.76
718.559	7965.16
718.902	7914.31
719.246	7980.07
719.589	7905.5
719.932	7894.65
720.275	7867.31
720.617	7819.85
720.96	7841.09
721.303	7885.61
721.646	7837.25
721.989	7855.33
722.331	7857.82
722.674	7831.38
723.016	7786.86
723.359	7797.25
723.701	7771.94
724.044	7732.4
724.386	7738.5
724.729	7810.36
725.071	7788.89
725.413	7709.35
725.755	7754.32
726.097	7720.87
726.439	7672.06
726.782	7715.67
727.124	7753.64
727.465	7711.38
727.807	7721.32
728.149	7632.74
728.491	7612.4
728.833	7627.77
729.175	7666.18
729.516	7637.71
729.858	7661.66
730.199	7645.62
730.541	7667.54
730.882	7634.32
731.224	7712.74
731.565	7626.86
731.906	7637.03
732.248	7631.61
732.589	7665.5
732.93	7563.13
733.271	7556.58
733.612	7658.05
733.953	7581.67
734.294	7614.21
734.635	7552.74
734.976	7643.81
735.317	7624.6
735.658	7633.64
735.999	7637.03
736.339	7599.07
736.68	7625.28
737.021	7606.3
737.361	7616.69
737.702	7609.69
738.042	7553.42
738.383	7623.25
738.723	7606.98
739.063	7593.64
739.404	7642
739.744	7685.17
740.084	7640.42
740.424	7679.29
740.764	7649.23
741.104	7705.96
741.444	7633.87
741.784	7674.32
742.124	7702.11
742.464	7742.56
742.804	7725.62
743.143	7711.61
743.483	7796.57
743.823	7715.45
744.162	7830.25
744.502	7829.12
744.841	7759.97
745.181	7842
745.52	7834.99
745.86	7927.87
746.199	7886.52
746.538	7966.06
746.877	8045.38
747.216	8037.92
747.556	8109.11
747.895	8193.17
748.234	8063.91
748.573	8224.59
748.911	8189.11
749.25	8296.67
749.589	8304.81
749.928	8378.03
750.267	8465.71
750.605	8531.92
750.944	8545.71
751.283	8681.75
751.621	8715.65
751.96	8864.57
752.298	8795.64
752.636	8940.5
752.975	9028.18
753.313	9086.71
753.651	9206.48
753.989	9265.01
754.327	9385.23
754.666	9434.95
755.004	9610.09
755.342	9726.47
755.679	9820.25
756.017	9863.19
756.355	9999.91
756.693	10097.98
757.031	10321.93
757.368	10378.2
757.706	10545.88
758.044	10699.78
758.381	10784.52
758.719	10920.11
759.056	11086.66
759.394	11225.41
759.731	11287.1
760.068	11512.86
760.405	11585.4
760.743	11702.46
761.08	11905.17
761.417	11955.11
761.754	12145.16
762.091	12375.66
762.428	12421.76
762.765	12600.06
763.102	12797.8
763.438	12897.01
763.775	12981.07
764.112	13200.5
764.449	13339.03
764.785	13579.47
765.122	13588.96
765.458	13805
765.795	13965
766.131	14109.18
766.467	14231.66
766.804	14334.03
767.14	14421.49
767.476	14590.07
767.812	14667.13
768.148	14890.17
768.485	14922.26
768.821	15087.68
769.157	15176.95
769.492	15386.43
769.828	15408.35
770.164	15470.27
770.5	15554.11
770.836	15731.96
771.171	15710.04
771.507	15817.61
771.842	15898.06
772.178	16084.27
772.513	16206.97
772.849	16141.21
773.184	16284.49
773.519	16424.6
773.855	16323.36
774.19	16515.22
774.525	16501.88
774.86	16594.99
775.195	16665.49
775.53	16755.44
775.865	16850.8
776.2	16826.17
776.535	16787.3
776.87	16858.48
777.205	16983.9
777.539	16931.25
777.874	17036.56
778.209	16816.9
778.543	17041.3
778.878	16948.42
779.212	17093.28
779.547	17110.68
779.881	17208.53
780.215	17067.74
780.55	17288.3
780.884	17192.26
781.218	17232.26
781.552	17203.11
781.886	17241.3
782.22	17143.22
782.554	17252.82
782.888	17207.4
783.222	17112.49
783.556	17193.16
783.889	17228.87
784.223	17110.23
784.557	17065.03
784.89	17119.49
785.224	17114.75
785.557	17081.53
785.891	17013.73
786.224	17100.74
786.558	17179.6
786.891	16881.31
787.224	16995.2
787.557	16896.22
787.891	16984.13
788.224	16960.18
788.557	17018.93
788.89	16996.56
789.223	16991.14
789.556	16875.66
789.888	16915.88
790.221	16930.8
790.554	16734.19
790.887	16750.01
791.219	16714.98
791.552	16787.52
791.884	16632.27
792.217	16691.26
792.549	16559.28
792.882	16520.19
793.214	16543.01
793.546	16537.59
793.879	16446.29
794.211	16434.54
794.543	16411.72
794.875	16389.8
795.207	16435.67
795.539	16390.02
795.871	16442.45
796.203	16278.39
796.535	16179.86
796.867	16205.39
797.198	16181.66
797.53	16122.46
797.862	16039.52
798.193	16169.69
798.525	15957.04
798.856	16086.98
799.188	15829.58
799.519	15857.15
799.85	15832.52
800.182	15832.52
800.513	15805.86
800.844	15737.16
801.175	15848.57
801.506	15825.29
801.837	15675.01
802.168	15624.62
802.499	15632.98
802.83	15511.63
803.161	15529.48
803.491	15564.05
803.822	15552.75
804.153	15456.71
804.483	15328.58
804.814	15374.68
805.145	15305.98
805.475	15298.07
805.805	15260.79
806.136	15238.19
806.466	15223.05
806.796	15122.94
807.126	14993.22
807.457	15052.2
807.787	15139.43
808.117	14971.98
808.447	14963.62
808.777	15060.11
809.107	15002.03
809.436	14944.18
809.766	14879.1
810.096	14767.92
810.426	14874.58
810.755	14790.06
811.085	14686.79
811.414	14753.68
811.744	14590.97
812.073	14686.79
812.403	14634.13
812.732	14565.44
813.061	14617.64
813.39	14557.07
813.719	14511.43
814.049	14637.98
814.378	14506
814.707	14475.27
815.036	14464.2
815.365	14330.64
815.693	14306.69
816.022	14331.32
816.351	14247.7
816.68	14245.22
817.008	14279.79
817.337	14114.15
817.665	14089.74
817.994	14137.2
818.322	14085.9
818.651	14087.26
818.979	13981.95
819.307	14047.26
819.636	13980.14
819.964	13895.17
820.292	14040.93
820.62	14039.8
820.948	13953.02
821.276	14060.36
821.604	13967.26
821.932	13951.44
822.259	13949.41
822.587	13947.37
822.915	13918.45
823.243	13934.27
823.57	13845.46
823.898	13913.02
824.225	13882.29
824.553	13965.68
824.88	13829.41
825.207	14011.33
825.535	13909.63
825.862	14019.91
826.189	13887.49
826.516	13990.08
826.843	13984.89
827.17	14028.73
827.497	13979.46
827.824	13996.64
828.151	14030.99
828.478	13962.29
828.805	14087.26
829.131	14000.48
829.458	13936.75
829.785	13824.44
830.111	14001.61
830.438	13937.2
830.764	13985.56
831.09	13955.51
831.417	13931.55
831.743	13981.27
832.069	13977.66
832.395	13882.97
832.722	13975.85
833.048	13909.63
833.374	13872.8
833.7	13815.4
834.026	13873.93
834.351	13845.91
834.677	13850.43
835.003	13886.36
835.329	13780.15
835.654	13929.75
835.98	13811.11
836.306	13801.61
836.631	13676.42
836.956	13732.46
837.282	13760.03
837.607	13681.17
837.932	13636.65
838.258	13677.1
838.583	13663.77
838.908	13591.45
839.233	13623.77
839.558	13553.49
839.883	13518.46
840.208	13572.02
840.533	13511
840.858	13423.09
841.182	13507.61
841.507	13468.06
841.832	13427.84
842.156	13361.85
842.481	13391.23
842.805	13310.78
843.13	13229.88
843.454	13328.41
843.778	13299.93
844.103	13169.09
844.427	13161.86
844.751	13212.7
845.075	13139.71
845.399	13078.47
845.723	13068.53
846.047	13047.96
846.371	12983.78
846.695	12984.69
847.019	12802.77
847.343	12785.14
847.666	12689.1
847.99	12717.12
848.313	12626.5
848.637	12620.85
848.96	12527.98
849.284	12527.98
849.607	12421.54
849.931	12391.71
850.254	12366.4
850.577	12254.31
850.9	12129.57
851.223	12261.32
851.546	12052.96
851.869	12022
852.192	12005.73
852.515	12014.54
852.838	11893.19
853.161	12000.76
853.483	11881.21
853.806	11793.98
854.129	11869.91
854.451	11712.18
854.774	11735
855.096	11699.07
855.419	11695.23
855.741	11648.22
856.063	11497.49
856.385	11551.05
856.708	11462.92
857.03	11411.62
857.352	11447.78
857.674	11408.23
857.996	11346.31
858.318	11336.14
858.64	11333.88
858.961	11312.87
859.283	11247.11
859.605	11193.55
859.926	11181.34
860.248	11194.9
860.57	11111.74
860.891	11149.03
861.212	11023.83
861.534	11067.9
861.855	11076.26
862.176	11068.35
862.498	11054.12
862.819	11019.09
863.14	10930.96
863.461	10877.62
863.782	10947.23
864.103	10913.78
864.424	10861.58
864.745	10846.89
865.065	10805.54
865.386	10769.15
865.707	10775.71
866.027	10784.07
866.348	10707.68
866.668	10753.56
866.989	10672.88
867.309	10626.56
867.63	10640.34
867.95	10692.09
868.27	10551.53
868.59	10608.25
868.91	10583.85
869.23	10608.03
869.55	10547.46
869.87	10520.34
870.19	10509.72
870.51	10529.84
870.83	10530.97
871.15	10436.96
871.469	10500.91
871.789	10420.69
872.109	10424.53
872.428	10340.01
872.748	10470.63
873.067	10363.96
873.386	10386.34
873.706	10376.85
874.025	10231.76
874.344	10302.5
874.663	10298.43
874.982	10322.84
875.301	10300.01
875.62	10253.01
875.939	10250.97
876.258	10237.19
876.577	10248.71
876.896	10205.32
877.214	10148.38
877.533	10166.68
877.852	10171.43
878.17	10157.64
878.489	10108.38
878.807	10131.88
879.125	10108.6
879.444	10029.74
879.762	10026.35
880.08	10038.32
880.398	10039.45
880.716	10001.04
881.034	10011.43
881.352	9959.46
881.67	9903.41
881.988	9945.9
882.306	9904.77
882.624	9870.42
882.941	9822.74
883.259	9778.44
883.577	9781.38
883.894	9768.5
884.212	9686.92
884.529	9750.2
884.846	9718.33
885.164	9640.37
885.481	9676.3
885.798	9652.57
886.115	9535.51
886.432	9579.58
886.75	9534.61
887.067	9507.94
887.383	9439.24
887.7	9463.88
888.017	9460.03
888.334	9447.6
888.651	9466.14
888.967	9419.13
889.284	9331.45
889.6	9354.95
889.917	9267.95
890.233	9309.53
890.55	9229.31
890.866	9260.04
891.182	9164
891.498	9195.86
891.815	9147.05
892.131	9137.1
892.447	9099.82
892.763	9085.81
893.079	9019.59
893.395	9034.06
893.71	8952.25
894.026	8996.09
894.342	8929.43
894.657	8959.71
894.973	8877.22
895.289	8872.03
895.604	8874.51
895.92	8796.1
896.235	8768.3
896.55	8724.01
896.865	8681.3
897.181	8704.35
897.496	8636.78
897.811	8604.01
898.126	8562.2
898.441	8529.21
898.756	8566.27
899.071	8443.56
899.386	8507.29
899.7	8377.58
900.015	8383.68
900.33	8334.64
900.644	8276.79
900.959	8286.96
901.273	8266.39
901.588	8232.5
901.902	8180.29
902.216	8174.87
902.531	8118.15
902.845	8116.79
903.159	8026.4
903.473	8036.57
903.787	7976
904.101	7924.25
904.415	7949.79
904.729	7882
905.042	7877.7
905.356	7894.65
905.67	7803.58
905.984	7827.08
906.297	7796.35
906.611	7671.15
906.924	7714.54
907.237	7708.89
907.551	7681.32
907.864	7676.35
908.177	7546.19
908.491	7631.16
908.804	7579.63
909.117	7461.89
909.43	7448.11
909.743	7407.21
910.056	7460.99
910.368	7401.78
910.681	7332.18
910.994	7297.15
911.307	7214.44
911.619	7217.15
911.932	7265.97
912.244	7175.12
912.557	7178.06
912.869	7102.36
913.181	7089.93
913.494	7100.55
913.806	7028.23
914.118	6969.7
914.43	6993.66
914.742	6972.42
915.054	6884.06
915.366	6915.69
915.678	6913.43
915.99	6823.27
916.302	6814.91
916.613	6724.74
916.925	6773.32
917.236	6737.39
917.548	6726.77
917.859	6652.88
918.171	6651.97
918.482	6556.16
918.794	6550.51
919.105	6557.74
919.416	6483.84
919.727	6586.21
920.038	6526.33
920.349	6452.2
920.66	6470.96
920.971	6485.87
921.282	6392.54
921.593	6374.01
921.903	6296.73
922.214	6330.62
922.525	6304.86
922.835	6287.24
923.146	6220.57
923.456	6190.52
923.767	6233
924.077	6186
924.387	6146.22
924.697	6141.7
925.008	6092.66
925.318	6122.27
925.628	6055.38
925.938	6028.26
926.248	5974.25
926.558	5936.28
926.867	5972.22
927.177	5909.62
927.487	5896.96
927.796	5858.32
928.106	5858.09
928.416	5848.38
928.725	5781.49
929.034	5761.37
929.344	5823.75
929.653	5746.01
929.962	5719.12
930.271	5631.21
930.581	5685.9
930.89	5615.16
931.199	5631.66
931.508	5586.92
931.817	5511.66
932.125	5524.54
932.434	5518.22
932.743	5461.04
933.051	5479.57
933.36	5413.13
933.669	5430.54
933.977	5410.2
934.286	5347.37
934.594	5387.6
934.902	5331.1
935.21	5289.3
935.519	5298.56
935.827	5275.51
936.135	5279.8
936.443	5181.73
936.751	5273.48
937.059	5227.15
937.367	5175.17
937.674	5103.76
937.982	5162.07
938.29	5089.3
938.597	5122.29
938.905	5020.15
939.213	5010.66
939.52	4983.09
939.827	5008.17
940.135	4963.88
940.442	4939.02
940.749	4966.59
941.056	4918.68
941.363	4864.22
941.67	4856.09
941.977	4811.57
942.284	4790.55
942.591	4814.51
942.898	4766.15
943.205	4775.41
943.511	4731.57
943.818	4755.98
944.125	4706.71
944.431	4693.15
944.738	4618.35
945.044	4658.13
945.35	4579.48
945.657	4607.05
945.963	4587.17
946.269	4549.2
946.575	4551.24
946.881	4494.29
947.187	4548.52
947.493	4483.22
947.799	4542.87
948.105	4440.96
948.41	4417.45
948.716	4429.88
949.022	4416.78
949.327	4383.33
949.633	4341.52
949.938	4315.76
950.244	4331.13
950.549	4212.71
950.854	4312.37
951.16	4259.94
951.465	4235.76
951.77	4244.35
952.075	4166.16
952.38	4164.58
952.685	4179.04
952.99	4143.79
953.294	4091.59
953.599	4093.85
953.904	4096.56
954.209	4083.45
954.513	4071.25
954.818	4028.54
955.122	4050.46
955.426	3999.16
955.731	3946.05
956.035	3966.84
956.339	3915.32
956.643	3948.31
956.948	3923.91
957.252	3901.54
957.556	3894.53
957.86	3919.84
958.163	3874.42
958.467	3812.27
958.771	3858.83
959.075	3827.64
959.378	3819.5
959.682	3780.64
959.985	3765.27
960.289	3735.89
960.592	3740.86
960.896	3750.13
961.199	3662.9
961.502	3671.26
961.805	3671.94
962.108	3692.5
962.411	3647.76
962.714	3616.8
963.017	3578.61
963.32	3618.15
963.623	3582.9
963.926	3558.72
964.228	3458.61
964.531	3559.4
964.833	3546.29
965.136	3481.21
965.438	3497.48
965.741	3509
966.043	3454.54
966.345	3446.86
966.648	3420.64
966.95	3424.71
967.252	3397.14
967.554	3403.24
967.856	3372.51
968.158	3361.89
968.46	3346.52
968.761	3300.65
969.063	3319.4
969.365	3300.87
969.666	3286.41
969.968	3246.41
970.269	3233.08
970.571	3238.95
970.872	3238.5
971.174	3213.19
971.475	3167.77
971.776	3166.64
972.077	3144.04
972.378	3180.42
972.679	3156.7
972.98	3098.39
973.281	3147.43
973.582	3103.82
973.883	3104.72
974.183	3084.16
974.484	3058.85
974.785	3009.81
975.085	3019.98
975.386	3078.96
975.686	2997.15
975.986	2974.1
976.287	2975.68
976.587	2963.03
976.887	2932.97
977.187	2925.74
977.487	2933.2
977.787	2901.34
978.087	2897.04
978.387	2911.28
978.687	2854.33
978.987	2859.76
979.286	2846.65
979.586	2839.87
979.885	2827.21
980.185	2808.23
980.484	2798.29
980.784	2776.14
981.083	2789.47
981.382	2774.33
981.682	2756.71
981.981	2721.23
982.28	2700.21
982.579	2699.08
982.878	2698.18
983.177	2671.51
983.475	2666.77
983.774	2680.55
984.073	2636.03
984.372	2632.42
984.67	2631.29
984.969	2612.76
985.267	2601.23
985.566	2588.8
985.864	2576.37
986.162	2575.92
986.461	2536.6
986.759	2530.27
987.057	2498.63
987.355	2539.76
987.653	2517.84
987.951	2489.14
988.249	2495.47
988.547	2468.81
988.844	2489.6
989.142	2448.69
989.44	2430.84
989.737	2422.93
990.035	2412.54
990.332	2395.13
990.63	2376.38
990.927	2377.06
991.224	2345.42
991.521	2373.67
991.819	2368.02
992.116	2359.88
992.413	2341.12
992.71	2334.57
993.006	2313.1
993.303	2292.54
993.6	2313.33
993.897	2259.09
994.193	2289.15
994.49	2248.25
994.787	2268.13
995.083	2206.89
995.379	2221.58
995.676	2214.12
995.972	2162.82
996.268	2136.38
996.565	2170.06
996.861	2159.66
997.157	2166.44
997.453	2141.81
997.749	2126.67
998.044	2129.83
998.34	2121.24
998.636	2082.83
998.932	2078.76
999.227	2076.95
999.523	2086.67
999.818	2060.45
1000.114	2041.7
1000.409	2026.1
1000.704	2029.27
1001	2019.55
1001.295	1996.05
1001.59	2023.17
1001.885	1972.1
1002.18	1935.71
1002.475	1984.52
1002.77	1987.24
1003.065	1936.16
1003.359	1914.7
1003.654	1925.77
1003.949	1919.89
1004.243	1906.11
1004.538	1871.76
1004.832	1898.65
1005.127	1855.94
1005.421	1907.92
1005.715	1846.9
1006.009	1825.43
1006.304	1816.39
1006.598	1828.37
1006.892	1842.83
1007.186	1798.09
1007.48	1798.54
1007.773	1764.42
1008.067	1752.21
1008.361	1742.04
1008.655	1752.21
1008.948	1729.16
1009.242	1720.12
1009.535	1716.73
1009.829	1716.51
1010.122	1709.5
1010.415	1688.71
1010.708	1690.07
1011.001	1674.02
1011.295	1681.48
1011.588	1642.61
1011.881	1658.43
1012.173	1617.98
1012.466	1613.01
1012.759	1631.54
1013.052	1594.25
1013.344	1589.05
1013.637	1591.77
1013.93	1604.2
1014.222	1556.96
1014.514	1554.7
1014.807	1537.3
1015.099	1516.97
1015.391	1534.59
1015.683	1514.93
1015.976	1461.15
1016.268	1501.6
1016.56	1493.69
1016.851	1530.98
1017.143	1475.16
1017.435	1470.19
1017.727	1479.45
1018.018	1450.98
1018.31	1429.96
1018.602	1444.88
1018.893	1415.5
1019.185	1429.51
1019.476	1383.41
1019.767	1408.49
1020.058	1371.43
1020.35	1368.72
1020.641	1345.22
1020.932	1361.49
1021.223	1352
1021.514	1330.98
1021.804	1341.38
1022.095	1289.85
1022.386	1335.95
1022.677	1303.64
1022.967	1306.35
1023.258	1281.72
1023.548	1285.33
1023.839	1281.49
1024.129	1279.23
1024.419	1234.26
1024.709	1227.71
1025	1241.04
1025.29	1206.24
1025.58	1248.05
1025.87	1203.3
1026.16	1191.78
1026.449	1198.56
1026.739	1202.17
1027.029	1199.69
1027.319	1179.35
1027.608	1181.61
1027.898	1187.26
1028.187	1173.25
1028.477	1126.24
1028.766	1152.68
1029.055	1148.84
1029.344	1148.84
1029.634	1137.31
1029.923	1111.33
1030.212	1121.5
1030.501	1121.27
1030.79	1087.15
1031.078	1110.65
1031.367	1083.76
1031.656	1074.04
1031.945	1087.6
1032.233	1053.48
1032.522	1059.58
1032.81	1036.3
1033.099	1043.53
1033.387	1032.23
1033.675	1015.06
1033.963	1028.62
1034.251	1001.5
1034.54	1020.93
1034.828	1003.76
1035.116	1010.09
1035.403	999.47
1035.691	974.61
1035.979	966.02
1036.267	986.81
1036.554	985.23
1036.842	972.12
1037.129	968.51
1037.417	936.19
1037.704	937.09
1037.992	889.64
1038.279	907.72
1038.566	904.1
1038.853	904.1
1039.14	904.1
