Data from hue_80_FLMS001491_76.txt Node
Date: Mon Feb 06 15:23:32 GMT 2017
User: dcchb
Spectrometer: FLMS00149
Trigger mode: 0
Integration Time (sec): 2.000000E-2
Scans to average: 10
Electric dark correction enabled: true
Nonlinearity correction enabled: false
Boxcar width: 0
XAxis mode: Wavelengths
Number of Pixels in Spectrum: 2048
>>>>>Begin Spectral Data<<<<<
341.393	-21.75
341.776	-21.75
342.16	-21.75
342.543	-58.13
342.927	-85.93
343.31	-59.94
343.693	-59.26
344.077	-66.95
344.46	-64.46
344.843	-66.5
345.226	-32.37
345.61	-22.2
345.993	-18.81
346.376	-0.96
346.759	-11.13
347.142	31.81
347.525	34.74
347.908	70.9
348.291	62.77
348.674	95.53
349.057	106.83
349.44	133.73
349.823	158.36
350.206	173.95
350.588	213.95
350.971	219.15
351.354	242.87
351.737	226.83
352.119	239.94
352.502	272.25
352.884	265.47
353.267	291.24
353.65	276.55
354.032	279.71
354.414	308.64
354.797	307.73
355.179	319.03
355.562	318.35
355.944	323.78
356.326	326.26
356.709	352.02
357.091	338.47
357.473	325.36
357.855	327.39
358.238	341.86
358.62	336.21
359.002	336.21
359.384	329.88
359.766	350.67
360.148	343.89
360.53	351.8
360.912	341.86
361.294	328.07
361.676	313.61
362.057	328.52
362.439	319.94
362.821	322.19
363.203	311.57
363.584	343.66
363.966	301.4
364.348	335.75
364.729	326.49
365.111	308.64
365.493	332.59
365.874	307.05
366.256	318.58
366.637	328.97
367.019	322.42
367.4	303.66
367.781	334.4
368.163	321.07
368.544	306.6
368.925	305.02
369.306	327.62
369.688	327.84
370.069	315.42
370.45	325.81
370.831	310.67
371.212	322.42
371.593	296.88
371.974	341.63
372.355	314.74
372.736	297.34
373.117	321.07
373.498	319.26
373.879	330.56
374.26	316.09
374.641	325.58
375.021	310.67
375.402	335.53
375.783	334.17
376.163	306.15
376.544	312.48
376.925	335.3
377.305	339.14
377.686	329.88
378.066	324.23
378.447	326.49
378.827	321.07
379.208	346.38
379.588	338.92
379.968	332.82
380.349	342.08
380.729	332.82
381.109	321.52
381.489	334.85
381.87	327.84
382.25	341.18
382.63	341.86
383.01	356.77
383.39	350.44
383.77	330.1
384.15	341.4
384.53	330.1
384.91	340.95
385.29	349.76
385.67	359.48
386.049	345.25
386.429	351.12
386.809	351.8
387.189	373.27
387.568	349.54
387.948	352.93
388.328	348.63
388.707	349.31
389.087	361.97
389.466	362.19
389.846	366.26
390.225	348.18
390.605	362.42
390.984	362.87
391.363	367.62
391.743	380.5
392.122	367.17
392.501	363.1
392.881	380.27
393.26	345.02
393.639	359.71
394.018	365.81
394.397	390.44
394.776	385.7
395.155	372.14
395.534	376.2
395.913	377.33
396.292	381.85
396.671	375.07
397.05	371.46
397.429	406.03
397.808	401.51
398.186	376.43
398.565	387.73
398.944	382.76
399.323	396.77
399.701	370.78
400.08	401.97
400.458	389.09
400.837	370.78
401.215	392.7
401.594	394.28
401.972	424.79
402.351	401.97
402.729	423.44
403.107	389.54
403.486	396.09
403.864	402.19
404.242	420.27
404.62	418.01
404.999	393.15
405.377	399.26
405.755	438.35
406.133	429.76
406.511	429.08
406.889	434.28
407.267	412.14
407.645	431.8
408.023	433.83
408.401	438.8
408.779	439.48
409.156	441.29
409.534	440.16
409.912	422.98
410.29	451.46
410.667	452.36
411.045	445.13
411.422	454.85
411.8	458.91
412.178	440.84
412.555	463.89
412.933	453.26
413.31	475.64
413.687	453.72
414.065	455.75
414.442	473.38
414.819	480.16
415.197	475.64
415.574	493.26
415.951	479.7
416.328	496.88
416.705	488.29
417.082	492.36
417.46	492.59
417.837	493.72
418.214	477.67
418.591	487.61
418.967	500.04
419.344	499.59
419.721	502.98
420.098	514.28
420.475	508.4
420.852	498.69
421.228	514.73
421.605	509.99
421.982	524.68
422.358	531.45
422.735	516.31
423.111	509.31
423.488	547.05
423.864	548.4
424.241	552.02
424.617	529.42
424.994	531.68
425.37	530.33
425.746	525.13
426.123	553.38
426.499	582.08
426.875	555.18
427.251	561.96
427.627	569.87
428.003	584.11
428.379	588.4
428.756	589.76
429.132	575.75
429.507	612.13
429.883	596.54
430.259	603.77
430.635	589.98
431.011	608.97
431.387	635.18
431.763	623.66
432.138	616.65
432.514	648.06
432.89	627.05
433.265	603.09
433.641	658.68
434.016	633.15
434.392	661.85
434.767	674.28
435.143	657.55
435.518	667.72
435.894	673.6
436.269	675.41
436.644	674.73
437.02	698.91
437.395	714.5
437.77	726.25
438.145	711.56
438.52	701.17
438.895	719.7
439.271	711.79
439.646	730.32
440.021	719.92
440.395	754.5
440.77	744.33
441.145	776.87
441.52	770.77
441.895	744.78
442.27	752.01
442.645	778.91
443.019	764.22
443.394	767.15
443.769	786.59
444.143	790.43
444.518	796.31
444.892	780.49
445.267	790.66
445.641	780.94
446.016	818.23
446.39	795.63
446.764	805.35
447.139	805.8
447.513	800.83
447.887	807.15
448.262	818.45
448.636	811.22
449.01	838.57
449.384	844.44
449.758	855.74
450.132	854.84
450.506	883.76
450.88	864.78
451.254	877.43
451.628	893.93
452.002	888.73
452.376	880.6
452.75	893.48
453.123	895.29
453.497	924.66
453.871	900.94
454.244	935.06
454.618	962.86
454.992	932.12
455.365	964.89
455.739	974.38
456.112	986.36
456.486	975.96
456.859	999.47
457.232	1022.74
457.606	998.34
457.979	1035.4
458.352	1062.74
458.725	1032.91
459.099	1051.89
459.472	1068.16
459.845	1083.3
460.218	1109.29
460.591	1120.59
460.964	1108.39
461.337	1116.3
461.71	1148.84
462.083	1148.84
462.456	1182.51
462.829	1166.01
463.201	1188.84
463.574	1205.56
463.947	1210.31
464.32	1271.55
464.692	1245.56
465.065	1255.05
465.438	1300.7
465.81	1287.14
466.183	1354.03
466.555	1336.86
466.928	1357.65
467.3	1366.69
467.672	1392.68
468.045	1467.02
468.417	1435.61
468.789	1469.96
469.161	1477.42
469.534	1502.73
469.906	1565.55
470.278	1551.54
470.65	1607.58
471.022	1616.4
471.394	1636.51
471.766	1671.09
472.138	1710.41
472.51	1742.95
472.882	1800.12
473.253	1775.04
473.625	1857.52
473.997	1877.18
474.369	1896.62
474.74	1977.52
475.112	2004.64
475.484	2085.99
475.855	2097.52
476.227	2144.29
476.598	2188.36
476.97	2253.22
477.341	2315.14
477.713	2356.49
478.084	2417.51
478.455	2479.65
478.827	2544.74
479.198	2592.87
479.569	2663.6
479.94	2784.5
480.311	2831.73
480.682	2948.11
481.053	3047.55
481.424	3081.22
481.795	3144.72
482.166	3238.28
482.537	3325.28
482.908	3438.05
483.279	3523.69
483.65	3619.51
484.021	3739.05
484.391	3854.98
484.762	3918.94
485.133	4017.01
485.503	4081.87
485.874	4225.6
486.244	4365.48
486.615	4428.08
486.985	4603.21
487.356	4706.94
487.726	4797.78
488.097	4967.5
488.467	5086.82
488.837	5280.71
489.207	5341.95
489.578	5490.19
489.948	5612.23
490.318	5766.35
490.688	5860.81
491.058	6031.2
491.428	6176.96
491.798	6277.52
492.168	6514.35
492.538	6588.02
492.908	6685.42
493.278	6898.97
493.648	6942.81
494.017	7123.37
494.387	7307.55
494.757	7416.92
495.126	7563.13
495.496	7670.25
495.866	7857.14
496.235	7995.89
496.605	8138.49
496.974	8231.14
497.344	8351.36
497.713	8447.18
498.082	8573.28
498.452	8789.09
498.821	8867.28
499.19	8961.29
499.559	9093.49
499.928	9253.71
500.298	9359.02
500.667	9493.93
501.036	9540.48
501.405	9736.41
501.774	9782.96
502.143	9942.51
502.512	10052.33
502.88	10236.28
503.249	10297.75
503.618	10391.99
503.987	10442.38
504.356	10587.24
504.724	10662.94
505.093	10782.94
505.462	10928.92
505.83	10995.13
506.199	11118.07
506.567	11225.86
506.936	11332.98
507.304	11417.5
507.672	11522.35
508.041	11585.4
508.409	11742.69
508.777	11766.19
509.145	11950.82
509.514	12028.78
509.882	12188.55
510.25	12203.92
510.618	12216.8
510.986	12418.83
511.354	12443.23
511.722	12580.4
512.09	12667.86
512.458	12741.3
512.826	12785.6
513.193	12912.6
513.561	12950.34
513.929	13120.73
514.297	13152.59
514.664	13154.63
515.032	13277.79
515.4	13398.91
515.767	13468.29
516.135	13504.22
516.502	13447.27
516.869	13669.64
517.237	13783.54
517.604	13707.83
517.972	13916.87
518.339	13868.28
518.706	13903.98
519.073	14047.03
519.44	14141.94
519.808	14221.49
520.175	14206.8
520.542	14423.07
520.909	14441.37
521.276	14456.96
521.643	14594.81
522.009	14525.66
522.376	14612.67
522.743	14713
523.11	14833.9
523.477	14956.61
523.843	14953.45
524.21	15141.47
524.577	15175.82
524.943	15204.52
525.31	15173.1
525.676	15391.18
526.043	15467.33
526.409	15470.72
526.776	15606.54
527.142	15618.29
527.508	15657.38
527.874	15741
528.241	15789.81
528.607	15835.23
528.973	15878.85
529.339	15819.19
529.705	16014.66
530.071	16038.39
530.437	16060.99
530.803	16216.92
531.169	16115.9
531.535	16168.33
531.901	16162.91
532.267	16206.52
532.632	16228.9
532.998	16253.53
533.364	16286.75
533.73	16264.83
534.095	16483.13
534.461	16433.41
534.826	16452.84
535.192	16457.14
535.557	16574.2
535.923	16399.51
536.288	16505.72
536.653	16498.94
537.019	16432.28
537.384	16558.38
537.749	16515.89
538.114	16556.57
538.479	16509.57
538.845	16575.33
539.21	16454.65
539.575	16523.35
539.94	16549.11
540.305	16522.45
540.67	16483.35
541.034	16546.85
541.399	16551.82
541.764	16530.13
542.129	16552.95
542.494	16537.81
542.858	16524.03
543.223	16482.22
543.587	16562.22
543.952	16478.38
544.316	16588.89
544.681	16506.18
545.045	16526.97
545.41	16596.57
545.774	16561.77
546.138	16477.48
546.503	16550.69
546.867	16517.93
547.231	16562.22
547.595	16501.66
547.959	16433.18
548.324	16483.8
548.688	16494.43
549.052	16434.99
549.416	16539.4
549.779	16440.19
550.143	16444.71
550.507	16515.44
550.871	16550.47
551.235	16504.82
551.599	16552.95
551.962	16540.75
552.326	16434.99
552.689	16505.05
553.053	16436.12
553.417	16507.76
553.78	16668.21
554.143	16467.76
554.507	16535.55
554.87	16532.16
555.234	16640.41
555.597	16437.03
555.96	16560.86
556.323	16520.64
556.686	16546.63
557.05	16520.41
557.413	16611.71
557.776	16528.1
558.139	16650.81
558.502	16613.07
558.865	16547.08
559.228	16720.63
559.59	16739.16
559.953	16672.95
560.316	16842.89
560.679	16825.04
561.041	16792.27
561.404	16905.49
561.767	16873.85
562.129	16852.61
562.492	17081.98
562.854	16933.51
563.217	16947.52
563.579	16978.71
563.941	17052.15
564.304	17089.89
564.666	17109.1
565.028	17043.56
565.39	17174.63
565.753	17144.58
566.115	17148.42
566.477	17222.77
566.839	17248.53
567.201	17303.44
567.563	17346.15
567.925	17474.74
568.287	17443.1
568.648	17391.35
569.01	17507.51
569.372	17560.16
569.734	17512.03
570.095	17597.67
570.457	17684.9
570.819	17608.75
571.18	17598.35
571.542	17632.93
571.903	17707.05
572.265	17755.18
572.626	17712.47
572.987	17789.53
573.349	17774.84
573.71	17835.86
574.071	17832.47
574.432	17869.3
574.794	17832.92
575.155	17949.08
575.516	17934.16
575.877	17936.2
576.238	17968.06
576.599	17977.1
576.96	18020.26
577.32	18067.94
577.681	18073.37
578.042	18041.5
578.403	18201.72
578.763	18086.93
579.124	18122.4
579.485	18126.7
579.845	18148.62
580.206	18146.13
580.566	18079.69
580.927	18169.86
581.287	18266.13
581.648	18054.84
582.008	18139.81
582.368	18115.4
582.728	18133.25
583.089	18188.62
583.449	18080.37
583.809	18139.13
584.169	18166.47
584.529	18072.46
584.889	18273.14
585.249	18141.16
585.609	17954.95
585.969	18179.58
586.329	18033.59
586.688	18053.93
587.048	18173.25
587.408	18044.89
587.768	18018.45
588.127	18016.64
588.487	18046.7
588.846	18075.63
589.206	17917.21
589.565	18006.93
589.925	18072.24
590.284	17976.42
590.643	17989.08
591.003	18058.9
591.362	18106.59
591.721	17997.44
592.08	18024.55
592.44	18087.15
592.799	18071.33
593.158	17906.59
593.517	18086.02
593.876	17999.24
594.235	17926.48
594.593	18024.1
594.952	17937.32
595.311	17958.57
595.67	17957.89
596.029	18071.33
596.387	18057.1
596.746	17994.95
597.104	17944.1
597.463	17955.86
597.822	17992.24
598.18	17954.05
598.538	17917.66
598.897	17968.28
599.255	17851
599.613	18094.83
599.972	17938.23
600.33	17982.52
600.688	18093.03
601.046	17952.69
601.404	18003.09
601.762	17999.02
602.12	18065.68
602.478	18017.32
602.836	18044.44
603.194	17898
603.552	18058.23
603.91	18000.83
604.268	18026.36
604.625	17977.55
604.983	18079.02
605.341	17963.09
605.698	18074.27
606.056	17999.7
606.413	18017.55
606.771	18140.71
607.128	18138.45
607.485	18112.69
607.843	18154.04
608.2	18146.13
608.557	18076.08
608.914	18134.38
609.272	18243.98
609.629	18198.11
609.986	18202.63
610.343	18236.75
610.7	18250.31
611.057	18243.76
611.414	18298.22
611.771	18215.96
612.127	18282.63
612.484	18313.59
612.841	18385.22
613.198	18281.27
613.554	18290.76
613.911	18408.05
614.267	18425.67
614.624	18398.33
614.98	18478.33
615.337	18606.01
615.693	18435.62
616.05	18547.93
616.406	18554.71
616.762	18468.61
617.118	18550.42
617.475	18545.67
617.831	18533.92
618.187	18628.83
618.543	18613.24
618.899	18707.47
619.255	18705.67
619.611	18678.55
619.967	18711.99
620.323	18830.86
620.678	18687.36
621.034	18663.63
621.39	18606.91
621.746	18719
622.101	18844.65
622.457	18691.2
622.812	18695.95
623.168	18774.37
623.523	18700.92
623.879	18750.41
624.234	18624.54
624.589	18805.1
624.945	18730.75
625.3	18815.49
625.655	18716.29
626.01	18678.32
626.365	18770.07
626.72	18794.7
627.075	18810.52
627.43	18794.03
627.785	18762.16
628.14	18730.52
628.495	18672.45
628.85	18767.13
629.205	18707.25
629.559	18773.46
629.914	18647.59
630.269	18725.33
630.623	18617.99
630.978	18688.27
631.332	18640.81
631.687	18687.36
632.041	18608.72
632.396	18652.56
632.75	18643.07
633.104	18606.01
633.459	18516.97
633.813	18463.86
634.167	18449.63
634.521	18446.01
634.875	18509.29
635.229	18470.19
635.583	18280.82
635.937	18479.23
636.291	18398.78
636.645	18439.46
636.999	18292.34
637.352	18374.15
637.706	18287.82
638.06	18343.64
638.413	18266.81
638.767	18296.19
639.121	18348.61
639.474	18295.51
639.828	18169.18
640.181	18358.56
640.534	18229.29
640.888	18254.15
641.241	18080.6
641.594	18079.92
641.947	18246.92
642.301	18148.39
642.654	18117.89
643.007	18201.05
643.36	18098.45
643.713	18114.27
644.066	18183.65
644.419	18001.96
644.771	17857.55
645.124	17715.64
645.477	17657.78
645.83	17637.9
646.182	17560.16
646.535	17490.11
646.888	17456.43
647.24	17500.5
647.593	17502.08
647.945	17476.77
648.298	17458.02
648.65	17374.18
649.002	17433.84
649.355	17486.49
649.707	17326.27
650.059	17505.7
650.411	17590.67
650.763	17660.04
651.115	17922.64
651.467	17853.26
651.819	17772.58
652.171	17784.79
652.523	17781.4
652.875	17947.49
653.227	17679.48
653.578	17861.85
653.93	17849.19
654.282	17736.2
654.633	17808.29
654.985	17804.9
655.337	17771.23
655.688	17741.62
656.039	17860.04
656.391	17764.67
656.742	17636.77
657.094	17746.6
657.445	17789.08
657.796	17734.39
658.147	17772.58
658.498	17797.89
658.849	17814.16
659.2	17756.09
659.551	17729.42
659.902	17784.56
660.253	17879.47
660.604	17870.43
660.955	17744.34
661.306	17897.1
661.656	17789.31
662.007	17824.56
662.358	17879.7
662.708	17874.5
663.059	17875.63
663.409	17714.73
663.76	17851
664.11	17868.4
664.461	17915.18
664.811	17932.35
665.161	17848.29
665.511	17842.41
665.862	17874.28
666.212	17871.11
666.562	17933.03
666.912	17876.08
667.262	17892.35
667.612	17773.94
667.962	17872.24
668.312	17795.41
668.662	17950.43
669.011	17839.7
669.361	17825.92
669.711	17888.74
670.06	17733.26
670.41	17695.3
670.76	17813.49
671.109	17885.8
671.459	17839.25
671.808	17781.4
672.157	17787.95
672.507	17731.23
672.856	17740.49
673.205	17721.74
673.554	17819.59
673.904	17726.03
674.253	17839.47
674.602	17635.86
674.951	17394.97
675.3	17345.7
675.649	17727.84
675.998	17567.39
676.346	17552.48
676.695	17684.68
677.044	17543.89
677.393	17611.23
677.741	17636.99
678.09	17621.4
678.438	17520.39
678.787	17610.78
679.135	17553.38
679.484	17457.79
679.832	17450.33
680.181	17361.07
680.529	17447.17
680.877	17417.79
681.225	17372.14
681.573	17484.46
681.922	17211.24
682.27	17233.39
682.618	17208.53
682.966	17142.54
683.314	17194.07
683.661	17112.71
684.009	17036.33
684.357	17029.1
684.705	16965.6
685.053	17005.82
685.4	16998.82
685.748	16867.75
686.095	16839.05
686.443	16792.5
686.79	16794.98
687.138	16743.46
687.485	16755.44
687.832	16713.18
688.18	16649.45
688.527	16653.74
688.874	16578.49
689.221	16590.69
689.568	16448.55
689.915	16434.99
690.262	16505.27
690.609	16439.96
690.956	16398.38
691.303	16358.61
691.65	16279.97
691.997	16172.85
692.344	16168.11
692.69	16102.12
693.037	16068.9
693.383	15952.97
693.73	15931.95
694.077	15853.54
694.423	15846.08
694.769	15815.12
695.116	15797.72
695.462	15766.53
695.808	15659.42
696.155	15731.73
696.501	15529.7
696.847	15525.19
697.193	15406.77
697.539	15523.15
697.885	15340.33
698.231	15299.65
698.577	15322.7
698.923	15227.57
699.269	15181.24
699.614	15089.49
699.96	15013.33
700.306	15016.05
700.651	14917.74
700.997	14834.58
701.342	14869.16
701.688	14870.51
702.033	14708.26
702.379	14743.06
702.724	14630.07
703.069	14705.77
703.415	14475.04
703.76	14479.79
704.105	14549.39
704.45	14426.91
704.795	14278.66
705.14	14343.52
705.485	14237.99
705.83	14196.86
706.175	14278.89
706.52	14187.59
706.865	14120.02
707.209	14175.16
707.554	14021.5
707.899	14074.15
708.243	14029.63
708.588	13976.07
708.932	13869.64
709.277	13802.97
709.621	13857.66
709.966	13726.36
710.31	13786.93
710.654	13614.5
710.998	13687.95
711.342	13735.18
711.687	13630.55
712.031	13529.98
712.375	13539.7
712.719	13507.84
713.063	13473.26
713.407	13526.14
713.75	13466.03
714.094	13412.92
714.438	13356.65
714.782	13342.87
715.125	13291.8
715.469	13341.51
715.812	13242.76
716.156	13227.17
716.499	13144.46
716.843	13204.57
717.186	13088.64
717.53	13185.81
717.873	13228.07
718.216	13108.98
718.559	13103.55
718.902	12992.6
719.246	13012.03
719.589	12963.22
719.932	12875.54
720.275	12911.69
720.617	12884.58
720.96	12889.77
721.303	12885.48
721.646	12852.03
721.989	12814.75
722.331	12869.21
722.674	12741.08
723.016	12874.18
723.359	12754.86
723.701	12730.23
724.044	12685.49
724.386	12680.29
724.729	12813.62
725.071	12707.41
725.413	12681.42
725.755	12756.44
726.097	12672.38
726.439	12603.68
726.782	12606.62
727.124	12634.19
727.465	12599.61
727.807	12586.96
728.149	12573.4
728.491	12607.07
728.833	12638.93
729.175	12488.43
729.516	12569.78
729.858	12581.53
730.199	12465.15
730.541	12431.71
730.882	12521.42
731.224	12565.71
731.565	12543.79
731.906	12487.52
732.248	12505.38
732.589	12444.36
732.93	12475.55
733.271	12445.72
733.612	12489.11
733.953	12500.18
734.294	12481.42
734.635	12523.91
734.976	12486.62
735.317	12372.95
735.658	12458.37
735.999	12425.38
736.339	12451.37
736.68	12491.14
737.021	12524.36
737.361	12463.12
737.702	12526.62
738.042	12481.88
738.383	12482.1
738.723	12485.94
739.063	12418.37
739.404	12412.05
739.744	12494.53
740.084	12464.93
740.424	12492.27
740.764	12494.3
741.104	12492.5
741.444	12535.21
741.784	12384.48
742.124	12589.67
742.464	12523.68
742.804	12592.83
743.143	12530.91
743.483	12601.19
743.823	12569.1
744.162	12693.85
744.502	12754.18
744.841	12643
745.181	12760.74
745.52	12704.02
745.86	12838.7
746.199	12815.65
746.538	12830.79
746.877	12920.51
747.216	12976.55
747.556	12940.39
747.895	13012.03
748.234	13033.27
748.573	13146.49
748.911	13146.94
749.25	13105.36
749.589	13257.67
749.928	13279.59
750.267	13384.68
750.605	13418.57
750.944	13492.92
751.283	13501.51
751.621	13619.92
751.96	13704.89
752.298	13783.54
752.636	13851.1
752.975	13979.46
753.313	13941.95
753.651	14098.1
753.989	14223.3
754.327	14332.45
754.666	14417.42
755.004	14408.15
755.342	14593.46
755.679	14607.92
756.017	14695.83
756.355	14883.17
756.693	14943.73
757.031	15088.59
757.368	15148.47
757.706	15261.69
758.044	15413.55
758.381	15578.97
758.719	15631.62
759.056	15819.64
759.394	15840.66
759.731	15888.11
760.068	16033.42
760.405	16168.11
760.743	16209.23
761.08	16423.01
761.417	16379.63
761.754	16504.59
762.091	16690.58
762.428	16801.99
762.765	16811.7
763.102	17004.69
763.438	17109.55
763.775	17165.82
764.112	17267.51
764.449	17435.64
764.785	17472.7
765.122	17494.62
765.458	17473.16
765.795	17599.93
766.131	17704.34
766.467	17749.08
766.804	17887.61
767.14	17850.77
767.476	18046.25
767.812	18008.96
768.148	18126.92
768.485	18062.07
768.821	18105.46
769.157	18093.03
769.492	18306.13
769.828	18399.01
770.164	18178.9
770.5	18306.58
770.836	18367.82
771.171	18411.21
771.507	18385.45
771.842	18271.1
772.178	18397.43
772.513	18571.66
772.849	18407.37
773.184	18460.93
773.519	18538.44
773.855	18448.72
774.19	18521.49
774.525	18599
774.86	18480.36
775.195	18574.37
775.53	18514.94
775.865	18453.47
776.2	18448.27
776.535	18370.76
776.87	18530.76
777.205	18409.4
777.539	18394.26
777.874	18458.44
778.209	18301.16
778.543	18354.04
778.878	18323.98
779.212	18347.26
779.547	18246.7
779.881	18343.64
780.215	18281.04
780.55	18244.44
780.884	18192.46
781.218	18181.61
781.552	18203.53
781.886	18123.53
782.22	18013.71
782.554	18051.67
782.888	17960.83
783.222	17889.19
783.556	17785.01
783.889	17846.03
784.223	17747.5
784.557	17742.53
784.89	17801.74
785.224	17652.59
785.557	17594.96
785.891	17655.3
786.224	17502.31
786.558	17553.61
786.891	17359.49
787.224	17317.91
787.557	17320.17
787.891	17337.57
788.224	17351.8
788.557	17261.64
788.89	17237.46
789.223	17318.81
789.556	17135.76
789.888	17112.49
790.221	17088.53
790.554	16991.59
790.887	16943.45
791.219	16871.14
791.552	16914.75
791.884	16872.04
792.217	16856.22
792.549	16806.06
792.882	16658.49
793.214	16622.11
793.546	16666.62
793.879	16468.66
794.211	16382.34
794.543	16544.82
794.875	16376.46
795.207	16470.02
795.539	16309.35
795.871	16414.88
796.203	16237.71
796.535	16059.41
796.867	16180.76
797.198	16029.35
797.53	16078.62
797.862	16000.65
798.193	16109.12
798.525	15959.07
798.856	15973.08
799.188	15825.74
799.519	15756.59
799.85	15674.11
800.182	15740.09
800.513	15688.8
800.844	15490.16
801.175	15628.23
801.506	15571.06
801.837	15492.87
802.168	15461.01
802.499	15408.13
802.83	15329.03
803.161	15286.55
803.491	15362.48
803.822	15297.39
804.153	15214.23
804.483	15150.96
804.814	15070.73
805.145	15105.99
805.475	15055.37
805.805	14985.76
806.136	15017.63
806.466	14890.17
806.796	14923.62
807.126	14833
807.457	14819.44
807.787	14780.35
808.117	14742.38
808.447	14679.78
808.777	14743.51
809.107	14651.99
809.436	14639.33
809.766	14593.46
810.096	14505.78
810.426	14473.91
810.755	14523.63
811.085	14529.5
811.414	14428.72
811.744	14322.05
812.073	14326.8
812.403	14230.98
812.732	14197.08
813.061	14195.05
813.39	14173.13
813.719	14140.59
814.049	14268.95
814.378	14076.41
814.707	13958.9
815.036	14054.04
815.365	13928.62
815.693	13799.13
816.022	13878.9
816.351	13845.23
816.68	13766.36
817.008	13809.07
817.337	13757.77
817.665	13644.56
817.994	13605.01
818.322	13671.9
818.651	13670.32
818.979	13553.71
819.307	13601.39
819.636	13577.44
819.964	13511.45
820.292	13606.37
820.62	13569.53
820.948	13425.81
821.276	13531.34
821.604	13458.8
821.932	13438.01
822.259	13458.57
822.587	13445.69
822.915	13381.74
823.243	13421.06
823.57	13347.39
823.898	13436.43
824.225	13412.47
824.553	13454.05
824.88	13545.8
825.207	13470.78
825.535	13358.91
825.862	13513.49
826.189	13390.78
826.516	13438.91
826.843	13454.5
827.17	13506.93
827.497	13463.32
827.824	13437.78
828.151	13490.21
828.478	13399.59
828.805	13513.49
829.131	13335.41
829.458	13410.89
829.785	13329.54
830.111	13358.24
830.438	13469.19
830.764	13435.07
831.09	13478.69
831.417	13263.55
831.743	13452.47
832.069	13434.84
832.395	13323.21
832.722	13413.38
833.048	13311.68
833.374	13360.72
833.7	13272.14
834.026	13347.84
834.351	13316.43
834.677	13251.35
835.003	13288.86
835.329	13217
835.654	13293.38
835.98	13112.37
836.306	13178.81
836.631	13192.14
836.956	13221.06
837.282	13116.43
837.607	13143.78
837.932	13045.93
838.258	13140.39
838.583	13117.56
838.908	12995.76
839.233	12953.05
839.558	13024.91
839.883	12946.5
840.208	12955.54
840.533	12855.88
840.858	12869.66
841.182	12893.39
841.507	12915.08
841.832	12851.81
842.156	12708.31
842.481	12782.21
842.805	12722.09
843.13	12781.08
843.454	12666.28
843.778	12691.81
844.103	12574.98
844.427	12621.31
844.751	12584.7
845.075	12536.56
845.399	12443.23
845.723	12472.16
846.047	12559.39
846.371	12366.17
846.695	12355.55
847.019	12215.44
847.343	12204.37
847.666	12172.05
847.99	12108.78
848.313	12066.97
848.637	12017.48
848.96	12067.42
849.284	11899.74
849.607	11867.43
849.931	11916.24
850.254	11754.44
850.577	11683.7
850.9	11598.06
851.223	11615.68
851.546	11608.23
851.869	11476.93
852.192	11592.18
852.515	11466.08
852.838	11423.6
853.161	11433.32
853.483	11388.12
853.806	11272.19
854.129	11197.16
854.451	11163.72
854.774	11194
855.096	11103.61
855.419	11072.87
855.741	11001.01
856.063	11012.08
856.385	10970.28
856.708	11025.87
857.03	10932.09
857.352	10965.08
857.674	10942.48
857.996	10874.46
858.318	10812.99
858.64	10767.8
858.961	10787.68
859.283	10769.15
859.605	10690.28
859.926	10721.24
860.248	10677.18
860.57	10645.99
860.891	10709.04
861.212	10532.1
861.534	10520.8
861.855	10544.53
862.176	10498.42
862.498	10525.09
862.819	10542.27
863.14	10383.85
863.461	10400.35
863.782	10340.24
864.103	10402.61
864.424	10349.5
864.745	10414.58
865.065	10291.65
865.386	10311.54
865.707	10317.86
866.027	10259.79
866.348	10222.73
866.668	10235.61
866.989	10205.1
867.309	10127.59
867.63	10121.94
867.95	10134.59
868.27	10099.79
868.59	10138.66
868.91	10116.97
869.23	10091.88
869.55	10011.43
869.87	10065.44
870.19	10072.45
870.51	10042.84
870.83	9981.83
871.15	9941.83
871.469	10035.39
871.789	10022.28
872.109	9977.08
872.428	9953.35
872.748	9943.41
873.067	9929.17
873.386	9960.36
873.706	9849.4
874.025	9919.91
874.344	9817.09
874.663	9797.2
874.982	9798.33
875.301	9839.68
875.62	9759.01
875.939	9709.74
876.258	9732.12
876.577	9660.71
876.896	9660.93
877.214	9647.37
877.533	9747.48
877.852	9631.55
878.17	9661.84
878.489	9686.92
878.807	9689.18
879.125	9550.65
879.444	9603.31
879.762	9538.68
880.08	9606.7
880.398	9517.89
880.716	9481.5
881.034	9481.73
881.352	9478.34
881.67	9440.6
881.988	9439.92
882.306	9401.5
882.624	9363.77
882.941	9345.01
883.259	9293.94
883.577	9299.59
883.894	9303.43
884.212	9240.38
884.529	9185.46
884.846	9303.88
885.164	9203.09
885.481	9164.22
885.798	9177.1
886.115	9135.75
886.432	9112.25
886.75	9109.08
887.067	9088.74
887.383	9074.73
887.7	9019.37
888.017	9008.97
888.334	8958.35
888.651	9025.24
888.967	8967.39
889.284	8949.99
889.6	8891.69
889.917	8847.39
890.233	8827.06
890.55	8801.75
890.866	8822.54
891.182	8801.07
891.498	8751.8
891.815	8740.28
892.131	8627.06
892.447	8628.19
892.763	8650.56
893.079	8605.59
893.395	8598.81
893.71	8599.94
894.026	8584.35
894.342	8496.67
894.657	8448.99
894.973	8490.57
895.289	8447.18
895.604	8446.05
895.92	8343.9
896.235	8386.16
896.55	8363.11
896.865	8307.07
897.181	8240.86
897.496	8248.54
897.811	8260.74
898.126	8191.82
898.441	8168.32
898.756	8094.42
899.071	8074.08
899.386	8068.43
899.7	8007.42
900.015	8012.39
900.33	7929.9
900.644	7931.26
900.959	7944.37
901.273	7915.44
901.588	7890.58
901.902	7846.97
902.216	7813.98
902.531	7780.08
902.845	7721.77
903.159	7687.65
903.473	7706.86
903.787	7658.95
904.101	7635
904.415	7602.91
904.729	7603.36
905.042	7541.89
905.356	7518.39
905.67	7443.59
905.984	7467.32
906.297	7414.21
906.611	7380.54
906.924	7370.15
907.237	7355.23
907.551	7283.37
907.864	7317.72
908.177	7284.05
908.491	7221.67
908.804	7224.61
909.117	7159.53
909.43	7111.17
909.743	7134.9
910.056	7100.77
910.368	7068.91
910.681	7023.26
910.994	7040.66
911.307	6948.24
911.619	6922.47
911.932	6927.9
912.244	6889.93
912.557	6904.17
912.869	6860.55
913.181	6849.03
913.494	6816.49
913.806	6743.95
914.118	6746.88
914.43	6677.51
914.742	6681.12
915.054	6643.84
915.366	6600.9
915.678	6599.77
915.99	6568.81
916.302	6560.22
916.613	6564.74
916.925	6482.71
917.236	6529.94
917.548	6401.36
917.859	6402.26
918.171	6388.7
918.482	6347.57
918.794	6356.84
919.105	6300.12
919.416	6275.03
919.727	6221.93
920.038	6277.74
920.349	6125.21
920.66	6089.5
920.971	6193
921.282	6044.53
921.593	6063.29
921.903	6020.35
922.214	6052.67
922.525	6014.47
922.835	6000.46
923.146	5976.96
923.456	5992.1
923.767	5914.82
924.077	5922.27
924.387	5875.5
924.697	5877.98
925.008	5804.54
925.318	5800.69
925.628	5801.82
925.938	5776.74
926.248	5735.84
926.558	5704.65
926.867	5714.6
927.177	5652.68
927.487	5600.93
927.796	5554.15
928.106	5571.77
928.416	5561.15
928.725	5552.11
929.034	5492.45
929.344	5529.97
929.653	5437.77
929.962	5444.32
930.271	5415.39
930.581	5372.01
930.89	5389.86
931.199	5392.57
931.508	5404.55
931.817	5296.08
932.125	5313.25
932.434	5268.96
932.743	5252.23
933.051	5233.25
933.36	5212.69
933.669	5174.5
933.977	5088.85
934.286	5160.03
934.594	5074.39
934.902	5123.2
935.21	5045.01
935.519	5005.46
935.827	5024.44
936.135	5014.73
936.443	4969.98
936.751	4935.86
937.059	4924.11
937.367	4909.19
937.674	4921.85
937.982	4897.44
938.29	4843.43
938.597	4840.95
938.905	4808.86
939.213	4777.45
939.52	4774.73
939.827	4772.93
940.135	4777.67
940.442	4758.46
940.749	4727.95
941.056	4696.77
941.363	4623.1
941.67	4672.14
941.977	4630.33
942.284	4561.18
942.591	4575.64
942.898	4522.54
943.205	4572.48
943.511	4491.35
943.818	4522.31
944.125	4512.82
944.431	4444.8
944.738	4444.35
945.044	4407.51
945.35	4415.42
945.657	4409.09
945.963	4339.04
946.269	4329.77
946.575	4327.51
946.881	4321.19
947.187	4287.97
947.493	4295.42
947.799	4256.78
948.105	4263.79
948.41	4223.56
948.716	4197.12
949.022	4214.75
949.327	4188.76
949.633	4142.21
949.938	4191.7
950.244	4115.54
950.549	4106.05
950.854	4074.19
951.16	4096.78
951.465	4076.22
951.77	4023.57
952.075	4005.94
952.38	4025.83
952.685	4005.71
952.99	3965.94
953.294	3932.5
953.599	3904.47
953.904	3919.39
954.209	3885.72
954.513	3863.8
954.818	3876.9
955.122	3850.01
955.426	3807.98
955.731	3809.56
956.035	3817.47
956.339	3787.87
956.643	3757.36
956.948	3746.51
957.252	3761.88
957.556	3703.57
957.86	3698.38
958.163	3676.91
958.467	3661.54
958.771	3683.24
959.075	3629.68
959.378	3620.19
959.682	3607.98
959.985	3567.76
960.289	3548.55
960.592	3572.5
960.896	3570.02
961.199	3541.77
961.502	3530.92
961.805	3512.85
962.108	3500.87
962.411	3468.1
962.714	3432.85
963.017	3462.9
963.32	3438.95
963.623	3442.79
963.926	3404.6
964.228	3402.57
964.531	3397.82
964.833	3378.61
965.136	3355.11
965.438	3306.07
965.741	3271.72
966.043	3342.23
966.345	3289.8
966.648	3263.81
966.95	3269.91
967.252	3252.29
967.554	3215.45
967.856	3217.71
968.158	3184.27
968.46	3176.36
968.761	3183.59
969.063	3158.5
969.365	3150.37
969.666	3168.45
969.968	3131.61
970.269	3108.79
970.571	3093.87
970.872	3108.56
971.174	3015.46
971.475	3030.37
971.776	3044.61
972.077	3029.24
972.378	3014.1
972.679	3006.87
972.98	3029.69
973.281	2978.85
973.582	2977.27
973.883	2943.37
974.183	2925.74
974.484	2943.59
974.785	2918.28
975.085	2906.99
975.386	2900.21
975.686	2869.25
975.986	2854.56
976.287	2843.71
976.587	2814.33
976.887	2835.35
977.187	2776.59
977.487	2798.29
977.787	2776.37
978.087	2758.74
978.387	2769.14
978.687	2746.54
978.987	2747.22
979.286	2723.94
979.586	2736.82
979.885	2700.66
980.185	2674.22
980.484	2659.53
980.784	2678.29
981.083	2647.56
981.382	2664.28
981.682	2615.02
981.981	2631.96
982.28	2608.24
982.579	2582.25
982.878	2563.27
983.177	2591.51
983.475	2567.56
983.774	2561.23
984.073	2560.33
984.372	2510.61
984.67	2525.53
984.969	2505.19
985.267	2504.06
985.566	2510.16
985.864	2510.84
986.162	2492.08
986.461	2444.85
986.759	2452.99
987.057	2426.77
987.355	2450.5
987.653	2412.31
987.951	2405.3
988.249	2415.47
988.547	2374.57
988.844	2352.65
989.142	2348.36
989.44	2342.71
989.737	2334.57
990.035	2332.54
990.332	2333.44
990.63	2281.24
990.927	2264.06
991.224	2291.63
991.521	2250.96
991.819	2252.09
992.116	2270.84
992.413	2230.85
992.71	2211.86
993.006	2233.11
993.303	2230.17
993.6	2159.89
993.897	2181.58
994.193	2183.61
994.49	2176.61
994.787	2146.78
995.083	2136.38
995.379	2170.28
995.676	2147.68
995.972	2094.35
996.268	2102.71
996.565	2106.33
996.861	2075.37
997.157	2078.76
997.453	2048.25
997.749	2027.46
998.044	2057.97
998.34	2037.86
998.636	2020.46
998.932	2011.19
999.227	1982.94
999.523	2035.14
999.818	1987.24
1000.114	1992.89
1000.409	1996.5
1000.704	1945.43
1001	1926.45
1001.295	1946.33
1001.59	1906.79
1001.885	1921.47
1002.18	1887.58
1002.475	1901.59
1002.77	1899.55
1003.065	1883.74
1003.359	1867.69
1003.654	1859.56
1003.949	1851.65
1004.243	1817.52
1004.538	1821.14
1004.832	1839.22
1005.127	1824.08
1005.421	1818.65
1005.715	1796.96
1006.009	1761.25
1006.304	1774.59
1006.598	1703.18
1006.892	1726
1007.186	1748.6
1007.48	1696.85
1007.773	1711.76
1008.067	1728.71
1008.361	1694.59
1008.655	1693.68
1008.948	1672.67
1009.242	1687.58
1009.535	1655.49
1009.829	1624.53
1010.122	1635.15
1010.415	1679.67
1010.708	1620.47
1011.001	1616.85
1011.295	1611.65
1011.588	1594.93
1011.881	1606.23
1012.173	1579.11
1012.466	1562.16
1012.759	1585.89
1013.052	1521.71
1013.344	1567.59
1013.637	1550.19
1013.93	1546.8
1014.222	1533.01
1014.514	1505.67
1014.807	1516.06
1015.099	1495.72
1015.391	1487.59
1015.683	1474.71
1015.976	1473.8
1016.268	1478.32
1016.56	1471.32
1016.851	1447.59
1017.143	1431.09
1017.435	1439
1017.727	1413.24
1018.018	1424.09
1018.31	1397.42
1018.602	1386.8
1018.893	1380.25
1019.185	1370.53
1019.476	1371.88
1019.767	1327.14
1020.058	1356.52
1020.35	1321.04
1020.641	1343.64
1020.932	1321.49
1021.223	1322.62
1021.514	1285.33
1021.804	1298.67
1022.095	1291.21
1022.386	1280.81
1022.677	1295.73
1022.967	1274.94
1023.258	1249.4
1023.548	1279.01
1023.839	1243.75
1024.129	1237.2
1024.419	1230.19
1024.709	1220.02
1025	1231.1
1025.29	1207.82
1025.58	1212.57
1025.87	1192
1026.16	1183.64
1026.449	1178.9
1026.739	1156.98
1027.029	1168.27
1027.319	1138.9
1027.608	1133.02
1027.898	1165.79
1028.187	1129.86
1028.477	1099.58
1028.766	1104.77
1029.055	1096.86
1029.344	1086.24
1029.634	1098.67
1029.923	1081.72
1030.212	1090.76
1030.501	1073.14
1030.79	1057.32
1031.078	1073.81
1031.367	1070.65
1031.656	1048.96
1031.945	1018.22
1032.233	1021.84
1032.522	1029.97
1032.81	1014.61
1033.099	1012.8
1033.387	999.92
1033.675	983.42
1033.963	1004.89
1034.251	990.65
1034.54	986.81
1034.828	989.97
1035.116	962.4
1035.403	974.16
1035.691	942.74
1035.979	972.12
1036.267	922.41
1036.554	939.81
1036.842	925.12
1037.129	922.18
1037.417	938.22
1037.704	914.27
1037.992	930.54
1038.279	909.07
1038.566	902.29
1038.853	902.29
1039.14	902.29
