Data from hue_330_FLMS001491_54.txt Node
Date: Mon Feb 06 15:45:35 GMT 2017
User: dcchb
Spectrometer: FLMS00149
Trigger mode: 0
Integration Time (sec): 2.000000E-2
Scans to average: 10
Electric dark correction enabled: true
Nonlinearity correction enabled: false
Boxcar width: 0
XAxis mode: Wavelengths
Number of Pixels in Spectrum: 2048
>>>>>Begin Spectral Data<<<<<
341.393	-24.66
341.776	-24.66
342.16	-24.66
342.543	-55.62
342.927	-56.75
343.31	-70.31
343.693	-73.25
344.077	-59.01
344.46	-57.65
344.843	-43.19
345.226	-46.13
345.61	-49.74
345.993	-14.72
346.376	-19.69
346.759	20.54
347.142	21.44
347.525	43.81
347.908	58.95
348.291	82.68
348.674	92.4
349.057	113.87
349.44	134.21
349.823	152.06
350.206	177.59
350.588	185.28
350.971	199.51
351.354	217.82
351.737	250.81
352.119	227.31
352.502	266.63
352.884	286.07
353.267	276.8
353.65	307.99
354.032	290.81
354.414	319.51
354.797	305.73
355.179	302.11
355.562	328.1
355.944	316.12
356.326	329.91
356.709	322
357.091	320.64
357.473	331.49
357.855	330.36
358.238	349.79
358.62	343.92
359.002	329.91
359.384	359.28
359.766	340.75
360.148	325.84
360.53	356.35
360.912	327.65
361.294	319.06
361.676	318.38
362.057	347.76
362.439	335.1
362.821	329.23
363.203	346.18
363.584	324.03
363.966	330.81
364.348	326.29
364.729	323.81
365.111	297.59
365.493	320.87
365.874	307.53
366.256	329.68
366.637	299.85
367.019	296.69
367.4	299.62
367.781	345.27
368.163	303.24
368.544	296.01
368.925	309.34
369.306	319.51
369.688	303.69
370.069	315.9
370.45	311.15
370.831	328.78
371.212	304.6
371.593	303.92
371.974	298.04
372.355	321.55
372.736	318.16
373.117	316.12
373.498	331.49
373.879	324.03
374.26	316.8
374.641	323.58
375.021	306.63
375.402	323.58
375.783	335.1
376.163	315.22
376.544	338.72
376.925	333.97
377.305	314.31
377.686	331.71
378.066	338.04
378.447	333.75
378.827	326.52
379.208	322
379.588	321.77
379.968	329.45
380.349	323.58
380.729	337.36
381.109	335.56
381.489	327.65
381.87	335.33
382.25	306.86
382.63	340.98
383.01	328.78
383.39	349.57
383.77	342.11
384.15	347.31
384.53	340.3
384.91	336.01
385.29	356.35
385.67	334.43
386.049	362.67
386.429	347.08
386.809	341.21
387.189	353.63
387.568	378.04
387.948	344.14
388.328	369
388.707	346.86
389.087	351.37
389.466	347.31
389.846	347.08
390.225	349.12
390.605	354.99
390.984	356.35
391.363	364.03
391.743	369.45
392.122	378.04
392.501	351.6
392.881	382.11
393.26	377.59
393.639	382.79
394.018	387.76
394.397	375.1
394.776	371.26
395.155	368.32
395.534	394.99
395.913	371.71
396.292	373.07
396.671	392.73
397.05	396.35
397.429	401.77
397.808	391.37
398.186	379.4
398.565	387.31
398.944	400.41
399.323	384.82
399.701	391.37
400.08	397.7
400.458	418.04
400.837	397.48
401.215	398.61
401.594	405.84
401.972	401.32
402.351	419.17
402.729	425.05
403.107	417.81
403.486	416.68
403.864	418.49
404.242	411.71
404.62	442.22
404.999	424.37
405.377	419.62
405.755	431.82
406.133	419.85
406.511	440.86
406.889	447.42
407.267	428.44
407.645	476.8
408.023	460.52
408.401	463.69
408.779	461.2
409.156	472.5
409.534	459.17
409.912	458.26
410.29	468.43
410.667	486.51
411.045	482.9
411.422	487.87
411.8	507.76
412.178	499.62
412.555	528.09
412.933	512.73
413.31	502.11
413.687	530.35
414.065	526.06
414.442	540.97
414.819	533.29
415.197	538.94
415.574	539.17
415.951	566.96
416.328	561.31
416.705	561.31
417.082	552.95
417.46	567.87
417.837	576.23
418.214	589.56
418.591	593.4
418.967	590.92
419.344	614.87
419.721	612.84
420.098	606.51
420.475	615.55
420.852	630.01
421.228	629.11
421.605	655.1
421.982	647.64
422.358	652.38
422.735	667.98
423.111	640.18
423.488	683.12
423.864	666.62
424.241	677.24
424.617	707.07
424.994	727.64
425.37	696.45
425.746	689.9
426.123	705.49
426.499	722.66
426.875	707.07
427.251	722.89
427.627	742.55
428.003	737.58
428.379	767.18
428.756	742.78
429.132	766.51
429.507	768.77
429.883	760.4
430.259	788.2
430.635	777.13
431.011	800.18
431.387	806.96
431.763	839.72
432.138	861.42
432.514	834.3
432.89	828.88
433.265	855.09
433.641	855.77
434.016	865.94
434.392	865.94
434.767	883.11
435.143	871.36
435.518	887.86
435.894	912.04
436.269	917.69
436.644	926.05
437.02	930.79
437.395	962.21
437.77	945.26
438.145	977.57
438.52	984.8
438.895	980.51
439.271	1004.24
439.646	999.04
440.021	994.07
440.395	1019.83
440.77	1005.37
441.145	1008.31
441.52	1024.13
441.895	1024.35
442.27	1039.49
442.645	1031.36
443.019	1054.18
443.394	1034.52
443.769	1079.94
444.143	1059.38
444.518	1083.11
444.892	1085.37
445.267	1094.86
445.641	1081.3
446.016	1065.48
446.39	1085.82
446.764	1095.08
447.139	1108.19
447.513	1123.56
447.887	1101.64
448.262	1097.8
448.636	1097.12
449.01	1149.32
449.384	1136.89
449.758	1154.97
450.132	1159.72
450.506	1157.91
450.88	1166.49
451.254	1175.53
451.628	1191.35
452.002	1177.12
452.376	1190.67
452.75	1168.53
453.123	1194.52
453.497	1210.11
453.871	1213.5
454.244	1226.61
454.618	1239.26
454.992	1254.4
455.365	1254.85
455.739	1271.12
456.112	1294.63
456.486	1270.45
456.859	1304.57
457.232	1325.36
457.606	1327.62
457.979	1305.25
458.352	1359.94
458.725	1344.8
459.099	1374.17
459.472	1365.36
459.845	1404.23
460.218	1375.53
460.591	1392.25
460.964	1425.7
461.337	1425.7
461.71	1452.59
462.083	1465.02
462.456	1465.7
462.829	1489.42
463.201	1498.01
463.574	1512.02
463.947	1500.72
464.32	1542.08
464.692	1521.97
465.065	1547.05
465.438	1568.29
465.81	1600.61
466.183	1621.4
466.555	1609.65
466.928	1647.39
467.3	1605.58
467.672	1652.36
468.045	1694.62
468.417	1661.85
468.789	1706.82
469.161	1710.44
469.534	1750.89
469.906	1780.04
470.278	1787.5
470.65	1809.87
471.022	1827.49
471.394	1855.29
471.766	1867.72
472.138	1890.09
472.51	1926.47
472.882	1927.15
473.253	1934.61
473.625	1954.72
473.997	2001.73
474.369	2019.58
474.74	2002.4
475.112	2052.12
475.484	2102.06
475.855	2102.29
476.227	2131.67
476.598	2169.63
476.97	2186.35
477.341	2213.25
477.713	2277.88
478.084	2282.85
478.455	2322.4
478.827	2347.25
479.198	2392.23
479.569	2411.21
479.94	2423.86
480.311	2446.69
480.682	2538.89
481.053	2570.53
481.424	2570.98
481.795	2615.72
482.166	2629.51
482.537	2668.38
482.908	2724.65
483.279	2707.47
483.65	2765.32
484.021	2811.2
484.391	2875.38
484.762	2881.03
485.133	2907.01
485.503	2886
485.874	2974.13
486.244	3022.94
486.615	3045.09
486.985	3025.2
487.356	3117.63
487.726	3113.34
488.097	3182.94
488.467	3192.88
488.837	3242.15
489.207	3269.26
489.578	3362.6
489.948	3332.31
490.318	3395.36
490.688	3399.88
491.058	3424.51
491.428	3453.67
491.798	3490.73
492.168	3584.74
492.538	3554
492.908	3638.29
493.278	3620.22
493.648	3696.82
494.017	3686.65
494.387	3726.65
494.757	3763.49
495.126	3756.71
495.496	3806.65
495.866	3772.08
496.235	3859.31
496.605	3851.85
496.974	3903.6
497.344	3907.67
497.713	3928.23
498.082	3961.68
498.452	3966.87
498.821	4026.76
499.19	4008.45
499.559	4035.57
499.928	4084.38
500.298	4079.64
500.667	4156.25
501.036	4104.95
501.405	4175.46
501.774	4173.87
502.143	4207.77
502.512	4214.78
502.88	4236.02
503.249	4264.27
503.618	4255.68
503.987	4263.81
504.356	4266.53
504.724	4306.75
505.093	4336.58
505.462	4359.18
505.83	4348.33
506.199	4372.96
506.567	4447.76
506.936	4392.17
507.304	4471.49
507.672	4453.19
508.041	4482.34
508.409	4510.81
508.777	4551.26
509.145	4538.84
509.514	4554.88
509.882	4585.16
510.25	4610.25
510.618	4584.71
510.986	4598.95
511.354	4652.05
511.722	4664.48
512.09	4694.76
512.458	4696.35
512.826	4745.61
513.193	4743.8
513.561	4746.51
513.929	4782.67
514.297	4784.25
514.664	4859.05
515.032	4806.17
515.4	4813.4
515.767	4845.04
516.135	4886.85
516.502	4849.11
516.869	4934.08
517.237	4902.44
517.604	4919.39
517.972	4940.41
518.339	5025.83
518.706	4985.6
519.073	4950.58
519.44	4986.28
519.808	5031.93
520.175	5052.95
520.542	5023.12
520.909	5073.96
521.276	5064.02
521.643	5123.9
522.009	5200.29
522.376	5187.41
522.743	5155.99
523.11	5265.37
523.477	5278.25
523.843	5284.8
524.21	5315.31
524.577	5378.36
524.943	5312.37
525.31	5400.28
525.676	5411.58
526.043	5469.21
526.409	5469.66
526.776	5548.07
527.142	5539.94
527.508	5533.16
527.874	5573.84
528.241	5583.78
528.607	5577.9
528.973	5671.24
529.339	5636.66
529.705	5691.57
530.071	5774.96
530.437	5769.31
530.803	5815.86
531.169	5776.54
531.535	5810.89
531.901	5874.62
532.267	5852.25
532.632	5925.47
532.998	5926.14
533.364	5946.03
533.73	5980.15
534.095	5993.49
534.461	6040.72
534.826	6049.98
535.192	6071
535.557	6074.61
535.923	6141.73
536.288	6104.22
536.653	6156.65
537.019	6172.24
537.384	6212.24
537.749	6204.78
538.114	6239.13
538.479	6209.75
538.845	6304.89
539.21	6260.82
539.575	6323.42
539.94	6360.48
540.305	6414.04
540.67	6398.67
541.034	6471.21
541.399	6474.15
541.764	6486.13
542.129	6468.05
542.494	6521.16
542.858	6602.51
543.223	6601.61
543.587	6659.68
543.952	6678.67
544.316	6683.41
544.681	6712.34
545.045	6778.32
545.41	6779
545.774	6759.79
546.138	6786.23
546.503	6864.65
546.867	6881.82
547.231	6856.29
547.595	6936.96
547.959	6918.66
548.324	6954.37
548.688	6903.07
549.052	6999.11
549.416	7029.84
549.779	7059.45
550.143	7080.01
550.507	7143.29
550.871	7140.8
551.235	7128.15
551.599	7153.91
551.962	7199.56
552.326	7255.37
552.689	7186.9
553.053	7223.51
553.417	7225.77
553.78	7378.31
554.143	7310.29
554.507	7385.77
554.87	7288.37
555.234	7456.95
555.597	7433
555.96	7433.67
556.323	7419.89
556.686	7411.3
557.05	7444.3
557.413	7528.81
557.776	7550.06
558.139	7611.52
558.502	7549.15
558.865	7657.62
559.228	7682.26
559.59	7702.14
559.953	7681.13
560.316	7790.73
560.679	7722.71
561.041	7782.37
561.404	7849.48
561.767	7891.97
562.129	7869.14
562.492	7875.47
562.854	7853.32
563.217	7971.97
563.579	7953.89
563.941	7970.61
564.304	8037.27
564.666	8072.08
565.028	8029.82
565.39	8062.13
565.753	8084.28
566.115	8079.31
566.477	8199.98
566.839	8138.97
567.201	8211.06
567.563	8281.56
567.925	8359.07
568.287	8334.67
568.648	8416.25
569.01	8326.98
569.372	8417.83
569.734	8467.77
570.095	8534.44
570.457	8522.46
570.819	8572.63
571.18	8570.82
571.542	8601.1
571.903	8656.69
572.265	8770.59
572.626	8769.23
572.987	8791.6
573.349	8850.81
573.71	8959.28
574.071	8973.52
574.432	9026.63
574.794	9096.68
575.155	9096.91
575.516	9131.71
575.877	9312.27
576.238	9362.66
576.599	9389.56
576.96	9390.01
577.32	9476.33
577.681	9639.04
578.042	9701.86
578.403	9734.63
578.763	9795.42
579.124	9899.15
579.485	9969.88
579.845	10119.03
580.206	10194.05
580.566	10284
580.927	10394.95
581.287	10563.99
581.648	10592.46
582.008	10871.32
582.368	11008.04
582.728	11168.94
583.089	11246.23
583.449	11455.26
583.809	11557.63
584.169	11767.8
584.529	11877.4
584.889	12252.76
585.249	12318.97
585.609	12407.33
585.969	12735
586.329	12814.78
586.688	13057.71
587.048	13318.27
587.408	13454.76
587.768	13709.89
588.127	13941.07
588.487	14206.6
588.846	14501.96
589.206	14578.8
589.565	14894.72
589.925	15191.89
590.284	15397.31
590.643	15738.54
591.003	15952.77
591.362	16302.14
591.721	16632.3
592.08	16820.77
592.44	17206.3
592.799	17412.4
593.158	17642.22
593.517	18032.27
593.876	18369.21
594.235	18485.36
594.593	18861.4
594.952	19173.93
595.311	19306.13
595.67	19713.8
596.029	20208.25
596.387	20440.34
596.746	20762.59
597.104	20893.43
597.463	21242.13
597.822	21632.62
598.18	21843.92
598.538	22004.36
598.897	22581.75
599.255	22530
599.613	23238
599.972	23281.39
600.33	23720.7
600.688	23859.23
601.046	24287.47
601.404	24635.03
601.762	24840
602.12	25152.08
602.478	25460.32
602.836	25735.11
603.194	25859.63
603.552	26147.53
603.91	26328.55
604.268	26730.34
604.625	27013.27
604.983	27239.93
605.341	27395.86
605.698	27827.94
606.056	28139.34
606.413	28307.7
606.771	28559.67
607.128	28697.97
607.485	28949.49
607.843	29139.54
608.2	29391.52
608.557	29760.77
608.914	29845.06
609.272	30272.17
609.629	30429.91
609.986	30746.28
610.343	30788.31
610.7	31198.93
611.057	31378.36
611.414	31581.74
611.771	31853.6
612.127	32005.68
612.484	32237.99
612.841	32447.71
613.198	32478.89
613.554	32666.01
613.911	33054.02
614.267	33165.88
614.624	33233.45
614.98	33557.51
615.337	33869.82
615.693	33903.71
616.05	34051.73
616.406	34290.14
616.762	34320.88
617.118	34552.96
617.475	34608.1
617.831	34846.51
618.187	35084.25
618.543	35204.7
618.899	35450.57
619.255	35613.27
619.611	35646.27
619.967	35827.73
620.323	35934.85
620.678	35937.78
621.034	35942.08
621.39	36111.11
621.746	36074.73
622.101	36782.73
622.457	36506.81
622.812	36550.88
623.168	36677.2
623.523	37016.85
623.879	37093.01
624.234	37071.54
624.589	37086.91
624.945	37332.32
625.3	37544.52
625.655	37424.98
626.01	37471.3
626.365	37684.4
626.72	37517.86
627.075	37826.55
627.43	37654.12
627.785	37795.81
628.14	37934.12
628.495	38016.15
628.85	37989.48
629.205	37957.84
629.559	38290.04
629.914	38146.77
630.269	38192.64
630.623	38208.91
630.978	38176.82
631.332	38374.78
631.687	38396.02
632.041	38331.39
632.396	38448.68
632.75	38433.54
633.104	38465.18
633.459	38340.66
633.813	38451.62
634.167	38471.05
634.521	38472.86
634.875	38464.5
635.229	38586.98
635.583	38380.88
635.937	38568.45
636.291	38395.8
636.645	38457.94
636.999	38377.04
637.352	38450.94
637.706	38388.11
638.06	38582.69
638.413	38374.78
638.767	38237.38
639.121	38500.65
639.474	38239.42
639.828	38204.16
640.181	38459.75
640.534	38415.23
640.888	38253.88
641.241	38171.62
641.594	38392.18
641.947	38394.44
642.301	38331.85
642.654	38412.75
643.007	38404.16
643.36	38516.7
643.713	38252.98
644.066	38374.1
644.419	38364.84
644.771	37972.53
645.124	37773.89
645.477	37695.03
645.83	37426.78
646.182	37280.12
646.535	37149.96
646.888	37284.64
647.24	37193.34
647.593	37365.09
647.945	37237.64
648.298	37133.01
648.65	36981.15
649.002	36987.7
649.355	37254.13
649.707	37084.65
650.059	37299.1
650.411	37756.49
650.763	37776.38
651.115	38094.34
651.467	38007.79
651.819	38081.46
652.171	37856.15
652.523	37977.05
652.875	37903.61
653.227	37660.45
653.578	37993.78
653.93	37936.38
654.282	37738.64
654.633	37700.9
654.985	37727.34
655.337	37729.6
655.688	37729.15
656.039	37897.05
656.391	37566.22
656.742	37625.65
657.094	37577.74
657.445	37825.42
657.796	37588.59
658.147	37459.1
658.498	37608.25
658.849	37647.12
659.2	37742.71
659.551	37547.46
659.902	37670.85
660.253	37566.89
660.604	37723.95
660.955	37467.91
661.306	37628.36
661.656	37542.71
662.007	37532.09
662.358	37683.95
662.708	37523.28
663.059	37595.37
663.409	37348.82
663.76	37811.18
664.11	37576.16
664.461	37617.51
664.811	37533.22
665.161	37686.44
665.511	37497.74
665.862	37558.98
666.212	37706.78
666.562	37687.34
666.912	37533.22
667.262	37596.95
667.612	37435.15
667.962	37453
668.312	37420.68
668.662	37746.78
669.011	37536.16
669.361	37395.6
669.711	37354.92
670.06	37278.54
670.41	37328.71
670.76	37330.06
671.109	37333.45
671.459	37382.94
671.808	37262.04
672.157	37447.8
672.507	37284.87
672.856	37220.24
673.205	37274.02
673.554	37243.29
673.904	37232.44
674.253	37399.44
674.602	37353.11
674.951	36786.8
675.3	36683.75
675.649	37240.35
675.998	37170.07
676.346	37098.43
676.695	37193.57
677.044	36947.02
677.393	37044.87
677.741	37185.89
678.09	36969.4
678.438	36847.82
678.787	37008.04
679.135	36996.51
679.484	36802.39
679.832	36953.58
680.181	36651.21
680.529	36825.44
680.877	36711.55
681.225	36761.94
681.573	36943.63
681.922	36578.67
682.27	36491.67
682.618	36523.76
682.966	36486.02
683.314	36443.99
683.661	36446.47
684.009	36156.08
684.357	36148.85
684.705	36062.53
685.053	36110.43
685.4	36156.76
685.748	35950.44
686.095	35891.01
686.443	35740.27
686.79	35765.81
687.138	35747.96
687.485	35900.72
687.832	35753.16
688.18	35818.69
688.527	35585.7
688.874	35608.08
689.221	35422.54
689.568	35390.23
689.915	35206.28
690.262	35242.89
690.609	35148.43
690.956	35111.14
691.303	35079.73
691.65	34902.1
691.997	34985.72
692.344	34765.84
692.69	34700.53
693.037	34602.23
693.383	34415.34
693.73	34624.82
694.077	34289.47
694.423	34396.58
694.769	34270.94
695.116	34190.71
695.462	34180.77
695.808	34005.63
696.155	33985.97
696.501	33844.05
696.847	33881.34
697.193	33654.45
697.539	33753.66
697.885	33432.54
698.231	33253.79
698.577	33400
698.923	33346.89
699.269	33077.97
699.614	32890.18
699.96	32959.78
700.306	32889.5
700.651	32936.28
700.997	32620.81
701.342	32711.2
701.688	32607.48
702.033	32599.11
702.379	32585.78
702.724	32359.57
703.069	32517.76
703.415	32039.36
703.76	32172.23
704.105	32198.45
704.45	32072.8
704.795	31907.16
705.14	31755.52
705.485	31748.29
705.83	31667.16
706.175	31742.64
706.52	31502.19
706.865	31507.39
707.209	31533.61
707.554	31367.06
707.899	31474.85
708.243	31430.11
708.588	31231.24
708.932	31092.71
709.277	30995.54
709.621	30951.93
709.966	30636.68
710.31	30823.79
710.654	30640.07
710.998	30670.8
711.342	30664.25
711.687	30521.43
712.031	30394.2
712.375	30266.52
712.719	30433.52
713.063	30310.59
713.407	30393.75
713.75	30226.75
714.094	30239.85
714.438	30119.18
714.782	29979.07
715.125	29977.49
715.469	29916.93
715.812	29764.61
716.156	29657.27
716.499	29773.43
716.843	29546.99
717.186	29434.68
717.53	29755.12
717.873	29719.87
718.216	29545.86
718.559	29408.24
718.902	29299.54
719.246	29307.9
719.589	29217.73
719.932	29137.28
720.275	29181.35
720.617	29106.55
720.96	29064.74
721.303	29100.45
721.646	28971.19
721.989	28789.05
722.331	28896.39
722.674	28847.35
723.016	28771.42
723.359	28780.46
723.701	28721.7
724.044	28582.05
724.386	28467.7
724.729	28622.72
725.071	28458.66
725.413	28509.73
725.755	28482.39
726.097	28379.56
726.439	28201.26
726.782	28379.56
727.124	28331.2
727.465	28094.6
727.807	28190.42
728.149	28131.66
728.491	28020.7
728.833	27993.36
729.175	28011.66
729.516	27843.31
729.858	27853.02
730.199	27816.64
730.541	27898
730.882	27870.65
731.224	27898.45
731.565	27624.56
731.906	27779.13
732.248	27718.11
732.589	27573.94
732.93	27433.37
733.271	27383.88
733.612	27475.41
733.953	27543.88
734.294	27321.06
734.635	27329.87
734.976	27369.65
735.317	27196.32
735.658	27151.12
735.999	27144.79
736.339	27154.06
736.68	27205.81
737.021	27030
737.361	27001.07
737.702	27124.91
738.042	27010.79
738.383	26790.68
738.723	26768.53
739.063	26738.7
739.404	26799.04
739.744	26749.55
740.084	26674.07
740.424	26689.44
740.764	26639.5
741.104	26640.63
741.444	26676.11
741.784	26415.1
742.124	26478.37
742.464	26490.35
742.804	26326.06
743.143	26385.04
743.483	26427.53
743.823	26230.92
744.162	26195.89
744.502	26276.34
744.841	26074.09
745.181	26263.24
745.52	26127.42
745.86	26179.4
746.199	26041.55
746.538	26021.43
746.877	26168.55
747.216	26011.04
747.556	25931.49
747.895	25874.77
748.234	25725.62
748.573	25779.63
748.911	25727.43
749.25	25690.37
749.589	25451.51
749.928	25690.6
750.267	25522.46
750.605	25522.24
750.944	25506.19
751.283	25407.89
751.621	25482.47
751.96	25393.43
752.298	25275.69
752.636	25322.24
752.975	25138.97
753.313	25057.84
753.651	25114.57
753.989	25025.53
754.327	25100.78
754.666	24945.98
755.004	24783.95
755.342	24865.76
755.679	24929.26
756.017	24698.98
756.355	24694.01
756.693	24711.19
757.031	24722.49
757.368	24642.71
757.706	24463.28
758.044	24404.98
758.381	24386.22
758.719	24330.41
759.056	24291.31
759.394	24221.93
759.731	24035.72
760.068	24177.64
760.405	23971.32
760.743	23873.69
761.08	23862.62
761.417	23744.43
761.754	23671.21
762.091	23652.68
762.428	23662.4
762.765	23341.28
763.102	23541.05
763.438	23336.76
763.775	23257.67
764.112	23269.64
764.449	23303.77
764.785	23147.16
765.122	23003.89
765.458	23003.89
765.795	22937.9
766.131	22887.96
766.467	22763.44
766.804	22722.76
767.14	22508.31
767.476	22553.73
767.812	22534.75
768.148	22479.15
768.485	22438.25
768.821	22179.28
769.157	22213.62
769.492	22070.58
769.828	22147.41
770.164	21931.6
770.5	21877.36
770.836	21844.14
771.171	21749
771.507	21731.15
771.842	21618.84
772.178	21498.39
772.513	21479.18
772.849	21436.47
773.184	21313.76
773.519	21290.03
773.855	21109.93
774.19	21165.97
774.525	21027.67
774.86	20964.84
775.195	20953.55
775.53	20849.82
775.865	20750.39
776.2	20531.18
776.535	20480.11
776.87	20440.34
777.205	20427.68
777.539	20371.87
777.874	20321.92
778.209	20169.84
778.543	20048.26
778.878	19989.73
779.212	19990.63
779.547	19888.49
779.881	19882.61
780.215	19713.13
780.55	19845.55
780.884	19642.17
781.218	19616.41
781.552	19575.5
781.886	19475.39
782.22	19348.16
782.554	19270.88
782.888	19079.92
783.222	19102.52
783.556	19000.38
783.889	18964.9
784.223	18866.37
784.557	18825.69
784.89	18949.3
785.224	18685.13
785.557	18654.17
785.891	18569.43
786.224	18585.7
786.558	18580.95
786.891	18320.17
787.224	18254.41
787.557	18319.94
787.891	18339.38
788.224	18119.72
788.557	18191.13
788.89	18147.97
789.223	18149.55
789.556	17930.12
789.888	17931.25
790.221	17834.08
790.554	17672.05
790.887	17715.89
791.219	17594.31
791.552	17616.46
791.884	17436.12
792.217	17514.31
792.549	17353.64
792.882	17247.2
793.214	17233.64
793.546	17239.29
793.879	17070.26
794.211	17051.05
794.543	17049.92
794.875	16897.83
795.207	16954.78
795.539	16937.83
795.871	16816.25
796.203	16756.37
796.535	16647.67
796.867	16631.17
797.198	16529.93
797.53	16519.31
797.862	16459.2
798.193	16392.08
798.525	16345.98
798.856	16411.29
799.188	16166.78
799.519	16156.84
799.85	16045.43
800.182	16047.91
800.513	16057.4
800.844	15843.62
801.175	16071.19
801.506	15959.78
801.837	15866.67
802.168	15863.74
802.499	15722.5
802.83	15687.24
803.161	15667.13
803.491	15652.89
803.822	15558.43
804.153	15532.44
804.483	15444.09
804.814	15331.55
805.145	15283.41
805.475	15239.8
805.805	15222.4
806.136	15260.59
806.466	15229.18
806.796	15216.07
807.126	15098.11
807.457	15090.65
807.787	15054.49
808.117	14858.11
808.447	14816.08
808.777	14994.83
809.107	14911.67
809.436	14869.19
809.766	14817.21
810.096	14692.92
810.426	14659.02
810.755	14681.17
811.085	14648.17
811.414	14620.15
811.744	14451.12
812.073	14481.4
812.403	14531.12
812.732	14373.83
813.061	14284.12
813.39	14287.28
813.719	14297.22
814.049	14387.84
814.378	14259.26
814.707	14165.25
815.036	14157.57
815.365	14135.65
815.693	14004.35
816.022	14032.6
816.351	14012.94
816.68	13890
817.008	13989.21
817.337	13765.94
817.665	13822.89
817.994	13849.1
818.322	13782.21
818.651	13690.01
818.979	13661.99
819.307	13731.14
819.636	13648.43
819.964	13613.17
820.292	13657.69
820.62	13616.11
820.948	13597.13
821.276	13555.1
821.604	13536.79
821.932	13576.56
822.259	13566.39
822.587	13513.06
822.915	13532.72
823.243	13592.16
823.57	13469.22
823.898	13584.25
824.225	13563.46
824.553	13380.64
824.88	13570.46
825.207	13563.46
825.535	13530.01
825.862	13469
826.189	13424.7
826.516	13508.32
826.843	13502.44
827.17	13482.56
827.497	13365.27
827.824	13487.3
828.151	13517.13
828.478	13486.62
828.805	13525.72
829.131	13455.66
829.458	13418.38
829.785	13397.81
830.111	13452.73
830.438	13482.56
830.764	13387.19
831.09	13435.1
831.417	13305.16
831.743	13391.26
832.069	13348.1
832.395	13356
832.722	13430.81
833.048	13345.38
833.374	13373.18
833.7	13343.8
834.026	13279.17
834.351	13385.38
834.677	13277.59
835.003	13318.72
835.329	13330.47
835.654	13229.23
835.98	13201.88
836.306	13204.14
836.631	13201.43
836.956	13190.59
837.282	13180.42
837.607	13134.54
837.932	13171.38
838.258	13125.05
838.583	13071.49
838.908	12969.57
839.233	13002.34
839.558	12999.63
839.883	12926.86
840.208	12865.62
840.533	12843.02
840.858	13007.77
841.182	12902.91
841.507	12927.09
841.832	12902.46
842.156	12780.88
842.481	12812.97
842.805	12764.83
843.13	12772.29
843.454	12666.08
843.778	12647.1
844.103	12633.76
844.427	12634.44
844.751	12626.98
845.075	12541.34
845.399	12541.79
845.723	12455.46
846.047	12450.04
846.371	12454.56
846.695	12320.55
847.019	12246.66
847.343	12224.06
847.666	12210.95
847.99	12045.3
848.313	12152.65
848.637	12054.8
848.96	12005.53
849.284	11968.92
849.607	11865.2
849.931	11814.12
850.254	11785.88
850.577	11696.84
850.9	11661.36
851.223	11621.14
851.546	11539.56
851.869	11493.68
852.192	11536.62
852.515	11483.96
852.838	11430.86
853.161	11393.57
853.483	11361.03
853.806	11309.28
854.129	11242.16
854.451	11152.22
854.774	11163.29
855.096	11149.74
855.419	11008.95
855.741	11076.52
856.063	11002.17
856.385	10979.8
856.708	10920.59
857.03	10952.68
857.352	10933.02
857.674	10935.5
857.996	10878.33
858.318	10805.34
858.64	10834.04
858.961	10737.77
859.283	10743.64
859.605	10679.46
859.926	10635.17
860.248	10645.79
860.57	10632.01
860.891	10614.38
861.212	10523.99
861.534	10541.16
861.855	10522.18
862.176	10497.55
862.498	10492.8
862.819	10458.45
863.14	10432.92
863.461	10366.48
863.782	10388.85
864.103	10370.55
864.424	10302.3
864.745	10348.17
865.065	10305.01
865.386	10293.71
865.707	10270.21
866.027	10312.92
866.348	10194.73
866.668	10207.61
866.989	10200.83
867.309	10117.9
867.63	10189.08
867.95	10088.29
868.27	10078.58
868.59	10089.65
868.91	10098.24
869.23	10040.16
869.55	10003.32
869.87	10115.41
870.19	10036.32
870.51	10006.26
870.83	9908.41
871.15	9910.22
871.469	10011.91
871.789	9982.08
872.109	9965.36
872.428	9841.97
872.748	9933.04
873.067	9894.63
873.386	9855.53
873.706	9920.39
874.025	9780.51
874.344	9797.68
874.663	9784.57
874.982	9792.26
875.301	9707.29
875.62	9695.54
875.939	9719.49
876.258	9719.94
876.577	9637.68
876.896	9627.74
877.214	9632.03
877.533	9670
877.852	9606.5
878.17	9687.85
878.489	9552.04
878.807	9637.23
879.125	9563.56
879.444	9597.91
879.762	9644.69
880.08	9488.76
880.398	9499.83
880.716	9536.44
881.034	9454.41
881.352	9468.65
881.67	9396.56
881.988	9553.62
882.306	9337.58
882.624	9411.25
882.941	9333.51
883.259	9308.2
883.577	9219.62
883.894	9291.93
884.212	9246.51
884.529	9276.34
884.846	9227.75
885.164	9223.01
885.481	9146.85
885.798	9228.66
886.115	9099.85
886.432	9086.06
886.75	9074.31
887.067	9076.57
887.383	9018.04
887.7	9001.54
888.017	8990.47
888.334	8929.45
888.651	8964.93
888.967	8887.2
889.284	8855.78
889.6	8882.22
889.917	8775.33
890.233	8823.69
890.55	8759.06
890.866	8770.81
891.182	8753.41
891.498	8710.48
891.815	8718.84
892.131	8659.63
892.447	8634.1
892.763	8590.48
893.079	8570.37
893.395	8561.78
893.71	8573.08
894.026	8525.17
894.342	8509.35
894.657	8459.41
894.973	8442.01
895.289	8425.51
895.604	8470.71
895.92	8355.23
896.235	8324.27
896.55	8350.03
896.865	8284.27
897.181	8238.85
897.496	8227.78
897.811	8245.63
898.126	8147.33
898.441	8189.81
898.756	8099.65
899.071	8059.19
899.386	8060.78
899.7	8080.66
900.015	7995.47
900.33	7904.4
900.644	7925.87
900.959	7950.5
901.273	7833.44
901.588	7856.26
901.902	7796.83
902.216	7849.03
902.531	7793.21
902.845	7733.55
903.159	7699.2
903.473	7739.88
903.787	7625.99
904.101	7587.12
904.415	7612.65
904.729	7582.37
905.042	7524.52
905.356	7501.24
905.67	7494.01
905.984	7453.79
906.297	7437.74
906.611	7401.36
906.924	7368.37
907.237	7360.68
907.551	7312.55
907.864	7306.22
908.177	7284.75
908.491	7283.4
908.804	7150.52
909.117	7157.52
909.43	7107.36
909.743	7103.06
910.056	7078.88
910.368	7045.21
910.681	7037.53
910.994	6990.97
911.307	6894.93
911.619	6953.69
911.932	6921.15
912.244	6889.96
912.557	6851.09
912.869	6852.9
913.181	6796.4
913.494	6755.05
913.806	6770.42
914.118	6689.74
914.43	6641.83
914.742	6674.37
915.054	6648.84
915.366	6636.41
915.678	6535.17
915.99	6547.82
916.302	6543.3
916.613	6553.02
916.925	6458.11
917.236	6437.99
917.548	6389.41
917.859	6404.1
918.171	6370.2
918.482	6357.09
918.794	6312.35
919.105	6293.59
919.416	6220.83
919.727	6286.36
920.038	6220.83
920.349	6163.65
920.66	6155.97
920.971	6116.87
921.282	6159.13
921.593	6085.46
921.903	6042.98
922.214	6026.03
922.525	5998.46
922.835	6000.04
923.146	5959.59
923.456	5943.09
923.767	5909.65
924.077	5931.57
924.387	5880.04
924.697	5872.13
925.008	5806.82
925.318	5812.02
925.628	5780.61
925.938	5768.18
926.248	5691.35
926.558	5715.3
926.867	5709.2
927.177	5652.93
927.487	5632.14
927.796	5596.66
928.106	5581.75
928.416	5589.43
928.725	5547.62
929.034	5524.57
929.344	5504.23
929.653	5491.35
929.962	5370.68
930.271	5450.45
930.581	5409.1
930.89	5331.36
931.199	5323.45
931.508	5331.81
931.817	5290.23
932.125	5308.98
932.434	5287.29
932.743	5230.79
933.051	5205.71
933.36	5170.23
933.669	5151.7
933.977	5133.4
934.286	5125.26
934.594	5106.28
934.902	5102.89
935.21	5039.61
935.519	5062.21
935.827	5034.64
936.135	5045.94
936.443	4940.63
936.751	4933.4
937.059	4904.7
937.367	4885.72
937.674	4873.97
937.982	4896.57
938.29	4851.82
938.597	4822.9
938.905	4800.3
939.213	4763.46
939.52	4764.82
939.827	4754.87
940.135	4739.28
940.442	4703.12
940.749	4693.18
941.056	4697.93
941.363	4650.47
941.67	4590.81
941.977	4595.78
942.284	4530.25
942.591	4558.5
942.898	4584.26
943.205	4530.47
943.511	4494.32
943.818	4481.44
944.125	4489.12
944.431	4486.41
944.738	4447.31
945.044	4421.1
945.35	4371.83
945.657	4342
945.963	4359.41
946.269	4294.32
946.575	4287.09
946.881	4291.16
947.187	4287.99
947.493	4309.69
947.799	4280.31
948.105	4268.56
948.41	4199.41
948.716	4205.96
949.022	4160.77
949.327	4193.08
949.633	4129.35
949.938	4144.72
950.244	4142.24
950.549	4090.94
950.854	4082.8
951.16	4057.49
951.465	4050.71
951.77	4022.69
952.075	3953.54
952.38	3959.64
952.685	3999.19
952.99	3911.96
953.294	3969.81
953.599	3914.9
953.904	3876.93
954.209	3899.08
954.513	3875.58
954.818	3839.42
955.122	3837.16
955.426	3845.07
955.731	3786.76
956.035	3752.64
956.339	3789.02
956.643	3786.31
956.948	3754.68
957.252	3703.83
957.556	3681.68
957.86	3675.13
958.163	3652.31
958.467	3676.26
958.771	3678.97
959.075	3615.47
959.378	3615.24
959.682	3606.2
959.985	3576.6
960.289	3541.35
960.592	3564.4
960.896	3548.13
961.199	3546.55
961.502	3549.71
961.805	3497.28
962.108	3482.14
962.411	3431.07
962.714	3452.99
963.017	3436.27
963.32	3448.02
963.623	3392.65
963.926	3376.38
964.228	3342.93
964.531	3379.77
964.833	3325.08
965.136	3302.94
965.438	3305.87
965.741	3304.07
966.043	3294.35
966.345	3261.35
966.648	3255.93
966.95	3259.32
967.252	3193.79
967.554	3198.98
967.856	3193.33
968.158	3153.11
968.46	3179.78
968.761	3185.65
969.063	3164.41
969.365	3147.91
969.666	3123.28
969.968	3126.9
970.269	3075.37
970.571	3068.59
970.872	3084.86
971.174	3037.41
971.475	3028.37
971.776	3057.29
972.077	3014.81
972.378	2971.42
972.679	2995.6
972.98	2933
973.281	2947.92
973.582	2928.48
973.883	2906.34
974.183	2905.66
974.484	2913.34
974.785	2878.09
975.085	2860.24
975.386	2888.48
975.686	2890.29
975.986	2825.89
976.287	2846.45
976.587	2799.45
976.887	2782.05
977.187	2796.28
977.487	2784.98
977.787	2771.42
978.087	2761.93
978.387	2740.24
978.687	2730.75
978.987	2703.18
979.286	2657.3
979.586	2691.43
979.885	2665.21
980.185	2668.6
980.484	2641.71
980.784	2639.68
981.083	2627.47
981.382	2633.35
981.682	2614.37
981.981	2609.62
982.28	2582.5
982.579	2574.82
982.878	2532.33
983.177	2545.44
983.475	2545.44
983.774	2538.21
984.073	2508.83
984.372	2483.3
984.67	2505.67
984.969	2508.83
985.267	2494.37
985.566	2521.04
985.864	2494.6
986.162	2444.65
986.461	2470.42
986.759	2398.1
987.057	2385.9
987.355	2396.07
987.653	2394.49
987.951	2372.56
988.249	2383.19
988.547	2357.2
988.844	2373.02
989.142	2332.34
989.44	2354.71
989.737	2320.81
990.035	2304.09
990.332	2295.05
990.63	2297.76
990.927	2296.18
991.224	2279.23
991.521	2238.56
991.819	2254.15
992.116	2258.9
992.413	2245.56
992.71	2229.07
993.006	2182.06
993.303	2208.05
993.6	2197.43
993.897	2189.07
994.193	2197.88
994.49	2156.53
994.787	2133.47
995.083	2131.67
995.379	2132.35
995.676	2132.12
995.972	2072.91
996.268	2107.71
996.565	2091.89
996.861	2081.27
997.157	2088.05
997.453	2070.65
997.749	2074.95
998.044	2014.83
998.34	2031.1
998.636	2012.57
998.932	2021.39
999.227	2022.29
999.523	1973.71
999.818	1955.63
1000.114	1984.1
1000.409	1961.28
1000.704	1936.87
1001	1948.17
1001.295	1935.29
1001.59	1961.73
1001.885	1904.33
1002.18	1897.77
1002.475	1876.98
1002.77	1908.85
1003.065	1854.39
1003.359	1846.93
1003.654	1858.23
1003.949	1835.4
1004.243	1860.26
1004.538	1849.87
1004.832	1799.02
1005.127	1811.45
1005.421	1793.14
1005.715	1776.87
1006.009	1789.76
1006.304	1780.04
1006.598	1726.25
1006.892	1746.59
1007.186	1739.36
1007.48	1742.07
1007.773	1690.1
1008.067	1697.1
1008.361	1683.54
1008.655	1673.6
1008.948	1676.54
1009.242	1666.37
1009.535	1659.59
1009.829	1649.42
1010.122	1632.02
1010.415	1638.35
1010.708	1637.22
1011.001	1630.44
1011.295	1596.54
1011.588	1584.56
1011.881	1598.35
1012.173	1576.88
1012.466	1578.24
1012.759	1569.2
1013.052	1543.89
1013.344	1509.76
1013.637	1541.63
1013.93	1522.64
1014.222	1540.72
1014.514	1465.47
1014.807	1498.46
1015.099	1474.96
1015.391	1488.97
1015.683	1482.87
1015.976	1488.29
1016.268	1458.01
1016.56	1418.24
1016.851	1439.03
1017.143	1422.31
1017.435	1426.15
1017.727	1436.09
1018.018	1424.34
1018.31	1387.96
1018.602	1408.07
1018.893	1399.26
1019.185	1387.28
1019.476	1340.95
1019.767	1365.59
1020.058	1344.57
1020.35	1345.02
1020.641	1338.02
1020.932	1352.48
1021.223	1322.65
1021.514	1313.61
1021.804	1288.98
1022.095	1263.44
1022.386	1276.55
1022.677	1281.07
1022.967	1258.7
1023.258	1242.42
1023.548	1267.74
1023.839	1250.33
1024.129	1245.36
1024.419	1240.84
1024.709	1217.79
1025	1206.27
1025.29	1199.26
1025.58	1196.55
1025.87	1166.72
1026.16	1165.36
1026.449	1170.79
1026.739	1176.44
1027.029	1163.33
1027.319	1146.83
1027.608	1156.78
1027.898	1143.44
1028.187	1102.09
1028.477	1117.23
1028.766	1102.77
1029.055	1126.04
1029.344	1103.9
1029.634	1095.31
1029.923	1078.59
1030.212	1073.62
1030.501	1067.29
1030.79	1084.91
1031.078	1068.42
1031.367	1038.81
1031.656	1030
1031.945	1039.49
1032.233	1044.24
1032.522	1042.66
1032.81	999.72
1033.099	1037.91
1033.387	1019.83
1033.675	1013.73
1033.963	1007.63
1034.251	980.28
1034.54	978.93
1034.828	977.8
1035.116	985.71
1035.403	971.25
1035.691	983.67
1035.979	971.02
1036.267	948.65
1036.554	950.91
1036.842	941.87
1037.129	939.61
1037.417	909.1
1037.704	900.29
1037.992	900.97
1038.279	914.75
1038.566	912.94
1038.853	912.94
1039.14	912.94
