Data from hue_330_FLMS001491_48.txt Node
Date: Mon Feb 06 15:45:27 GMT 2017
User: dcchb
Spectrometer: FLMS00149
Trigger mode: 0
Integration Time (sec): 2.000000E-2
Scans to average: 10
Electric dark correction enabled: true
Nonlinearity correction enabled: false
Boxcar width: 0
XAxis mode: Wavelengths
Number of Pixels in Spectrum: 2048
>>>>>Begin Spectral Data<<<<<
341.393	-15.82
341.776	-15.82
342.16	-15.82
342.543	-76.61
342.927	-51.52
343.31	-67.12
343.693	-68.25
344.077	-55.37
344.46	-57.85
344.843	-56.5
345.226	-47.46
345.61	-24.18
345.993	-30.28
346.376	-6.33
346.759	19.89
347.142	22.82
347.525	39.32
347.908	57.4
348.291	70.73
348.674	96.95
349.057	106.21
349.44	112.31
349.823	147.11
350.206	141.01
350.588	193.22
350.971	197.73
351.354	218.75
351.737	209.26
352.119	232.08
352.502	258.3
352.884	275.47
353.267	267.56
353.65	273.21
354.032	290.39
354.414	310.05
354.797	285.64
355.179	296.72
355.562	311.18
355.944	314.57
356.326	298.75
356.709	339.88
357.091	315.25
357.473	340.33
357.855	323.16
358.238	334
358.62	346.66
359.002	327.22
359.384	350.27
359.766	349.37
360.148	315.7
360.53	317.28
360.912	337.39
361.294	320.67
361.676	325.64
362.057	326.32
362.439	322.7
362.821	328.13
363.203	304.85
363.584	332.65
363.966	322.03
364.348	303.27
364.729	338.3
365.111	314.79
365.493	321.12
365.874	308.69
366.256	320.9
366.637	299.88
367.019	302.36
367.4	293.78
367.781	318.18
368.163	306.88
368.544	319.31
368.925	304.62
369.306	312.99
369.688	308.24
370.069	289.48
370.45	315.25
370.831	313.89
371.212	285.42
371.593	306.21
371.974	303.72
372.355	308.01
372.736	307.11
373.117	334.23
373.498	297.39
373.879	310.27
374.26	311.63
374.641	290.39
375.021	315.02
375.402	302.82
375.783	300.11
376.163	322.03
376.544	308.24
376.925	323.38
377.305	310.5
377.686	304.85
378.066	332.42
378.447	317.05
378.827	308.69
379.208	328.35
379.588	321.8
379.968	316.38
380.349	312.08
380.729	319.99
381.109	337.17
381.489	310.27
381.87	319.31
382.25	325.87
382.63	334.45
383.01	307.11
383.39	338.3
383.77	324.74
384.15	325.19
384.53	319.77
384.91	326.77
385.29	345.98
385.67	334.68
386.049	340.56
386.429	360.67
386.809	346.88
387.189	341.46
387.568	342.14
387.948	332.87
388.328	325.42
388.707	365.64
389.087	343.04
389.466	343.04
389.846	333.55
390.225	357.28
390.605	340.33
390.984	337.84
391.363	354.79
391.743	350.5
392.122	362.7
392.501	352.99
392.881	355.24
393.26	378.07
393.639	348.47
394.018	348.47
394.397	379.43
394.776	374.45
395.155	383.27
395.534	374.68
395.913	373.78
396.292	403.15
396.671	359.99
397.05	387.79
397.429	390.27
397.808	370.16
398.186	370.16
398.565	369.03
398.944	396.37
399.323	358.63
399.701	382.14
400.08	371.29
400.458	399.99
400.837	399.09
401.215	371.74
401.594	381.01
401.972	399.54
402.351	424.4
402.729	409.03
403.107	417.39
403.486	414
403.864	418.75
404.242	407.45
404.62	409.03
404.999	411.51
405.377	434.79
405.755	415.58
406.133	415.13
406.511	431.18
406.889	428.92
407.267	443.83
407.645	437.28
408.023	452.42
408.401	443.15
408.779	485.18
409.156	450.84
409.534	446.54
409.912	434.34
410.29	452.87
410.667	457.62
411.045	476.82
411.422	491.51
411.8	498.07
412.178	479.76
412.555	507.11
412.933	494.9
413.31	484.51
413.687	514.56
414.065	491.51
414.442	532.42
414.819	527.9
415.197	526.31
415.574	531.29
415.951	523.15
416.328	552.3
416.705	547.1
417.082	536.48
417.46	556.14
417.837	581.45
418.214	566.54
418.591	575.58
418.967	556.14
419.344	575.8
419.721	595.01
420.098	602.7
420.475	605.41
420.852	614.45
421.228	594.79
421.605	605.41
421.982	606.31
422.358	649.7
422.735	630.49
423.111	644.28
423.488	634.11
423.864	660.1
424.241	667.33
424.617	655.12
424.994	667.55
425.37	696.7
425.746	648.34
426.123	692.86
426.499	661
426.875	691.06
427.251	716.82
427.627	694.9
428.003	729.02
428.379	707.78
428.756	721.56
429.132	718.17
429.507	744.16
429.883	756.14
430.259	761.56
430.635	758.17
431.011	777.15
431.387	792.75
431.763	761.34
432.138	793.88
432.514	801.33
432.89	793.43
433.265	832.29
433.641	830.26
434.016	809.92
434.392	855.57
434.767	864.16
435.143	857.6
435.518	857.83
435.894	873.65
436.269	909.81
436.644	876.36
437.02	878.17
437.395	901.22
437.77	915
438.145	945.74
438.52	919.75
438.895	956.81
439.271	932.18
439.646	977.6
440.021	969.47
440.395	1001.1
440.77	969.92
441.145	959.07
441.52	1002.46
441.895	992.97
442.27	985.06
442.645	1004.95
443.019	1007.88
443.394	1023.48
443.769	1001.1
444.143	1003.82
444.518	1026.64
444.892	1028.67
445.267	1023.25
445.641	1066.19
446.016	1035.68
446.39	1056.92
446.764	1038.16
447.139	1024.83
447.513	1049.46
447.887	1049.01
448.262	1051.27
448.636	1066.86
449.01	1076.13
449.384	1069.35
449.758	1103.25
450.132	1101.44
450.506	1115.68
450.88	1067.77
451.254	1101.89
451.628	1126.3
452.002	1107.09
452.376	1130.82
452.75	1105.96
453.123	1111.84
453.497	1152.96
453.871	1164.94
454.244	1155.9
454.618	1161.78
454.992	1186.86
455.365	1176.01
455.739	1206.07
456.112	1194.54
456.486	1197.48
456.859	1260.76
457.232	1243.36
457.606	1242
457.979	1217.82
458.352	1266.86
458.725	1270.25
459.099	1279.29
459.472	1289.01
459.845	1302.79
460.218	1312.96
460.591	1320.19
460.964	1332.39
461.337	1329.91
461.71	1346.41
462.083	1369.23
462.456	1377.82
462.829	1370.13
463.201	1379.17
463.574	1437.93
463.947	1406.06
464.32	1434.99
464.692	1464.59
465.065	1451.26
465.438	1457.59
465.81	1475.89
466.183	1494.2
466.555	1529
466.928	1562.22
467.3	1512.28
467.672	1540.75
468.045	1594.53
468.417	1610.58
468.789	1577.81
469.161	1585.27
469.534	1603.8
469.906	1639.73
470.278	1632.73
470.65	1672.27
471.022	1714.53
471.394	1726.96
471.766	1717.92
472.138	1747.07
472.51	1795.88
472.882	1782.1
473.253	1794.3
473.625	1797.47
473.997	1857.58
474.369	1844.02
474.74	1886.05
475.112	1863.91
475.484	1921.31
475.855	1943.9
476.227	1951.36
476.598	2031.81
476.97	2026.61
477.341	2077.01
477.713	2077.23
478.084	2102.09
478.455	2120.62
478.827	2156.1
479.198	2167.4
479.569	2191.81
479.94	2250.79
480.311	2245.82
480.682	2318.36
481.053	2355.19
481.424	2356.32
481.795	2397
482.166	2403.55
482.537	2466.83
482.908	2509.31
483.279	2525.58
483.65	2564
484.021	2575.3
484.391	2592.25
484.762	2623.43
485.133	2631.8
485.503	2656.2
485.874	2738.23
486.244	2759.7
486.615	2773.49
486.985	2773.94
487.356	2805.58
487.726	2855.29
488.097	2893.71
488.467	2906.82
488.837	2927.38
489.207	3003.76
489.578	2997.66
489.948	3065.23
490.318	3118.56
490.688	3106.13
491.058	3121.95
491.428	3173.25
491.798	3186.36
492.168	3249.63
492.538	3220.48
492.908	3295.96
493.278	3346.8
493.648	3305
494.017	3381.15
494.387	3392.45
494.757	3461.38
495.126	3457.54
495.496	3436.97
495.866	3504.54
496.235	3476.07
496.605	3493.24
496.974	3530.98
497.344	3552.67
497.713	3584.54
498.082	3608.49
498.452	3662.28
498.821	3702.95
499.19	3682.84
499.559	3694.82
499.928	3675.16
500.298	3700.92
500.667	3720.35
501.036	3746.57
501.405	3755.83
501.774	3746.79
502.143	3767.81
502.512	3787.92
502.88	3858.88
503.249	3829.05
503.618	3860.46
503.987	3844.64
504.356	3910.86
504.724	3929.16
505.093	3935.94
505.462	3929.61
505.83	3949.73
506.199	3996.96
506.567	4024.53
506.936	4000.8
507.304	4043.96
507.672	4055.49
508.041	4057.97
508.409	4094.36
508.777	4118.54
509.145	4149.95
509.514	4079.67
509.882	4155.14
510.25	4170.74
510.618	4145.43
510.986	4182.94
511.354	4208.48
511.722	4191.3
512.09	4246.44
512.458	4228.59
512.826	4255.26
513.193	4316.72
513.561	4333.22
513.929	4273.56
514.297	4336.16
514.664	4377.29
515.032	4326.67
515.4	4379.09
515.767	4358.53
516.135	4351.75
516.502	4354.01
516.869	4444.85
517.237	4427.68
517.604	4419.09
517.972	4459.09
518.339	4500.22
518.706	4462.03
519.073	4475.59
519.44	4512.65
519.808	4517.62
520.175	4528.92
520.542	4574.12
520.909	4591.74
521.276	4560.11
521.643	4622.03
522.009	4609.82
522.376	4626.32
522.743	4698.41
523.11	4681.68
523.477	4707.22
523.843	4682.59
524.21	4743.15
524.577	4779.76
524.943	4836.48
525.31	4737.05
525.676	4845.97
526.043	4880.55
526.409	4859.31
526.776	4932.75
527.142	4889.59
527.508	4958.74
527.874	4982.92
528.241	5011.85
528.607	4985.63
528.973	5066.53
529.339	5083.26
529.705	5045.29
530.071	5130.26
530.437	5132.29
530.803	5194.44
531.169	5212.07
531.535	5217.94
531.901	5203.48
532.267	5258.62
532.632	5248
532.998	5257.04
533.364	5333.42
533.73	5308.56
534.095	5409.35
534.461	5407.54
534.826	5476.92
535.192	5480.53
535.557	5523.92
535.923	5489.57
536.288	5471.72
536.653	5492.96
537.019	5531.15
537.384	5573.19
537.749	5568.22
538.114	5592.17
538.479	5611.83
538.845	5573.19
539.21	5649.12
539.575	5679.62
539.94	5665.39
540.305	5693.41
540.67	5723.92
541.034	5780.41
541.399	5779.06
541.764	5773.86
542.129	5838.49
542.494	5876.46
542.858	5921.88
543.223	5903.8
543.587	5969.79
543.952	5951.03
544.316	5984.25
544.681	5948.09
545.045	6013.85
545.41	6088.2
545.774	6039.39
546.138	6088.88
546.503	6084.13
546.867	6082.1
547.231	6181.53
547.595	6150.8
547.959	6128.2
548.324	6255.65
548.688	6220.4
549.052	6213.85
549.416	6236.9
549.779	6262.21
550.143	6322.32
550.507	6336.33
550.871	6341.75
551.235	6412.71
551.599	6409.55
551.962	6434.41
552.326	6435.99
552.689	6470.34
553.053	6486.16
553.417	6497
553.78	6609.09
554.143	6539.04
554.507	6557.12
554.87	6550.11
555.234	6682.76
555.597	6617.45
555.96	6573.84
556.323	6663.33
556.686	6664.68
557.05	6707.39
557.413	6723.21
557.776	6689.32
558.139	6773.16
558.502	6765.92
558.865	6757.34
559.228	6821.06
559.59	6796.21
559.953	6813.38
560.316	6912.13
560.679	6865.58
561.041	7004.34
561.404	7032.13
561.767	7046.14
562.129	7003.66
562.492	7062.87
562.854	7000.72
563.217	7031.23
563.579	7074.84
563.941	7172.47
564.304	7146.48
564.666	7212.24
565.028	7196.87
565.39	7199.13
565.753	7240.71
566.115	7294.05
566.477	7241.62
566.839	7306.25
567.201	7365.23
567.563	7331.33
567.925	7363.87
568.287	7334.27
568.648	7387.15
569.01	7437.32
569.372	7496.07
569.734	7608.61
570.095	7580.59
570.457	7586.69
570.819	7680.93
571.18	7736.29
571.542	7666.01
571.903	7754.37
572.265	7813.13
572.626	7834.37
572.987	7926.57
573.349	7870.3
573.71	7934.25
574.071	8007.47
574.432	8043.63
574.794	8088.37
575.155	8141.03
575.516	8113.91
575.877	8202.04
576.238	8319.56
576.599	8357.97
576.96	8391.87
577.32	8507.35
577.681	8628.02
578.042	8680.9
578.403	8746.21
578.763	8836.83
579.124	8894
579.485	9054
579.845	9121.34
580.206	9201.11
580.566	9254.22
580.927	9427.55
581.287	9605.85
581.648	9655.79
582.008	9836.58
582.368	9946.63
582.728	10073.41
583.089	10238.6
583.449	10314.98
583.809	10549.55
584.169	10670.45
584.529	10852.6
584.889	11128.29
585.249	11205.81
585.609	11397.89
585.969	11561.96
586.329	11810.99
586.688	12078.78
587.048	12221.37
587.408	12442.16
587.768	12670.18
588.127	12859.1
588.487	12988.13
588.846	13357.16
589.206	13583.15
589.565	13700.66
589.925	14122.57
590.284	14301.09
590.643	14595.77
591.003	14878.03
591.362	15134.97
591.721	15339.03
592.08	15600.27
592.44	15974.5
592.799	16225.79
593.158	16437.76
593.517	16783.06
593.876	17123.39
594.235	17332.88
594.593	17609.25
594.952	17960.66
595.311	18228
595.67	18429.12
596.029	18888.09
596.387	19056.67
596.746	19358.14
597.104	19628.41
597.463	19871.34
597.822	20253.25
598.18	20420.93
598.538	20648.72
598.897	21094.36
599.255	21233.34
599.613	21715.36
599.972	21930.27
600.33	22269.47
600.688	22456.81
601.046	22859.06
601.404	23119.84
601.762	23370.23
602.12	23778.13
602.478	24001.63
602.836	24246.82
603.194	24409.98
603.552	24786.69
603.91	24926.8
604.268	25266.45
604.625	25570.18
604.983	25784.63
605.341	26015.81
605.698	26269.82
606.056	26611.5
606.413	26774.44
606.771	27091.72
607.128	27292.62
607.485	27394.99
607.843	27707.07
608.2	28030.22
608.557	28295.98
608.914	28403.77
609.272	28676.53
609.629	28966.47
609.986	29114.94
610.343	29154.94
610.7	29764.42
611.057	29732.1
611.414	30007.35
611.771	30154.91
612.127	30415.92
612.484	30544.06
612.841	30919.86
613.198	30941.56
613.554	31069.92
613.911	31414.09
614.267	31453.41
614.624	31530.24
614.98	31860.41
615.337	32027.63
615.693	32166.16
616.05	32323.67
616.406	32695.86
616.762	32595.53
617.118	32682.53
617.475	32877.55
617.831	33134.27
618.187	33310.54
618.543	33439.8
618.899	33692
619.255	33776.29
619.611	33866.68
619.967	33938.99
620.323	34202.26
620.678	34181.02
621.034	34310.51
621.39	34496.49
621.746	34403.84
622.101	34909.59
622.457	34685.87
622.812	34852.64
623.168	34962.02
623.523	35107.33
623.879	35164.27
624.234	35136.03
624.589	35396.58
624.945	35395.68
625.3	35485.62
625.655	35708.44
626.01	35772.39
626.365	35794.31
626.72	35675.45
627.075	35858.72
627.43	35896.68
627.785	35940.52
628.14	36066.17
628.495	36032.72
628.85	36118.37
629.205	35988.66
629.559	36355.2
629.914	36263.23
630.269	36295.09
630.623	36272.04
630.978	36184.81
631.332	36453.05
631.687	36553.39
632.041	36497.57
632.396	36633.61
632.75	36474.97
633.104	36610.34
633.459	36319.5
633.813	36617.12
634.167	36524.24
634.521	36667.96
634.875	36683.78
635.229	36572.37
635.583	36464.35
635.937	36488.08
636.291	36513.39
636.645	36502.32
636.999	36594.97
637.352	36632.94
637.706	36430.91
638.06	36441.53
638.413	36513.39
638.767	36491.02
639.121	36548.42
639.474	36495.54
639.828	36408.99
640.181	36441.3
640.534	36482.43
640.888	36395.2
641.241	36368.31
641.594	36303
641.947	36505.93
642.301	36322.66
642.654	36464.8
643.007	36447.18
643.36	36410.57
643.713	36444.69
644.066	36436.33
644.419	36352.49
644.771	36220.74
645.124	35659.85
645.477	35724.26
645.83	35572.17
646.182	35380.54
646.535	35355.91
646.888	35457.37
647.24	35135.12
647.593	35487.65
647.945	35254.67
648.298	35290.37
648.65	35037.5
649.002	35097.61
649.355	35284.04
649.707	35201.79
650.059	35292.63
650.411	35850.36
650.763	35705.73
651.115	36112.72
651.467	36137.58
651.819	36043.35
652.171	35864.14
652.523	35987.98
652.875	36039.28
653.227	35798.83
653.578	36100.75
653.93	35943.91
654.282	35783.92
654.633	35750.02
654.985	35700.76
655.337	35908.43
655.688	35898.49
656.039	35921.99
656.391	35536.24
656.742	35588.89
657.094	35778.04
657.445	35804.93
657.796	35739.4
658.147	35713.86
658.498	35633.87
658.849	35794.54
659.2	35674.32
659.551	35597.26
659.902	35735.11
660.253	35673.19
660.604	35716.12
660.955	35557.71
661.306	35638.61
661.656	35709.8
662.007	35695.78
662.358	35586.41
662.708	35510.48
663.059	35601.1
663.409	35399.52
663.76	35635.9
664.11	35696.91
664.461	35553.42
664.811	35586.18
665.161	35676.58
665.511	35496.02
665.862	35592.74
666.212	35769.23
666.562	35682.68
666.912	35640.87
667.262	35438.16
667.612	35537.37
667.962	35573.08
668.312	35485.17
668.662	35630.02
669.011	35497.15
669.361	35505.96
669.711	35548.67
670.06	35354.78
670.41	35407.88
670.76	35362.01
671.109	35491.27
671.459	35440.2
671.808	35295.34
672.157	35486.3
672.507	35335.57
672.856	35375.79
673.205	35347.32
673.554	35367.88
673.904	35265.51
674.253	35487.88
674.602	35253.08
674.951	34904.17
675.3	34786.2
675.649	35224.38
675.998	35286.76
676.346	35138.06
676.695	35275.46
677.044	35108.23
677.393	35056.71
677.741	35128.12
678.09	35092.86
678.438	34948.69
678.787	35175.57
679.135	35119.3
679.484	34777.16
679.832	35034.56
680.181	34694.91
680.529	34817.62
680.877	34764.51
681.225	34796.15
681.573	34948.69
681.922	34758.41
682.27	34538.75
682.618	34590.5
682.966	34544.4
683.314	34662.82
683.661	34504.63
684.009	34349.61
684.357	34210.63
684.705	34268.03
685.053	34179.89
685.4	34205.65
685.748	34134.24
686.095	34055.6
686.443	33951.2
686.79	33937.41
687.138	34001.14
687.485	33930.86
687.832	33826
688.18	33859.67
688.527	33578.1
688.874	33704.42
689.221	33636.63
689.568	33568.61
689.915	33430.31
690.262	33357.09
690.609	33370.2
690.956	33325.45
691.303	33263.76
691.65	33115.51
691.997	33143.76
692.344	32992.35
692.69	32802.53
693.037	32984.44
693.383	32600.72
693.73	32911.68
694.077	32587.17
694.423	32419.26
694.769	32393.5
695.116	32462.42
695.462	32383.1
695.808	32281.64
696.155	32282.77
696.501	32045.71
696.847	32023.79
697.193	31859.5
697.539	31920.29
697.885	31692.5
698.231	31633.97
698.577	31674.2
698.923	31532.96
699.269	31426.74
699.614	31247.54
699.96	31278.05
700.306	31305.62
700.651	31136.13
700.997	31042.12
701.342	31053.87
701.688	30843.48
702.033	30880.77
702.379	30798.51
702.724	30595.81
703.069	30672.64
703.415	30534.56
703.76	30461.8
704.105	30501.57
704.45	30396.26
704.795	30247.11
705.14	30139.09
705.485	30037.18
705.83	29984.75
706.175	30066.33
706.52	29940.91
706.865	29815.49
707.209	29748.82
707.554	29646.23
707.899	29771.42
708.243	29560.58
708.588	29634.93
708.932	29389.51
709.277	29245.11
709.621	29441.03
709.966	29199.23
710.31	29185.22
710.654	28907.94
710.998	28993.59
711.342	29057.09
711.687	28929.63
712.031	28860.26
712.375	28729.19
712.719	28835.4
713.063	28757.89
713.407	28858.22
713.75	28610.32
714.094	28622.07
714.438	28491.68
714.782	28515.18
715.125	28338.69
715.469	28339.37
715.812	28248.52
716.156	28074.74
716.499	28198.13
716.843	28162.88
717.186	28040.39
717.53	28159.26
717.873	27983.22
718.216	27966.95
718.559	27884.92
718.902	27732.38
719.246	27755.65
719.589	27691.02
719.932	27578.71
720.275	27648.76
720.617	27619.39
720.96	27546.17
721.303	27557.69
721.646	27453.97
721.989	27279.73
722.331	27462.1
722.674	27285.61
723.016	27236.35
723.359	27239.96
723.701	27217.82
724.044	26956.81
724.386	26931.5
724.729	26974.66
725.071	26967.88
725.413	27050.81
725.755	26952.74
726.097	26842.23
726.439	26710.71
726.782	26768.34
727.124	26849.01
727.465	26571.5
727.807	26649.02
728.149	26564.5
728.491	26466.65
728.833	26491.73
729.175	26365.41
729.516	26410.38
729.858	26343.94
730.199	26399.98
730.541	26325.18
730.882	26245.86
731.224	26338.29
731.565	26224.62
731.906	26155.47
732.248	26202.7
732.589	26124.74
732.93	25933.78
733.271	25907.34
733.612	26065.3
733.953	26068.69
734.294	25898.98
734.635	25772.43
734.976	25905.31
735.317	25720
735.658	25726.1
735.999	25696.5
736.339	25644.52
736.68	25836.38
737.021	25632.55
737.361	25474.13
737.702	25642.04
738.042	25506.45
738.383	25465.55
738.723	25462.61
739.063	25354.14
739.404	25399.11
739.744	25335.83
740.084	25207.02
740.424	25320.24
740.764	25199.56
741.104	25257.41
741.444	25118.21
741.784	25119.11
742.124	25115.27
742.464	25090.19
742.804	25058.32
743.143	24909.4
743.483	24927.25
743.823	24832.34
744.162	24886.58
744.502	24762.06
744.841	24827.37
745.181	24896.52
745.52	24611.33
745.86	24770.42
746.199	24696.75
746.538	24556.64
746.877	24582.4
747.216	24562.74
747.556	24571.33
747.895	24478.23
748.234	24405.01
748.573	24458.79
748.911	24386.25
749.25	24324.78
749.589	24221.51
749.928	24273.26
750.267	24252.7
750.605	24224.67
750.944	24141.96
751.283	23984.91
751.621	24122.98
751.96	23939.03
752.298	23984
752.636	23963.21
752.975	23687.74
753.313	23658.13
753.651	23813.16
753.989	23661.3
754.327	23602.54
754.666	23559.83
755.004	23600.96
755.342	23462.66
755.679	23470.57
756.017	23317.8
756.355	23509.66
756.693	23289.11
757.031	23323.23
757.368	23156.91
757.706	23173.4
758.044	23160.52
758.381	23126.85
758.719	22950.58
759.056	22972.5
759.394	22875.33
759.731	22650.7
760.068	22744.49
760.405	22707.65
760.743	22620.87
761.08	22582.01
761.417	22457.94
761.754	22530.48
762.091	22411.84
762.428	22383.82
762.765	22156.93
763.102	22203.03
763.438	22166.42
763.775	22090.72
764.112	22049.36
764.449	21976.37
764.785	21888.92
765.122	21759.43
765.458	21645.98
765.795	21614.57
766.131	21684.4
766.467	21503.62
766.804	21494.35
767.14	21390.85
767.476	21347.01
767.812	21255.94
768.148	21174.13
768.485	21104.76
768.821	20945.66
769.157	21090.52
769.492	20956.51
769.828	20915.61
770.164	20682.17
770.5	20637.2
770.836	20695.05
771.171	20564.66
771.507	20525.11
771.842	20386.58
772.178	20444.89
772.513	20274.5
772.849	20271.11
773.184	20111.56
773.519	20117.44
773.855	20024.33
774.19	19935.75
774.525	19949.98
774.86	19833.38
775.195	19738.46
775.53	19647.62
775.865	19632.03
776.2	19465.48
776.535	19435.42
776.87	19343.67
777.205	19328.53
777.539	19154.07
777.874	19310.9
778.209	19122.21
778.543	19091.02
778.878	18907.98
779.212	18914.08
779.547	18792.27
779.881	18869.79
780.215	18673.18
780.55	18709.79
780.884	18554.31
781.218	18499.4
781.552	18497.59
781.886	18358.16
782.22	18265.51
782.554	18310.25
782.888	18142.35
783.222	18111.39
783.556	17926.31
783.889	17968.57
784.223	17810.15
784.557	17800.21
784.89	17772.41
785.224	17672.08
785.557	17605.19
785.891	17612.87
786.224	17531.52
786.558	17465.98
786.891	17322.03
787.224	17360.67
787.557	17243.39
787.891	17172.66
788.224	17137.63
788.557	17084.97
788.89	17083.62
789.223	17060.34
789.556	16817.41
789.888	16855.83
790.221	16826.9
790.554	16652.22
790.887	16652.9
791.219	16653.8
791.552	16658.77
791.884	16451.09
792.217	16482.73
792.549	16458.1
792.882	16247.93
793.214	16190.31
793.546	16285.22
793.879	16207.94
794.211	16082.51
794.543	16114.83
794.875	16014.72
795.207	16032.35
795.539	15953.7
795.871	15981.73
796.203	15771.34
796.535	15794.84
796.867	15692.24
797.198	15660.15
797.53	15561.85
797.862	15548.74
798.193	15539.48
798.525	15482.53
798.856	15446.6
799.188	15283.89
799.519	15227.4
799.85	15240.73
800.182	15184.01
800.513	15174.29
800.844	15072.37
801.175	15045.25
801.506	15119.83
801.837	14941.08
802.168	14929.55
802.499	14863.79
802.83	14838.71
803.161	14751.25
803.491	14789.44
803.822	14742.44
804.153	14630.8
804.483	14527.98
804.814	14531.37
805.145	14459.05
805.475	14508.55
805.805	14454.08
806.136	14384.71
806.466	14450.02
806.796	14390.36
807.126	14209.12
807.457	14145.16
807.787	14198.27
808.117	14152.62
808.447	14197.14
808.777	14092.06
809.107	14048.67
809.436	14073.75
809.766	14038.73
810.096	13966.86
810.426	13840.31
810.755	13862.46
811.085	13797.15
811.414	13784.27
811.744	13706.98
812.073	13659.75
812.403	13731.16
812.732	13554.9
813.061	13580.21
813.39	13516.25
813.719	13491.85
814.049	13537.72
814.378	13533.88
814.707	13439.42
815.036	13358.29
815.365	13314.45
815.693	13262.93
816.022	13297.73
816.351	13204.62
816.68	13195.59
817.008	13170.73
817.337	13053.67
817.665	13023.61
817.994	13068.58
818.322	13003.27
818.651	12971.86
818.979	12911.3
819.307	13036.04
819.636	12893.45
819.964	12804.86
820.292	12955.59
820.62	12820.23
820.948	12757.86
821.276	12819.1
821.604	12844.41
821.932	12785.65
822.259	12813.67
822.587	12777.29
822.915	12775.94
823.243	12806.44
823.57	12764.86
823.898	12828.59
824.225	12713.34
824.553	12711.98
824.88	12769.16
825.207	12787.46
825.535	12693.68
825.862	12713.11
826.189	12617.07
826.516	12723.96
826.843	12809.38
827.17	12734.81
827.497	12804.64
827.824	12709.27
828.151	12741.81
828.478	12695.71
828.805	12746.56
829.131	12779.55
829.458	12626.56
829.785	12629.5
830.111	12639.89
830.438	12695.71
830.764	12700.91
831.09	12747.46
831.417	12582.72
831.743	12653.23
832.069	12645.32
832.395	12578.2
832.722	12647.58
833.048	12646.9
833.374	12686.67
833.7	12562.38
834.026	12601.25
834.351	12582.04
834.677	12544.53
835.003	12556.73
835.329	12616.39
835.654	12564.19
835.98	12459.11
836.306	12531.42
836.631	12385.66
836.956	12478.77
837.282	12498.2
837.607	12500.01
837.932	12368.04
838.258	12362.16
838.583	12370.75
838.908	12257.98
839.233	12389.28
839.558	12260.02
839.883	12184.76
840.208	12212.33
840.533	12199
840.858	12144.54
841.182	12260.92
841.507	12192.45
841.832	12074.94
842.156	12085.33
842.481	12080.13
842.805	11970.98
843.13	12001.49
843.454	12014.6
843.778	11962.62
844.103	11955.62
844.427	11946.13
844.751	11869.07
845.075	11848.73
845.399	11806.7
845.723	11711.78
846.047	11772.57
846.371	11691.9
846.695	11705.91
847.019	11526.02
847.343	11552.01
847.666	11495.74
847.99	11399.93
848.313	11422.75
848.637	11289.42
848.96	11374.16
849.284	11316.09
849.607	11179.59
849.931	11154.96
850.254	11130.33
850.577	11034.29
850.9	10992.03
851.223	10970.78
851.546	10874.52
851.869	10926.72
852.192	10841.97
852.515	10849.66
852.838	10737.8
853.161	10742.99
853.483	10706.16
853.806	10651.02
854.129	10646.27
854.451	10623.68
854.774	10549.78
855.096	10526.28
855.419	10514.53
855.741	10499.84
856.063	10341.42
856.385	10352.27
856.708	10308.43
857.03	10290.8
857.352	10254.19
857.674	10230.01
857.996	10208.32
858.318	10169.22
858.64	10193.4
858.961	10118.83
859.283	10137.13
859.605	10087.87
859.926	10072.05
860.248	10017.82
860.57	9987.31
860.891	9981.21
861.212	9917.93
861.534	9983.24
861.855	9988.44
862.176	9871.6
862.498	9835
862.819	9905.05
863.14	9855.11
863.461	9870.93
863.782	9787.09
864.103	9731.72
864.424	9716.81
864.745	9728.78
865.065	9643.81
865.386	9698.28
865.707	9744.83
866.027	9706.41
866.348	9623.7
866.668	9600.43
866.989	9542.12
867.309	9535.57
867.63	9523.14
867.95	9561.33
868.27	9475.46
868.59	9521.56
868.91	9576.7
869.23	9505.51
869.55	9473.65
869.87	9454.89
870.19	9470.26
870.51	9428.23
870.83	9453.76
871.15	9348.45
871.469	9345.29
871.789	9468.23
872.109	9406.98
872.428	9367.89
872.748	9304.39
873.067	9327.44
873.386	9333.54
873.706	9337.38
874.025	9293.99
874.344	9227.78
874.663	9282.47
874.982	9261
875.301	9230.04
875.62	9211.28
875.939	9182.13
876.258	9169.7
876.577	9155.01
876.896	9183.71
877.214	9086.77
877.533	9095.58
877.852	9111.85
878.17	9108.24
878.489	9088.35
878.807	9046.09
879.125	9060.78
879.444	9025.75
879.762	9021.01
880.08	8992.76
880.398	8968.35
880.716	8921.8
881.034	8905.53
881.352	8893.78
881.67	8913.89
881.988	8860.78
882.306	8859.43
882.624	8867.34
882.941	8792.31
883.259	8796.38
883.577	8744.4
883.894	8757.51
884.212	8726.78
884.529	8778.75
884.846	8663.28
885.164	8671.18
885.481	8684.52
885.798	8683.39
886.115	8569.72
886.432	8604.29
886.75	8616.95
887.067	8589.83
887.383	8553.9
887.7	8540.11
888.017	8492.43
888.334	8477.97
888.651	8427.12
888.967	8498.76
889.284	8398.42
889.6	8477.97
889.917	8297.86
890.233	8381.47
890.55	8331.08
890.866	8279.1
891.182	8281.82
891.498	8218.54
891.815	8197.98
892.131	8205.89
892.447	8169.95
892.763	8140.58
893.079	8171.76
893.395	8123.4
893.71	8094.25
894.026	8080.92
894.342	7994.14
894.657	7957.3
894.973	7924.54
895.289	7964.99
895.604	7953.24
895.92	7943.29
896.235	7839.79
896.55	7875.27
896.865	7855.84
897.181	7827.36
897.496	7801.83
897.811	7775.84
898.126	7686.8
898.441	7682.06
898.756	7680.02
899.071	7626.01
899.386	7610.87
899.7	7567.71
900.015	7492.01
900.33	7460.59
900.644	7434.61
900.959	7494.49
901.273	7467.37
901.588	7382.86
901.902	7374.27
902.216	7359.58
902.531	7367.49
902.845	7310.77
903.159	7271.67
903.473	7214.5
903.787	7253.82
904.101	7192.81
904.415	7263.31
904.729	7163.65
905.042	7102.19
905.356	7118.91
905.67	7080.94
905.984	7100.15
906.297	7026.48
906.611	6966.82
906.924	6954.62
907.237	7009.76
907.551	6966.37
907.864	6915.3
908.177	6847.73
908.491	6886.82
908.804	6835.07
909.117	6737.68
909.43	6766.38
909.743	6708.3
910.056	6731.35
910.368	6669.88
910.681	6687.73
910.994	6644.57
911.307	6637.57
911.619	6552.82
911.932	6578.13
912.244	6500.39
912.557	6501.98
912.869	6479.15
913.181	6433.5
913.494	6444.35
913.806	6440.51
914.118	6364.13
914.43	6315.31
914.742	6314.41
915.054	6315.09
915.366	6286.84
915.678	6210.23
915.99	6192.61
916.302	6183.57
916.613	6146.96
916.925	6163
917.236	6126.17
917.548	6069.22
917.859	6144.02
918.171	6055.21
918.482	6013.63
918.794	6002.1
919.105	5985.61
919.416	5848.66
919.727	5927.08
920.038	5965.49
920.349	5871.71
920.66	5836.46
920.971	5797.14
921.282	5813.86
921.593	5724.14
921.903	5711.26
922.214	5682.56
922.525	5683.24
922.835	5707.87
923.146	5658.38
923.456	5624.71
923.767	5607.31
924.077	5614.32
924.387	5579.06
924.697	5498.61
925.008	5542.91
925.318	5520.76
925.628	5500.42
925.938	5466.07
926.248	5396.92
926.558	5411.84
926.867	5352.85
927.177	5357.6
927.487	5342.46
927.796	5279.64
928.106	5340.88
928.416	5243.03
928.725	5249.13
929.034	5214.1
929.344	5207.32
929.653	5185.17
929.962	5191.05
930.271	5108.79
930.581	5097.49
930.89	5099.75
931.199	5043.94
931.508	5062.69
931.817	5009.13
932.125	5005.07
932.434	4993.32
932.743	4935.01
933.051	4914.22
933.36	4928.68
933.669	4910.38
933.977	4888.46
934.286	4918.51
934.594	4854.56
934.902	4763.72
935.21	4825.18
935.519	4795.58
935.827	4737.28
936.135	4744.28
936.443	4736.37
936.751	4663.38
937.059	4682.81
937.367	4643.49
937.674	4653.89
937.982	4636.94
938.29	4575.25
938.597	4635.58
938.905	4574.79
939.213	4532.54
939.52	4469.49
939.827	4496.6
940.135	4455.02
940.442	4438.98
940.749	4470.84
941.056	4476.94
941.363	4427.23
941.67	4384.97
941.977	4346.33
942.284	4348.13
942.591	4323.28
942.898	4327.57
943.205	4323.05
943.511	4239.21
943.818	4262.49
944.125	4261.36
944.431	4257.52
944.738	4236.05
945.044	4184.3
945.35	4156.05
945.657	4125.32
945.963	4164.64
946.269	4121.7
946.575	4115.6
946.881	4061.14
947.187	4099.1
947.493	4047.8
947.799	4004.19
948.105	4021.59
948.41	3991.31
948.716	3969.16
949.022	3968.26
949.327	3939.56
949.633	3890.29
949.938	3928.71
950.244	3898.65
950.549	3865.66
950.854	3826.11
951.16	3860.01
951.465	3812.56
951.77	3791.31
952.075	3765.1
952.38	3766.68
952.685	3764.19
952.99	3765.32
953.294	3750.64
953.599	3735.5
953.904	3721.48
954.209	3660.47
954.513	3665.44
954.818	3648.94
955.122	3606.68
955.426	3594.26
955.731	3628.83
956.035	3577.08
956.339	3540.02
956.643	3558.55
956.948	3522.85
957.252	3518.78
957.556	3520.81
957.86	3501.15
958.163	3491.21
958.467	3435.39
958.771	3428.16
959.075	3483.07
959.378	3455.73
959.682	3417.54
959.985	3356.07
960.289	3373.24
960.592	3364.88
960.896	3321.27
961.199	3310.2
961.502	3338.44
961.805	3304.32
962.108	3265.68
962.411	3261.16
962.714	3260.71
963.017	3260.48
963.32	3260.25
963.623	3269.07
963.926	3243.3
964.228	3178.45
964.531	3154.27
964.833	3177.77
965.136	3184.1
965.438	3147.71
965.741	3119.92
966.043	3112.23
966.345	3080.82
966.648	3073.82
966.95	3074.04
967.252	3042.41
967.554	3053.93
967.856	3035.17
968.158	3012.12
968.46	3026.59
968.761	2991.79
969.063	2995.18
969.365	2943.43
969.666	2908.17
969.968	2893.03
970.269	2914.05
970.571	2947.27
970.872	2892.58
971.174	2895.29
971.475	2866.37
971.776	2868.4
972.077	2811.45
972.378	2860.49
972.679	2829.76
972.98	2850.55
973.281	2804.45
973.582	2800.15
973.883	2792.69
974.183	2777.78
974.484	2746.14
974.785	2731.68
975.085	2727.39
975.386	2729.42
975.686	2718.8
975.986	2701.85
976.287	2700.95
976.587	2681.51
976.887	2708.18
977.187	2655.98
977.487	2681.96
977.787	2595.86
978.087	2616.88
978.387	2594.06
978.687	2599.93
978.987	2580.27
979.286	2557.9
979.586	2552.02
979.885	2545.92
980.185	2547.05
980.484	2526.94
980.784	2510.67
981.083	2521.29
981.382	2476.32
981.682	2512.7
981.981	2473.16
982.28	2459.37
982.579	2445.36
982.878	2496.66
983.177	2427.73
983.475	2424.34
983.774	2423.67
984.073	2419.82
984.372	2397.9
984.67	2367.17
984.969	2381.63
985.267	2386.83
985.566	2343.89
985.864	2342.54
986.162	2342.54
986.461	2322.65
986.759	2321.29
987.057	2291.69
987.355	2302.31
987.653	2279.71
987.951	2267.96
988.249	2291.24
988.547	2239.26
988.844	2218.47
989.142	2227.29
989.44	2218.25
989.737	2198.81
990.035	2225.25
990.332	2170.56
990.63	2170.11
990.927	2176.44
991.224	2161.75
991.521	2136.67
991.819	2162.88
992.116	2125.37
992.413	2119.49
992.71	2119.27
993.006	2072.26
993.303	2067.74
993.6	2123.56
993.897	2067.29
994.193	2072.71
994.49	2086.5
994.787	2038.14
995.083	2024.58
995.379	2046.27
995.676	2016.44
995.972	2006.5
996.268	1981.64
996.565	1963.56
996.861	1992.49
997.157	1972.6
997.453	1951.14
997.749	1939.61
998.044	1952.94
998.34	1942.1
998.636	1918.37
998.932	1878.82
999.227	1896.67
999.523	1891.25
999.818	1860.97
1000.114	1881.76
1000.409	1860.29
1000.704	1894.19
1001	1847.18
1001.295	1846.51
1001.59	1815.77
1001.885	1835.43
1002.18	1792.5
1002.475	1788.43
1002.77	1787.52
1003.065	1785.72
1003.359	1766.28
1003.654	1756.34
1003.949	1754.3
1004.243	1759.05
1004.538	1736.23
1004.832	1716.11
1005.127	1729.22
1005.421	1698.03
1005.715	1722.67
1006.009	1685.38
1006.304	1662.56
1006.598	1659.62
1006.892	1657.13
1007.186	1635.44
1007.48	1651.26
1007.773	1611.03
1008.067	1645.38
1008.361	1623.91
1008.655	1590.24
1008.948	1594.31
1009.242	1604.48
1009.535	1595.44
1009.829	1579.17
1010.122	1541.2
1010.415	1560.86
1010.708	1518.6
1011.001	1532.39
1011.295	1507.08
1011.588	1532.16
1011.881	1514.76
1012.173	1508.43
1012.466	1477.48
1012.759	1483.58
1013.052	1494.88
1013.344	1494.88
1013.637	1454.43
1013.93	1448.32
1014.222	1452.17
1014.514	1451.26
1014.807	1409.45
1015.099	1417.36
1015.391	1419.17
1015.683	1377.14
1015.976	1399.96
1016.268	1393.18
1016.56	1359.06
1016.851	1369.68
1017.143	1350.92
1017.435	1361.55
1017.727	1350.47
1018.018	1336.46
1018.31	1331.04
1018.602	1336.91
1018.893	1327.87
1019.185	1313.41
1019.476	1305.28
1019.767	1302.34
1020.058	1284.26
1020.35	1255.56
1020.641	1277.03
1020.932	1261.89
1021.223	1267.31
1021.514	1244.26
1021.804	1234.32
1022.095	1218.73
1022.386	1211.95
1022.677	1221.44
1022.967	1206.3
1023.258	1221.21
1023.548	1207.88
1023.839	1199.74
1024.129	1186.64
1024.419	1174.21
1024.709	1165.85
1025	1173.3
1025.29	1154.77
1025.58	1134.89
1025.87	1143.47
1026.16	1119.74
1026.449	1131.95
1026.739	1096.47
1027.029	1102.8
1027.319	1112.97
1027.608	1096.47
1027.898	1082.23
1028.187	1078.39
1028.477	1093.08
1028.766	1057.83
1029.055	1056.47
1029.344	1065.51
1029.634	1063.7
1029.923	1043.59
1030.212	1059.18
1030.501	1043.81
1030.79	1030.71
1031.078	1013.76
1031.367	1028
1031.656	1003.82
1031.945	1008.11
1032.233	986.64
1032.522	963.82
1032.81	969.69
1033.099	964.95
1033.387	966.08
1033.675	941.44
1033.963	957.71
1034.251	923.59
1034.54	927.66
1034.828	923.59
1035.116	947.32
1035.403	930.37
1035.691	919.3
1035.979	892.18
1036.267	909.13
1036.554	872.75
1036.842	867.32
1037.129	889.24
1037.417	896.47
1037.704	888.56
1037.992	890.6
1038.279	858.06
1038.566	863.48
1038.853	863.48
1039.14	863.48
