Data from hue_330_FLMS001491_5.txt Node
Date: Mon Feb 06 15:44:48 GMT 2017
User: dcchb
Spectrometer: FLMS00149
Trigger mode: 0
Integration Time (sec): 2.000000E-2
Scans to average: 10
Electric dark correction enabled: true
Nonlinearity correction enabled: false
Boxcar width: 0
XAxis mode: Wavelengths
Number of Pixels in Spectrum: 2048
>>>>>Begin Spectral Data<<<<<
341.393	2.53
341.776	2.53
342.16	2.53
342.543	-54.42
342.927	-82.89
343.31	-74.98
343.693	-82.67
344.077	-70.24
344.46	-44.93
344.843	-49.67
345.226	-46.96
345.61	-19.62
345.993	-17.13
346.376	-16.68
346.759	16.77
347.142	22.41
347.525	26.71
347.908	56.09
348.291	59.7
348.674	114.16
349.057	127.04
349.44	118.23
349.823	154.84
350.206	178.12
350.588	190.32
350.971	208.4
351.354	225.35
351.737	225.57
352.119	245.23
352.502	256.31
352.884	285.91
353.267	279.36
353.65	303.09
354.032	286.14
354.414	290.2
354.797	324.1
355.179	331.56
355.562	326.59
355.944	331.33
356.326	327.72
356.709	336.08
357.091	332.46
357.473	327.27
357.855	330.66
358.238	358.9
358.62	335.4
359.002	351.45
359.384	337.89
359.766	349.64
360.148	343.54
360.53	343.31
360.912	338.79
361.294	328.85
361.676	324.78
362.057	349.64
362.439	332.91
362.821	328.17
363.203	322.97
363.584	311.22
363.966	338.34
364.348	329.98
364.729	326.59
365.111	330.88
365.493	318
365.874	316.42
366.256	316.87
366.637	316.64
367.019	334.04
367.4	325.91
367.781	310.32
368.163	317.55
368.544	322.07
368.925	314.61
369.306	330.43
369.688	306.25
370.069	322.75
370.45	289.75
370.831	317.32
371.212	320.71
371.593	331.79
371.974	307.38
372.355	316.19
372.736	303.09
373.117	322.75
373.498	327.04
373.879	317.1
374.26	315.29
374.641	308.28
375.021	324.55
375.402	328.62
375.783	328.62
376.163	329.07
376.544	327.49
376.925	320.26
377.305	332.01
377.686	343.76
378.066	347.6
378.447	337.66
378.827	345.8
379.208	331.56
379.588	324.33
379.968	326.81
380.349	348.96
380.729	323.2
381.109	334.72
381.489	342.18
381.87	336.76
382.25	359.81
382.63	334.27
383.01	352.8
383.39	345.12
383.77	323.42
384.15	339.47
384.53	329.07
384.91	348.28
385.29	346.47
385.67	354.61
386.049	353.48
386.429	344.21
386.809	357.77
387.189	367.26
387.568	358.23
387.948	347.83
388.328	381.5
388.707	355.06
389.087	366.81
389.466	355.06
389.846	368.85
390.225	349.86
390.605	349.64
390.984	376.3
391.363	369.98
391.743	382.18
392.122	383.31
392.501	364.55
392.881	361.84
393.26	367.94
393.639	367.72
394.018	366.81
394.397	379.92
394.776	398.22
395.155	382.41
395.534	376.76
395.913	350.32
396.292	395.96
396.671	379.92
397.05	402.74
397.429	393.25
397.808	395.74
398.186	398.45
398.565	393.03
398.944	403.2
399.323	398.45
399.701	396.19
400.08	381.05
400.458	397.55
400.837	414.49
401.215	417.21
401.594	396.87
401.972	419.47
402.351	411.78
402.729	428.73
403.107	398.45
403.486	393.93
403.864	417.21
404.242	424.89
404.62	422.18
404.999	417.66
405.377	430.77
405.755	429.41
406.133	442.06
406.511	446.36
406.889	426.47
407.267	421.5
407.645	457.43
408.023	465.57
408.401	444.78
408.779	484.1
409.156	477.54
409.534	478.67
409.912	476.19
410.29	456.98
410.667	485
411.045	483.42
411.422	497.43
411.8	495.17
412.178	496.07
412.555	506.47
412.933	508.73
413.31	525.68
413.687	508.5
414.065	508.5
414.442	526.58
414.819	515.51
415.197	534.04
415.574	518.67
415.951	521.84
416.328	578.78
416.705	557.09
417.082	573.13
417.46	577.88
417.837	597.99
418.214	592.34
418.591	579.69
418.967	598.9
419.344	593.47
419.721	614.94
420.098	606.81
420.475	612
420.852	641.83
421.228	633.7
421.605	616.75
421.982	631.66
422.358	639.35
422.735	633.25
423.111	669.63
423.488	664.21
423.864	642.06
424.241	682.06
424.617	684.32
424.994	672.12
425.37	685.45
425.746	698.78
426.123	722.96
426.499	706.24
426.875	743.98
427.251	721.83
427.627	741.04
428.003	731.32
428.379	769.06
428.756	753.02
429.132	763.19
429.507	759.57
429.883	772.23
430.259	804.32
430.635	789.85
431.011	803.86
431.387	806.35
431.763	823.98
432.138	830.98
432.514	834.14
432.89	804.32
433.265	849.06
433.641	869.4
434.016	858.78
434.392	895.61
434.767	900.36
435.143	882.28
435.518	904.65
435.894	905.78
436.269	929.28
436.644	920.47
437.02	930.41
437.395	943.07
437.77	964.08
438.145	981.94
438.52	966.8
438.895	972.67
439.271	983.52
439.646	1001.37
440.021	990.52
440.395	1015.16
440.77	974.25
441.145	1010.41
441.52	1040.92
441.895	1001.6
442.27	1026.68
442.645	1031.43
443.019	1025.33
443.394	1045.89
443.769	1053.57
444.143	1063.52
444.518	1062.16
444.892	1044.53
445.267	1057.87
445.641	1081.82
446.016	1054.7
446.39	1088.38
446.764	1098.54
447.139	1086.57
447.513	1066.46
447.887	1101.26
448.262	1089.51
448.636	1100.13
449.01	1146.68
449.384	1102.39
449.758	1139
450.132	1129.28
450.506	1148.03
450.88	1143.97
451.254	1126.11
451.628	1146.9
452.002	1169.73
452.376	1185.32
452.75	1183.74
453.123	1160.69
453.497	1189.39
453.871	1173.12
454.244	1216.96
454.618	1202.5
454.992	1218.09
455.365	1229.61
455.739	1214.7
456.112	1269.16
456.486	1290.18
456.859	1268.03
457.232	1252.66
457.606	1276.62
457.979	1298.54
458.352	1286.11
458.725	1318.88
459.099	1319.33
459.472	1369.5
459.845	1353
460.218	1336.96
460.591	1359.55
460.964	1380.12
461.337	1403.4
461.71	1397.97
462.083	1423.06
462.456	1432.1
462.829	1436.39
463.201	1449.27
463.574	1436.84
463.947	1480.23
464.32	1498.31
464.692	1481.13
465.065	1501.92
465.438	1521.13
465.81	1554.35
466.183	1555.03
466.555	1567.91
466.928	1587.12
467.3	1594.58
467.672	1595.71
468.045	1609.72
468.417	1600.9
468.789	1645.65
469.161	1690.39
469.534	1655.14
469.906	1706.66
470.278	1699.43
470.65	1706.44
471.022	1743.27
471.394	1750.5
471.766	1778.3
472.138	1784.85
472.51	1845.19
472.882	1853.1
473.253	1862.59
473.625	1871.86
473.997	1891.52
474.369	1944.17
474.74	1947.34
475.112	1983.04
475.484	1988.46
475.855	1992.08
476.227	2042.93
476.598	2087.22
476.97	2087.9
477.341	2164.28
477.713	2154.56
478.084	2200.66
478.455	2227.78
478.827	2251.96
479.198	2277.95
479.569	2281.56
479.94	2306.87
480.311	2324.95
480.682	2379.41
481.053	2397.95
481.424	2469.13
481.795	2473.65
482.166	2538.28
482.537	2523.59
482.908	2587.09
483.279	2588.22
483.65	2625.06
484.021	2644.04
484.391	2711.61
484.762	2731.04
485.133	2707.32
485.503	2750.48
485.874	2796.8
486.244	2827.31
486.615	2872.96
486.985	2919.97
487.356	2917.03
487.726	2943.24
488.097	2959.29
488.467	3034.09
488.837	3107.53
489.207	3137.81
489.578	3117.7
489.948	3122.45
490.318	3198.38
490.688	3203.35
491.058	3247.41
491.428	3273.85
491.798	3310.46
492.168	3368.99
492.538	3363.12
492.908	3377.81
493.278	3438.6
493.648	3445.38
494.017	3489.89
494.387	3488.09
494.757	3571.02
495.126	3543.23
495.496	3568.99
495.866	3600.63
496.235	3633.39
496.605	3659.61
496.974	3670.23
497.344	3731.47
497.713	3735.99
498.082	3729.66
498.452	3759.49
498.821	3787.29
499.19	3832.03
499.559	3763.11
499.928	3820.05
500.298	3803.33
500.667	3884.01
501.036	3872.48
501.405	3899.6
501.774	3928.53
502.143	3921.75
502.512	3960.84
502.88	3973.27
503.249	3981.41
503.618	4067.28
503.987	3999.26
504.356	4035.42
504.724	4062.08
505.093	4050.11
505.462	4065.02
505.83	4082.65
506.199	4099.6
506.567	4173.94
506.936	4114.96
507.304	4204
507.672	4184.79
508.041	4232.47
508.409	4230.21
508.777	4276.31
509.145	4294.62
509.514	4312.7
509.882	4290.78
510.25	4322.19
510.618	4314.28
510.986	4354.28
511.354	4413.94
511.722	4376.2
512.09	4381.62
512.458	4397.89
512.826	4457.1
513.193	4424.11
513.561	4452.58
513.929	4491.9
514.297	4544.33
514.664	4519.7
515.032	4526.7
515.4	4535.97
515.767	4560.83
516.135	4609.64
516.502	4536.87
516.869	4590.88
517.237	4619.36
517.604	4602.18
517.972	4640.82
518.339	4611.45
518.706	4653.25
519.073	4700.71
519.44	4654.38
519.808	4772.8
520.175	4675.4
520.542	4739.13
520.909	4742.97
521.276	4739.35
521.643	4826.13
522.009	4809.86
522.376	4886.69
522.743	4835.4
523.11	4860.03
523.477	4898.67
523.843	4959.01
524.21	4969.63
524.577	4983.41
524.943	5022.51
525.31	5002.17
525.676	5038.33
526.043	5074.49
526.409	5109.29
526.776	5145.67
527.142	5185.22
527.508	5180.92
527.874	5221.37
528.241	5232
528.607	5230.41
528.973	5313.35
529.339	5262.95
529.705	5290.52
530.071	5319.22
530.437	5336.4
530.803	5357.87
531.169	5403.29
531.535	5449.62
531.901	5430.18
532.267	5464.98
532.632	5526.45
532.998	5541.37
533.364	5555.15
533.73	5565.77
534.095	5589.5
534.461	5633.79
534.826	5679.67
535.192	5664.07
535.557	5691.87
535.923	5700.46
536.288	5698.2
536.653	5761.92
537.019	5800.79
537.384	5794.01
537.749	5785.65
538.114	5825.43
538.479	5849.61
538.845	5891.41
539.21	5873.79
539.575	5908.81
539.94	5934.8
540.305	5980.68
540.67	5986.78
541.034	6022.93
541.399	6024.52
541.764	6126.43
542.129	6091.41
542.494	6140.9
542.858	6156.26
543.223	6161.69
543.587	6231.52
543.952	6191.07
544.316	6278.07
544.681	6210.5
545.045	6270.16
545.41	6327.56
545.774	6282.14
546.138	6334.11
546.503	6353.77
546.867	6373.66
547.231	6457.73
547.595	6460.89
547.959	6469.48
548.324	6528.01
548.688	6531.17
549.052	6507.89
549.416	6535.46
549.779	6582.02
550.143	6583.6
550.507	6594.45
550.871	6603.71
551.235	6555.58
551.599	6726.42
551.962	6754.22
552.326	6751.28
552.689	6724.61
553.053	6723.03
553.417	6756.7
553.78	6860.2
554.143	6823.14
554.507	6847.32
554.87	6868.34
555.234	6871.05
555.597	6894.32
555.96	6871.73
556.323	6960.09
556.686	6958.28
557.05	7014.1
557.413	7036.47
557.776	6993.53
558.139	7019.29
558.502	7050.48
558.865	7031.72
559.228	7126.18
559.59	7151.94
559.953	7120.31
560.316	7179.06
560.679	7235.56
561.041	7279.4
561.404	7278.5
561.767	7283.01
562.129	7303.13
562.492	7361.43
562.854	7352.62
563.217	7364.37
563.579	7355.78
563.941	7449.56
564.304	7394.2
564.666	7497.92
565.028	7494.08
565.39	7471.03
565.753	7571.82
566.115	7628.99
566.477	7611.59
566.839	7615.89
567.201	7702.21
567.563	7655.21
567.925	7706.05
568.287	7723.23
568.648	7777.01
569.01	7791.48
569.372	7913.51
569.734	7875.54
570.095	7874.41
570.457	7990.57
570.819	7933.85
571.18	8005.48
571.542	8072.82
571.903	8097.23
572.265	8129.09
572.626	8155.53
572.987	8187.17
573.349	8262.88
573.71	8309.65
574.071	8355.75
574.432	8388.97
574.794	8465.13
575.155	8503.77
575.516	8583.09
575.877	8563.21
576.238	8664.45
576.599	8791.45
576.96	8766.82
577.32	8869.87
577.681	8914.61
578.042	9005.23
578.403	9114.6
578.763	9175.85
579.124	9225.11
579.485	9310.08
579.845	9443.64
580.206	9540.81
580.566	9604.31
580.927	9753.91
581.287	9807.69
581.648	9990.74
582.008	10174.24
582.368	10239.32
582.728	10426.89
583.089	10517.05
583.449	10682.93
583.809	10908.68
584.169	11034.55
584.529	11190.26
584.889	11406.52
585.249	11457.59
585.609	11731.49
585.969	11940.29
586.329	12111.59
586.688	12406.5
587.048	12564.91
587.408	12803.1
587.768	13006.03
588.127	13238.34
588.487	13413.02
588.846	13763.52
589.206	13865.21
589.565	14092.78
589.925	14400.12
590.284	14622.03
590.643	14961.91
591.003	15244.16
591.362	15512.63
591.721	15770.02
592.08	15975.22
592.44	16275.09
592.799	16608.19
593.158	16820.84
593.517	17068.29
593.876	17555.29
594.235	17627.6
594.593	17934.26
594.952	18322.27
595.311	18590.74
595.67	18851.75
596.029	19219.88
596.387	19564.95
596.746	19851.72
597.104	20087.65
597.463	20417.58
597.822	20700.74
598.18	20926.72
598.538	21301.18
598.897	21623.2
599.255	21710.88
599.613	22337.53
599.972	22444.88
600.33	22729.84
600.688	22917.18
601.046	23337.28
601.404	23662.25
601.762	23878.96
602.12	24224.94
602.478	24362.34
602.836	24719.84
603.194	24749.22
603.552	25270.79
603.91	25372.48
604.268	25833.71
604.625	25906.48
604.983	26310.31
605.341	26431.21
605.698	26736.29
606.056	27124.07
606.413	27180.34
606.771	27532.43
607.128	27857.39
607.485	27921.12
607.843	28113.2
608.2	28520.65
608.557	28887.19
608.914	28871.37
609.272	29206.51
609.629	29563.56
609.986	29850.1
610.343	29783.21
610.7	30292.81
611.057	30320.6
611.414	30476.98
611.771	30761.72
612.127	30991.09
612.484	31258.66
612.841	31500.23
613.198	31469.5
613.554	31714.91
613.911	31950.61
614.267	32213.21
614.624	32267.89
614.98	32354.22
615.337	32692.97
615.693	32776.58
616.05	32991.94
616.406	33297.92
616.762	33262.67
617.118	33340.41
617.475	33531.14
617.831	33911.69
618.187	33820.17
618.543	34169.77
618.899	34403.66
619.255	34458.35
619.611	34467.16
619.967	34861.72
620.323	34920.48
620.678	34868.73
621.034	35018.1
621.39	35022.17
621.746	35238.66
622.101	35660.35
622.457	35393.69
622.812	35539.45
623.168	35794.13
623.523	35825.77
623.879	36056.5
624.234	35847.91
624.589	36000.23
624.945	36228.69
625.3	36339.43
625.655	36405.41
626.01	36454.9
626.365	36482.25
626.72	36550.27
627.075	36571.74
627.43	36695.57
627.785	36684.95
628.14	36715.69
628.495	36858.96
628.85	36866.87
629.205	36878.17
629.559	37107.09
629.914	37027.77
630.269	37074.77
630.623	37104.38
630.978	36995.68
631.332	37248.33
631.687	37262.34
632.041	37209.01
632.396	37278.61
632.75	37296.69
633.104	37360.64
633.459	37198.84
633.813	37388.21
634.167	37321.09
634.521	37388.66
634.875	37425.72
635.229	37353.64
635.583	37228.89
635.937	37301.43
636.291	37302.79
636.645	37329.46
636.999	37288.33
637.352	37454.42
637.706	37225.73
638.06	37311.6
638.413	37364.48
638.767	37314.32
639.121	37341.89
639.474	37060.99
639.828	37356.8
640.181	37253.75
640.534	37311.6
640.888	37215.11
641.241	37025.74
641.594	37210.59
641.947	37354.77
642.301	37129.46
642.654	37270.93
643.007	37259.18
643.36	37186.64
643.713	37251.49
644.066	37324.94
644.419	37285.62
644.771	36926.98
645.124	36617.61
645.477	36465.3
645.83	36423.72
646.182	36151.86
646.535	36191.63
646.888	36141.46
647.24	36008.36
647.593	36268.02
647.945	36163.61
648.298	36139.43
648.65	35918.87
649.002	36098.75
649.355	36130.84
649.707	35926.78
650.059	36175.59
650.411	36536.26
650.763	36603.6
651.115	36903.7
651.467	36790.04
651.819	37077.71
652.171	36880.88
652.523	36726.31
652.875	36748.91
653.227	36573.09
653.578	36957.04
653.93	36731.05
654.282	36608.12
654.633	36657.38
654.985	36636.59
655.337	36564.05
655.688	36701.9
656.039	36708.23
656.391	36466.65
656.742	36546.2
657.094	36611.96
657.445	36707.55
657.796	36576.26
658.147	36588.91
658.498	36468.01
658.849	36679.76
659.2	36695.8
659.551	36420.33
659.902	36607.67
660.253	36439.76
660.604	36638.4
660.955	36494.9
661.306	36568.8
661.656	36416.49
662.007	36352.76
662.358	36502.13
662.708	36573.09
663.059	36419.65
663.409	36303.95
663.76	36473.43
664.11	36541.68
664.461	36401.12
664.811	36389.14
665.161	36496.26
665.511	36420.1
665.862	36545.52
666.212	36516.6
666.562	36542.81
666.912	36469.82
667.262	36502.81
667.612	36383.49
667.962	36414.23
668.312	36275.47
668.662	36434.11
669.011	36396.15
669.361	36252.65
669.711	36268.24
670.06	36274.57
670.41	36200.9
670.76	36195.25
671.109	36286.77
671.459	36283.61
671.808	36243.61
672.157	36307.79
672.507	36124.06
672.856	36056.27
673.205	36242.71
673.554	36300.1
673.904	36172.65
674.253	36391.63
674.602	36098.3
674.951	35755.26
675.3	35522.05
675.649	36107.12
675.998	36074.12
676.346	36166.32
676.695	36182.14
677.044	35858.76
677.393	35941.24
677.741	36142.37
678.09	35963.16
678.438	35880.91
678.787	35977.4
679.135	35920.45
679.484	35727.92
679.832	35965.42
680.181	35772.66
680.529	35804.52
680.877	35767.69
681.225	35749.84
681.573	35808.59
681.922	35544.19
682.27	35517.98
682.618	35463.74
682.966	35350.53
683.314	35566.79
683.661	35412.22
684.009	35301.49
684.357	35182.85
684.705	35227.82
685.053	35179.23
685.4	35092.9
685.748	35059.91
686.095	34934.04
686.443	34870.54
686.79	34754.61
687.138	34829.64
687.485	34805.68
687.832	34742.63
688.18	34546.25
688.527	34656.53
688.874	34530.89
689.221	34426.26
689.568	34476.2
689.915	34373.38
690.262	34362.08
690.609	34304
690.956	34075.53
691.303	34087.73
691.65	33899.49
691.997	33958.25
692.344	33713.96
692.69	33756.67
693.037	33752.83
693.383	33471.48
693.73	33668.08
694.077	33308.55
694.423	33500.4
694.769	33226.74
695.116	33286.17
695.462	33024.48
695.808	33164.82
696.155	33050.47
696.501	32817.94
696.847	32853.19
697.193	32628.79
697.539	32668.79
697.885	32537.94
698.231	32343.15
698.577	32380.21
698.923	32333.2
699.269	32222.47
699.614	32026.54
699.96	32039.88
700.306	32024.96
700.651	31940.67
700.997	31943.84
701.342	31768.25
701.688	31779.09
702.033	31644.86
702.379	31669.94
702.724	31496.84
703.069	31623.17
703.415	31235.38
703.76	31343.63
704.105	31298.65
704.45	31173.23
704.795	31045.1
705.14	30941.6
705.485	30879.46
705.83	30693.47
706.175	30755.17
706.52	30671.78
706.865	30613.93
707.209	30605.57
707.554	30457.55
707.899	30505
708.243	30400.6
708.588	30376.87
708.932	30076.54
709.277	30071.34
709.621	29995.86
709.966	29946.6
710.31	30067.73
710.654	29809.43
710.998	29860.27
711.342	29817.11
711.687	29626.38
712.031	29679.94
712.375	29421.42
712.719	29527.85
713.063	29461.87
713.407	29564.01
713.75	29430.91
714.094	29316.11
714.438	29239.5
714.782	29205.15
715.125	29093.51
715.469	29088.54
715.812	28943.24
716.156	28978.04
716.499	28863.46
716.843	29003.8
717.186	28627.99
717.53	28860.07
717.873	28740.53
718.216	28725.39
718.559	28508.22
718.902	28402.23
719.246	28531.72
719.589	28355
719.932	28268.45
720.275	28328.79
720.617	28299.64
720.96	28135.12
721.303	28225.51
721.646	28169.02
721.989	27996.59
722.331	28009.93
722.674	28149.58
723.016	27965.86
723.359	28037.5
723.701	28063.71
724.044	27836.15
724.386	27635.02
724.729	27747.34
725.071	27693.1
725.413	27682.7
725.755	27641.12
726.097	27578.3
726.439	27529.49
726.782	27399.77
727.124	27545.53
727.465	27402.26
727.807	27362.94
728.149	27301.7
728.491	27225.09
728.833	27174.24
729.175	27144.64
729.516	27120.01
729.858	27135.15
730.199	27239.1
730.541	27048.82
730.882	27038.88
731.224	27148.26
731.565	26845.44
731.906	26936.96
732.248	26834.14
732.589	26743.97
732.93	26709.17
733.271	26649.29
733.612	26721.15
733.953	26736.51
734.294	26502.85
734.635	26521.15
734.976	26513.47
735.317	26395.51
735.658	26433.92
735.999	26346.92
736.339	26394.6
736.68	26408.61
737.021	26304.66
737.361	26156.87
737.702	26280.03
738.042	26188.05
738.383	26106.47
738.723	26233.48
739.063	26068.06
739.404	26087.72
739.744	25987.16
740.084	25854.96
740.424	25887.72
740.764	25876.88
741.104	25946.7
741.444	25768.63
741.784	25721.4
742.124	25782.64
742.464	25736.99
742.804	25635.75
743.143	25568.18
743.483	25566.6
743.823	25470.56
744.162	25486.38
744.502	25430.56
744.841	25285.25
745.181	25522.31
745.52	25371.13
745.86	25280.06
746.199	25262.2
746.538	25274.63
746.877	25295.42
747.216	25189.44
747.556	25137.23
747.895	25226.72
748.234	25071.93
748.573	25108.99
748.911	25040.06
749.25	24977.01
749.589	24882.1
749.928	24891.14
750.267	24884.59
750.605	24827.19
750.944	24716.68
751.283	24702.9
751.621	24650.24
751.96	24677.81
752.298	24552.62
752.636	24507.19
752.975	24421.77
753.313	24323.24
753.651	24482.79
753.989	24341.78
754.327	24226.75
754.666	24159.41
755.004	24090.71
755.342	24213.19
755.679	24134.55
756.017	24062.91
756.355	24127.32
756.693	23945.18
757.031	23906.76
757.368	23756.48
757.706	23755.58
758.044	23804.39
758.381	23732.75
758.719	23664.05
759.056	23622.7
759.394	23462.48
759.731	23359.65
760.068	23412.08
760.405	23286.44
760.743	23295.02
761.08	23265.42
761.417	23105.42
761.754	22981.81
762.091	23069.04
762.428	22938.42
762.765	22824.3
763.102	22876.28
763.438	22705.66
763.775	22607.36
764.112	22610.97
764.449	22628.83
764.785	22528.94
765.122	22357.19
765.458	22276.29
765.795	22253.24
766.131	22277.2
766.467	22158.56
766.804	22156.75
767.14	22003.31
767.476	22016.64
767.812	21902.97
768.148	21881.95
768.485	21724.44
768.821	21609.64
769.157	21608.97
769.492	21429.76
769.828	21441.06
770.164	21309.09
770.5	21236.32
770.836	21269.99
771.171	21126.72
771.507	21144.35
771.842	20892.15
772.178	20916.78
772.513	20867.06
772.849	20815.31
773.184	20731.25
773.519	20728.54
773.855	20501.42
774.19	20508.2
774.525	20436.57
774.86	20347.98
775.195	20406.06
775.53	20201.77
775.865	20177.82
776.2	19965.62
776.535	19910.48
776.87	19877.49
777.205	19792.97
777.539	19656.25
777.874	19746.87
778.209	19551.84
778.543	19519.3
778.878	19487.67
779.212	19515.46
779.547	19326.31
779.881	19347.56
780.215	19249.71
780.55	19196.6
780.884	19076.83
781.218	19113.89
781.552	18968.36
781.886	18924.74
782.22	18777.63
782.554	18781.02
782.888	18550.29
783.222	18523.62
783.556	18447.69
783.889	18459.44
784.223	18308.94
784.557	18287.02
784.89	18313.01
785.224	18119.34
785.557	18118.21
785.891	18045.67
786.224	18082.05
786.558	17982.17
786.891	17818.78
787.224	17725.23
787.557	17777.65
787.891	17712.57
788.224	17645.23
788.557	17667.15
788.89	17542.18
789.223	17585.34
789.556	17392.58
789.888	17370.66
790.221	17291.57
790.554	17139.03
790.887	17129.76
791.219	17034.17
791.552	17021.97
791.884	16957.11
792.217	16972.25
792.549	16897.9
792.882	16768.64
793.214	16579.72
793.546	16685.48
793.879	16586.27
794.211	16432.15
794.543	16594.63
794.875	16525.48
795.207	16481.42
795.539	16353.06
795.871	16391.25
796.203	16144.25
796.535	16252.95
796.867	16135.89
797.198	16145.38
797.53	16085.5
797.862	16001.88
798.193	16043.46
798.525	15887.31
798.856	15875.78
799.188	15717.6
799.519	15740.19
799.85	15563.7
800.182	15606.86
800.513	15598.5
800.844	15529.58
801.175	15468.34
801.506	15438.51
801.837	15375.01
802.168	15415.91
802.499	15360.54
802.83	15292.97
803.161	15173.88
803.491	15121.45
803.822	15218.85
804.153	15022.47
804.483	14962.13
804.814	14857.28
805.145	14876.26
805.475	14901.57
805.805	14846.43
806.136	14756.26
806.466	14801.91
806.796	14676.94
807.126	14646.66
807.457	14653.67
807.787	14568.02
808.117	14532.32
808.447	14498.42
808.777	14517.17
809.107	14424.07
809.436	14342.26
809.766	14440.57
810.096	14288.25
810.426	14278.76
810.755	14294.36
811.085	14288.48
811.414	14181.36
811.744	14060.92
812.073	14079.22
812.403	14076.73
812.732	13974.36
813.061	13921.94
813.39	13867.93
813.719	13870.19
814.049	13896.17
814.378	13889.17
814.707	13799
815.036	13793.13
815.365	13676.07
815.693	13576.86
816.022	13563.3
816.351	13532.12
816.68	13486.92
817.008	13598.1
817.337	13443.08
817.665	13442.63
817.994	13420.93
818.322	13470.65
818.651	13304.78
818.979	13291.22
819.307	13305
819.636	13270.88
819.964	13148.4
820.292	13262.52
820.62	13154.5
820.948	13198.11
821.276	13251.22
821.604	13207.83
821.932	13213.48
822.259	13165.35
822.587	13148.85
822.915	13166.93
823.243	13212.58
823.57	13161.96
823.898	13076.31
824.225	13048.29
824.553	13166.25
824.88	13185.23
825.207	13222.75
825.535	13050.55
825.862	13214.61
826.189	13054.16
826.516	13128.96
826.843	13153.59
827.17	13214.16
827.497	13098
827.824	13140.71
828.151	13165.35
828.478	13080.38
828.805	13108.4
829.131	13144.56
829.458	13080.38
829.785	12943.2
830.111	13015.29
830.438	13086.48
830.764	13053.71
831.09	13093.71
831.417	13039.47
831.743	13058
832.069	13037.89
832.395	12987.27
832.722	13099.36
833.048	12895.97
833.374	12979.14
833.7	12935.07
834.026	12952.92
834.351	12923.54
834.677	12899.36
835.003	12917.89
835.329	12914.51
835.654	12892.81
835.98	12806.26
836.306	12766.71
836.631	12780.72
836.956	12771.01
837.282	12834.06
837.607	12729.88
837.932	12748.86
838.258	12687.84
838.583	12717.9
838.908	12667.51
839.233	12613.27
839.558	12696.43
839.883	12628.18
840.208	12536.21
840.533	12507.28
840.858	12540.96
841.182	12574.18
841.507	12509.09
841.832	12472.03
842.156	12392.26
842.481	12339.15
842.805	12391.81
843.13	12304.35
843.454	12293.05
843.778	12345.48
844.103	12217.12
844.427	12225.71
844.751	12244.47
845.075	12160.63
845.399	12187.52
845.723	12107.52
846.047	12126.73
846.371	11998.37
846.695	11976.45
847.019	11950.91
847.343	11847.19
847.666	11817.36
847.99	11749.34
848.313	11773.29
848.637	11601.55
848.96	11653.3
849.284	11583.24
849.607	11480.42
849.931	11476.58
850.254	11397.93
850.577	11323.13
850.9	11305.73
851.223	11304.6
851.546	11273.87
851.869	11189.13
852.192	11226.41
852.515	11170.14
852.838	11096.7
853.161	11122.46
853.483	11006.08
853.806	10964.73
854.129	10948.46
854.451	10929.25
854.774	10888.34
855.096	10796.59
855.419	10762.02
855.741	10701.91
856.063	10715.47
856.385	10633.66
856.708	10627.56
857.03	10570.61
857.352	10546.66
857.674	10506.88
857.996	10562.02
858.318	10451.07
858.64	10424.63
858.961	10416.49
859.283	10367.23
859.605	10417.17
859.926	10311.86
860.248	10319.77
860.57	10253.33
860.891	10262.82
861.212	10217.17
861.534	10174.69
861.855	10203.62
862.176	10179.21
862.498	10133.56
862.819	10151.87
863.14	10162.26
863.461	10090.17
863.782	10028.03
864.103	10056.95
864.424	10061.02
864.745	10056.28
865.065	9952.32
865.386	10016.73
865.707	9955.03
866.027	9876.39
866.348	9880.23
866.668	9904.19
866.989	9893.34
867.309	9864.64
867.63	9863.51
867.95	9845.89
868.27	9757.98
868.59	9811.31
868.91	9735.83
869.23	9792.78
869.55	9744.87
869.87	9790.29
870.19	9669.17
870.51	9701.03
870.83	9710.52
871.15	9727.24
871.469	9661.48
871.789	9726.11
872.109	9680.47
872.428	9653.57
872.748	9636.85
873.067	9599.79
873.386	9535.61
873.706	9593.24
874.025	9509.17
874.344	9477.53
874.663	9473.24
874.982	9452.9
875.301	9420.36
875.62	9455.84
875.939	9435.95
876.258	9461.04
876.577	9354.82
876.896	9386.69
877.214	9390.3
877.533	9382.39
877.852	9294.94
878.17	9311.66
878.489	9325.67
878.807	9341.04
879.125	9280.02
879.444	9276.41
879.762	9228.5
880.08	9238.44
880.398	9162.29
880.716	9217.2
881.034	9140.37
881.352	9168.84
881.67	9208.16
881.988	9176.98
882.306	9090.65
882.624	9115.06
882.941	9041.84
883.259	9016.75
883.577	9047.71
883.894	8966.13
884.212	8976.76
884.529	8944.44
884.846	8960.26
885.164	8891.11
885.481	8925.23
885.798	8978.34
886.115	8829.19
886.432	8860.83
886.75	8819.25
887.067	8839.13
887.383	8758.46
887.7	8761.85
888.017	8737.89
888.334	8769.3
888.651	8686.82
888.967	8694.5
889.284	8637.56
889.6	8566.14
889.917	8630.32
890.233	8579.48
890.55	8510.55
890.866	8509.88
891.182	8472.36
891.498	8545.58
891.815	8413.83
892.131	8391.91
892.447	8452.02
892.763	8378.13
893.079	8322.08
893.395	8300.62
893.71	8379.94
894.026	8281.86
894.342	8267.62
894.657	8233.5
894.973	8242.54
895.289	8174.74
895.604	8181.52
895.92	8081.64
896.235	8034.86
896.55	8037.8
896.865	8080.28
897.181	7979.72
897.496	8016.1
897.811	7958.93
898.126	7951.92
898.441	7902.89
898.756	7909.21
899.071	7843
899.386	7849.78
899.7	7786.5
900.015	7774.98
900.33	7733.62
900.644	7680.74
900.959	7706.51
901.273	7639.62
901.588	7625.15
901.902	7540.64
902.216	7575.66
902.531	7502.67
902.845	7523.46
903.159	7485.27
903.473	7399.17
903.787	7466.51
904.101	7405.5
904.415	7443.91
904.729	7342.45
905.042	7295.44
905.356	7257.03
905.67	7287.08
905.984	7306.52
906.297	7281.88
906.611	7193.75
906.924	7173.41
907.237	7163.24
907.551	7165.05
907.864	7102.45
908.177	7102.23
908.491	7040.31
908.804	7000.99
909.117	6991.27
909.43	6935.91
909.743	6948.56
910.056	6919.63
910.368	6869.01
910.681	6845.51
910.994	6766.19
911.307	6796.7
911.619	6720.54
911.932	6768
912.244	6698.4
912.557	6677.61
912.869	6644.61
913.181	6622.24
913.494	6639.64
913.806	6515.35
914.118	6529.36
914.43	6510.83
914.742	6511.06
915.054	6481.23
915.366	6417.05
915.678	6427.67
915.99	6401.46
916.302	6325.75
916.613	6294.11
916.925	6259.99
917.236	6274.68
917.548	6215.47
917.859	6238.3
918.171	6191.97
918.482	6172.76
918.794	6124.63
919.105	6080.11
919.416	6084.4
919.727	6060
920.038	6093.67
920.349	6038.3
920.66	5998.08
920.971	5976.61
921.282	6030.62
921.593	5893.45
921.903	5874.46
922.214	5852.77
922.525	5786.33
922.835	5874.92
923.146	5815.93
923.456	5793.11
923.767	5688.93
924.077	5747.24
924.387	5772.55
924.697	5701.14
925.008	5684.86
925.318	5668.82
925.628	5614.58
925.938	5626.34
926.248	5535.49
926.558	5520.8
926.867	5491.42
927.177	5498.65
927.487	5495.49
927.796	5434.48
928.106	5467.47
928.416	5402.61
928.725	5360.35
929.034	5378.66
929.344	5351.77
929.653	5350.86
929.962	5291.43
930.271	5244.65
930.581	5278.32
930.89	5230.19
931.199	5141.83
931.508	5230.19
931.817	5201.26
932.125	5113.81
932.434	5130.98
932.743	5088.95
933.051	5048.5
933.36	5047.82
933.669	5023.41
933.977	4994.04
934.286	5015.96
934.594	4986.13
934.902	4926.47
935.21	4921.27
935.519	4911.1
935.827	4833.14
936.135	4869.29
936.443	4875.39
936.751	4817.54
937.059	4795.85
937.367	4745.45
937.674	4795.17
937.982	4792.46
938.29	4747.26
938.597	4751.1
938.905	4693.7
939.213	4641.5
939.52	4676.3
939.827	4598.11
940.135	4600.6
940.442	4569.41
940.749	4579.58
941.056	4554.27
941.363	4494.61
941.67	4526.25
941.977	4490.55
942.284	4478.12
942.591	4445.8
942.898	4421.17
943.205	4399.47
943.511	4374.39
943.818	4358.57
944.125	4343.21
944.431	4330.55
944.738	4310.21
945.044	4328.97
945.35	4265.92
945.657	4279.48
945.963	4199.25
946.269	4227.05
946.575	4193.15
946.881	4178.24
947.187	4197.22
947.493	4193.38
947.799	4150.67
948.105	4120.39
948.41	4069.09
948.716	4072.7
949.022	4080.16
949.327	4038.35
949.633	4013.27
949.938	4010.33
950.244	3999.49
950.549	3940.05
950.854	3954.06
951.16	3914.97
951.465	3922.2
951.77	3902.09
952.075	3887.85
952.38	3884.23
952.685	3839.49
952.99	3817.34
953.294	3787.06
953.599	3790.9
953.904	3750.9
954.209	3792.26
954.513	3768.08
954.818	3726.05
955.122	3704.8
955.426	3712.71
955.731	3725.14
956.035	3673.17
956.339	3617.8
956.643	3651.25
956.948	3625.26
957.252	3621.19
957.556	3597.01
957.86	3613.96
958.163	3546.84
958.467	3549.78
958.771	3539.38
959.075	3502.78
959.378	3491.25
959.682	3520.85
959.985	3483.34
960.289	3492.15
960.592	3475.21
960.896	3422.1
961.199	3446.96
961.502	3366.28
961.805	3419.84
962.108	3352.95
962.411	3349.56
962.714	3307.98
963.017	3335.1
963.32	3351.59
963.623	3294.42
963.926	3258.94
964.228	3258.71
964.531	3259.62
964.833	3277.92
965.136	3222.33
965.438	3231.14
965.741	3213.29
966.043	3173.97
966.345	3170.13
966.648	3145.72
966.95	3112.73
967.252	3104.59
967.554	3142.78
967.856	3108.21
968.158	3080.19
968.46	3067.08
968.761	3050.36
969.063	3060.3
969.365	2986.86
969.666	3049.23
969.968	2980.08
970.269	3035.89
970.571	2981.88
970.872	2967.42
971.174	2953.64
971.475	2916.12
971.776	2957.93
972.077	2915.67
972.378	2883.58
972.679	2907.99
972.98	2863.24
973.281	2874.77
973.582	2868.89
973.883	2863.7
974.183	2829.57
974.484	2835.67
974.785	2782.79
975.085	2808.33
975.386	2802.23
975.686	2797.26
975.986	2767.2
976.287	2777.14
976.587	2731.5
976.887	2756.35
977.187	2712.74
977.487	2724.94
977.787	2699.63
978.087	2681.78
978.387	2685.17
978.687	2634.1
978.987	2689.24
979.286	2592.74
979.586	2628.67
979.885	2628
980.185	2579.64
980.484	2602.91
980.784	2585.74
981.083	2581.44
981.382	2571.27
981.682	2565.4
981.981	2539.64
982.28	2529.24
982.579	2496.7
982.878	2515.46
983.177	2490.6
983.475	2510.26
983.774	2456.7
984.073	2504.16
984.372	2463.93
984.67	2453.99
984.969	2469.13
985.267	2429.81
985.566	2440.43
985.864	2416.93
986.162	2417.15
986.461	2388
986.759	2358.85
987.057	2402.24
987.355	2338.29
987.653	2384.16
987.951	2338.51
988.249	2302.35
988.547	2319.3
988.844	2313.65
989.142	2291.06
989.44	2268.23
989.737	2289.02
990.035	2261.68
990.332	2244.96
990.63	2250.83
990.927	2206.76
991.224	2242.7
991.521	2188.23
991.819	2176.48
992.116	2167.22
992.413	2186.88
992.71	2152.3
993.006	2159.08
993.303	2162.02
993.6	2174
993.897	2128.8
994.193	2128.35
994.49	2104.39
994.787	2086.99
995.083	2072.98
995.379	2060.1
995.676	2087.22
995.972	2036.15
996.268	2043.15
996.565	2048.35
996.861	2032.76
997.157	2004.28
997.453	1995.24
997.749	1991.4
998.044	1986.2
998.34	1988.24
998.636	1988.24
998.932	2005.87
999.227	1932.42
999.523	1938.97
999.818	1937.62
1000.114	1925.42
1000.409	1906.43
1000.704	1889.94
1001	1890.61
1001.295	1901.24
1001.59	1859.65
1001.885	1872.99
1002.18	1872.31
1002.475	1827.11
1002.77	1818.98
1003.065	1841.8
1003.359	1859.65
1003.654	1802.03
1003.949	1787.79
1004.243	1786.89
1004.538	1775.36
1004.832	1792.76
1005.127	1747.34
1005.421	1709.15
1005.715	1749.37
1006.009	1745.08
1006.304	1752.31
1006.598	1709.15
1006.892	1675.03
1007.186	1676.16
1007.48	1689.94
1007.773	1689.72
1008.067	1660.11
1008.361	1644.74
1008.655	1632.54
1008.948	1647
1009.242	1655.37
1009.535	1595.71
1009.829	1619.89
1010.122	1639.1
1010.415	1602.03
1010.708	1590.06
1011.001	1576.05
1011.295	1600.45
1011.588	1550.51
1011.881	1559.1
1012.173	1557.97
1012.466	1521.36
1012.759	1568.14
1013.052	1531.3
1013.344	1504.64
1013.637	1498.53
1013.93	1493.11
1014.222	1469.16
1014.514	1453.79
1014.807	1477.52
1015.099	1485.43
1015.391	1409.72
1015.683	1439.33
1015.976	1447.01
1016.268	1407.46
1016.56	1431.42
1016.851	1420.12
1017.143	1417.41
1017.435	1411.3
1017.727	1351.19
1018.018	1385.54
1018.31	1338.54
1018.602	1344.19
1018.893	1335.83
1019.185	1357.75
1019.476	1357.29
1019.767	1309.84
1020.058	1329.27
1020.35	1344.87
1020.641	1292.89
1020.932	1288.14
1021.223	1297.41
1021.514	1270.97
1021.804	1272.55
1022.095	1281.14
1022.386	1268.71
1022.677	1284.98
1022.967	1245.89
1023.258	1204.3
1023.548	1216.73
1023.839	1217.41
1024.129	1194.81
1024.419	1218.32
1024.709	1201.82
1025	1193.91
1025.29	1162.05
1025.58	1147.36
1025.87	1122.72
1026.16	1160.01
1026.449	1148.94
1026.739	1146.45
1027.029	1137.41
1027.319	1148.94
1027.608	1141.26
1027.898	1124.31
1028.187	1124.76
1028.477	1094.7
1028.766	1060.81
1029.055	1065.1
1029.344	1088.83
1029.634	1064.2
1029.923	1066.68
1030.212	1057.19
1030.501	1038.66
1030.79	1045.21
1031.078	1023.52
1031.367	1041.37
1031.656	1039.34
1031.945	1039.79
1032.233	1026.68
1032.522	1017.64
1032.81	1026.23
1033.099	1000.92
1033.387	984.88
1033.675	983.52
1033.963	992.78
1034.251	975.38
1034.54	971.54
1034.828	970.86
1035.116	967.02
1035.403	928.83
1035.691	937.42
1035.979	918.66
1036.267	926.8
1036.554	923.86
1036.842	894.26
1037.129	915.05
1037.417	904.65
1037.704	891.32
1037.992	924.76
1038.279	893.13
1038.566	882.96
1038.853	882.96
1039.14	882.96
