Data from hue_340_FLMS001491_3.txt Node
Date: Mon Feb 06 15:42:12 GMT 2017
User: dcchb
Spectrometer: FLMS00149
Trigger mode: 0
Integration Time (sec): 2.000000E-2
Scans to average: 10
Electric dark correction enabled: true
Nonlinearity correction enabled: false
Boxcar width: 0
XAxis mode: Wavelengths
Number of Pixels in Spectrum: 2048
>>>>>Begin Spectral Data<<<<<
341.393	-3.94
341.776	-3.94
342.16	-3.94
342.543	-69.7
342.927	-61.57
343.31	-65.86
343.693	-64.05
344.077	-75.8
344.46	-58.63
344.843	-60.89
345.226	-44.84
345.61	-26.31
345.993	-13.43
346.376	20.69
346.759	-8.69
347.142	10.75
347.525	42.61
347.908	56.4
348.291	86.45
348.674	96.4
349.057	105.21
349.44	130.52
349.823	142.5
350.206	149.05
350.588	192.44
350.971	210.97
351.354	225.66
351.737	235.38
352.119	254.36
352.502	268.37
352.884	252.78
353.267	267.24
353.65	285.09
354.032	291.87
354.414	278.99
354.797	298.42
355.179	300.68
355.562	333
355.944	326.67
356.326	320.57
356.709	322.6
357.091	324.64
357.473	356.28
357.855	334.36
358.238	336.84
358.62	334.13
359.002	339.55
359.384	336.16
359.766	347.91
360.148	335.03
360.53	342.72
360.912	331.64
361.294	315.83
361.676	351.08
362.057	324.64
362.439	328.48
362.821	319.21
363.203	329.84
363.584	322.6
363.966	320.34
364.348	335.26
364.729	348.14
365.111	311.53
365.493	328.48
365.874	329.16
366.256	323.73
366.637	318.31
367.019	312.44
367.4	306.79
367.781	304.53
368.163	297.75
368.544	317.86
368.925	298.2
369.306	319.67
369.688	310.4
370.069	284.64
370.45	291.42
370.831	299.33
371.212	315.37
371.593	317.18
371.974	304.75
372.355	330.29
372.736	317.86
373.117	311.76
373.498	307.24
373.879	328.25
374.26	297.97
374.641	318.31
375.021	311.31
375.402	290.29
375.783	337.07
376.163	326.67
376.544	308.59
376.925	311.31
377.305	324.19
377.686	339.78
378.066	328.48
378.447	308.82
378.827	337.97
379.208	330.74
379.588	322.38
379.968	345.43
380.349	335.94
380.729	317.86
381.109	341.59
381.489	344.75
381.87	342.72
382.25	323.28
382.63	348.82
383.01	337.97
383.39	345.2
383.77	332.32
384.15	353.34
384.53	330.97
384.91	337.07
385.29	330.97
385.67	367.35
386.049	347.24
386.429	357.63
386.809	331.87
387.189	350.85
387.568	353.56
387.948	367.58
388.328	346.11
388.707	343.85
389.087	379.33
389.466	353.79
389.846	341.59
390.225	358.08
390.605	365.09
390.984	363.51
391.363	368.7
391.743	354.69
392.122	367.35
392.501	375.71
392.881	370.96
393.26	377.74
393.639	370.96
394.018	375.03
394.397	372.32
394.776	373.45
395.155	388.59
395.534	397.86
395.913	366.67
396.292	366.67
396.671	379.1
397.05	367.8
397.429	384.75
397.808	389.72
398.186	398.76
398.565	395.14
398.944	405.54
399.323	395.82
399.701	417.52
400.08	405.99
400.458	415.26
400.837	390.85
401.215	380.68
401.594	386.11
401.972	413
402.351	401.92
402.729	399.66
403.107	412.55
403.486	407.8
403.864	417.52
404.242	421.81
404.62	402.15
404.999	411.64
405.377	416.16
405.755	429.49
406.133	423.84
406.511	411.64
406.889	425.43
407.267	426.78
407.645	460.45
408.023	450.06
408.401	428.14
408.779	443.05
409.156	450.74
409.534	455.26
409.912	458.19
410.29	465.65
410.667	465.65
411.045	470.62
411.422	470.62
411.8	484.18
412.178	462.71
412.555	488.48
412.933	484.41
413.31	488.7
413.687	507.46
414.065	483.5
414.442	478.76
414.819	501.36
415.197	491.41
415.574	500.68
415.951	540.68
416.328	531.41
416.705	514.01
417.082	534.58
417.46	525.99
417.837	539.77
418.214	542.26
418.591	553.33
418.967	536.61
419.344	573.9
419.721	569.15
420.098	566.44
420.475	569.83
420.852	597.4
421.228	567.12
421.605	592.88
421.982	597.63
422.358	590.85
422.735	606.66
423.111	585.2
423.488	606.44
423.864	604.18
424.241	632.43
424.617	618.64
424.994	624.97
425.37	639.43
425.746	645.99
426.123	638.75
426.499	642.82
426.875	646.66
427.251	666.32
427.627	651.86
428.003	663.61
428.379	669.94
428.756	668.13
429.132	712.2
429.507	699.09
429.883	688.02
430.259	692.31
430.635	704.97
431.011	725.76
431.387	741.12
431.763	745.64
432.138	737.96
432.514	767.34
432.89	733.67
433.265	781.12
433.641	770.05
434.016	744.29
434.392	776.83
434.767	784.51
435.143	798.98
435.518	784.29
435.894	792.42
436.269	798.07
436.644	803.27
437.02	834.46
437.395	825.19
437.77	814.34
438.145	843.49
438.52	836.72
438.895	858.41
439.271	857.73
439.646	879.65
440.021	883.72
440.395	855.7
440.77	886.88
441.145	889.37
441.52	902.02
441.895	932.98
442.27	902.48
442.645	901.57
443.019	915.81
443.394	917.17
443.769	914.68
444.143	922.81
444.518	920.33
444.892	925.3
445.267	939.31
445.641	947.45
446.016	944.06
446.39	956.03
446.764	942.7
447.139	972.98
447.513	961.23
447.887	957.84
448.262	966.43
448.636	968.92
449.01	1004.39
449.384	1002.36
449.758	995.58
450.132	998.52
450.506	986.32
450.88	1021.57
451.254	1008.01
451.628	1032.19
452.002	1010.27
452.376	1030.83
452.75	1054.11
453.123	1052.98
453.497	1056.6
453.871	1057.27
454.244	1076.48
454.618	1111.06
454.992	1070.61
455.365	1103.83
455.739	1127.56
456.112	1124.39
456.486	1125.75
456.859	1126.88
457.232	1136.82
457.606	1136.59
457.979	1174.33
458.352	1172.98
458.725	1169.14
459.099	1192.64
459.472	1219.98
459.845	1214.78
460.218	1220.89
460.591	1253.2
460.964	1226.99
461.337	1291.17
461.71	1263.82
462.083	1260.21
462.456	1290.94
462.829	1287.55
463.201	1298.4
463.574	1309.7
463.947	1334.56
464.32	1383.14
464.692	1363.48
465.065	1356.7
465.438	1392.86
465.81	1417.04
466.183	1436.02
466.555	1449.13
466.928	1443.25
467.3	1422.24
467.672	1460.88
468.045	1473.99
468.417	1502.69
468.789	1505.85
469.161	1530.93
469.534	1554.21
469.906	1568.67
470.278	1588.11
470.65	1594.44
471.022	1633.3
471.394	1620.65
471.766	1649.12
472.138	1675.11
472.51	1700.65
472.882	1731.16
473.253	1732.96
473.625	1741.78
473.997	1800.53
474.369	1780.19
474.74	1805.96
475.112	1863.58
475.484	1866.97
475.855	1889.79
476.227	1920.98
476.598	1959.85
476.97	1978.15
477.341	2025.84
477.713	2035.78
478.084	2047.53
478.455	2106.06
478.827	2105.38
479.198	2151.48
479.569	2176.79
479.94	2222.89
480.311	2243.91
480.682	2288.88
481.053	2313.96
481.424	2334.53
481.795	2410.01
482.166	2426.05
482.537	2435.54
482.908	2519.83
483.279	2472.15
483.65	2575.43
484.021	2602.77
484.391	2597.57
484.762	2647.97
485.133	2688.64
485.503	2728.19
485.874	2754.4
486.244	2768.64
486.615	2853.61
486.985	2880.05
487.356	2887.28
487.726	2916.43
488.097	2996.66
488.467	3048.41
488.837	3074.85
489.207	3066.49
489.578	3132.47
489.948	3167.95
490.318	3227.16
490.688	3214.28
491.058	3272.81
491.428	3316.2
491.798	3315.52
492.168	3372.02
492.538	3387.83
492.908	3421.73
493.278	3465.35
493.648	3479.36
494.017	3522.97
494.387	3597.32
494.757	3518.45
495.126	3649.75
495.496	3642.74
495.866	3623.53
496.235	3691.33
496.605	3714.61
496.974	3732.23
497.344	3735.85
497.713	3791.67
498.082	3801.16
498.452	3826.24
498.821	3836.86
499.19	3830.53
499.559	3916.86
499.928	3939.91
500.298	3921.15
500.667	4031.89
501.036	3954.37
501.405	3980.81
501.774	4018.78
502.143	4037.54
502.512	4073.24
502.88	4125.44
503.249	4102.84
503.618	4144.42
503.987	4162.5
504.356	4176.74
504.724	4199.34
505.093	4197.3
505.462	4197.3
505.83	4238.43
506.199	4288.6
506.567	4322.27
506.936	4266.23
507.304	4347.58
507.672	4364.53
508.041	4410.86
508.409	4403.4
508.777	4443.17
509.145	4475.04
509.514	4474.59
509.882	4466.9
510.25	4490.86
510.618	4508.71
510.986	4519.33
511.354	4551.19
511.722	4549.39
512.09	4655.82
512.458	4608.59
512.826	4620.8
513.193	4636.84
513.561	4646.11
513.929	4628.48
514.297	4691.98
514.664	4738.31
515.032	4715.26
515.4	4755.93
515.767	4767.69
516.135	4764.3
516.502	4741.92
516.869	4826.67
517.237	4847.46
517.604	4805.2
517.972	4881.13
518.339	4873.22
518.706	4867.57
519.073	4885.42
519.44	4924.52
519.808	4986.21
520.175	4932.88
520.542	4997.06
520.909	5010.16
521.276	4993.89
521.643	5033.22
522.009	5069.82
522.376	5065.76
522.743	5064.4
523.11	5144.85
523.477	5198.41
523.843	5176.94
524.21	5224.62
524.577	5270.95
524.943	5246.77
525.31	5262.81
525.676	5332.42
526.043	5344.85
526.409	5397.05
526.776	5414.22
527.142	5400.89
527.508	5449.25
527.874	5512.52
528.241	5482.47
528.607	5521.11
528.973	5535.35
529.339	5548.46
529.705	5609.47
530.071	5661.9
530.437	5654.22
530.803	5711.62
531.169	5776.25
531.535	5757.94
531.901	5750.94
532.267	5809.47
532.632	5784.61
532.998	5844.72
533.364	5891.27
533.73	5868.9
534.095	5891.95
534.461	5956.13
534.826	5991.38
535.192	5999.97
535.557	6037.71
535.923	6051.72
536.288	6058.95
536.653	6140.53
537.019	6101.44
537.384	6084.94
537.749	6157.03
538.114	6159.06
538.479	6157.71
538.845	6210.13
539.21	6160.42
539.575	6283.58
539.94	6289.68
540.305	6337.36
540.67	6318.61
541.034	6348.21
541.399	6427.53
541.764	6391.15
542.129	6454.87
542.494	6487.41
542.858	6481.76
543.223	6469.11
543.587	6561.08
543.952	6557.02
544.316	6582.78
544.681	6578.26
545.045	6623.23
545.41	6688.09
545.774	6687.18
546.138	6706.62
546.503	6726.73
546.867	6759.95
547.231	6765.6
547.595	6823.22
547.959	6825.71
548.324	6812.83
548.688	6902.32
549.052	6891.47
549.416	6928.98
549.779	6877.91
550.143	6909.78
550.507	7004.46
550.871	7005.37
551.235	7006.72
551.599	7072.48
551.962	7104.35
552.326	7136.44
552.689	7178.7
553.053	7148.64
553.417	7152.03
553.78	7217.11
554.143	7254.85
554.507	7282.42
554.87	7284.91
555.234	7333.95
555.597	7268.41
555.96	7347.96
556.323	7400.84
556.686	7362.19
557.05	7414.4
557.413	7387.05
557.776	7434.96
558.139	7526.48
558.502	7511.79
558.865	7575.52
559.228	7569.87
559.59	7618.23
559.953	7632.47
560.316	7664.11
560.679	7688.96
561.041	7653.26
561.404	7681.96
561.767	7808.74
562.129	7762.18
562.492	7860.94
562.854	7827.72
563.217	7795.63
563.579	7903.2
563.941	7876.76
564.304	7924.44
564.666	7950.88
565.028	7997.66
565.39	7973.93
565.753	8055.96
566.115	8040.59
566.477	8148.61
566.839	8108.84
567.201	8164.43
567.563	8099.12
567.925	8194.71
568.287	8246.01
568.648	8260.47
569.01	8252.11
569.372	8338.66
569.734	8317.65
570.095	8393.58
570.457	8436.97
570.819	8399.45
571.18	8487.14
571.542	8523.97
571.903	8573.24
572.265	8607.81
572.626	8750.41
572.987	8692.55
573.349	8715.6
573.71	8771.2
574.071	8898.88
574.432	8915.37
574.794	9029.04
575.155	8979.33
575.516	9019.78
575.877	9161.47
576.238	9116.5
576.599	9269.49
576.96	9308.81
577.32	9433.55
577.681	9394
578.042	9636.94
578.403	9651.17
578.763	9682.58
579.124	9734.11
579.485	9841.9
579.845	9963.03
580.206	10153.98
580.566	10144.49
580.927	10292.29
581.287	10485.95
581.648	10505.16
582.008	10726.85
582.368	10891.59
582.728	10929.33
583.089	11065.15
583.449	11293.84
583.809	11405.48
584.169	11646.15
584.529	11675.53
584.889	11956.42
585.249	12179.47
585.609	12229.18
585.969	12526.35
586.329	12664.43
586.688	12937.87
587.048	13141.02
587.408	13307.35
587.768	13550.28
588.127	13782.36
588.487	13967.44
588.846	14284.27
589.206	14417.15
589.565	14750.93
589.925	15044.03
590.284	15167.41
590.643	15495.99
591.003	15798.81
591.362	16039.48
591.721	16315.4
592.08	16580.26
592.44	16934.15
592.799	17259.79
593.158	17510.18
593.517	17603.28
593.876	18073.78
594.235	18306.54
594.593	18528.45
594.952	18913.08
595.311	19123.01
595.67	19500.63
596.029	19854.97
596.387	20274.17
596.746	20446.14
597.104	20732.01
597.463	20914.15
597.822	21275.95
598.18	21496.06
598.538	21718.65
598.897	22172.2
599.255	22297.17
599.613	22850.6
599.972	22960.88
600.33	23416.23
600.688	23584.37
601.046	23894.41
601.404	24282.2
601.762	24524.23
602.12	24761.06
602.478	25111.33
602.836	25280.37
603.194	25489.85
603.552	25683.07
603.91	25928.03
604.268	26337.06
604.625	26489.83
604.983	26914.9
605.341	27005.52
605.698	27337.26
606.056	27702.22
606.413	27875.1
606.771	28164.81
607.128	28406.39
607.485	28564.57
607.843	28726.6
608.2	29008.18
608.557	29299.47
608.914	29492.46
609.272	29804.09
609.629	30037.98
609.986	30307.35
610.343	30365.2
610.7	30772.65
611.057	30958.64
611.414	31106.65
611.771	31262.58
612.127	31585.96
612.484	31714.55
612.841	31917.25
613.198	32000.64
613.554	32208.09
613.911	32579.61
614.267	32708.87
614.624	32798.36
614.98	32938.92
615.337	33302.53
615.693	33384.56
616.05	33612.12
616.406	33852.8
616.762	33829.97
617.118	33966.69
617.475	34102.73
617.831	34362.61
618.187	34426.57
618.543	34623.62
618.899	34786.11
619.255	34952.2
619.611	34996.72
619.967	35211.86
620.323	35426.54
620.678	35330.5
621.034	35520.78
621.39	35478.52
621.746	35633.77
622.101	36081.44
622.457	35998.28
622.812	36079.18
623.168	36279.63
623.523	36280.76
623.879	36562.1
624.234	36402.11
624.589	36551.71
624.945	36717.13
625.3	36653.17
625.655	36845.94
626.01	36812.94
626.365	36941.75
626.72	37000.28
627.075	37006.16
627.43	37120.28
627.785	37103.33
628.14	37178.58
628.495	37282.54
628.85	37372.93
629.205	37313.5
629.559	37639.36
629.914	37392.36
630.269	37492.02
630.623	37430.78
630.978	37362.08
631.332	37596.88
631.687	37820.83
632.041	37591.91
632.396	37810.43
632.75	37652.92
633.104	37837.55
633.459	37563.89
633.813	37606.82
634.167	37640.04
634.521	37799.59
634.875	37731.79
635.229	37830.54
635.583	37614.96
635.937	37719.14
636.291	37635.75
636.645	37691.11
636.999	37571.34
637.352	37755.74
637.706	37574.28
638.06	37754.61
638.413	37761.62
638.767	37596.43
639.121	37854.5
639.474	37523.66
639.828	37524.79
640.181	37698.8
640.534	37732.69
640.888	37762.98
641.241	37482.76
641.594	37552.59
641.947	37668.29
642.301	37556.88
642.654	37548.29
643.007	37589.42
643.36	37609.31
643.713	37568.4
644.066	37691.79
644.419	37421.29
644.771	37353.72
645.124	36925.94
645.477	36985.14
645.83	36649.78
646.182	36483.24
646.535	36584.48
646.888	36567.75
647.24	36351.94
647.593	36491.6
647.945	36522.33
648.298	36399.85
648.65	36297.93
649.002	36213.41
649.355	36376.35
649.707	36451.82
650.059	36478.72
650.411	36856.33
650.763	36982.43
651.115	37308.98
651.467	37191.69
651.819	37232.82
652.171	37240.73
652.523	37195.08
652.875	37132.03
653.227	36970.91
653.578	37280.73
653.93	37160.51
654.282	36996.44
654.633	36925.03
654.985	37147.4
655.337	36934.52
655.688	36979.27
656.039	37056.33
656.391	36839.16
656.742	36829.22
657.094	36897.69
657.445	37050.68
657.796	36801.42
658.147	36970.91
658.498	36713.29
658.849	36881.42
659.2	36824.47
659.551	36654.08
659.902	36896.33
660.253	36799.39
660.604	36904.92
660.955	36667.19
661.306	36917.35
661.656	36785.15
662.007	36770.01
662.358	36761.65
662.708	36766.17
663.059	36838.48
663.409	36525.27
663.76	36810.68
664.11	36673.06
664.461	36794.64
664.811	36687.52
665.161	36673.06
665.511	36690.01
665.862	36738.14
666.212	36752.38
666.562	36809.55
666.912	36676.22
667.262	36654.08
667.612	36630.58
667.962	36662.44
668.312	36582.67
668.662	36716.9
669.011	36646.85
669.361	36602.55
669.711	36444.59
670.06	36525.95
670.41	36542.9
670.76	36584.25
671.109	36652.27
671.459	36479.39
671.808	36436.23
672.157	36595.78
672.507	36337.93
672.856	36349
673.205	36544.48
673.554	36564.59
673.904	36449.56
674.253	36601.88
674.602	36592.61
674.951	35994.89
675.3	35799.86
675.649	36320.75
675.998	36352.17
676.346	36322.34
676.695	36444.59
677.044	36057.94
677.393	36265.61
677.741	36287.76
678.09	36203.92
678.438	36113.98
678.787	36166.18
679.135	36253.41
679.484	35907.66
679.832	36112.17
680.181	36022.68
680.529	36004.15
680.877	35926.64
681.225	35820.43
681.573	36031.04
681.922	35808.9
682.27	35737.49
682.618	35825.63
682.966	35485.52
683.314	35706.08
683.661	35628.79
684.009	35365.07
684.357	35380.89
684.705	35290.05
685.053	35302.93
685.4	35229.94
685.748	35135.93
686.095	35070.62
686.443	35097.96
686.79	35126.21
687.138	35165.53
687.485	35059.32
687.832	34862.26
688.18	34960.79
688.527	34691.87
688.874	34794.47
689.221	34685.99
689.568	34666.11
689.915	34590.63
690.262	34497.07
690.609	34514.7
690.956	34206.01
691.303	34190.64
691.65	34074.03
691.997	34093.92
692.344	33989.97
692.69	33923.98
693.037	33899.8
693.383	33555.85
693.73	33769.63
694.077	33562.18
694.423	33661.84
694.769	33540.94
695.116	33416.42
695.462	33399.02
695.808	33231.8
696.155	33250.33
696.501	33015.76
696.847	33004.46
697.193	32854.86
697.539	33001.75
697.885	32674.97
698.231	32630.23
698.577	32536.22
698.923	32622.55
699.269	32359.5
699.614	32324.25
699.96	32241.99
700.306	32228.43
700.651	32061.43
700.997	31911.38
701.342	31967.87
701.688	31991.6
702.033	31759.97
702.379	31784.15
702.724	31672.74
703.069	31603.14
703.415	31383.71
703.76	31453.09
704.105	31489.47
704.45	31280.66
704.795	31194.34
705.14	30998.63
705.485	30940.33
705.83	30793.89
706.175	30879.77
706.52	30750.05
706.865	30727
707.209	30619.44
707.554	30514.13
707.899	30617.63
708.243	30439.78
708.588	30478.65
708.932	30365.66
709.277	30216.96
709.621	30261.93
709.966	30079.56
710.31	30063.74
710.654	29744.43
710.998	29920.7
711.342	29979.45
711.687	29803.41
712.031	29798.67
712.375	29757.31
712.719	29639.57
713.063	29597.99
713.407	29711.44
713.75	29527.49
714.094	29323.65
714.438	29260.83
714.782	29395.06
715.125	29311.9
715.469	29128.4
715.812	29051.34
716.156	28989.42
716.499	28869.2
716.843	28995.52
717.186	28869.65
717.53	28992.36
717.873	29099.02
718.216	28852.25
718.559	28692.93
718.902	28617.45
719.246	28729.09
719.589	28569.32
719.932	28425.82
720.275	28536.1
720.617	28418.81
720.96	28295.65
721.303	28383.11
721.646	28367.74
721.989	28217.24
722.331	28330.23
722.674	28136.79
723.016	28167.07
723.359	28087.75
723.701	28074.19
724.044	27899.28
724.386	27793.07
724.729	27915.33
725.071	27797.14
725.413	27922.1
725.755	27759.17
726.097	27699.51
726.439	27573.87
726.782	27606.86
727.124	27629.91
727.465	27580.87
727.807	27423.13
728.149	27489.57
728.491	27498.61
728.833	27480.31
729.175	27298.39
729.516	27219.07
729.858	27185.4
730.199	27260.43
730.541	27179.98
730.882	27215.46
731.224	27162.12
731.565	27045.07
731.906	27042.13
732.248	27137.27
732.589	26963.03
732.93	26754
733.271	26822.7
733.612	26902.47
733.953	26793.32
734.294	26668.35
734.635	26558.98
734.976	26675.81
735.317	26526.21
735.658	26603.95
735.999	26417.06
736.339	26520.79
736.68	26646.66
737.021	26513.1
737.361	26223.39
737.702	26464.06
738.042	26426.78
738.383	26308.81
738.723	26408.7
739.063	26288.02
739.404	26249.15
739.744	26276.5
740.084	26249.15
740.424	26151.98
740.764	26070.85
741.104	26169.38
741.444	25792.44
741.784	25713.58
742.124	25989.05
742.464	25863.85
742.804	25842.39
743.143	25780.92
743.483	25640.81
743.823	25672.22
744.162	25592.9
744.502	25616.4
744.841	25575.95
745.181	25584.54
745.52	25470.19
745.86	25554.71
746.199	25464.09
746.538	25366.24
746.877	25396.52
747.216	25330.31
747.556	25358.1
747.895	25361.72
748.234	25288.95
748.573	25237.2
748.911	25133.7
749.25	25202.4
749.589	24963.99
749.928	25090.09
750.267	25002.86
750.605	24972.8
750.944	24856.65
751.283	24805.58
751.621	24832.92
751.96	24768.29
752.298	24758.35
752.636	24715.64
752.975	24616.2
753.313	24672.92
753.651	24767.16
753.989	24469.09
754.327	24505.7
754.666	24338.47
755.004	24533.27
755.342	24355.64
755.679	24300.73
756.017	24118.59
756.355	24204.01
756.693	24140.74
757.031	24158.81
757.368	24003.79
757.706	23911.14
758.044	23943.23
758.381	23990.23
758.719	23785.94
759.056	23779.61
759.394	23727.64
759.731	23588.89
760.068	23567.64
760.405	23485.39
760.743	23330.59
761.08	23475.67
761.417	23361.55
761.754	23214.43
762.091	23199.74
762.428	23098.28
762.765	22906.19
763.102	23028.45
763.438	22817.38
763.775	22821.45
764.112	22790.49
764.449	22820.32
764.785	22670.72
765.122	22531.96
765.458	22416.71
765.795	22470.04
766.131	22554.11
766.467	22375.58
766.804	22216.49
767.14	22147.34
767.476	22050.62
767.812	21927.69
768.148	22040
768.485	21824.86
768.821	21820.12
769.157	21691.31
769.492	21733.57
769.828	21649.05
770.164	21501.48
770.5	21438.21
770.836	21474.59
771.171	21338.1
771.507	21281.15
771.842	21054.71
772.178	21137.88
772.513	21022.85
772.849	20942.85
773.184	20758
773.519	20924.77
773.855	20752.58
774.19	20706.48
774.525	20590.77
774.86	20562.3
775.195	20554.61
775.53	20388.52
775.865	20381.29
776.2	20214.74
776.535	20096.1
776.87	20155.08
777.205	19988.08
777.539	19911.47
777.874	19917.57
778.209	19761.87
778.543	19732.26
778.878	19559.61
779.212	19536.34
779.547	19554.87
779.881	19571.82
780.215	19324.59
780.55	19391.93
780.884	19204.59
781.218	19237.59
781.552	19164.82
781.886	19066.29
782.22	18956.92
782.554	18905.39
782.888	18728.45
783.222	18682.8
783.556	18686.64
783.889	18644.61
784.223	18511.05
784.557	18424.28
784.89	18462.24
785.224	18370.49
785.557	18274.67
785.891	18170.72
786.224	18200.33
786.558	18059.31
786.891	17966.43
787.224	17939.54
787.557	17860.22
787.891	17822.71
788.224	17758.53
788.557	17835.36
788.89	17652.77
789.223	17645.31
789.556	17479.44
789.888	17532.32
790.221	17498.65
790.554	17313.8
790.887	17251.65
791.219	17244.65
791.552	17196.51
791.884	17073.35
792.217	17105.89
792.549	16972.34
792.882	16862.06
793.214	16833.58
793.546	16827.03
793.879	16741.61
794.211	16575.96
794.543	16864.32
794.875	16621.38
795.207	16579.58
795.539	16438.34
795.871	16509.07
796.203	16350.43
796.535	16218.23
796.867	16251.68
797.198	16150.44
797.53	16195.18
797.862	16143.66
798.193	16166.93
798.525	15973.94
798.856	16006.71
799.188	15857.11
799.519	15797.68
799.85	15692.82
800.182	15692.14
800.513	15718.81
800.844	15591.81
801.175	15725.14
801.506	15635.42
801.837	15472.94
802.168	15463.22
802.499	15447.86
802.83	15310.23
803.161	15196.79
803.491	15298.26
803.822	15228.65
804.153	15227.07
804.483	15041.31
804.814	15028.43
805.145	15080.41
805.475	15012.39
805.805	14908.89
806.136	14910.02
806.466	14823.47
806.796	14856.23
807.126	14676.58
807.457	14742.79
807.787	14738.5
808.117	14614.21
808.447	14508.22
808.777	14564.49
809.107	14509.58
809.436	14542.8
809.766	14519.97
810.096	14402.46
810.426	14381.9
810.755	14296.25
811.085	14352.52
811.414	14275.46
811.744	14223.26
812.073	14184.61
812.403	14129.25
812.732	14095.58
813.061	14087.67
813.39	14012.41
813.719	13956.82
814.049	14009.02
814.378	13981.91
814.707	13917.73
815.036	13978.74
815.365	13787.34
815.693	13755.7
816.022	13713.21
816.351	13717.05
816.68	13606.32
817.008	13677.28
817.337	13537.4
817.665	13477.74
817.994	13537.85
818.322	13492.88
818.651	13413.79
818.979	13281.36
819.307	13383.96
819.636	13351.87
819.964	13290.4
820.292	13363.62
820.62	13345.99
820.948	13337.63
821.276	13296.05
821.604	13190.51
821.932	13190.51
822.259	13299.21
822.587	13190.97
822.915	13272.32
823.243	13267.35
823.57	13174.7
823.898	13183.74
824.225	13179.22
824.553	13180.12
824.88	13176.05
825.207	13253.34
825.535	13231.19
825.862	13223.96
826.189	13234.81
826.516	13225.99
826.843	13282.49
827.17	13183.96
827.497	13250.85
827.824	13211.08
828.151	13346.89
828.478	13295.82
828.805	13248.14
829.131	13231.19
829.458	13169.95
829.785	13136.96
830.111	13129.27
830.438	13182.83
830.764	13162.27
831.09	13122.04
831.417	13124.3
831.743	13182.61
832.069	13104.42
832.395	13038.88
832.722	13121.59
833.048	13115.71
833.374	13094.47
833.7	13019.67
834.026	13009.73
834.351	13047.69
834.677	13108.03
835.003	13050.63
835.329	13004.76
835.654	12916.62
835.98	12915.04
836.306	12966.57
836.631	12846.12
836.956	12941.71
837.282	12888.6
837.607	12868.26
837.932	12854.93
838.258	12859.9
838.583	12877.75
838.908	12684.54
839.233	12727.48
839.558	12743.75
839.883	12708.95
840.208	12648.83
840.533	12628.5
840.858	12650.87
841.182	12617.42
841.507	12675.73
841.832	12569.06
842.156	12505.79
842.481	12556.63
842.805	12526.58
843.13	12450.42
843.454	12414.94
843.778	12402.96
844.103	12402.96
844.427	12328.16
844.751	12338.33
845.075	12216.3
845.399	12317.32
845.723	12157.1
846.047	12269.64
846.371	12104.22
846.695	12087.72
847.019	11995.74
847.343	11985.35
847.666	11871
847.99	11807.5
848.313	11826.48
848.637	11729.76
848.96	11691.57
849.284	11713.72
849.607	11630.33
849.931	11611.12
850.254	11504.23
850.577	11448.19
850.9	11380.84
851.223	11404.57
851.546	11242.32
851.869	11302.88
852.192	11295.2
852.515	11211.13
852.838	11192.15
853.161	11177.23
853.483	11065.37
853.806	10991.25
854.129	10995.54
854.451	10952.16
854.774	10892.72
855.096	10900.86
855.419	10863.8
855.741	10817.7
856.063	10817.7
856.385	10754.42
856.708	10739.73
857.03	10657.47
857.352	10677.13
857.674	10719.39
857.996	10604.37
858.318	10565.05
858.64	10579.06
858.961	10503.13
859.283	10469.91
859.605	10462.22
859.926	10462.22
860.248	10464.03
860.57	10348.1
860.891	10410.93
861.212	10330.25
861.534	10344.94
861.855	10249.8
862.176	10290.7
862.498	10320.99
862.819	10265.62
863.14	10113.76
863.461	10180.2
863.782	10180.42
864.103	10109.47
864.424	10124.61
864.745	10094.32
865.065	10107.21
865.386	10068.11
865.707	10054.33
866.027	9976.81
866.348	9979.3
866.668	9982.46
866.989	9975.23
867.309	9887.32
867.63	9947.21
867.95	9850.49
868.27	9903.14
868.59	9944.72
868.91	9873.99
869.23	9882.13
869.55	9773.88
869.87	9819.53
870.19	9790.83
870.51	9783.15
870.83	9803.94
871.15	9721.23
871.469	9782.47
871.789	9694.56
872.109	9763.49
872.428	9642.81
872.748	9730.72
873.067	9559.88
873.386	9667.9
873.706	9619.76
874.025	9644.85
874.344	9569.37
874.663	9695.24
874.982	9556.94
875.301	9548.35
875.62	9521.46
875.939	9490.95
876.258	9475.36
876.577	9460.22
876.896	9528.69
877.214	9529.82
877.533	9503.83
877.852	9410.73
878.17	9420.44
878.489	9474.45
878.807	9357.62
879.125	9383.16
879.444	9283.95
879.762	9331.41
880.08	9337.06
880.398	9238.53
880.716	9305.42
881.034	9249.6
881.352	9290.73
881.67	9203.95
881.988	9144.07
882.306	9175.25
882.624	9163.05
882.941	9111.3
883.259	9108.36
883.577	9092.09
883.894	9012.09
884.212	9040.12
884.529	8989.95
884.846	9043.05
885.164	8988.37
885.481	8914.24
885.798	8946.56
886.115	8846.67
886.432	8929.38
886.75	8908.37
887.067	8891.64
887.383	8808.71
887.7	8868.37
888.017	8841.7
888.334	8774.36
888.651	8749.95
888.967	8694.81
889.284	8677.19
889.6	8672.67
889.917	8618.43
890.233	8657.07
890.55	8617.75
890.866	8596.29
891.182	8549.05
891.498	8493.01
891.815	8527.13
892.131	8492.33
892.447	8432.22
892.763	8364.88
893.079	8437.65
893.395	8414.6
893.71	8344.99
894.026	8366.23
894.342	8345.22
894.657	8232
894.973	8277.65
895.289	8250.31
895.604	8252.57
895.92	8143.64
896.235	8177.99
896.55	8137.31
896.865	8058.67
897.181	8114.49
897.496	8109.97
897.811	8046.02
898.126	7965.12
898.441	7965.57
898.756	7952.91
899.071	7903.87
899.386	7923.76
899.7	7845.8
900.015	7848.51
900.33	7802.86
900.644	7723.77
900.959	7752.24
901.273	7679.25
901.588	7693.48
901.902	7593.6
902.216	7647.38
902.531	7611
902.845	7608.74
903.159	7540.72
903.473	7531.23
903.787	7488.74
904.101	7450.1
904.415	7457.78
904.729	7366.71
905.042	7371.46
905.356	7336.21
905.67	7332.82
905.984	7289.2
906.297	7287.39
906.611	7270.9
906.924	7187.96
907.237	7171.69
907.551	7171.92
907.864	7146.61
908.177	7076.33
908.491	7113.16
908.804	7106.83
909.117	7009.43
909.43	6925.82
909.743	6971.92
910.056	6985.71
910.368	6891.92
910.681	6917.23
910.994	6893.28
911.307	6836.33
911.619	6750.68
911.932	6777.8
912.244	6708.65
912.557	6735.32
912.869	6695.09
913.181	6677.47
913.494	6693.28
913.806	6633.63
914.118	6626.85
914.43	6521.54
914.742	6546.62
915.054	6494.87
915.366	6506.17
915.678	6456
915.99	6422.56
916.302	6437.25
916.613	6333.75
916.925	6301.66
917.236	6300.98
917.548	6347.08
917.859	6273.63
918.171	6193.41
918.482	6237.48
918.794	6168.78
919.105	6138.04
919.416	6150.47
919.727	6132.4
920.038	6077.71
920.349	6056.47
920.66	6062.34
920.971	6066.86
921.282	5998.61
921.593	5960.42
921.903	5966.07
922.214	5911.38
922.525	5902.57
922.835	5825.06
923.146	5831.61
923.456	5854.21
923.767	5833.42
924.077	5820.31
924.387	5741.67
924.697	5705.29
925.008	5679.07
925.318	5681.11
925.628	5709.36
925.938	5604.73
926.248	5596.14
926.558	5566.76
926.867	5547.78
927.177	5506.42
927.487	5502.36
927.796	5452.19
928.106	5455.8
928.416	5437.05
928.725	5406.09
929.034	5422.36
929.344	5431.85
929.653	5372.19
929.962	5327.22
930.271	5289.03
930.581	5253.1
930.89	5285.86
931.199	5200.44
931.508	5211.06
931.817	5190.73
932.125	5143.49
932.434	5102.82
932.743	5116.6
933.051	5086.1
933.36	5091.74
933.669	5061.69
933.977	5075.02
934.286	5069.6
934.594	5012.65
934.902	4974.91
935.21	4934.46
935.519	4931.52
935.827	4932.43
936.135	4876.61
936.443	4780.57
936.751	4869.83
937.059	4792.77
937.367	4812.43
937.674	4850.4
937.982	4781.92
938.29	4776.05
938.597	4707.57
938.905	4696.5
939.213	4633.45
939.52	4701.92
939.827	4682.94
940.135	4610.4
940.442	4566.11
940.749	4595.03
941.056	4568.14
941.363	4521.82
941.67	4538.54
941.977	4488.6
942.284	4494.25
942.591	4477.75
942.898	4447.02
943.205	4484.53
943.511	4386.23
943.818	4408.37
944.125	4352.78
944.431	4351.2
944.738	4375.15
945.044	4304.87
945.35	4306.45
945.657	4301.93
945.963	4259.22
946.269	4235.72
946.575	4218.77
946.881	4227.36
947.187	4162.5
947.493	4181.03
947.799	4217.64
948.105	4117.53
948.41	4123.41
948.716	4141.49
949.022	4065.1
949.327	4115.95
949.633	4036.63
949.938	4029.63
950.244	3975.39
950.549	4018.33
950.854	3975.84
951.16	4016.52
951.465	3925.67
951.77	3970.19
952.075	3898.33
952.38	3895.62
952.685	3888.39
952.99	3831.21
953.294	3812.91
953.599	3850.2
953.904	3819.24
954.209	3782.85
954.513	3787.82
954.818	3812.68
955.122	3737.66
955.426	3720.93
955.731	3716.64
956.035	3745.34
956.339	3673.25
956.643	3724.55
956.948	3654.72
957.252	3624.66
957.556	3638.9
957.86	3608.17
958.163	3648.84
958.467	3592.58
958.771	3576.3
959.075	3565.01
959.378	3494.72
959.682	3511.22
959.985	3491.11
960.289	3471.9
960.592	3423.09
960.896	3437.55
961.199	3408.4
961.502	3420.38
961.805	3413.37
962.108	3395.74
962.411	3380.6
962.714	3351.45
963.017	3329.53
963.32	3330.44
963.623	3325.01
963.926	3341.73
964.228	3297.44
964.531	3287.72
964.833	3238.23
965.136	3218.8
965.438	3227.84
965.741	3253.6
966.043	3262.19
966.345	3186.03
966.648	3193.49
966.95	3199.37
967.252	3145.36
967.554	3162.76
967.856	3131.57
968.158	3090.22
968.46	3085.02
968.761	3105.13
969.063	3103.32
969.365	3034.17
969.666	3091.8
969.968	3031.01
970.269	3015.42
970.571	3014.74
970.872	3016.54
971.174	2951.69
971.475	3001.63
971.776	2944.68
972.077	2958.92
972.378	2926.6
972.679	2933.38
972.98	2951.69
973.281	2904.01
973.582	2873.27
973.883	2869.66
974.183	2859.26
974.484	2860.62
974.785	2849.77
975.085	2820.39
975.386	2833.27
975.686	2831.69
975.986	2795.31
976.287	2782.65
976.587	2753.95
976.887	2733.39
977.187	2773.61
977.487	2744.01
977.787	2691.58
978.087	2705.59
978.387	2680.28
978.687	2685.71
978.987	2637.35
979.286	2652.26
979.586	2654.07
979.885	2637.8
980.185	2621.98
980.484	2590.57
980.784	2585.37
981.083	2588.08
981.382	2556.9
981.682	2542.89
981.981	2570.68
982.28	2546.5
982.579	2522.32
982.878	2533.39
983.177	2487.75
983.475	2507.18
983.774	2500.85
984.073	2501.3
984.372	2487.97
984.67	2454.98
984.969	2455.2
985.267	2457.01
985.566	2414.07
985.864	2391.02
986.162	2408.2
986.461	2394.64
986.759	2411.82
987.057	2372.27
987.355	2340.4
987.653	2358.03
987.951	2331.59
988.249	2372.04
988.547	2350.12
988.844	2312.38
989.142	2322.1
989.44	2297.24
989.737	2273.51
990.035	2270.12
990.332	2260.41
990.63	2232.84
990.927	2238.03
991.224	2256.11
991.521	2197.58
991.819	2241.65
992.116	2214.53
992.413	2179.96
992.71	2200.3
993.006	2137.92
993.303	2169.11
993.6	2168.43
993.897	2161.43
994.193	2113.97
994.49	2131.6
994.787	2086.85
995.083	2097.47
995.379	2059.96
995.676	2109.22
995.972	2060.19
996.268	2074.2
996.565	2059.28
996.861	2075.78
997.157	2021.32
997.453	2018.15
997.749	2012.96
998.044	1986.97
998.34	2005.5
998.636	2003.69
998.932	1977.48
999.227	1974.99
999.523	1926.18
999.818	1932.28
1000.114	1976.8
1000.409	1949
1000.704	1893.41
1001	1897.7
1001.295	1883.47
1001.59	1878.27
1001.885	1880.53
1002.18	1875.56
1002.475	1842.56
1002.77	1811.83
1003.065	1862.9
1003.359	1797.37
1003.654	1812.51
1003.949	1798.95
1004.243	1785.39
1004.538	1794.88
1004.832	1779.97
1005.127	1764.83
1005.421	1741.1
1005.715	1718.27
1006.009	1753.98
1006.304	1704.49
1006.598	1696.35
1006.892	1711.04
1007.186	1691.83
1007.48	1701.33
1007.773	1693.64
1008.067	1666.3
1008.361	1655.22
1008.655	1686.18
1008.948	1651.61
1009.242	1653.87
1009.535	1621.78
1009.829	1572.97
1010.122	1608.9
1010.415	1614.77
1010.708	1588.56
1011.001	1600.09
1011.295	1567.54
1011.588	1563.7
1011.881	1522.8
1012.173	1565.06
1012.466	1553.53
1012.759	1539.52
1013.052	1515.79
1013.344	1518.28
1013.637	1516.47
1013.93	1511.95
1014.222	1491.39
1014.514	1485.96
1014.807	1463.14
1015.099	1446.19
1015.391	1466.98
1015.683	1468.56
1015.976	1460.65
1016.268	1438.73
1016.56	1408.68
1016.851	1406.42
1017.143	1381.56
1017.435	1407.32
1017.727	1408.23
1018.018	1421.56
1018.31	1396.7
1018.602	1378.85
1018.893	1344.5
1019.185	1340.66
1019.476	1325.74
1019.767	1357.83
1020.058	1316.25
1020.35	1331.84
1020.641	1314.22
1020.932	1301.11
1021.223	1280.09
1021.514	1285.97
1021.804	1265.63
1022.095	1275.12
1022.386	1278.74
1022.677	1244.61
1022.967	1256.37
1023.258	1238.96
1023.548	1225.63
1023.839	1222.69
1024.129	1200.1
1024.419	1190.38
1024.709	1197.16
1025	1145.86
1025.29	1165.97
1025.58	1171.17
1025.87	1145.63
1026.16	1177.72
1026.449	1160.32
1026.739	1137.5
1027.029	1154.67
1027.319	1142.02
1027.608	1109.02
1027.898	1095.01
1028.187	1120.32
1028.477	1115.13
1028.766	1100.66
1029.055	1098.63
1029.344	1094.56
1029.634	1078.06
1029.923	1061.34
1030.212	1053.43
1030.501	1056.82
1030.79	1026.09
1031.078	1039.87
1031.367	1039.65
1031.656	1027.9
1031.945	1021.8
1032.233	1014.56
1032.522	1031.96
1032.81	1032.87
1033.099	978.18
1033.387	995.36
1033.675	979.76
1033.963	964.17
1034.251	964.17
1034.54	967.33
1034.828	975.69
1035.116	951.29
1035.403	939.31
1035.691	950.84
1035.979	923.04
1036.267	937.73
1036.554	934.79
1036.842	942.93
1037.129	916.26
1037.417	917.62
1037.704	925.75
1037.992	906.77
1038.279	895.02
1038.566	903.83
1038.853	903.83
1039.14	903.83
