Data from hue_250_FLMS001491_00012.txt Node
Date: Tue Feb 07 16:00:36 GMT 2017
User: dcchb
Spectrometer: FLMS00149
Trigger mode: 0
Integration Time (sec): 2.000000E-2
Scans to average: 10
Electric dark correction enabled: true
Nonlinearity correction enabled: false
Boxcar width: 0
XAxis mode: Wavelengths
Number of Pixels in Spectrum: 2048
>>>>>Begin Spectral Data<<<<<
341.393	-16.26
341.776	-16.26
342.16	-16.26
342.543	-93.99
342.927	-70.27
343.31	-79.53
343.693	-63.26
344.077	-48.35
344.46	-49.48
344.843	-58.06
345.226	-21.23
345.61	-46.54
345.993	-20.78
346.376	-22.13
346.759	23.29
347.142	16.51
347.525	38.43
347.908	68.26
348.291	59.22
348.674	80.24
349.057	123.4
349.44	133.57
349.823	159.33
350.206	160.46
350.588	181.25
350.971	198.43
351.354	209.73
351.737	216.96
352.119	235.94
352.502	252.89
352.884	228.93
353.267	279.55
353.65	289.72
354.032	270.52
354.414	288.14
354.797	290.18
355.179	307.12
355.562	290.4
355.944	307.35
356.326	315.71
356.709	325.2
357.091	324.75
357.473	334.92
357.855	316.62
358.238	326.33
358.62	359.78
359.002	333.79
359.384	322.94
359.766	335.82
360.148	340.34
360.53	335.37
360.912	323.85
361.294	319.33
361.676	317.07
362.057	315.71
362.439	308.71
362.821	321.81
363.203	330.85
363.584	339.89
363.966	305.99
364.348	322.27
364.729	328.59
365.111	302.83
365.493	282.72
365.874	323.4
366.256	297.41
366.637	275.94
367.019	290.63
367.4	320.01
367.781	317.52
368.163	312.77
368.544	322.04
368.925	295.83
369.306	308.03
369.688	313
370.069	313.45
370.45	298.76
370.831	322.94
371.212	280.01
371.593	294.02
371.974	307.8
372.355	296.5
372.736	310.97
373.117	315.49
373.498	301.02
373.879	301.7
374.26	298.99
374.641	294.7
375.021	307.35
375.402	331.98
375.783	323.17
376.163	299.67
376.544	320.91
376.925	317.52
377.305	304.64
377.686	334.69
378.066	321.36
378.447	309.61
378.827	312.55
379.208	299.22
379.588	332.21
379.968	317.07
380.349	319.78
380.729	315.26
381.109	322.94
381.489	309.61
381.87	311.42
382.25	329.72
382.63	315.71
383.01	317.29
383.39	347.8
383.77	334.47
384.15	335.37
384.53	328.14
384.91	314.36
385.29	314.81
385.67	323.62
386.049	360.91
386.429	324.75
386.809	350.29
387.189	351.64
387.568	330.4
387.948	336.73
388.328	328.59
388.707	359.1
389.087	338.76
389.466	328.59
389.846	369.04
390.225	349.16
390.605	353.45
390.984	357.74
391.363	360.23
391.743	353.9
392.122	369.04
392.501	353.9
392.881	356.39
393.26	358.2
393.639	357.74
394.018	363.39
394.397	380.12
394.776	373.34
395.155	368.37
395.534	381.25
395.913	355.49
396.292	383.73
396.671	368.82
397.05	383.05
397.429	374.92
397.808	380.57
398.186	391.87
398.565	387.35
398.944	403.62
399.323	393.22
399.701	378.54
400.08	387.35
400.458	392.77
400.837	395.48
401.215	386.67
401.594	408.14
401.972	389.38
402.351	423.28
402.729	401.13
403.107	427.35
403.486	396.84
403.864	412.43
404.242	407.01
404.62	419.89
404.999	409.72
405.377	408.14
405.755	434.13
406.133	430.29
406.511	440.91
406.889	446.33
407.267	452.88
407.645	454.24
408.023	454.92
408.401	467.35
408.779	455.14
409.156	475.71
409.534	475.26
409.912	480
410.29	512.32
410.667	516.16
411.045	478.87
411.422	513.9
411.8	494.24
412.178	508.93
412.555	521.13
412.933	546.44
413.31	539.66
413.687	530.4
414.065	535.82
414.442	550.73
414.819	543.05
415.197	571.3
415.574	567.23
415.951	550.28
416.328	584.41
416.705	571.3
417.082	594.35
417.46	610.17
417.837	607.68
418.214	593.44
418.591	627.34
418.967	617.17
419.344	627.12
419.721	648.81
420.098	636.61
420.475	656.04
420.852	685.65
421.228	668.25
421.605	691.52
421.982	674.57
422.358	708.02
422.735	697.62
423.111	693.78
423.488	728.36
423.864	732.88
424.241	753.44
424.617	754.8
424.994	748.47
425.37	768.13
425.746	772.42
426.123	796.15
426.499	779.65
426.875	796.38
427.251	782.82
427.627	818.3
428.003	851.29
428.379	857.39
428.756	870.95
429.132	873.89
429.507	887.67
429.883	897.39
430.259	908.24
430.635	889.48
431.011	916.83
431.387	924.51
431.763	941.91
432.138	934.68
432.514	936.49
432.89	968.35
433.265	993.21
433.641	1011.29
434.016	1010.16
434.392	1028.46
434.767	1040.21
435.143	1088.8
435.518	1078.63
435.894	1109.82
436.269	1102.58
436.644	1106.43
437.02	1146.88
437.395	1130.83
437.77	1200.89
438.145	1188.46
438.52	1198.17
438.895	1195.01
439.271	1199.53
439.646	1234.33
440.021	1250.15
440.395	1264.84
440.77	1258.06
441.145	1292.41
441.52	1335.8
441.895	1338.96
442.27	1334.44
442.645	1344.16
443.019	1357.27
443.394	1344.16
443.769	1361.79
444.143	1366.76
444.518	1406.3
444.892	1413.99
445.267	1420.09
445.641	1403.59
446.016	1424.61
446.39	1444.95
446.764	1455.8
447.139	1433.65
447.513	1477.26
447.887	1480.65
448.262	1474.78
448.636	1505.29
449.01	1544.15
449.384	1507.55
449.758	1525.85
450.132	1550.71
450.506	1557.49
450.88	1577.6
451.254	1573.53
451.628	1588.9
452.002	1624.38
452.376	1619.41
452.75	1638.62
453.123	1649.91
453.497	1665.51
453.871	1679.52
454.244	1688.33
454.618	1729.69
454.992	1737.14
455.365	1735.56
455.739	1772.4
456.112	1798.38
456.486	1800.19
456.859	1789.35
457.232	1814.88
457.606	1817.14
457.979	1863.24
458.352	1906.18
458.725	1917.48
459.099	1922
459.472	1969.91
459.845	1987.98
460.218	1973.07
460.591	2010.58
460.964	2005.84
461.337	2056.23
461.71	2058.72
462.083	2128.55
462.456	2103.91
462.829	2118.83
463.201	2169.67
463.574	2162.44
463.947	2161.99
464.32	2229.33
464.692	2269.78
465.065	2267.3
465.438	2309.33
465.81	2326.05
466.183	2364.92
466.555	2384.58
466.928	2380.06
467.3	2386.39
467.672	2400.4
468.045	2493.51
468.417	2527.86
468.789	2511.13
469.161	2542.55
469.534	2547.29
469.906	2624.35
470.278	2635.65
470.65	2638.36
471.022	2706.38
471.394	2766.04
471.766	2759.94
472.138	2782.99
472.51	2839.71
472.882	2863.89
473.253	2927.85
473.625	2937.34
473.997	3023.89
474.369	3013.27
474.74	3024.79
475.112	3053.72
475.484	3112.02
475.855	3177.78
476.227	3222.53
476.598	3251.45
476.97	3312.92
477.341	3323.99
477.713	3384.78
478.084	3408.51
478.455	3503.2
478.827	3541.84
479.198	3572.58
479.569	3666.58
479.94	3701.61
480.311	3700.48
480.682	3786.58
481.053	3884.21
481.424	3857.77
481.795	3918.1
482.166	4009.85
482.537	4019.34
482.908	4096.4
483.279	4166.23
483.65	4201.26
484.021	4275.38
484.391	4345.89
484.762	4367.13
485.133	4398.99
485.503	4458.43
485.874	4499.33
486.244	4516.28
486.615	4646.9
486.985	4641.93
487.356	4733.45
487.726	4746.78
488.097	4847.57
488.467	4858.64
488.837	4929.38
489.207	4970.73
489.578	5084.63
489.948	5114
490.318	5151.07
490.688	5172.08
491.058	5260.67
491.428	5339.08
491.798	5333.43
492.168	5404.62
492.538	5374.11
492.908	5530.72
493.278	5557.61
493.648	5508.12
494.017	5600.09
494.387	5620.43
494.757	5686.64
495.126	5737.49
495.496	5757.38
495.866	5756.7
496.235	5826.75
496.605	5866.53
496.974	5870.14
497.344	5950.82
497.713	5937.94
498.082	5976.58
498.452	6010.25
498.821	6078.72
499.19	6091.38
499.559	6134.54
499.928	6130.93
500.298	6099.06
500.667	6217.93
501.036	6224.71
501.405	6233.3
501.774	6217.48
502.143	6299.74
502.512	6334.76
502.88	6382.22
503.249	6395.33
503.618	6410.69
503.987	6448.21
504.356	6480.07
504.724	6432.61
505.093	6487.08
505.462	6515.32
505.83	6497.02
506.199	6595.32
506.567	6635.09
506.936	6578.6
507.304	6643.91
507.672	6659.27
508.041	6671.25
508.409	6690.01
508.777	6727.29
509.145	6725.94
509.514	6736.11
509.882	6771.36
510.25	6784.02
510.618	6835.31
510.986	6830.79
511.354	6843.45
511.722	6929.1
512.09	6917.8
512.458	6985.37
512.826	6995.31
513.193	6986.5
513.561	6976.55
513.929	7021.07
514.297	7027.4
514.664	7136.1
515.032	7109.21
515.4	7111.47
515.767	7103.78
516.135	7115.31
516.502	7074.63
516.869	7204.12
517.237	7160.96
517.604	7137.45
517.972	7218.58
518.339	7268.3
518.706	7189.2
519.073	7291.35
519.44	7222.2
519.808	7333.83
520.175	7338.8
520.542	7380.16
520.909	7372.7
521.276	7334.96
521.643	7390.78
522.009	7406.37
522.376	7494.73
522.743	7459.25
523.11	7513.94
523.477	7508.97
523.843	7584.67
524.21	7583.32
524.577	7587.84
524.943	7597.1
525.31	7639.14
525.676	7654.95
526.043	7671.22
526.409	7706.7
526.776	7695.41
527.142	7786.02
527.508	7721.84
527.874	7794.61
528.241	7789.19
528.607	7812.46
528.973	7809.07
529.339	7847.27
529.705	7887.49
530.071	7896.53
530.437	7868.51
530.803	7857.21
531.169	7849.3
531.535	7897.43
531.901	7897.43
532.267	7868.96
532.632	7913.7
532.998	7857.66
533.364	7917.32
533.73	7901.5
534.095	7912.57
534.461	7855.85
534.826	7919.58
535.192	7932.01
535.557	7893.82
535.923	7928.17
536.288	7902.18
536.653	7951.22
537.019	7913.03
537.384	7847.72
537.749	7913.48
538.114	7854.95
538.479	7879.13
538.845	7933.36
539.21	7859.02
539.575	7898.56
539.94	7858.34
540.305	7840.49
540.67	7838.9
541.034	7815.4
541.399	7867.38
541.764	7880.94
542.129	7833.25
542.494	7864.67
542.858	7868.28
543.223	7783.76
543.587	7840.71
543.952	7801.84
544.316	7825.8
544.681	7811.33
545.045	7812.01
545.41	7825.57
545.774	7799.36
546.138	7753.71
546.503	7760.94
546.867	7721.39
547.231	7729.53
547.595	7811.33
547.959	7706.03
548.324	7751.67
548.688	7742.18
549.052	7758.91
549.416	7783.99
549.779	7726.36
550.143	7713.94
550.507	7771.56
550.871	7746.7
551.235	7687.27
551.599	7745.8
551.962	7689.76
552.326	7772.01
552.689	7712.81
553.053	7678.68
553.417	7689.98
553.78	7770.43
554.143	7718.23
554.507	7698.34
554.87	7714.84
555.234	7738.79
555.597	7746.93
555.96	7659.02
556.323	7725.91
556.686	7724.56
557.05	7744.9
557.413	7696.76
557.776	7728.62
558.139	7703.09
558.502	7703.09
558.865	7688.85
559.228	7812.24
559.59	7747.61
559.953	7769.3
560.316	7746.93
560.679	7778.79
561.041	7783.09
561.404	7796.65
561.767	7833.25
562.129	7753.26
562.492	7849.07
562.854	7830.77
563.217	7865.8
563.579	7862.18
563.941	7899.24
564.304	7910.54
564.666	7882.07
565.028	7910.77
565.39	7996.87
565.753	7967.71
566.115	7972.01
566.477	7965.91
566.839	8022.85
567.201	8064.66
567.563	7989.63
567.925	8043.64
568.287	8035.74
568.648	8072.12
569.01	8117.54
569.372	8131.33
569.734	8108.95
570.095	8129.07
570.457	8188.27
570.819	8161.83
571.18	8191.89
571.542	8231.66
571.903	8179.01
572.265	8227.59
572.626	8246.12
572.987	8271.21
573.349	8361.83
573.71	8320.93
574.071	8298.33
574.432	8314.15
574.794	8409.74
575.155	8394.37
575.516	8337.65
575.877	8423.3
576.238	8397.53
576.599	8467.81
576.96	8465.1
577.32	8481.83
577.681	8483.63
578.042	8480.47
578.403	8570.64
578.763	8590.97
579.124	8624.42
579.485	8605.89
579.845	8646.57
580.206	8645.21
580.566	8650.63
580.927	8653.35
581.287	8694.47
581.648	8696.06
582.008	8721.14
582.368	8685.21
582.728	8753.46
583.089	8748.48
583.449	8788.48
583.809	8757.75
584.169	8782.61
584.529	8747.81
584.889	8884.53
585.249	8777.41
585.609	8803.4
585.969	8859.44
586.329	8792.78
586.688	8802.27
587.048	8834.36
587.408	8870.74
587.768	8902.83
588.127	8877.07
588.487	8876.16
588.846	8946.67
589.206	8879.33
589.565	8899.89
589.925	8886.56
590.284	8932.89
590.643	8954.81
591.003	8941.02
591.362	8950.97
591.721	8988.03
592.08	8979.89
592.44	9023.51
592.799	9048.59
593.158	9034.13
593.517	9029.38
593.876	9063.96
594.235	8974.24
594.593	9045.88
594.952	9086.55
595.311	9066.67
595.67	9018.31
596.029	9077.97
596.387	9157.29
596.746	9163.61
597.104	9065.54
597.463	9097.4
597.822	9125.65
598.18	9100.11
598.538	9124.97
598.897	9135.82
599.255	9102.15
599.613	9273.67
599.972	9140.56
600.33	9147.12
600.688	9125.65
601.046	9144.63
601.404	9209.72
601.762	9237.74
602.12	9237.06
602.478	9188.7
602.836	9180.34
603.194	9148.93
603.552	9228.7
603.91	9173.11
604.268	9190.96
604.625	9222.6
604.983	9225.76
605.341	9192.77
605.698	9267.12
606.056	9283.61
606.413	9223.27
606.771	9239.32
607.128	9280
607.485	9256.72
607.843	9228.47
608.2	9268.7
608.557	9309.83
608.914	9193.9
609.272	9300.33
609.629	9333.55
609.986	9443.16
610.343	9296.72
610.7	9397.73
611.057	9345.76
611.414	9383.95
611.771	9371.97
612.127	9479.09
612.484	9397.51
612.841	9447.68
613.198	9393.21
613.554	9384.85
613.911	9453.78
614.267	9476.15
614.624	9437.73
614.98	9478.18
615.337	9547.79
615.693	9536.03
616.05	9459.65
616.406	9535.81
616.762	9531.74
617.118	9455.58
617.475	9543.94
617.831	9548.92
618.187	9528.8
618.543	9481.35
618.899	9528.58
619.255	9536.94
619.611	9555.47
619.967	9552.76
620.323	9655.81
620.678	9585.52
621.034	9584.39
621.39	9476.83
621.746	9537.16
622.101	9665.07
622.457	9575.36
622.812	9565.41
623.168	9631.63
623.523	9572.87
623.879	9577.62
624.234	9487.45
624.589	9572.87
624.945	9620.1
625.3	9596.15
625.655	9530.16
626.01	9630.04
626.365	9560.67
626.72	9583.04
627.075	9562.7
627.43	9600.21
627.785	9511.4
628.14	9582.59
628.495	9572.87
628.85	9507.11
629.205	9498.52
629.559	9564.51
629.914	9489.71
630.269	9589.37
630.623	9491.52
630.978	9474.12
631.332	9462.59
631.687	9513.44
632.041	9439.77
632.396	9444.74
632.75	9471.86
633.104	9407
633.459	9399.32
633.813	9376.04
634.167	9399.77
634.521	9390.05
634.875	9372.88
635.229	9359.54
635.583	9368.58
635.937	9307.34
636.291	9367.23
636.645	9293.1
636.999	9277.51
637.352	9322.48
637.706	9278.64
638.06	9257.17
638.413	9209.94
638.767	9247.45
639.121	9236.61
639.474	9227.57
639.828	9198.87
640.181	9194.57
640.534	9257.17
640.888	9177.85
641.241	9164.29
641.594	9214.69
641.947	9203.39
642.301	9263.73
642.654	9223.27
643.007	9225.53
643.36	9181.92
643.713	9099.44
644.066	9147.34
644.419	9111.19
644.771	9011.75
645.124	8987.35
645.477	9016.27
645.83	8901.47
646.182	8953.45
646.535	8811.08
646.888	8821.25
647.24	8816.51
647.593	8932.89
647.945	8845.43
648.298	8767.47
648.65	8781.03
649.002	8766.34
649.355	8865.32
649.707	8807.24
650.059	8815.15
650.411	8962.04
650.763	9023.96
651.115	9042.94
651.467	9069.15
651.819	8996.39
652.171	9015.14
652.523	8985.09
652.875	8962.04
653.227	8893.79
653.578	9072.32
653.93	9014.01
654.282	8942.15
654.633	8953.23
654.985	8995.94
655.337	8984.41
655.688	8989.83
656.039	8992.55
656.391	8916.84
656.742	8953.45
657.094	8981.25
657.445	8969.72
657.796	8996.84
658.147	9046.1
658.498	8926.11
658.849	8919.55
659.2	8950.74
659.551	8962.94
659.902	8980.79
660.253	9004.98
660.604	8977.86
660.955	8938.31
661.306	8989.16
661.656	8963.85
662.007	8957.07
662.358	8988.48
662.708	8965.65
663.059	8994.35
663.409	8940.34
663.76	8976.28
664.11	8952.77
664.461	9008.36
664.811	8929.5
665.161	8972.43
665.511	8986.9
665.862	8969.95
666.212	9059.89
666.562	9048.82
666.912	8971.53
667.262	8995.26
667.612	9028.7
667.962	9032.54
668.312	8986.44
668.662	9039.78
669.011	9015.82
669.361	9000
669.711	9009.72
670.06	8965.88
670.41	8953.45
670.76	8978.08
671.109	9005.2
671.459	9006.56
671.808	8942.15
672.157	8929.72
672.507	8884.07
672.856	8918.42
673.205	8943.28
673.554	8874.13
673.904	8898.09
674.253	8891.98
674.602	8866
674.951	8809.73
675.3	8707.36
675.649	8870.74
675.998	8861.93
676.346	8794.13
676.695	8876.62
677.044	8825.09
677.393	8851.98
677.741	8820.35
678.09	8832.78
678.438	8753.68
678.787	8842.27
679.135	8734.02
679.484	8717.75
679.832	8755.04
680.181	8677.75
680.529	8736.28
680.877	8682.27
681.225	8691.76
681.573	8681.37
681.922	8671.2
682.27	8607.25
682.618	8574.03
682.966	8587.13
683.314	8610.18
683.661	8634.59
684.009	8539
684.357	8507.81
684.705	8445.67
685.053	8449.06
685.4	8463.29
685.748	8468.94
686.095	8437.98
686.443	8428.95
686.79	8358.44
687.138	8429.85
687.485	8376.29
687.832	8394.6
688.18	8410.19
688.527	8335.16
688.874	8325.67
689.221	8268.5
689.568	8268.05
689.915	8228.5
690.262	8171.32
690.609	8195.5
690.956	8184.43
691.303	8162.51
691.65	8133.36
691.997	8150.53
692.344	8152.57
692.69	8039.12
693.037	8045.23
693.383	8018.11
693.73	8008.62
694.077	7952.35
694.423	7905.57
694.769	7885.91
695.116	7898.79
695.462	7876.42
695.808	7823.31
696.155	7868.73
696.501	7770.43
696.847	7769.08
697.193	7731.11
697.539	7727.27
697.885	7678.91
698.231	7655.63
698.577	7585.13
698.923	7600.04
699.269	7518.69
699.614	7531.12
699.96	7502.19
700.306	7509.65
700.651	7496.31
700.997	7531.34
701.342	7431.46
701.688	7399.37
702.033	7401.4
702.379	7326.6
702.724	7334.28
703.069	7360.95
703.415	7247.96
703.76	7273.27
704.105	7254.74
704.45	7234.63
704.795	7175.19
705.14	7161.18
705.485	7144.46
705.83	7099.04
706.175	7124.12
706.52	7113.27
706.865	7056.55
707.209	7001.19
707.554	7002.09
707.899	7039.83
708.243	6991.92
708.588	7004.8
708.932	6980.17
709.277	6913.05
709.621	6886.84
709.966	6859.95
710.31	6857.23
710.654	6837.57
710.998	6792.6
711.342	6831.02
711.687	6771.36
712.031	6793.28
712.375	6738.37
712.719	6801.64
713.063	6742.21
713.407	6757.12
713.75	6782.66
714.094	6694.98
714.438	6678.26
714.782	6755.09
715.125	6690.46
715.469	6709.44
715.812	6593.97
716.156	6638.03
716.499	6626.73
716.843	6652.27
717.186	6594.64
717.53	6639.84
717.873	6551.48
718.216	6627.64
718.559	6553.51
718.902	6550.8
719.246	6559.16
719.589	6514.87
719.932	6526.4
720.275	6519.62
720.617	6484.36
720.96	6466.96
721.303	6463.57
721.646	6452.95
721.989	6425.83
722.331	6476.68
722.674	6460.41
723.016	6441.88
723.359	6438.49
723.701	6482.56
724.044	6405.27
724.386	6386.74
724.729	6423.8
725.071	6342.45
725.413	6443.69
725.755	6372.28
726.097	6315.33
726.439	6355.78
726.782	6405.95
727.124	6392.39
727.465	6305.39
727.807	6346.29
728.149	6289.34
728.491	6306.06
728.833	6303.58
729.175	6285.72
729.516	6282.33
729.858	6310.36
730.199	6298.83
730.541	6305.61
730.882	6309.68
731.224	6343.35
731.565	6312.16
731.906	6329.11
732.248	6290.02
732.589	6302.67
732.93	6275.56
733.271	6270.13
733.612	6342.45
733.953	6278.95
734.294	6268.55
734.635	6300.19
734.976	6251.83
735.317	6237.14
735.658	6257.02
735.999	6249.12
736.339	6239.62
736.68	6268.78
737.021	6193.07
737.361	6251.6
737.702	6333.41
738.042	6254.99
738.383	6292.05
738.723	6311.49
739.063	6249.12
739.404	6257.02
739.744	6304.03
740.084	6212.28
740.424	6343.58
740.764	6271.94
741.104	6316.68
741.444	6297.93
741.784	6308.32
742.124	6374.31
742.464	6346.51
742.804	6364.82
743.143	6397.81
743.483	6369.56
743.823	6326.85
744.162	6324.82
744.502	6448.21
744.841	6367.53
745.181	6458.6
745.52	6436.91
745.86	6503.12
746.199	6462.9
746.538	6512.84
746.877	6539.73
747.216	6579.5
747.556	6645.94
747.895	6668.09
748.234	6699.95
748.573	6701.31
748.911	6795.32
749.25	6779.27
749.589	6770.23
749.928	6884.58
750.267	6972.94
750.605	6958.93
750.944	7018.59
751.283	7019.94
751.621	7066.72
751.96	7157.79
752.298	7202.08
752.636	7269.43
752.975	7329.99
753.313	7345.36
753.651	7473.49
753.989	7542.87
754.327	7608.4
754.666	7672.13
755.004	7747.83
755.342	7897.21
755.679	7963.87
756.017	8019.01
756.355	8070.99
756.693	8200.7
757.031	8289.29
757.368	8318.67
757.706	8452.45
758.044	8515.27
758.381	8603.86
758.719	8802.04
759.056	8816.28
759.394	8954.35
759.731	8959.78
760.068	9099.21
760.405	9210.62
760.743	9278.41
761.08	9416.49
761.417	9557.73
761.754	9594.79
762.091	9731.96
762.428	9764.96
762.765	9881.79
763.102	10070.48
763.438	10049.47
763.775	10121.56
764.112	10345.96
764.449	10383.92
764.785	10465.28
765.122	10563.8
765.458	10650.58
765.795	10745.04
766.131	10829.79
766.467	10942.55
766.804	11042.66
767.14	11006.28
767.476	11148.2
767.812	11261.19
768.148	11280.17
768.485	11388.64
768.821	11376.44
769.157	11540.05
769.492	11552.7
769.828	11633.83
770.164	11601.52
770.5	11673.38
770.836	11834.05
771.171	11794.28
771.507	11873.83
771.842	11843.77
772.178	12012.58
772.513	12032.69
772.849	12073.82
773.184	12039.92
773.519	12131.45
773.855	12209.41
774.19	12203.76
774.525	12261.16
774.86	12245.57
775.195	12350.2
775.53	12368.5
775.865	12377.09
776.2	12348.62
776.535	12243.31
776.87	12300.71
777.205	12412.12
777.539	12341.84
777.874	12434.94
778.209	12330.09
778.543	12441.49
778.878	12345.23
779.212	12405.79
779.547	12346.36
779.881	12445.56
780.215	12335.96
780.55	12452.79
780.884	12330.31
781.218	12398.78
781.552	12389.52
781.886	12310.2
782.22	12387.94
782.554	12367.6
782.888	12319.92
783.222	12205.34
783.556	12160.82
783.889	12247.38
784.223	12156.98
784.557	12267.04
784.89	12221.61
785.224	12178.68
785.557	12150.88
785.891	12221.39
786.224	12248.05
786.558	12135.51
786.891	12006.25
787.224	11984.78
787.557	12007.61
787.891	12067.72
788.224	12087.83
788.557	12114.95
788.89	12031.34
789.223	11964.22
789.556	12020.94
789.888	11926.25
790.221	11991.34
790.554	11842.41
790.887	11853.04
791.219	11833.6
791.552	11860.49
791.884	11777.78
792.217	11814.39
792.549	11780.5
792.882	11694.17
793.214	11703.44
793.546	11654.62
793.879	11665.24
794.211	11527.85
794.543	11618.47
794.875	11616.88
795.207	11579.82
795.539	11552.7
795.871	11489.2
796.203	11479.26
796.535	11402.43
796.867	11536.43
797.198	11331.02
797.53	11312.71
797.862	11217.35
798.193	11422.54
798.525	11221.41
798.856	11277.46
799.188	11143.45
799.519	11163.79
799.85	11073.17
800.182	11167.63
800.513	11190
800.844	11015.09
801.175	11054.19
801.506	11035.43
801.837	11024.36
802.168	11022.55
802.499	10958.82
802.83	10953.17
803.161	10926.96
803.491	10842.89
803.822	10897.58
804.153	10819.39
804.483	10680.41
804.814	10727.64
805.145	10710.69
805.475	10675.21
805.805	10635.21
806.136	10663.69
806.466	10719.96
806.796	10636.34
807.126	10542.11
807.457	10559.06
807.787	10556.57
808.117	10539.62
808.447	10450.36
808.777	10472.51
809.107	10528.78
809.436	10536.23
809.766	10499.85
810.096	10434.77
810.426	10372.85
810.755	10433.86
811.085	10324.71
811.414	10280.42
811.744	10234.1
812.073	10299.4
812.403	10168.11
812.732	10176.7
813.061	10224.15
813.39	10115.91
813.719	10189.12
814.049	10184.38
814.378	10113.19
814.707	10129.01
815.036	10064.16
815.365	10023.48
815.693	9905.97
816.022	9977.6
816.351	9965.85
816.68	9864.61
817.008	9914.56
817.337	9812.19
817.665	9835.46
817.994	9776.03
818.322	9860.32
818.651	9746.42
818.979	9761.11
819.307	9790.94
819.636	9810.15
819.964	9743.03
820.292	9654.22
820.62	9777.16
820.948	9790.27
821.276	9720.89
821.604	9693.32
821.932	9733.54
822.259	9699.65
822.587	9675.92
822.915	9719.31
823.243	9708.46
823.57	9746.42
823.898	9725.63
824.225	9684.96
824.553	9675.69
824.88	9681.79
825.207	9715.24
825.535	9764.05
825.862	9749.81
826.189	9672.98
826.516	9727.89
826.843	9733.54
827.17	9757.5
827.497	9704.84
827.824	9779.64
828.151	9752.75
828.478	9745.52
828.805	9784.39
829.131	9722.92
829.458	9676.14
829.785	9715.24
830.111	9761.79
830.438	9765.86
830.764	9708.23
831.09	9730.83
831.417	9744.39
831.743	9758.63
832.069	9758.85
832.395	9686.09
832.722	9737.84
833.048	9683.6
833.374	9693.09
833.7	9610.16
834.026	9588.46
834.351	9620.55
834.677	9623.72
835.003	9696.48
835.329	9669.59
835.654	9578.07
835.98	9572.42
836.306	9618.74
836.631	9595.02
836.956	9550.95
837.282	9651.74
837.607	9499.2
837.932	9514.11
838.258	9453.1
838.583	9543.94
838.908	9529.48
839.233	9491.29
839.558	9458.3
839.883	9436.6
840.208	9379.88
840.533	9455.36
840.858	9445.87
841.182	9393.44
841.507	9400.22
841.832	9360.67
842.156	9329.94
842.481	9337.85
842.805	9258.98
843.13	9332.42
843.454	9261.92
843.778	9206.33
844.103	9144.86
844.427	9188.02
844.751	9190.73
845.075	9193.67
845.399	9144.41
845.723	9093.56
846.047	9083.17
846.371	8982.15
846.695	8994.81
847.019	9025.09
847.343	8911.64
847.666	8844.3
847.99	8783.29
848.313	8820.12
848.637	8759.56
848.96	8757.07
849.284	8737.64
849.607	8669.62
849.931	8671.42
850.254	8546.46
850.577	8599.56
850.9	8525.67
851.223	8506.91
851.546	8502.16
851.869	8389.17
852.192	8445.89
852.515	8444.31
852.838	8344.2
853.161	8348.5
853.483	8277.31
853.806	8220.14
854.129	8242.74
854.451	8180.14
854.774	8252
855.096	8167.48
855.419	8135.17
855.741	8082.29
856.063	8090.2
856.385	8040.25
856.708	8041.84
857.03	8037.09
857.352	8047.26
857.674	8033.7
857.996	8000.03
858.318	7896.53
858.64	7911.9
858.961	7903.08
859.283	7857.89
859.605	7882.74
859.926	7838.23
860.248	7848.62
860.57	7794.84
860.891	7830.99
861.212	7750.77
861.534	7750.77
861.855	7693.6
862.176	7738.34
862.498	7713.94
862.819	7759.13
863.14	7731.79
863.461	7668.97
863.782	7682.3
864.103	7611.79
864.424	7651.56
864.745	7621.96
865.065	7558.69
865.386	7501.06
865.707	7588.29
866.027	7540.38
866.348	7566.59
866.668	7493.83
866.989	7501.51
867.309	7454.51
867.63	7480.27
867.95	7454.28
868.27	7471.68
868.59	7433.72
868.91	7455.64
869.23	7433.27
869.55	7393.49
869.87	7436.65
870.19	7381.29
870.51	7386.71
870.83	7423.55
871.15	7307.17
871.469	7340.16
871.789	7328.41
872.109	7297.22
872.428	7298.81
872.748	7302.2
873.067	7346.49
873.386	7261.29
873.706	7281.63
874.025	7202.08
874.344	7222.88
874.663	7207.06
874.982	7260.61
875.301	7223.33
875.62	7149.2
875.939	7169.09
876.258	7174.06
876.577	7158.7
876.896	7174.97
877.214	7137
877.533	7119.83
877.852	7114.4
878.17	7079.6
878.489	7084.12
878.807	7117.79
879.125	7117.57
879.444	7075.76
879.762	7017.23
880.08	6997.34
880.398	7014.52
880.716	7010.68
881.034	6982.2
881.352	6955.31
881.67	6982.88
881.988	6937.91
882.306	6915.99
882.624	6934.52
882.941	6816.33
883.259	6861.3
883.577	6852.26
883.894	6819.72
884.212	6825.6
884.529	6830.12
884.846	6823.79
885.164	6787.18
885.481	6758.71
885.798	6763.45
886.115	6720.74
886.432	6694.75
886.75	6737.24
887.067	6766.39
887.383	6677.58
887.7	6673.96
888.017	6616.11
888.334	6652.95
888.651	6637.35
888.967	6570.69
889.284	6530.46
889.6	6603.23
889.917	6508.32
890.233	6490.69
890.55	6493.4
890.866	6370.69
891.182	6487.98
891.498	6487.98
891.815	6473.06
892.131	6400.75
892.447	6396.68
892.763	6359.39
893.079	6370.02
893.395	6339.06
893.71	6368.21
894.026	6352.84
894.342	6320.75
894.657	6293.18
894.973	6257.7
895.289	6292.5
895.604	6231.71
895.92	6180.87
896.235	6158.5
896.55	6191.72
896.865	6132.28
897.181	6143.58
897.496	6104.26
897.811	6049.35
898.126	6073.53
898.441	6040.99
898.756	6003.7
899.071	5946.52
899.386	5991.72
899.7	5932.29
900.015	5938.84
900.33	5880.76
900.644	5841.89
900.959	5858.39
901.273	5865.85
901.588	5844.83
901.902	5815.23
902.216	5801.22
902.531	5756.25
902.845	5717.83
903.159	5708.11
903.473	5652.52
903.787	5680.54
904.101	5668.57
904.415	5630.37
904.729	5613.65
905.042	5563.26
905.356	5517.61
905.67	5530.26
905.984	5547.44
906.297	5530.26
906.611	5490.94
906.924	5499.98
907.237	5495.69
907.551	5451.62
907.864	5410.49
908.177	5389.7
908.491	5420.21
908.804	5374.56
909.117	5351.29
909.43	5305.19
909.743	5267.45
910.056	5221.57
910.368	5237.62
910.681	5215.92
910.994	5258.41
911.307	5227.45
911.619	5195.81
911.932	5156.94
912.244	5110.61
912.557	5104.29
912.869	5144.29
913.181	5099.54
913.494	5031.75
913.806	4982.48
914.118	5029.71
914.43	4974.8
914.742	5007.79
915.054	4958.3
915.366	4974.12
915.678	4895.93
915.99	4944.06
916.302	4835.82
916.613	4860
916.925	4836.95
917.236	4828.14
917.548	4810.28
917.859	4790.62
918.171	4787.91
918.482	4772.54
918.794	4690.74
919.105	4713.34
919.416	4693.45
919.727	4672.43
920.038	4641.02
920.349	4669.95
920.66	4599.67
920.971	4644.19
921.282	4581.59
921.593	4538.65
921.903	4520.12
922.214	4528.93
922.525	4497.75
922.835	4512.66
923.146	4442.38
923.456	4427.24
923.767	4452.33
924.077	4401.71
924.387	4407.58
924.697	4403.29
925.008	4377.75
925.318	4328.71
925.628	4329.84
925.938	4343.4
926.248	4289.62
926.558	4305.21
926.867	4267.47
927.177	4259.79
927.487	4172.56
927.796	4173.46
928.106	4218.43
928.416	4178.89
928.725	4158.77
929.034	4115.39
929.344	4140.24
929.653	4153.8
929.962	4106.8
930.271	4050.98
930.581	4055.73
930.89	4042.39
931.199	3988.84
931.508	4023.64
931.817	3983.19
932.125	3982.51
932.434	3955.39
932.743	3940.7
933.051	3942.74
933.36	3937.76
933.669	3862.06
933.977	3863.42
934.286	3903.87
934.594	3867.94
934.902	3827.94
935.21	3848.5
935.519	3854.15
935.827	3785.23
936.135	3777.77
936.443	3768.5
936.751	3749.52
937.059	3715.4
937.367	3754.49
937.674	3751.55
937.982	3679.24
938.29	3690.76
938.597	3672.69
938.905	3639.69
939.213	3641.95
939.52	3632.46
939.827	3622.97
940.135	3575.97
940.442	3547.04
940.749	3595.63
941.056	3604.44
941.363	3503.65
941.67	3486.7
941.977	3479.47
942.284	3521.96
942.591	3454.61
942.898	3429.3
943.205	3455.97
943.511	3417.78
943.818	3404.22
944.125	3435.86
944.431	3391.34
944.738	3400.15
945.044	3385.24
945.35	3328.06
945.657	3323.09
945.963	3302.98
946.269	3320.6
946.575	3284
946.881	3270.44
947.187	3269.98
947.493	3211.91
947.799	3231.57
948.105	3231.12
948.41	3195.41
948.716	3244.45
949.022	3176.65
949.327	3152.02
949.633	3171
949.938	3150.67
950.244	3143.21
950.549	3108.41
950.854	3087.62
951.16	3111.12
951.465	3060.27
951.77	3070.67
952.075	3066.15
952.38	3049.65
952.685	3051.69
952.99	3006.71
953.294	3030.22
953.599	3001.97
953.904	2998.81
954.209	2962.87
954.513	2951.35
954.818	2951.8
955.122	2931.69
955.426	2948.86
955.731	2901.86
956.035	2890.33
956.339	2907.28
956.643	2847.62
956.948	2856.21
957.252	2822.31
957.556	2825.02
957.86	2824.35
958.163	2848.53
958.467	2794.29
958.771	2793.39
959.075	2778.47
959.378	2769.66
959.682	2789.32
959.985	2719.49
960.289	2747.06
960.592	2680.85
960.896	2728.53
961.199	2681.98
961.502	2682.88
961.805	2678.36
962.108	2630.23
962.411	2678.14
962.714	2624.8
963.017	2646.27
963.32	2648.08
963.623	2604.92
963.926	2613.73
964.228	2630.45
964.531	2548.42
964.833	2550.46
965.136	2545.48
965.438	2544.35
965.741	2523.34
966.043	2534.86
966.345	2512.94
966.648	2519.95
966.95	2496.22
967.252	2473.62
967.554	2479.5
967.856	2479.04
968.158	2423.23
968.46	2417.58
968.761	2447.18
969.063	2431.81
969.365	2424.13
969.666	2419.16
969.968	2409.22
970.269	2389.56
970.571	2361.99
970.872	2338.94
971.174	2342.55
971.475	2340.74
971.776	2332.61
972.077	2324.02
972.378	2313.17
972.679	2314.76
972.98	2304.81
973.281	2286.73
973.582	2227.98
973.883	2281.99
974.183	2252.38
974.484	2280.63
974.785	2233.4
975.085	2233.18
975.386	2218.03
975.686	2214.65
975.986	2200.86
976.287	2202.44
976.587	2184.82
976.887	2141.65
977.187	2148.88
977.487	2124.93
977.787	2162.22
978.087	2134.2
978.387	2164.93
978.687	2116.57
978.987	2077.25
979.286	2072.95
979.586	2081.99
979.885	2096.46
980.185	2120.64
980.484	2049.45
980.784	2037.02
981.083	2055.33
981.382	2026.4
981.682	2037.7
981.981	2013.29
982.28	2024.14
982.579	2009.68
982.878	1973.97
983.177	1996.8
983.475	1989.11
983.774	1977.59
984.073	1982.56
984.372	1962.22
984.67	1953.18
984.969	1922.9
985.267	1917.7
985.566	1919.96
985.864	1913.41
986.162	1895.78
986.461	1911.15
986.759	1911.15
987.057	1902.34
987.355	1880.87
987.653	1879.06
987.951	1863.92
988.249	1875.45
988.547	1844.49
988.844	1820.53
989.142	1833.19
989.44	1815.11
989.737	1796.8
990.035	1805.39
990.332	1788.89
990.63	1782.79
990.927	1800.87
991.224	1776.69
991.521	1778.95
991.819	1765.17
992.116	1765.62
992.413	1764.04
992.71	1750.7
993.006	1736.69
993.303	1734.66
993.6	1734.43
993.897	1699.4
994.193	1725.17
994.49	1673.64
994.787	1698.5
995.083	1687.43
995.379	1689.46
995.676	1658.05
995.972	1654.66
996.268	1648.11
996.565	1676.13
996.861	1637.94
997.157	1630.25
997.453	1620.31
997.749	1610.82
998.044	1585.74
998.34	1586.87
998.636	1584.38
998.932	1576.92
999.227	1561.1
999.523	1548.9
999.818	1563.81
1000.114	1539.41
1000.409	1551.84
1000.704	1537.6
1001	1547.77
1001.295	1525.85
1001.59	1526.98
1001.885	1491.5
1002.18	1483.14
1002.475	1485.4
1002.77	1485.4
1003.065	1477.94
1003.359	1452.18
1003.654	1449.24
1003.949	1446.98
1004.243	1433.2
1004.538	1416.25
1004.832	1436.36
1005.127	1432.52
1005.421	1422.58
1005.715	1400.2
1006.009	1384.61
1006.304	1397.49
1006.598	1358.17
1006.892	1383.25
1007.186	1364.5
1007.48	1341.22
1007.773	1363.82
1008.067	1342.13
1008.361	1316.82
1008.655	1343.48
1008.948	1332.41
1009.242	1311.84
1009.535	1307.78
1009.829	1299.19
1010.122	1284.05
1010.415	1313.2
1010.708	1283.14
1011.001	1280.43
1011.295	1294.22
1011.588	1257.61
1011.881	1275.91
1012.173	1256.48
1012.466	1249.7
1012.759	1261.68
1013.052	1223.94
1013.344	1208.57
1013.637	1224.39
1013.93	1199.3
1014.222	1206.31
1014.514	1212.41
1014.807	1181.45
1015.099	1170.15
1015.391	1178.06
1015.683	1182.36
1015.976	1164.28
1016.268	1157.27
1016.56	1173.54
1016.851	1143.49
1017.143	1151.85
1017.435	1166.09
1017.727	1123.15
1018.018	1121.57
1018.31	1118.18
1018.602	1142.81
1018.893	1104.84
1019.185	1096.26
1019.476	1101
1019.767	1083.83
1020.058	1078.63
1020.35	1079.99
1020.641	1065.75
1020.932	1051.51
1021.223	1046.54
1021.514	1038.18
1021.804	1052.64
1022.095	1067.56
1022.386	1016.48
1022.677	1030.95
1022.967	1020.78
1023.258	1003.83
1023.548	999.31
1023.839	976.03
1024.129	981.23
1024.419	989.82
1024.709	972.19
1025	973.77
1025.29	960.44
1025.58	962.93
1025.87	981.01
1026.16	960.67
1026.449	952.31
1026.739	915.02
1027.029	938.29
1027.319	936.03
1027.608	929.26
1027.898	893.55
1028.187	923.61
1028.477	901.01
1028.766	907.56
1029.055	908.01
1029.344	887.9
1029.634	888.13
1029.923	884.51
1030.212	894.45
1030.501	879.99
1030.79	887.22
1031.078	872.99
1031.367	856.71
1031.656	851.07
1031.945	849.48
1032.233	859.2
1032.522	838.64
1032.81	796.15
1033.099	828.92
1033.387	844.51
1033.675	815.36
1033.963	839.09
1034.251	828.92
1034.54	823.27
1034.828	813.78
1035.116	786.43
1035.403	805.19
1035.691	776.04
1035.979	793.67
1036.267	790.05
1036.554	797.06
1036.842	793.67
1037.129	784.17
1037.417	775.36
1037.704	778.52
1037.992	748.47
1038.279	733.1
1038.566	755.93
1038.853	755.93
1039.14	755.93
