Data from hue_40_FLMS001491_92.txt Node
Date: Mon Feb 06 15:08:50 GMT 2017
User: dcchb
Spectrometer: FLMS00149
Trigger mode: 0
Integration Time (sec): 2.000000E-2
Scans to average: 10
Electric dark correction enabled: true
Nonlinearity correction enabled: false
Boxcar width: 0
XAxis mode: Wavelengths
Number of Pixels in Spectrum: 2048
>>>>>Begin Spectral Data<<<<<
341.393	4.79
341.776	4.79
342.16	4.79
342.543	-45.15
342.927	-74.98
343.31	-52.84
343.693	-66.17
344.077	-69.79
344.46	-44.93
344.843	-59.17
345.226	-49.9
345.61	-45.38
345.993	-20.3
346.376	-4.48
346.759	7.95
347.142	20.83
347.525	49.98
347.908	54.73
348.291	59.7
348.674	106.93
349.057	112.81
349.44	136.99
349.823	142.86
350.206	175.86
350.588	208.17
350.971	214.5
351.354	235.97
351.737	252.47
352.119	242.52
352.502	257.89
352.884	273.71
353.267	302.18
353.65	292.01
354.032	308.28
354.414	301.5
354.797	325.23
355.179	339.92
355.562	324.55
355.944	342.41
356.326	338.34
356.709	345.8
357.091	346.7
357.473	350.54
357.855	355.74
358.238	345.12
358.62	349.19
359.002	328.4
359.384	360.94
359.766	345.8
360.148	346.25
360.53	347.6
360.912	338.34
361.294	349.86
361.676	347.6
362.057	342.41
362.439	346.47
362.821	350.09
363.203	352.35
363.584	345.8
363.966	334.04
364.348	335.4
364.729	320.26
365.111	309.19
365.493	318.9
365.874	329.07
366.256	326.36
366.637	333.37
367.019	334.5
367.4	341.5
367.781	332.69
368.163	330.66
368.544	333.37
368.925	315.74
369.306	326.14
369.688	320.94
370.069	341.28
370.45	329.07
370.831	312.12
371.212	317.1
371.593	310.99
371.974	340.15
372.355	334.27
372.736	339.69
373.117	309.86
373.498	320.49
373.879	339.69
374.26	353.71
374.641	336.3
375.021	319.13
375.402	326.36
375.783	332.91
376.163	326.14
376.544	331.11
376.925	329.98
377.305	340.15
377.686	321.84
378.066	347.83
378.447	355.51
378.827	352.8
379.208	348.28
379.588	326.14
379.968	362.97
380.349	342.18
380.729	346.7
381.109	329.75
381.489	350.32
381.87	325.68
382.25	339.92
382.63	368.39
383.01	358.45
383.39	346.93
383.77	366.36
384.15	350.99
384.53	342.41
384.91	372.24
385.29	368.17
385.67	371.11
386.049	346.47
386.429	367.72
386.809	361.16
387.189	377.66
387.568	356.19
387.948	353.93
388.328	383.99
388.707	361.84
389.087	385.79
389.466	378.56
389.846	376.98
390.225	377.66
390.605	377.21
390.984	372.01
391.363	383.54
391.743	372.69
392.122	356.42
392.501	391.67
392.881	402.29
393.26	381.95
393.639	395.51
394.018	407.04
394.397	381.05
394.776	381.5
395.155	401.39
395.534	400.94
395.913	400.26
396.292	398.22
396.671	386.02
397.05	395.74
397.429	399.35
397.808	408.17
398.186	419.69
398.565	411.78
398.944	420.37
399.323	420.37
399.701	419.47
400.08	436.19
400.458	410.2
400.837	423.08
401.215	418.79
401.594	398
401.972	408.39
402.351	425.12
402.729	426.25
403.107	435.29
403.486	426.02
403.864	429.86
404.242	442.29
404.62	425.34
404.999	428.05
405.377	451.1
405.755	431.9
406.133	435.29
406.511	438.9
406.889	463.98
407.267	485.45
407.645	447.71
408.023	457.88
408.401	468.28
408.779	461.27
409.156	455.62
409.534	457.21
409.912	449.3
410.29	482.52
410.667	474.61
411.045	466.24
411.422	482.97
411.8	478.67
412.178	476.41
412.555	483.42
412.933	495.17
413.31	493.14
413.687	484.78
414.065	502.4
414.442	500.82
414.819	526.58
415.197	494.49
415.574	511.67
415.951	486.58
416.328	533.59
416.705	533.36
417.082	531.55
417.46	510.76
417.837	543.08
418.214	542.18
418.591	525
418.967	551.21
419.344	579.24
419.721	555.96
420.098	568.16
420.475	553.47
420.852	562.74
421.228	579.69
421.605	565.9
421.982	566.81
422.358	549.63
422.735	580.37
423.111	573.36
423.488	567.03
423.864	598.44
424.241	604.09
424.617	577.43
424.994	598.44
425.37	590.99
425.746	617.2
426.123	616.3
426.499	595.05
426.875	622.62
427.251	612.46
427.627	655.39
428.003	618.56
428.379	641.16
428.756	641.38
429.132	633.7
429.507	672.79
429.883	642.96
430.259	679.35
430.635	657.43
431.011	669.86
431.387	671.44
431.763	689.52
432.138	687.93
432.514	715.96
432.89	697.43
433.265	709.18
433.641	702.85
434.016	744.88
434.392	720.7
434.767	748.95
435.143	739.46
435.518	751.44
435.894	755.95
436.269	757.99
436.644	769.06
437.02	770.64
437.395	783.07
437.77	754.37
438.145	783.98
438.52	805.44
438.895	787.82
439.271	810.64
439.646	828.72
440.021	833.01
440.395	822.17
440.77	814.71
441.145	815.16
441.52	808.61
441.895	839.79
442.27	832.11
442.645	844.54
443.019	874.14
443.394	856.97
443.769	847.03
444.143	852.68
444.518	867.82
444.892	868.27
445.267	863.97
445.641	888.38
446.016	892
446.39	875.27
446.764	896.52
447.139	887.25
447.513	910.3
447.887	884.31
448.262	900.36
448.636	910.53
449.01	936.97
449.384	946.23
449.758	957.31
450.132	943.07
450.506	925.44
450.88	960.7
451.254	965.89
451.628	972.22
452.002	960.7
452.376	985.55
452.75	988.04
453.123	1010.19
453.497	1011.09
453.871	1032.56
454.244	1050.64
454.618	1062.16
454.992	1022.84
455.365	1033.46
455.739	1028.49
456.112	1081.6
456.486	1093.35
456.859	1094.93
457.232	1118.88
457.606	1107.58
457.979	1116.62
458.352	1150.97
458.725	1186.45
459.099	1198.43
459.472	1183.51
459.845	1211.99
460.218	1207.69
460.591	1214.7
460.964	1233.91
461.337	1276.17
461.71	1234.59
462.083	1293.79
462.456	1286.11
462.829	1276.39
463.201	1318.2
463.574	1332.44
463.947	1333.57
464.32	1378.54
464.692	1377.41
465.065	1389.38
465.438	1437.07
465.81	1437.52
466.183	1454.02
466.555	1470.29
466.928	1486.33
467.3	1501.02
467.672	1515.03
468.045	1541.92
468.417	1538.31
468.789	1561.13
469.161	1602.94
469.534	1640
469.906	1649.26
470.278	1693.33
470.65	1684.97
471.022	1739.88
471.394	1753.67
471.766	1798.64
472.138	1815.81
472.51	1837.06
472.882	1908.01
473.253	1950.5
473.625	1982.14
473.997	2004.96
474.369	2039.31
474.74	2042.7
475.112	2112.08
475.484	2117.5
475.855	2197.95
476.227	2215.58
476.598	2259.64
476.97	2338.06
477.341	2404.5
477.713	2448.79
478.084	2493.54
478.455	2595.68
478.827	2608.56
479.198	2670.03
479.569	2725.62
479.94	2818.73
480.311	2826.63
480.682	2924.94
481.053	3010.58
481.424	3052.17
481.795	3141.65
482.166	3240.86
482.537	3333.97
482.908	3401.53
483.279	3466.17
483.65	3524.47
484.021	3609.21
484.391	3742.77
484.762	3795.87
485.133	3841.75
485.503	3968.3
485.874	4053.5
486.244	4149.09
486.615	4259.82
486.985	4372.13
487.356	4452.13
487.726	4537.55
488.097	4647.15
488.467	4801.05
488.837	4897.54
489.207	4950.19
489.578	5114.03
489.948	5177.53
490.318	5353.8
490.688	5389.51
491.058	5481.93
491.428	5629.95
491.798	5723.96
492.168	5901.13
492.538	5932.54
492.908	6023.61
493.278	6192.2
493.648	6257.5
494.017	6393.55
494.387	6469.02
494.757	6569.36
495.126	6701.34
495.496	6790.6
495.866	6838.96
496.235	6975.45
496.605	7055.68
496.974	7216.8
497.344	7281.43
497.713	7357.82
498.082	7443.69
498.452	7584.48
498.821	7700.4
499.19	7701.31
499.559	7890.91
499.928	7939.27
500.298	8069.66
500.667	8201.63
501.036	8254.74
501.405	8321.18
501.774	8363.21
502.143	8463.77
502.512	8561.85
502.88	8639.36
503.249	8701.73
503.618	8816.31
503.987	8868.74
504.356	8983.99
504.724	9043.65
505.093	9128.39
505.462	9136.07
505.83	9304.88
506.199	9400.93
506.567	9494.26
506.936	9483.18
507.304	9631.43
507.672	9667.13
508.041	9847.69
508.409	9839.78
508.777	9989.61
509.145	10105.09
509.514	10141.92
509.882	10159.55
510.25	10188.02
510.618	10349.83
510.986	10332.43
511.354	10508.92
511.722	10559.31
512.09	10652.64
512.458	10720.44
512.826	10752.3
513.193	10878.17
513.561	10867.33
513.929	10926.76
514.297	11140.09
514.664	11107.32
515.032	11231.61
515.4	11330.82
515.767	11296.24
516.135	11369.46
516.502	11396.35
516.869	11571.04
517.237	11681.77
517.604	11632.5
517.972	11752.95
518.339	11700.3
518.706	11795.89
519.073	11934.42
519.44	11982.55
519.808	12173.06
520.175	12093.96
520.542	12284.92
520.909	12323.33
521.276	12321.07
521.643	12496.89
522.009	12602.65
522.376	12640.39
522.743	12660.95
523.11	12790.89
523.477	12928.52
523.843	13050.09
524.21	13116.08
524.577	13227.27
524.943	13262.97
525.31	13271.56
525.676	13430.88
526.043	13557.43
526.409	13516.98
526.776	13817.31
527.142	13726.46
527.508	13860.69
527.874	13917.64
528.241	14019.11
528.607	14015.04
528.973	14107.47
529.339	14239.89
529.705	14367.12
530.071	14561.92
530.437	14529.15
530.803	14637.4
531.169	14715.81
531.535	14701.8
531.901	14796.04
532.267	14824.74
532.632	14950.61
532.998	14940.21
533.364	15134.56
533.73	15135.24
534.095	15208.91
534.461	15250.26
534.826	15406.19
535.192	15372.29
535.557	15507.21
535.923	15524.61
536.288	15570.48
536.653	15685.73
537.019	15714.43
537.384	15770.25
537.749	15827.87
538.114	15850.25
538.479	15895.67
538.845	15922.34
539.21	15923.92
539.575	16086.85
539.94	16132.5
540.305	16295.21
540.67	16297.24
541.034	16313.74
541.399	16424.24
541.764	16481.64
542.129	16509.21
542.494	16567.74
542.858	16676.89
543.223	16624.92
543.587	16860.39
543.952	16856.1
544.316	16973.83
544.681	16984
545.045	17027.39
545.41	17198.69
545.774	17108.52
546.138	17115.3
546.503	17234.17
546.867	17249.76
547.231	17427.83
547.595	17501.05
547.959	17589.64
548.324	17530.65
548.688	17600.71
549.052	17732.46
549.416	17762.97
549.779	17705.34
550.143	17790.99
550.507	17862.4
550.871	17999.57
551.235	18039.79
551.599	18149.4
551.962	18145.33
552.326	18227.36
552.689	18337.87
553.053	18303.29
553.417	18352.78
553.78	18599.55
554.143	18562.04
554.507	18603.62
554.87	18628.48
555.234	18819.66
555.597	18788.02
555.96	18803.16
556.323	18822.82
556.686	18920.45
557.05	18979.88
557.413	19062.59
557.776	19187.11
558.139	19265.75
558.502	19210.38
558.865	19306.2
559.228	19606.08
559.59	19583.71
559.953	19549.58
560.316	19689.92
560.679	19772.18
561.041	19827.54
561.404	19970.36
561.767	20024.83
562.129	20030.48
562.492	20153.64
562.854	20197.93
563.217	20222.34
563.579	20352.05
563.941	20446.74
564.304	20579.84
564.666	20641.31
565.028	20730.8
565.39	20757.69
565.753	20900.74
566.115	20916.78
566.477	20890.79
566.839	20964.24
567.201	21251.91
567.563	21252.82
567.925	21352.02
568.287	21377.33
568.648	21373.49
569.01	21421.85
569.372	21488.52
569.734	21608.06
570.095	21721.05
570.457	21897.09
570.819	21956.98
571.18	22032.23
571.542	22074.94
571.903	22115.85
572.265	22252.11
572.626	22367.82
572.987	22401.04
573.349	22546.57
573.71	22643.97
574.071	22754.47
574.432	22854.36
574.794	23023.39
575.155	23003.51
575.516	23173.67
575.877	23115.82
576.238	23317.17
576.599	23493.21
576.96	23527.79
577.32	23629.7
577.681	23851.17
578.042	23932.52
578.403	24112.85
578.763	24114.21
579.124	24347.65
579.485	24591.71
579.845	24597.14
580.206	24678.94
580.566	24910.12
580.927	24933.62
581.287	25173.84
581.648	25194.41
582.008	25590.33
582.368	25660.38
582.728	25833.71
583.089	26027.83
583.449	26103.54
583.809	26299.24
584.169	26552.11
584.529	26644.31
584.889	26980.35
585.249	27096.51
585.609	27215.6
585.969	27553.89
586.329	27679.31
586.688	27970.83
587.048	28013.09
587.408	28134.22
587.768	28390.03
588.127	28637.93
588.487	28690.14
588.846	29232.95
589.206	29131.93
589.565	29277.46
589.925	29655.76
590.284	29806.04
590.643	30147.72
591.003	30291.22
591.362	30615.51
591.721	30720.59
592.08	30959.68
592.44	31187.7
592.799	31360.12
593.158	31496.39
593.517	31778.64
593.876	31964.85
594.235	32117.84
594.593	32281.68
594.952	32590.82
595.311	32818.84
595.67	32880.76
596.029	33322.78
596.387	33369.11
596.746	33717.57
597.104	33626.28
597.463	33838.47
597.822	34179.26
598.18	34357.78
598.538	34491.56
598.897	34722.29
599.255	34551
599.613	35263.52
599.972	35252.45
600.33	35368.6
600.688	35451.31
601.046	35762.04
601.404	35997.97
601.762	36073.67
602.12	36397.28
602.478	36520.66
602.836	36598.4
603.194	36626.42
603.552	36760.88
603.91	36873.42
604.268	37073.64
604.625	37237.71
604.983	37535.1
605.341	37432.96
605.698	37840.63
606.056	37977.57
606.413	38060.51
606.771	38147.97
607.128	38397.45
607.485	38251.69
607.843	38521.52
608.2	38820.26
608.557	38977.32
608.914	38934.84
609.272	39162.63
609.629	39396.97
609.986	39505.22
610.343	39465.45
610.7	39917.64
611.057	39867.02
611.414	39843.74
611.771	39957.18
612.127	40171.87
612.484	40286.89
612.841	40440.11
613.198	40428.36
613.554	40527.34
613.911	40635.81
614.267	40830.83
614.624	40779.54
614.98	41032.18
615.337	41254.55
615.693	41321.67
616.05	41029.25
616.406	41542.23
616.762	41393.53
617.118	41478.05
617.475	41632.17
617.831	41664.48
618.187	41797.81
618.543	42017.47
618.899	42241.42
619.255	42186.96
619.611	42221.98
619.967	42482.77
620.323	42480.96
620.678	42308.31
621.034	42376.56
621.39	42317.57
621.746	42466.27
622.101	42844.79
622.457	42700.39
622.812	42747.84
623.168	42968.63
623.523	42934.73
623.879	43112.36
624.234	42780.16
624.589	42979.25
624.945	43146.03
625.3	43246.81
625.655	43001.17
626.01	43161.17
626.365	43228.51
626.72	43202.75
627.075	43172.24
627.43	43242.97
627.785	43194.84
628.14	43275.97
628.495	43494.94
628.85	43370.2
629.205	43235.29
629.559	43573.81
629.914	43393.7
630.269	43499.92
630.623	43404.55
630.978	43311.9
631.332	43653.36
631.687	43583.3
632.041	43299.24
632.396	43723.86
632.75	43430.54
633.104	43557.54
633.459	43346.47
633.813	43343.31
634.167	43473.02
634.521	43546.92
634.875	43389.41
635.229	43390.09
635.583	43211.34
635.937	43342.41
636.291	43288.62
636.645	43289.75
636.999	43182.64
637.352	43256.98
637.706	43170.88
638.06	43275.97
638.413	43294.5
638.767	43044.33
639.121	43011.57
639.474	42899.48
639.828	42971.12
640.181	43171.34
640.534	43123.43
640.888	42912.13
641.241	42795.3
641.594	42922.3
641.947	42967.05
642.301	42834.85
642.654	42944.45
643.007	42859.25
643.36	42842.53
643.713	42806.15
644.066	42890.89
644.419	42675.76
644.771	42406.84
645.124	42027.86
645.477	42069.44
645.83	41773.63
646.182	41595.78
646.535	41557.37
646.888	41636.91
647.24	41335
647.593	41650.02
647.945	41464.04
648.298	41368.67
648.65	41332.06
649.002	41226.53
649.355	41364.83
649.707	41368.67
650.059	41445.51
650.411	41929.34
650.763	41929.11
651.115	42338.82
651.467	42217.69
651.819	42064.93
652.171	42115.09
652.523	42106.73
652.875	42078.71
653.227	41892.95
653.578	42153.51
653.93	42022.89
654.282	41954.65
654.633	41771.83
654.985	41916.68
655.337	41970.92
655.688	41886.62
656.039	42034.42
656.391	41682.34
656.742	41901.99
657.094	41784.03
657.445	41979.5
657.796	41869.9
658.147	41739.96
658.498	41765.27
658.849	41818.83
659.2	41831.71
659.551	41619.06
659.902	41822.67
660.253	41603.24
660.604	41885.72
660.955	41535
661.306	41746.06
661.656	41626.74
662.007	41619.96
662.358	41502.45
662.708	41692.51
663.059	41733.18
663.409	41339.07
663.76	41670.59
664.11	41597.82
664.461	41650.92
664.811	41670.36
665.161	41473.53
665.511	41446.18
665.862	41521.89
666.212	41601.21
666.562	41748.55
666.912	41682.11
667.262	41629.91
667.612	41535.45
667.962	41542.68
668.312	41414.55
668.662	41535
669.011	41610.7
669.361	41450.25
669.711	41582.23
670.06	41330.03
670.41	41314.89
670.76	41345.62
671.109	41396.69
671.459	41414.77
671.808	41299.07
672.157	41287.09
672.507	41153.08
672.856	41032.64
673.205	41220.2
673.554	41331.61
673.904	41119.64
674.253	41325.51
674.602	41269.69
674.951	40652.31
675.3	40394.69
675.649	41090.26
675.998	41048.23
676.346	40983.82
676.695	41299.07
677.044	41001.9
677.393	40928.91
677.741	41043.93
678.09	40905.86
678.438	40743.15
678.787	40828.57
679.135	40945.86
679.484	40635.36
679.832	40710.61
680.181	40541.8
680.529	40685.3
680.877	40507
681.225	40493.44
681.573	40649.14
681.922	40502.03
682.27	40347
682.618	40319.89
682.966	40185.43
683.314	40290.96
683.661	40153.56
684.009	40087.8
684.357	39957.41
684.705	39851.88
685.053	39926
685.4	39880.8
685.748	39724.87
686.095	39742.27
686.443	39623.18
686.79	39707.25
687.138	39718.55
687.485	39611.66
687.832	39443.98
688.18	39487.14
688.527	39323.98
688.874	39208.95
689.221	39160.14
689.568	39075.17
689.915	39041.28
690.262	39055.06
690.609	38877.44
690.956	38617.78
691.303	38725.35
691.65	38606.94
691.997	38518.8
692.344	38415.08
692.69	38362.88
693.037	38317.45
693.383	38082.2
693.73	38231.58
694.077	37874.75
694.423	37963.34
694.769	37908.42
695.116	37717.24
695.462	37798.6
695.808	37667.75
696.155	37562.67
696.501	37449.91
696.847	37366.07
697.193	37068.22
697.539	37192.28
697.885	36817.38
698.231	36856.7
698.577	36875
698.923	36709.36
699.269	36725.18
699.614	36439.31
699.96	36423.72
700.306	36343.95
700.651	36239.32
700.997	36100.56
701.342	36072.09
701.688	35963.62
702.033	35877.52
702.379	35921.36
702.724	35668.48
703.069	35715.04
703.415	35324.99
703.76	35326.12
704.105	35380.58
704.45	35348.94
704.795	35111.89
705.14	34944.21
705.485	34951.89
705.83	34851.1
706.175	35026.01
706.52	34789.18
706.865	34746.25
707.209	34773.37
707.554	34439.36
707.899	34496.54
708.243	34424.67
708.588	34434.39
708.932	34225.81
709.277	34094.06
709.621	34129.54
709.966	33910.34
710.31	34041.63
710.654	33672.15
710.998	33929.77
711.342	33716.9
711.687	33683.22
712.031	33690.46
712.375	33418.37
712.719	33539.27
713.063	33460.18
713.407	33690.46
713.75	33309.9
714.094	33348.77
714.438	33089.34
714.782	33201.43
715.125	32943.36
715.469	32973.41
715.812	32835.56
716.156	32733.64
716.499	32803.25
716.843	32819.29
717.186	32643.93
717.53	32680.76
717.873	32640.99
718.216	32730.48
718.559	32516.7
718.902	32175.69
719.246	32337.95
719.589	32143.6
719.932	32099.31
720.275	32162.13
720.617	31986.32
720.96	32064.74
721.303	31862.03
721.646	31850.28
721.989	31745.2
722.331	31839.66
722.674	31738.87
723.016	31799.66
723.359	31652.77
723.701	31669.72
724.044	31419.1
724.386	31290.97
724.729	31478.31
725.071	31371.42
725.413	31385.66
725.755	31374.81
726.097	31217.3
726.439	30966.23
726.782	31002.39
727.124	31131.2
727.465	30964.2
727.807	30889.17
728.149	30933.92
728.491	30737.99
728.833	30872.45
729.175	30810.53
729.516	30676.75
729.858	30581.16
730.199	30578
730.541	30639.01
730.882	30479.47
731.224	30619.8
731.565	30403.31
731.906	30483.53
732.248	30424.33
732.589	30260.26
732.93	30108.4
733.271	30247.38
733.612	30261.85
733.953	30213.49
734.294	30078.35
734.635	30072.25
734.976	30104.79
735.317	29968.75
735.658	29876.09
735.999	29939.82
736.339	29692.82
736.68	29978.01
737.021	29897.34
737.361	29708.87
737.702	29806.94
738.042	29781.63
738.383	29744.8
738.723	29668.19
739.063	29545.71
739.404	29638.13
739.744	29540.28
740.084	29313.4
740.424	29386.84
740.764	29362.66
741.104	29416.9
741.444	29262.78
741.784	29131.48
742.124	29234.3
742.464	29233.4
742.804	28982.56
743.143	29015.32
743.483	29029.34
743.823	28936.91
744.162	28861.43
744.502	28930.36
744.841	28799.06
745.181	28851.49
745.52	28765.84
745.86	28846.06
746.199	28615.79
746.538	28716.58
746.877	28775.78
747.216	28609.91
747.556	28525.39
747.895	28590.03
748.234	28417.37
748.573	28358.17
748.911	28420.31
749.25	28492.63
749.589	28282.24
749.928	28275.01
750.267	28243.59
750.605	28105.74
750.944	28114.78
751.283	28035.92
751.621	28113.43
751.96	27871.85
752.298	27867.78
752.636	27892.19
752.975	27773.32
753.313	27596.6
753.651	27888.8
753.989	27636.38
754.327	27592.31
754.666	27371.53
755.004	27457.4
755.342	27525.19
755.679	27523.84
756.017	27249.04
756.355	27357.29
756.693	27181.02
757.031	27164.07
757.368	26996.17
757.706	27029.39
758.044	26912.56
758.381	26953.68
758.719	26803.18
759.056	26842.27
759.394	26781.03
759.731	26587.82
760.068	26548.72
760.405	26551.21
760.743	26356.86
761.08	26528.84
761.417	26260.14
761.754	26313.25
762.091	26102.18
762.428	26039.13
762.765	25947.61
763.102	26030.54
763.438	25838.91
763.775	25698.12
764.112	25657.9
764.449	25699.71
764.785	25539.26
765.122	25487.96
765.458	25265.14
765.795	25379.71
766.131	25178.82
766.467	25205.48
766.804	25089.1
767.14	24970.01
767.476	24982.66
767.812	24913.06
768.148	24960.74
768.485	24743.35
768.821	24525.5
769.157	24687.53
769.492	24467.2
769.828	24523.24
770.164	24303.58
770.5	24242.79
770.836	24251.16
771.171	24000.32
771.507	23982.01
771.842	23861.11
772.178	23847.32
772.513	23774.78
772.849	23622.7
773.184	23582.25
773.519	23591.29
773.855	23414.12
774.19	23297.96
774.525	23205.76
774.86	23321.92
775.195	23075.82
775.53	23082.15
775.865	22878.76
776.2	22747.69
776.535	22621.14
776.87	22622.27
777.205	22507.02
777.539	22518.09
777.874	22421.37
778.209	22276.52
778.543	22303.18
778.878	22156.3
779.212	22149.97
779.547	22001.5
779.881	22095.05
780.215	21856.42
780.55	21849.64
780.884	21712.92
781.218	21694.16
781.552	21651
781.886	21565.58
782.22	21473.83
782.554	21324.91
782.888	21193.84
783.222	21060.51
783.556	21043.56
783.889	20991.58
784.223	20825.48
784.557	20791.59
784.89	20782.77
785.224	20760.4
785.557	20658.93
785.891	20484.25
786.224	20485.15
786.558	20409
786.891	20279.51
787.224	20185.5
787.557	20133.07
787.891	20140.53
788.224	20057.14
788.557	20108.89
788.89	19998.39
789.223	19915
789.556	19824.83
789.888	19647.21
790.221	19693.76
790.554	19520.21
790.887	19484.95
791.219	19424.84
791.552	19331.96
791.884	19211.51
792.217	19257.84
792.549	19138.07
792.882	19067.34
793.214	18984.63
793.546	19010.16
793.879	18870.51
794.211	18754.8
794.543	18845.2
794.875	18701.7
795.207	18741.47
795.539	18630.96
795.871	18577.41
796.203	18442.27
796.535	18382.16
796.867	18383.06
797.198	18303.29
797.53	18242.95
797.862	18140.58
798.193	18174.48
798.525	18116.18
798.856	18126.35
799.188	17881.61
799.519	17763.87
799.85	17717.99
800.182	17737.43
800.513	17690.65
800.844	17563.42
801.175	17682.06
801.506	17633.25
801.837	17488.85
802.168	17548.73
802.499	17325.46
802.83	17450.43
803.161	17338.34
803.491	17287.72
803.822	17237.78
804.153	17160.72
804.483	17076.43
804.814	16988.97
805.145	16996.88
805.475	16903.1
805.805	16956.66
806.136	16898.36
806.466	16916.21
806.796	16815.65
807.126	16701.3
807.457	16609.78
807.787	16607.06
808.117	16598.48
808.447	16453.17
808.777	16490
809.107	16466.5
809.436	16339.05
809.766	16498.59
810.096	16275.77
810.426	16214.98
810.755	16200.07
811.085	16182.44
811.414	16138.38
811.744	16026.97
812.073	16000.3
812.403	15882.79
812.732	15829.91
813.061	15898.16
813.39	15817.93
813.719	15707.65
814.049	15852.28
814.378	15662.91
814.707	15633.08
815.036	15670.36
815.365	15604.38
815.693	15487.77
816.022	15512.85
816.351	15385.85
816.68	15306.98
817.008	15421.56
817.337	15289.58
817.665	15232.86
817.994	15291.62
818.322	15198.96
818.651	15093.66
818.979	15060.89
819.307	15127.33
819.636	15089.14
819.964	14912.64
820.292	14970.95
820.62	14987.44
820.948	14947.22
821.276	14954
821.604	14961.91
821.932	14916.26
822.259	14944.51
822.587	14876.26
822.915	14850.5
823.243	14854.12
823.57	14860.89
823.898	14877.84
824.225	14776.6
824.553	14836.26
824.88	14876.94
825.207	14928.24
825.535	14835.58
825.862	14736.38
826.189	14874.45
826.516	14873.55
826.843	14977.28
827.17	14915.36
827.497	14851.18
827.824	14852.53
828.151	14843.27
828.478	14819.31
828.805	14903.83
829.131	14855.02
829.458	14844.85
829.785	14733.44
830.111	14761.46
830.438	14876.04
830.764	14829.93
831.09	14814.79
831.417	14724.85
831.743	14736.6
832.069	14712.88
832.395	14695.02
832.722	14725.76
833.048	14738.19
833.374	14729.15
833.7	14629.71
834.026	14746.32
834.351	14634.91
834.677	14657.96
835.003	14747.68
835.329	14626.78
835.654	14597.85
835.98	14620
836.306	14624.74
836.631	14503.84
836.956	14427.23
837.282	14564.63
837.607	14475.14
837.932	14476.72
838.258	14449.83
838.583	14460.91
838.908	14363.73
839.233	14417.52
839.558	14311.08
839.883	14276.73
840.208	14271.76
840.533	14218.2
840.858	14234.47
841.182	14213.91
841.507	14224.98
841.832	14031.54
842.156	14038.54
842.481	14111.31
842.805	14092.33
843.13	14011.65
843.454	13974.14
843.778	13991.09
844.103	13892.33
844.427	13783.18
844.751	13843.97
845.075	13858.89
845.399	13764.65
845.723	13807.81
846.047	13695.05
846.371	13648.72
846.695	13586.35
847.019	13513.59
847.343	13499.57
847.666	13320.14
847.99	13347.71
848.313	13317.21
848.637	13239.02
848.96	13137.32
849.284	13142.3
849.607	13043.54
849.931	13003.32
850.254	12994.73
850.577	12907.95
850.9	12837.67
851.223	12793.38
851.546	12697.34
851.869	12687.84
852.192	12690.33
852.515	12625.7
852.838	12585.93
853.161	12592.93
853.483	12489.43
853.806	12424.57
854.129	12370.11
854.451	12374.86
854.774	12352.26
855.096	12211.25
855.419	12180.74
855.741	12183.45
856.063	12131.47
856.385	12152.04
856.708	11993.63
857.03	12000.4
857.352	12027.07
857.674	11926.96
857.996	11878.83
858.318	11895.1
858.64	11846.96
858.961	11841.31
859.283	11794.53
859.605	11767.19
859.926	11696.68
860.248	11728.77
860.57	11653.75
860.891	11653.07
861.212	11574.43
861.534	11625.73
861.855	11543.69
862.176	11568.33
862.498	11572.39
862.819	11464.37
863.14	11448.55
863.461	11426.41
863.782	11430.25
864.103	11381.44
864.424	11347.77
864.745	11386.64
865.065	11331.72
865.386	11277.49
865.707	11348.9
866.027	11251.72
866.348	11266.41
866.668	11284.49
866.989	11205.62
867.309	11178.73
867.63	11121.56
867.95	11241.55
868.27	11108.22
868.59	11159.97
868.91	11067.77
869.23	11110.03
869.55	11018.96
869.87	11123.14
870.19	11019.41
870.51	11010.37
870.83	10975.35
871.15	10953.2
871.469	10935.35
871.789	11033.2
872.109	10887.44
872.428	10874.56
872.748	10903.03
873.067	10890.15
873.386	10810.83
873.706	10887.67
874.025	10748.69
874.344	10771.28
874.663	10778.29
874.982	10690.16
875.301	10750.04
875.62	10748.23
875.939	10683.38
876.258	10654.23
876.577	10615.36
876.896	10665.75
877.214	10583.04
877.533	10537.17
877.852	10563.83
878.17	10600.67
878.489	10529.48
878.807	10586.43
879.125	10502.59
879.444	10545.98
879.762	10464.4
880.08	10463.5
880.398	10406.1
880.716	10416.04
881.034	10341.01
881.352	10371.97
881.67	10297.62
881.988	10408.58
882.306	10358.19
882.624	10310.05
882.941	10207.68
883.259	10187.35
883.577	10237.06
883.894	10219.43
884.212	10092.66
884.529	10142.15
884.846	10125.2
885.164	10088.36
885.481	10105.54
885.798	10040.46
886.115	9952.78
886.432	10054.69
886.75	10021.47
887.067	9959.33
887.383	9918.2
887.7	9931.53
888.017	9907.13
888.334	9957.07
888.651	9784.64
888.967	9863.51
889.284	9788.03
889.6	9707.13
889.917	9728.83
890.233	9747.13
890.55	9651.09
890.866	9619.68
891.182	9611.77
891.498	9662.61
891.815	9552.11
892.131	9541.26
892.447	9533.8
892.763	9487.93
893.079	9514.37
893.395	9439.12
893.71	9439.79
894.026	9369.06
894.342	9309.18
894.657	9301.04
894.973	9283.19
895.289	9267.14
895.604	9286.13
895.92	9140.37
896.235	9179.01
896.55	9150.76
896.865	9070.99
897.181	9045.91
897.496	9151.89
897.811	8975.4
898.126	8940.6
898.441	8922.52
898.756	8941.95
899.071	8879.36
899.386	8877.55
899.7	8806.14
900.015	8863.31
900.33	8684.79
900.644	8702.41
900.959	8678.01
901.273	8668.97
901.588	8604.56
901.902	8616.76
902.216	8560.27
902.531	8583.32
902.845	8555.3
903.159	8460.38
903.473	8480.05
903.787	8428.07
904.101	8381.52
904.415	8346.26
904.729	8312.37
905.042	8214.06
905.356	8236.89
905.67	8212.26
905.984	8269.88
906.297	8193.05
906.611	8189.43
906.924	8173.61
907.237	8054.75
907.551	8052.49
907.864	8030.57
908.177	7987.63
908.491	8041.19
908.804	7949.89
909.117	7910.57
909.43	7800.52
909.743	7805.03
910.056	7768.88
910.368	7808.88
910.681	7750.12
910.994	7737.47
911.307	7660.41
911.619	7668.54
911.932	7651.14
912.244	7605.27
912.557	7544.48
912.869	7529.56
913.181	7444.37
913.494	7463.57
913.806	7425.38
914.118	7411.82
914.43	7299.74
914.742	7398.94
915.054	7318.04
915.366	7263.58
915.678	7222.68
915.99	7167.09
916.302	7197.82
916.613	7141.78
916.925	7106.97
917.236	7111.49
917.548	7043.7
917.859	7078.05
918.171	7046.86
918.482	6943.81
918.794	6872.18
919.105	6968.9
919.416	6888.22
919.727	6896.13
920.038	6786.76
920.349	6752.41
920.66	6712.41
920.971	6833.76
921.282	6791.05
921.593	6671.73
921.903	6614.33
922.214	6614.11
922.525	6601.45
922.835	6604.61
923.146	6522.58
923.456	6507.89
923.767	6535.46
924.077	6379.08
924.387	6479.87
924.697	6419.31
925.008	6357.84
925.318	6391.29
925.628	6366.65
925.938	6322.36
926.248	6216.83
926.558	6222.25
926.867	6289.14
927.177	6179.54
927.487	6183.61
927.796	6146.77
928.106	6155.13
928.416	6070.84
928.725	6062.93
929.034	6012.31
929.344	6007.79
929.653	6004.63
929.962	5990.62
930.271	5946.1
930.581	5932.09
930.89	5895.71
931.199	5830.4
931.508	5817.29
931.817	5835.37
932.125	5787.91
932.434	5746.11
932.743	5741.13
933.051	5709.27
933.36	5683.28
933.669	5638.99
933.977	5592.44
934.286	5588.82
934.594	5572.33
934.902	5531.65
935.21	5521.93
935.519	5563.06
935.827	5517.19
936.135	5460.92
936.443	5458.43
936.751	5429.05
937.059	5410.3
937.367	5367.36
937.674	5329.62
937.982	5361.26
938.29	5294.82
938.597	5342.5
938.905	5302.5
939.213	5270.64
939.52	5239
939.827	5209.85
940.135	5182.28
940.442	5157.87
940.749	5109.74
941.056	5132.56
941.363	5106.12
941.67	5037.88
941.977	5035.84
942.284	5014.37
942.591	5041.27
942.898	5003.3
943.205	4991.32
943.511	4961.27
943.818	4930.08
944.125	4894.6
944.431	4892.57
944.738	4864.32
945.044	4875.62
945.35	4835.4
945.657	4735.29
945.963	4789.29
946.269	4702.74
946.575	4722.63
946.881	4694.38
947.187	4707.94
947.493	4652.8
947.799	4674.72
948.105	4639.24
948.41	4580.71
948.716	4592.46
949.022	4566.25
949.327	4583.65
949.633	4529.19
949.938	4511.56
950.244	4452.35
950.549	4465.46
950.854	4459.59
951.16	4440.15
951.465	4388.85
951.77	4403.09
952.075	4367.61
952.38	4310.66
952.685	4345.69
952.99	4316.99
953.294	4301.4
953.599	4297.33
953.904	4235.19
954.209	4213.04
954.513	4247.84
954.818	4192.47
955.122	4192.7
955.426	4173.04
955.731	4186.82
956.035	4120.39
956.339	4112.48
956.643	4059.14
956.948	4062.53
957.252	4053.72
957.556	4051.01
957.86	3997.68
958.163	3980.28
958.467	3981.41
958.771	3957.23
959.075	3944.8
959.378	3891.01
959.682	3921.3
959.985	3898.02
960.289	3892.82
960.592	3867.51
960.896	3847.85
961.199	3840.62
961.502	3844.69
961.805	3793.39
962.108	3779.15
962.411	3761.07
962.714	3759.94
963.017	3713.84
963.32	3726.72
963.623	3703.45
963.926	3672.26
964.228	3641.53
964.531	3658.03
964.833	3618.25
965.136	3591.36
965.438	3579.38
965.741	3572.6
966.043	3567.41
966.345	3559.95
966.648	3572.6
966.95	3505.49
967.252	3523.11
967.554	3510.01
967.856	3453.74
968.158	3467.75
968.46	3418.48
968.761	3442.66
969.063	3411.93
969.365	3414.64
969.666	3415.32
969.968	3356.79
970.269	3328.77
970.571	3327.41
970.872	3374.19
971.174	3311.37
971.475	3324.93
971.776	3289
972.077	3281.31
972.378	3264.14
972.679	3212.16
972.98	3242.89
973.281	3268.21
973.582	3254.19
973.883	3237.25
974.183	3181.2
974.484	3154.99
974.785	3176.68
975.085	3126.97
975.386	3141.43
975.686	3139.17
975.986	3084.48
976.287	3084.48
976.587	3022.34
976.887	3070.24
977.187	3045.16
977.487	3051.04
977.787	2997.7
978.087	2980.08
978.387	2986.86
978.687	2971.04
978.987	2945.73
979.286	2946.86
979.586	2940.08
979.885	2914.32
980.185	2947.76
980.484	2880.19
980.784	2918.16
981.083	2864.83
981.382	2865.96
981.682	2841.55
981.981	2832.06
982.28	2835.22
982.579	2813.98
982.878	2810.36
983.177	2788.9
983.475	2754.55
983.774	2747.99
984.073	2742.8
984.372	2726.07
984.67	2720.42
984.969	2739.41
985.267	2690.59
985.566	2724.49
985.864	2680.88
986.162	2675.9
986.461	2623.48
986.759	2673.42
987.057	2588.22
987.355	2616.7
987.653	2598.62
987.951	2585.06
988.249	2569.24
988.547	2594.55
988.844	2544.61
989.142	2539.64
989.44	2517.04
989.737	2506.42
990.035	2490.6
990.332	2515.68
990.63	2482.24
990.927	2440.66
991.224	2476.81
991.521	2439.07
991.819	2429.13
992.116	2418.06
992.413	2402.47
992.71	2397.49
993.006	2390.26
993.303	2413.76
993.6	2388.23
993.897	2376.03
994.193	2348.68
994.49	2352.52
994.787	2327.66
995.083	2317.72
995.379	2310.26
995.676	2304.39
995.972	2284.5
996.268	2275.91
996.565	2247.89
996.861	2295.12
997.157	2267.78
997.453	2257.84
997.749	2192.08
998.044	2185.97
998.34	2201.79
998.636	2174.9
998.932	2189.36
999.227	2144.62
999.523	2157.5
999.818	2164.05
1000.114	2130.38
1000.409	2077.95
1000.704	2112.98
1001	2072.76
1001.295	2105.3
1001.59	2105.07
1001.885	2068.01
1002.18	2047.22
1002.475	2019.2
1002.77	2025.75
1003.065	2006.32
1003.359	2016.49
1003.654	2009.03
1003.949	1976.04
1004.243	1957.96
1004.538	1984.17
1004.832	1984.62
1005.127	1970.61
1005.421	1927.9
1005.715	1917.05
1006.009	1931.52
1006.304	1912.76
1006.598	1922.93
1006.892	1901.01
1007.186	1884.74
1007.48	1838.86
1007.773	1843.84
1008.067	1837.96
1008.361	1839.32
1008.655	1850.16
1008.948	1796.15
1009.242	1837.51
1009.535	1800.45
1009.829	1787.57
1010.122	1734.23
1010.415	1770.84
1010.708	1764.29
1011.001	1729.26
1011.295	1730.17
1011.588	1731.07
1011.881	1713.67
1012.173	1676.16
1012.466	1696.95
1012.759	1679.32
1013.052	1666.89
1013.344	1652.65
1013.637	1632.09
1013.93	1663.73
1014.222	1606.55
1014.514	1629.15
1014.807	1644.29
1015.099	1608.59
1015.391	1563.17
1015.683	1579.21
1015.976	1558.87
1016.268	1579.66
1016.56	1548.7
1016.851	1540.57
1017.143	1545.09
1017.435	1526.33
1017.727	1520
1018.018	1525.2
1018.31	1507.57
1018.602	1507.57
1018.893	1480.46
1019.185	1485.65
1019.476	1437.52
1019.767	1463.51
1020.058	1450.17
1020.35	1415.6
1020.641	1416.05
1020.932	1397.29
1021.223	1418.31
1021.514	1426.67
1021.804	1400.23
1022.095	1369.05
1022.386	1373.11
1022.677	1367.92
1022.967	1367.92
1023.258	1381.47
1023.548	1346.67
1023.839	1341.25
1024.129	1328.6
1024.419	1313.45
1024.709	1308.26
1025	1290.63
1025.29	1291.76
1025.58	1278.88
1025.87	1247.92
1026.16	1260.35
1026.449	1231.42
1026.739	1248.6
1027.029	1224.42
1027.319	1226.68
1027.608	1222.16
1027.898	1215.6
1028.187	1201.59
1028.477	1205.89
1028.766	1210.18
1029.055	1181.25
1029.344	1172.67
1029.634	1175.83
1029.923	1161.14
1030.212	1183.74
1030.501	1148.94
1030.79	1134.7
1031.078	1138.09
1031.367	1142.61
1031.656	1106.45
1031.945	1113.23
1032.233	1095.83
1032.522	1061.48
1032.81	1086.57
1033.099	1074.59
1033.387	1071.88
1033.675	1078.21
1033.963	1070.97
1034.251	1059.68
1034.54	1033.01
1034.828	1045.44
1035.116	1043.63
1035.403	1006.12
1035.691	1024.42
1035.979	1031.43
1036.267	1002.28
1036.554	1020.35
1036.842	984.65
1037.129	1001.82
1037.417	993.01
1037.704	1005.67
1037.992	995.95
1038.279	972.22
1038.566	972.9
1038.853	972.9
1039.14	972.9
