Data from hue_240_FLMS001491_00015.txt Node
Date: Tue Feb 07 16:35:07 GMT 2017
User: dcchb
Spectrometer: FLMS00149
Trigger mode: 0
Integration Time (sec): 2.000000E-2
Scans to average: 10
Electric dark correction enabled: true
Nonlinearity correction enabled: false
Boxcar width: 0
XAxis mode: Wavelengths
Number of Pixels in Spectrum: 2048
>>>>>Begin Spectral Data<<<<<
341.393	7.56
341.776	7.56
342.16	7.56
342.543	-69.5
342.927	-55.49
343.31	-50.97
343.693	-76.51
344.077	-41.48
344.46	-61.37
344.843	-47.58
345.226	-51.65
345.61	-26.79
345.993	-26.57
346.376	-12.1
346.759	4.84
347.142	31.51
347.525	34
347.908	63.83
348.291	77.84
348.674	85.07
349.057	97.95
349.44	112.64
349.823	144.95
350.206	161.45
350.588	165.07
350.971	199.87
351.354	219.08
351.737	232.64
352.119	225.18
352.502	234.89
352.884	262.01
353.267	274.67
353.65	281.22
354.032	287.55
354.414	290.71
354.797	302.46
355.179	300.88
355.562	294.33
355.944	310.83
356.326	333.65
356.709	326.42
357.091	328.9
357.473	334.55
357.855	332.07
358.238	343.59
358.62	324.16
359.002	312.18
359.384	340.88
359.766	325.51
360.148	314.21
360.53	342.01
360.912	335.68
361.294	315.34
361.676	331.39
362.057	327.32
362.439	313.76
362.821	330.03
363.203	318.51
363.584	331.84
363.966	327.1
364.348	302.01
364.729	337.27
365.111	312.63
365.493	320.77
365.874	310.37
366.256	283.03
366.637	316.93
367.019	309.47
367.4	323.48
367.781	307.66
368.163	308.11
368.544	321.9
368.925	296.59
369.306	302.46
369.688	301.11
370.069	301.11
370.45	300.66
370.831	297.94
371.212	290.94
371.593	315.12
371.974	305.85
372.355	283.48
372.736	315.12
373.117	304.95
373.498	299.07
373.879	302.46
374.26	292.07
374.641	302.92
375.021	299.75
375.402	299.53
375.783	311.05
376.163	309.24
376.544	316.7
376.925	338.62
377.305	310.15
377.686	314.67
378.066	328.9
378.447	327.55
378.827	310.37
379.208	335.68
379.588	317.38
379.968	331.62
380.349	324.16
380.729	326.42
381.109	298.62
381.489	328.9
381.87	311.5
382.25	335.68
382.63	327.77
383.01	324.16
383.39	331.62
383.77	338.17
384.15	329.36
384.53	342.01
384.91	337.04
385.29	352.41
385.67	333.42
386.049	344.04
386.429	355.8
386.809	344.95
387.189	352.63
387.568	347.89
387.948	351.73
388.328	352.86
388.707	340.43
389.087	356.02
389.466	347.43
389.846	354.44
390.225	357.83
390.605	372.74
390.984	342.69
391.363	367.77
391.743	358.28
392.122	368.68
392.501	359.41
392.881	372.29
393.26	365.74
393.639	356.93
394.018	361.45
394.397	346.76
394.776	364.84
395.155	372.97
395.534	369.13
395.913	382.01
396.292	389.47
396.671	388.34
397.05	384.72
397.429	386.53
397.808	403.48
398.186	376.81
398.565	412.52
398.944	383.14
399.323	377.26
399.701	401.22
400.08	387.21
400.458	417.72
400.837	407.77
401.215	418.84
401.594	408.22
401.972	421.33
402.351	434.21
402.729	400.31
403.107	409.58
403.486	442.12
403.864	439.41
404.242	437.38
404.62	449.35
404.999	450.26
405.377	430.14
405.755	417.72
406.133	452.97
406.511	436.25
406.889	451.16
407.267	457.26
407.645	467.21
408.023	478.5
408.401	469.92
408.779	493.19
409.156	487.77
409.534	467.66
409.912	522.35
410.29	487.09
410.667	497.49
411.045	484.15
411.422	498.39
411.8	521.67
412.178	527.99
412.555	544.27
412.933	549.01
413.31	531.38
413.687	537.71
414.065	565.73
414.442	543.14
414.819	557.37
415.197	567.99
415.574	577.26
415.951	595.79
416.328	577.71
416.705	594.21
417.082	622.91
417.46	622
417.837	613.19
418.214	623.36
418.591	612.96
418.967	635.34
419.344	665.39
419.721	629.91
420.098	648.67
420.475	676.92
420.852	673.98
421.228	650.48
421.605	668.1
421.982	668.1
422.358	701.78
422.735	713.53
423.111	674.88
423.488	736.58
423.864	744.49
424.241	715.33
424.617	767.54
424.994	753.98
425.37	763.24
425.746	744.71
426.123	789
426.499	760.98
426.875	803.47
427.251	778.61
427.627	803.92
428.003	816.35
428.379	827.2
428.756	828.1
429.132	824.94
429.507	872.62
429.883	838.95
430.259	903.8
430.635	878.72
431.011	913.52
431.387	918.72
431.763	939.96
432.138	937.48
432.514	960.53
432.89	933.86
433.265	947.64
433.641	993.75
434.016	980.41
434.392	1005.72
434.767	1030.81
435.143	1028.09
435.518	1050.69
435.894	1054.31
436.269	1076.23
436.644	1075.78
437.02	1117.81
437.395	1114.42
437.77	1136.79
438.145	1142.89
438.52	1176.57
438.895	1161.2
439.271	1175.89
439.646	1207.07
440.021	1227.64
440.395	1211.59
440.77	1205.94
441.145	1237.58
441.52	1289.56
441.895	1248.88
442.27	1292.49
442.645	1302.21
443.019	1301.53
443.394	1303.57
443.769	1320.29
444.143	1288.43
444.518	1369.1
444.892	1335.66
445.267	1365.49
445.641	1344.24
446.016	1366.16
446.39	1403
446.764	1403.45
447.139	1391.47
447.513	1435.77
447.887	1441.42
448.262	1423.56
448.636	1424.02
449.01	1458.14
449.384	1484.13
449.758	1500.62
450.132	1514.41
450.506	1495.2
450.88	1499.04
451.254	1508.76
451.628	1553.5
452.002	1556.89
452.376	1539.72
452.75	1563.22
453.123	1591.7
453.497	1568.42
453.871	1651.35
454.244	1650.68
454.618	1635.99
454.992	1642.32
455.365	1663.11
455.739	1723.9
456.112	1733.61
456.486	1738.13
456.859	1771.58
457.232	1772.93
457.606	1750.34
457.979	1783.1
458.352	1822.88
458.725	1860.39
459.099	1867.17
459.472	1917.34
459.845	1918.47
460.218	1886.38
460.591	1933.61
460.964	1958.01
461.337	2012.93
461.71	2010.44
462.083	2030.1
462.456	1987.39
462.829	2041.18
463.201	2083.43
463.574	2104.45
463.947	2129.31
464.32	2165.69
464.692	2152.58
465.065	2173.6
465.438	2197.78
465.81	2233.03
466.183	2268.06
466.555	2314.61
466.928	2310.55
467.3	2318.91
467.672	2353.71
468.045	2372.47
468.417	2395.52
468.789	2443.2
469.161	2435.29
469.534	2471.67
469.906	2536.76
470.278	2574.04
470.65	2554.61
471.022	2608.17
471.394	2666.92
471.766	2661.05
472.138	2689.97
472.51	2699.01
472.882	2772.46
473.253	2792.57
473.625	2805.22
473.997	2905.11
474.369	2924.09
474.74	2902.17
475.112	2986.69
475.484	3012.45
475.855	3058.1
476.227	3117.98
476.598	3134.03
476.97	3179.9
477.341	3259
477.713	3304.87
478.084	3318.2
478.455	3338.54
478.827	3395.72
479.198	3491.31
479.569	3486.56
479.94	3571.08
480.311	3572.21
480.682	3637.74
481.053	3727.46
481.424	3792.77
481.795	3828.47
482.166	3872.54
482.537	3895.36
482.908	3995.02
483.279	4019.88
483.65	4057.39
484.021	4131.29
484.391	4188.92
484.762	4199.99
485.133	4301
485.503	4294.9
485.874	4402.92
486.244	4412.41
486.615	4467.55
486.985	4556.14
487.356	4577.83
487.726	4643.14
488.097	4655.12
488.467	4770.82
488.837	4847.43
489.207	4806.98
489.578	4931.72
489.948	4961.1
490.318	5054.2
490.688	5001.78
491.058	5044.94
491.428	5192.05
491.798	5192.73
492.168	5262.79
492.538	5219.62
492.908	5313.41
493.278	5430.46
493.648	5368.55
494.017	5465.04
494.387	5514.08
494.757	5513.4
495.126	5617.35
495.496	5617.8
495.866	5570.57
496.235	5662.1
496.605	5749.78
496.974	5724.47
497.344	5738.03
497.713	5791.36
498.082	5826.39
498.452	5891.24
498.821	5871.81
499.19	5908.64
499.559	5961.75
499.928	5998.13
500.298	5954.07
500.667	6105.48
501.036	6065.25
501.405	6125.36
501.774	6129.66
502.143	6173.95
502.512	6171.91
502.88	6232.7
503.249	6231.12
503.618	6241.74
503.987	6248.07
504.356	6295.75
504.724	6305.24
505.093	6332.59
505.462	6408.29
505.83	6400.61
506.199	6391.8
506.567	6563.77
506.936	6494.62
507.304	6503.66
507.672	6556.54
508.041	6626.82
508.409	6583.43
508.777	6697.55
509.145	6743.42
509.514	6686.7
509.882	6719.47
510.25	6711.79
510.618	6764.44
510.986	6698
511.354	6762.86
511.722	6784.55
512.09	6843.53
512.458	6845.79
512.826	6873.59
513.193	6851.22
513.561	6882.4
513.929	6916.75
514.297	7000.37
514.664	7024.77
515.032	7000.82
515.4	7086.47
515.767	7063.64
516.135	7150.19
516.502	6995.62
516.869	7174.37
517.237	7155.39
517.604	7103.64
517.972	7170.08
518.339	7208.72
518.706	7181.15
519.073	7159.23
519.44	7267.93
519.808	7274.94
520.175	7226.35
520.542	7308.83
520.909	7336.63
521.276	7375.05
521.643	7361.49
522.009	7373.46
522.376	7370.53
522.743	7434.71
523.11	7436.51
523.477	7518.55
523.843	7498.43
524.21	7533.46
524.577	7622.27
524.943	7637.19
525.31	7615.27
525.676	7657.98
526.043	7665.43
526.409	7665.66
526.776	7846.22
527.142	7683.29
527.508	7741.14
527.874	7774.81
528.241	7797.86
528.607	7769.39
528.973	7878.76
529.339	7807.13
529.705	7872.89
530.071	7872.43
530.437	7917.86
530.803	7943.62
531.169	7914.92
531.535	7924.41
531.901	7946.33
532.267	7932.55
532.632	7946.1
532.998	7959.89
533.364	7949.49
533.73	8008.7
534.095	7993.56
534.461	8027.91
534.826	8026.55
535.192	8042.37
535.557	8000.11
535.923	8010.51
536.288	8046.89
536.653	7999.89
537.019	8022.26
537.384	7965.54
537.749	8056.61
538.114	7989.72
538.479	8055.71
538.845	8020.68
539.21	8006.44
539.575	8009.83
539.94	8051.19
540.305	8091.86
540.67	8033.56
541.034	8008.7
541.399	8068.59
541.764	7992.21
542.129	7988.59
542.494	8039.66
542.858	8002.6
543.223	8005.09
543.587	8014.8
543.952	7974.58
544.316	7967.12
544.681	8021.13
545.045	8034.92
545.41	8013.22
545.774	8026.55
546.138	8005.09
546.503	7989.49
546.867	7941.13
547.231	8010.96
547.595	8012.09
547.959	8101.13
548.324	8022.71
548.688	8010.74
549.052	7981.13
549.416	8023.39
549.779	8006.67
550.143	7947.91
550.507	7985.65
550.871	8090.51
551.235	7994.01
551.599	8018.65
551.962	8017.74
552.326	7999.21
552.689	8050.28
553.053	8000.34
553.417	7982.94
553.78	7976.16
554.143	8041.24
554.507	7967.35
554.87	8030.4
555.234	8043.96
555.597	7959.89
555.96	8012.77
556.323	8033.11
556.686	8066.1
557.05	8087.57
557.413	8052.77
557.776	8063.39
558.139	8097.06
558.502	8148.13
558.865	8075.82
559.228	8183.16
559.59	8140.22
559.953	8131.18
560.316	8235.36
560.679	8186.78
561.041	8217.28
561.404	8239.2
561.767	8284.4
562.129	8229.49
562.492	8394.45
562.854	8261.35
563.217	8335.47
563.579	8225.87
563.941	8386.09
564.304	8366.66
564.666	8437.17
565.028	8453.66
565.39	8436.94
565.753	8504.96
566.115	8474.23
566.477	8478.29
566.839	8497.5
567.201	8582.47
567.563	8524.62
567.925	8594.22
568.287	8553.09
568.648	8631.96
569.01	8629.93
569.372	8681.45
569.734	8595.35
570.095	8696.14
570.457	8701.34
570.819	8683.94
571.18	8721.23
571.542	8798.29
571.903	8745.86
572.265	8818.17
572.626	8822.47
572.987	8880.32
573.349	8736.14
573.71	8941.11
574.071	8921.9
574.432	8983.82
574.794	8989.24
575.155	8960.77
575.516	8960.32
575.877	8867.44
576.238	8985.4
576.599	9110.37
576.96	9022.91
577.32	9004.38
577.681	9088.9
578.042	9113.98
578.403	9127.32
578.763	9092.97
579.124	9117.6
579.485	9201.66
579.845	9255.22
580.206	9170.03
580.566	9204.38
580.927	9222.46
581.287	9301.55
581.648	9179.52
582.008	9280.08
582.368	9318.05
582.728	9311.94
583.089	9329.8
583.449	9332.06
583.809	9323.7
584.169	9364.37
584.529	9315.79
584.889	9415.22
585.249	9394.43
585.609	9343.13
585.969	9401.89
586.329	9340.19
586.688	9408.89
587.048	9402.56
587.408	9353.07
587.768	9442.34
588.127	9347.88
588.487	9453.64
588.846	9540.19
589.206	9404.37
589.565	9431.04
589.925	9431.26
590.284	9460.19
590.643	9453.18
591.003	9537.7
591.362	9524.59
591.721	9452.73
592.08	9405.05
592.44	9525.5
592.799	9513.97
593.158	9554.65
593.517	9546.97
593.876	9538.38
594.235	9517.36
594.593	9541.99
594.952	9603.91
595.311	9513.97
595.67	9504.71
596.029	9562.11
596.387	9583.12
596.746	9636.46
597.104	9633.97
597.463	9544.03
597.822	9647.08
598.18	9619.28
598.538	9615.89
598.897	9663.57
599.255	9649.11
599.613	9724.36
599.972	9692.95
600.33	9698.6
600.688	9671.71
601.046	9698.15
601.404	9708.77
601.762	9768.2
602.12	9801.42
602.478	9793.51
602.836	9768.66
603.194	9696.57
603.552	9726.85
603.91	9678.04
604.268	9768.66
604.625	9724.59
604.983	9768.2
605.341	9706.51
605.698	9814.08
606.056	9778.37
606.413	9803
606.771	9856.56
607.128	9779.95
607.485	9750.58
607.843	9745.61
608.2	9849.78
608.557	9868.31
608.914	9833.06
609.272	9875.55
609.629	9859.27
609.986	9919.39
610.343	9838.94
610.7	9885.26
611.057	9901.99
611.414	9897.24
611.771	9879.16
612.127	9992.6
612.484	9977.01
612.841	10009.78
613.198	9938.82
613.554	9891.14
613.911	9934.75
614.267	10038.25
614.624	9924.58
614.98	9985.83
615.337	10007.75
615.693	9952.38
616.05	9984.47
616.406	10124.13
616.762	10059.04
617.118	10018.14
617.475	10043.45
617.831	10056.11
618.187	10056.56
618.543	10117.35
618.899	10097.91
619.255	10096.33
619.611	10101.53
619.967	10139.95
620.323	10122.32
620.678	10033.96
621.034	10032.15
621.39	10055.2
621.746	10090.46
622.101	10134.75
622.457	10092.26
622.812	10066.95
623.168	10169.32
623.523	10083.9
623.879	10188.08
624.234	10100.17
624.589	10080.96
624.945	10172.49
625.3	10129.1
625.655	10030.57
626.01	10113.05
626.365	10113.28
626.72	10062.21
627.075	9985.15
627.43	10104.01
627.785	10111.25
628.14	10103.34
628.495	10121.87
628.85	10082.55
629.205	10049.1
629.559	10143.79
629.914	10100.4
630.269	10100.85
630.623	9987.86
630.978	10068.99
631.332	9976.79
631.687	10018.59
632.041	10044.81
632.396	10049.1
632.75	9912.15
633.104	9946.28
633.459	9961.42
633.813	9943.34
634.167	9874.87
634.521	9872.61
634.875	9924.13
635.229	9839.84
635.583	9867.86
635.937	9821.76
636.291	9866.51
636.645	9785.6
636.999	9803.46
637.352	9824.93
637.706	9766.17
638.06	9869.22
638.413	9777.69
638.767	9732.72
639.121	9812.27
639.474	9723.46
639.828	9693.86
640.181	9749.67
640.534	9713.74
640.888	9698.15
641.241	9678.26
641.594	9664.25
641.947	9729.33
642.301	9643.24
642.654	9666.74
643.007	9730.01
643.36	9644.14
643.713	9649.56
644.066	9703.57
644.419	9592.39
644.771	9552.39
645.124	9450.92
645.477	9456.35
645.83	9369.8
646.182	9391.49
646.535	9321.21
646.888	9352.85
647.24	9326.18
647.593	9284.6
647.945	9270.82
648.298	9259.52
648.65	9236.47
649.002	9256.13
649.355	9175
649.707	9299.97
650.059	9357.14
650.411	9448.89
650.763	9492.28
651.115	9528.21
651.467	9460.42
651.819	9461.09
652.171	9427.2
652.523	9403.02
652.875	9478.04
653.227	9408.89
653.578	9475.33
653.93	9425.84
654.282	9393.52
654.633	9390.13
654.985	9399.63
655.337	9409.79
655.688	9369.8
656.039	9447.99
656.391	9378.38
656.742	9410.47
657.094	9390.81
657.445	9403.69
657.796	9408.67
658.147	9370.47
658.498	9434.43
658.849	9448.44
659.2	9341.32
659.551	9359.63
659.902	9454.31
660.253	9448.21
660.604	9401.43
660.955	9319.63
661.306	9370.47
661.656	9415.44
662.007	9394.88
662.358	9369.8
662.708	9433.3
663.059	9395.33
663.409	9336.58
663.76	9355.56
664.11	9472.39
664.461	9401.21
664.811	9440.75
665.161	9425.16
665.511	9416.12
665.862	9365.05
666.212	9430.59
666.562	9399.85
666.912	9383.81
667.262	9456.12
667.612	9427.42
667.962	9373.86
668.312	9356.69
668.662	9448.66
669.011	9389
669.361	9406.18
669.711	9369.8
670.06	9334.99
670.41	9321.44
670.76	9368.21
671.109	9367.54
671.459	9305.84
671.808	9347.2
672.157	9334.32
672.507	9284.83
672.856	9269.46
673.205	9317.14
673.554	9369.34
673.904	9258.39
674.253	9290.93
674.602	9281.66
674.951	9184.04
675.3	9107.43
675.649	9274.21
675.998	9253.41
676.346	9238.05
676.695	9233.3
677.044	9243.7
677.393	9169.12
677.741	9189.46
678.09	9169.12
678.438	9139.29
678.787	9183.81
679.135	9178.16
679.484	9109.92
679.832	9171.38
680.181	9006.87
680.529	9120.54
680.877	9089.8
681.225	9037.83
681.573	9076.47
681.922	9073.53
682.27	9064.95
682.618	9034.89
682.966	9005.74
683.314	8942.69
683.661	8960.77
684.009	8876.48
684.357	8931.39
684.705	8926.42
685.053	8819.3
685.4	8890.03
685.748	8854.33
686.095	8838.06
686.443	8766.42
686.79	8793.31
687.138	8818.17
687.485	8756.48
687.832	8761.68
688.18	8683.26
688.527	8784.95
688.874	8677.38
689.221	8690.94
689.568	8698.85
689.915	8610.27
690.262	8619.31
690.609	8547.9
690.956	8526.43
691.303	8473.77
691.65	8477.39
691.997	8485.98
692.344	8396.94
692.69	8472.19
693.037	8398.52
693.383	8303.61
693.73	8384.06
694.077	8304.51
694.423	8302.03
694.769	8312.87
695.116	8282.14
695.462	8231.52
695.808	8212.31
696.155	8174.12
696.501	8162.14
696.847	8143.39
697.193	8088.47
697.539	8150.85
697.885	8100.68
698.231	8027.23
698.577	7997.18
698.923	7971.19
699.269	7987.46
699.614	7929.38
699.96	7832.44
700.306	7859.78
700.651	7832.21
700.997	7853
701.342	7785.43
701.688	7780.91
702.033	7744.53
702.379	7794.24
702.724	7730.07
703.069	7768.71
703.415	7610.75
703.76	7633.57
704.105	7622.5
704.45	7622.05
704.795	7543.86
705.14	7572.1
705.485	7513.12
705.83	7492.33
706.175	7443.29
706.52	7457.08
706.865	7437.87
707.209	7401.26
707.554	7407.14
707.899	7410.07
708.243	7353.35
708.588	7348.61
708.932	7340.92
709.277	7324.2
709.621	7293.24
709.966	7293.92
710.31	7244.65
710.654	7162.85
710.998	7181.6
711.342	7199.46
711.687	7153.36
712.031	7219.57
712.375	7118.56
712.719	7101.83
713.063	7143.64
713.407	7173.92
713.75	7020.25
714.094	7110.19
714.438	7043.53
714.782	7023.87
715.125	6986.13
715.469	7076.52
715.812	7062.29
716.156	6937.77
716.499	6997.2
716.843	6996.53
717.186	6954.94
717.53	6954.72
717.873	6960.14
718.216	6896.19
718.559	6916.98
718.902	6862.07
719.246	6858.9
719.589	6882.4
719.932	6832.24
720.275	6834.95
720.617	6834.95
720.96	6780.03
721.303	6803.54
721.646	6801.05
721.989	6826.13
722.331	6769.86
722.674	6810.77
723.016	6749.07
723.359	6743.2
723.701	6783.42
724.044	6661.17
724.386	6675.63
724.729	6756.31
725.071	6726.48
725.413	6718.57
725.755	6722.86
726.097	6676.99
726.439	6700.71
726.782	6664.33
727.124	6671.11
727.465	6689.41
727.807	6679.02
728.149	6665.91
728.491	6615.52
728.833	6667.49
729.175	6605.8
729.516	6651
729.858	6637.21
730.199	6596.08
730.541	6659.36
730.882	6638.34
731.224	6581.62
731.565	6649.42
731.906	6582.07
732.248	6646.03
732.589	6556.31
732.93	6592.24
733.271	6600.38
733.612	6527.38
733.953	6548.18
734.294	6562.64
734.635	6567.84
734.976	6635.18
735.317	6546.82
735.658	6586.14
735.999	6587.95
736.339	6587.95
736.68	6586.37
737.021	6597.89
737.361	6587.27
737.702	6626.37
738.042	6538.23
738.383	6541.85
738.723	6582.3
739.063	6620.26
739.404	6592.47
739.744	6604.22
740.084	6578.68
740.424	6581.62
740.764	6558.8
741.104	6636.53
741.444	6583.43
741.784	6651.68
742.124	6642.64
742.464	6603.77
742.804	6595.41
743.143	6651.68
743.483	6660.71
743.823	6658.23
744.162	6634.05
744.502	6704.33
744.841	6679.7
745.181	6725.35
745.52	6704.78
745.86	6761.05
746.199	6749.3
746.538	6789.52
746.877	6796.98
747.216	6830.2
747.556	6814.16
747.895	6829.07
748.234	6855.96
748.573	6904.55
748.911	6883.76
749.25	7027.26
749.589	6962.63
749.928	7046.92
750.267	7098.22
750.605	7111.1
750.944	7192
751.283	7242.62
751.621	7266.12
751.96	7249.63
752.298	7303.86
752.636	7356.06
752.975	7432.45
753.313	7472.67
753.651	7511.54
753.989	7557.87
754.327	7645.55
754.666	7654.81
755.004	7759.89
755.342	7842.83
755.679	7861.81
756.017	7951.75
756.355	8068.81
756.693	8162.82
757.031	8199.66
757.368	8297.96
757.706	8338.64
758.044	8404.4
758.381	8577.27
758.719	8657.95
759.056	8692.98
759.394	8699.08
759.731	8822.92
760.068	8848
760.405	9029.01
760.743	9094.1
761.08	9199.18
761.417	9318.72
761.754	9345.39
762.091	9472.17
762.428	9504.71
762.765	9606.63
763.102	9714.87
763.438	9779.28
763.775	9859.5
764.112	9962.55
764.449	9968.2
764.785	10109.89
765.122	10096.33
765.458	10302.43
765.795	10262.2
766.131	10360.5
766.467	10487.96
766.804	10542.65
767.14	10547.84
767.476	10716.88
767.812	10702.42
768.148	10805.92
768.485	10813.15
768.821	10867.38
769.157	10983.99
769.492	10981.28
769.828	11090.88
770.164	11092.01
770.5	11109.19
770.836	11216.98
771.171	11226.47
771.507	11255.62
771.842	11212.23
772.178	11329.74
772.513	11378.1
772.849	11370.2
773.184	11429.18
773.519	11449.74
773.855	11478.67
774.19	11452
774.525	11505.33
774.86	11543.3
775.195	11592.56
775.53	11616.29
775.865	11656.06
776.2	11531.77
776.535	11539.91
776.87	11638.44
777.205	11631.88
777.539	11680.02
777.874	11582.39
778.209	11611.77
778.543	11639.11
778.878	11640.7
779.212	11651.32
779.547	11630.98
779.881	11705.33
780.215	11682.5
780.55	11656.06
780.884	11704.65
781.218	11685.89
781.552	11715.05
781.886	11656.52
782.22	11564.77
782.554	11625.78
782.888	11495.84
783.222	11513.92
783.556	11504.43
783.889	11550.3
784.223	11542.17
784.557	11499.91
784.89	11581.49
785.224	11458.55
785.557	11468.72
785.891	11409.52
786.224	11459.91
786.558	11452.45
786.891	11399.35
787.224	11330.65
787.557	11320.71
787.891	11331.78
788.224	11353.02
788.557	11281.61
788.89	11316.41
789.223	11318.67
789.556	11233.93
789.888	11122.52
790.221	11178.11
790.554	11072.8
790.887	11100.37
791.219	11068.28
791.552	11002.75
791.884	11054.95
792.217	11035.06
792.549	10982.18
792.882	10965.01
793.214	10978.79
793.546	10974.95
793.879	10922.52
794.211	10835.97
794.543	10851.56
794.875	10837.33
795.207	10880.26
795.539	10826.48
795.871	10831.9
796.203	10680.27
796.535	10667.16
796.867	10706.71
797.198	10546.94
797.53	10700.61
797.862	10558.01
798.193	10664.45
798.525	10546.49
798.856	10583.55
799.188	10458.13
799.519	10510.11
799.85	10400.28
800.182	10509.43
800.513	10413.38
800.844	10315.53
801.175	10434.85
801.506	10353.05
801.837	10306.04
802.168	10290
802.499	10245.93
802.83	10218.59
803.161	10132.49
803.491	10298.59
803.822	10163.9
804.153	10177.23
804.483	10077.35
804.814	10069.66
805.145	10041.19
805.475	10042.09
805.805	9989.67
806.136	9996.67
806.466	10033.73
806.796	9982.66
807.126	9915.77
807.457	9905.38
807.787	9920.52
808.117	9784.7
808.447	9887.07
808.777	9861.08
809.107	9810.24
809.436	9747.19
809.766	9779.05
810.096	9690.69
810.426	9741.31
810.755	9742.22
811.085	9669.22
811.414	9621.31
811.744	9596.68
812.073	9618.38
812.403	9573.86
812.732	9558.49
813.061	9575.67
813.39	9455.67
813.719	9465.16
814.049	9506.74
814.378	9392.62
814.707	9422
815.036	9434.88
815.365	9352.85
815.693	9302.91
816.022	9396.91
816.351	9360.76
816.68	9259.97
817.008	9263.58
817.337	9210.7
817.665	9216.35
817.994	9222
818.322	9256.8
818.651	9125.28
818.979	9099.29
819.307	9196.69
819.636	9142.23
819.964	9133.87
820.292	9119.41
820.62	9145.62
820.948	9087.77
821.276	9123.02
821.604	9071.05
821.932	9166.41
822.259	9118.28
822.587	9119.18
822.915	9119.86
823.243	9168.9
823.57	9066.53
823.898	9051.39
824.225	9082.12
824.553	9114.21
824.88	9048
825.207	9140.88
825.535	9107.43
825.862	9141.1
826.189	9071.5
826.516	9098.84
826.843	9078.73
827.17	9132.51
827.497	9106.07
827.824	9108.56
828.151	9124.15
828.478	9088.45
828.805	9134.1
829.131	9040.54
829.458	9040.31
829.785	9108.56
830.111	9038.28
830.438	9156.24
830.764	9050.26
831.09	9110.82
831.417	9011.61
831.743	9061.1
832.069	9038.96
832.395	9015.68
832.722	9083.02
833.048	9064.49
833.374	9065.17
833.7	9066.75
834.026	9024.27
834.351	9052.29
834.677	9005.29
835.003	9033.31
835.329	9003.25
835.654	9088
835.98	8962.12
836.306	9002.12
836.631	8972.97
836.956	8951.28
837.282	9000.77
837.607	8871.28
837.932	8910.83
838.258	8916.47
838.583	8893.65
838.908	8807.32
839.233	8913.99
839.558	8870.15
839.883	8803.94
840.208	8784.5
840.533	8814.33
840.858	8763.48
841.182	8751.73
841.507	8752.86
841.832	8747.67
842.156	8739.53
842.481	8736.14
842.805	8604.39
843.13	8662.92
843.454	8708.12
843.778	8625.86
844.103	8631.96
844.427	8625.63
844.751	8611.62
845.075	8584.28
845.399	8578.4
845.723	8499.76
846.047	8508.58
846.371	8487.11
846.695	8447.11
847.019	8365.08
847.343	8392.65
847.666	8349.26
847.99	8265.64
848.313	8306.77
848.637	8233.78
848.96	8217.51
849.284	8204.4
849.607	8134.35
849.931	8107.23
850.254	8096.16
850.577	8034.01
850.9	8007.12
851.223	7958.31
851.546	8001.24
851.869	7874.24
852.192	7942.94
852.515	7825.88
852.838	7825.43
853.161	7825.88
853.483	7814.36
853.806	7698.88
854.129	7771.19
854.451	7717.64
854.774	7657.75
855.096	7705.43
855.419	7580.24
855.741	7602.16
856.063	7560.58
856.385	7576.4
856.708	7568.94
857.03	7507.47
857.352	7538.88
857.674	7497.08
857.996	7453.46
858.318	7451.43
858.64	7399.23
858.961	7379.57
859.283	7394.48
859.605	7362.84
859.926	7339.79
860.248	7300.47
860.57	7267.25
860.891	7306.35
861.212	7226.35
861.534	7275.16
861.855	7240.81
862.176	7274.03
862.498	7222.73
862.819	7274.71
863.14	7185.9
863.461	7140.7
863.782	7185.9
864.103	7145.22
864.424	7173.02
864.745	7119.69
865.065	7035.85
865.386	7026.81
865.707	7061.16
866.027	7071.1
866.348	7037.43
866.668	7079.69
866.989	7014.38
867.309	6938.9
867.63	7010.54
867.95	7046.47
868.27	6964.66
868.59	6930.54
868.91	6948.84
869.23	6958.11
869.55	6897.77
869.87	6992.68
870.19	6932.57
870.51	6877.21
870.83	6895.74
871.15	6851.67
871.469	6881.27
871.789	6846.92
872.109	6886.02
872.428	6778.23
872.748	6828.39
873.067	6795.63
873.386	6816.19
873.706	6836.76
874.025	6766.93
874.344	6739.13
874.663	6677.66
874.982	6769.86
875.301	6739.58
875.62	6756.31
875.939	6749.53
876.258	6723.09
876.577	6761.5
876.896	6665.91
877.214	6701.84
877.533	6705.91
877.852	6681.51
878.17	6661.84
878.489	6691.67
878.807	6681.73
879.125	6622.52
879.444	6641.05
879.762	6613.48
880.08	6601.73
880.398	6556.08
880.716	6567.61
881.034	6571.68
881.352	6550.44
881.67	6570.55
881.988	6581.17
882.306	6521.28
882.624	6456.2
882.941	6439.93
883.259	6434.73
883.577	6460.49
883.894	6403.77
884.212	6409.65
884.529	6394.28
884.846	6385.47
885.164	6388.18
885.481	6358.35
885.798	6381.4
886.115	6316.09
886.432	6319.71
886.75	6335.98
887.067	6316.54
887.383	6253.72
887.7	6318.12
888.017	6301.85
888.334	6212.36
888.651	6208.3
888.967	6263.21
889.284	6175.3
889.6	6152.48
889.917	6132.82
890.233	6179.82
890.55	6136.89
890.866	6128.53
891.182	6072.26
891.498	6051.47
891.815	6108.86
892.131	6055.08
892.447	5987.74
892.763	6013.27
893.079	6008.53
893.395	5972.82
893.71	5972.82
894.026	5929.21
894.342	5930.11
894.657	5889.66
894.973	5920.85
895.289	5906.84
895.604	5872.26
895.92	5825.03
896.235	5799.04
896.55	5804.69
896.865	5802.88
897.181	5757.91
897.496	5749.55
897.811	5744.13
898.126	5730.8
898.441	5705.03
898.756	5655.54
899.071	5643.11
899.386	5601.99
899.7	5566.51
900.015	5540.97
900.33	5498.03
900.644	5554.3
900.959	5556.11
901.273	5463.91
901.588	5511.59
901.902	5430.01
902.216	5418.71
902.531	5419.17
902.845	5433.4
903.159	5414.19
903.473	5377.58
903.787	5376
904.101	5305.5
904.415	5328.09
904.729	5273.86
905.042	5249.9
905.356	5249.23
905.67	5236.8
905.984	5263.46
906.297	5239.96
906.611	5178.49
906.924	5163.13
907.237	5123.35
907.551	5114.77
907.864	5078.38
908.177	5092.39
908.491	5066.18
908.804	5013.53
909.117	5041.55
909.43	5014.2
909.743	4979.4
910.056	4965.62
910.368	4960.65
910.681	4891.95
910.994	4931.49
911.307	4861.44
911.619	4858.95
911.932	4888.33
912.244	4872.74
912.557	4805.17
912.869	4815.11
913.181	4764.27
913.494	4785.28
913.806	4710.26
914.118	4751.39
914.43	4682.69
914.742	4682.91
915.054	4690.6
915.366	4642.24
915.678	4604.72
915.99	4640.43
916.302	4579.64
916.613	4531.96
916.925	4578.28
917.236	4532.86
917.548	4497.61
917.859	4517.04
918.171	4516.59
918.482	4442.24
918.794	4455.12
919.105	4423.71
919.416	4446.76
919.727	4417.38
920.038	4362.7
920.349	4379.87
920.66	4368.57
920.971	4354.79
921.282	4335.58
921.593	4312.75
921.903	4252.19
922.214	4254
922.525	4243.38
922.835	4218.07
923.146	4223.26
923.456	4217.16
923.767	4186.2
924.077	4177.16
924.387	4134
924.697	4119.31
925.008	4108.24
925.318	4045.19
925.628	4054
925.938	4101.23
926.248	4039.54
926.558	4031.18
926.867	4052.65
927.177	3992.08
927.487	3975.81
927.796	3925.87
928.106	3974.91
928.416	3920.9
928.725	3935.59
929.034	3931.75
929.344	3909.15
929.653	3912.31
929.962	3873.22
930.271	3826.21
930.581	3805.2
930.89	3818.53
931.199	3793.22
931.508	3797.29
931.817	3777.63
932.125	3731.53
932.434	3790.73
932.743	3728.36
933.051	3693.56
933.36	3705.76
933.669	3674.13
933.977	3660.79
934.286	3660.57
934.594	3649.72
934.902	3601.13
935.21	3592.77
935.519	3596.84
935.827	3570.17
936.135	3578.08
936.443	3545.32
936.751	3560.23
937.059	3555.26
937.367	3523.4
937.674	3468.26
937.982	3503.96
938.29	3485.66
938.597	3436.39
938.905	3438.2
939.213	3415.15
939.52	3394.59
939.827	3412.21
940.135	3435.71
940.442	3378.32
940.749	3387.13
941.056	3381.03
941.363	3359.33
941.67	3348.03
941.977	3349.39
942.284	3288.83
942.591	3303.97
942.898	3253.35
943.205	3261.71
943.511	3232.78
943.818	3222.61
944.125	3209.51
944.431	3225.32
944.738	3241.6
945.044	3196.4
945.35	3175.16
945.657	3140.81
945.963	3152.78
946.269	3127.25
946.575	3118.66
946.881	3094.25
947.187	3113.01
947.493	3074.37
947.799	3055.16
948.105	3049.28
948.41	3040.02
948.716	3004.54
949.022	2990.08
949.327	3000.7
949.633	2967.25
949.938	3000.02
950.244	2946.46
950.549	2938.55
950.854	2943.3
951.16	2949.17
951.465	2911.89
951.77	2891.1
952.075	2912.79
952.38	2846.8
952.685	2900.81
952.99	2855.39
953.294	2854.49
953.599	2839.35
953.904	2865.11
954.209	2781.72
954.513	2796.41
954.818	2759.57
955.122	2796.18
955.426	2795.28
955.731	2746.92
956.035	2752.34
956.339	2756.64
956.643	2751.44
956.948	2700.82
957.252	2686.58
957.556	2692.46
957.86	2693.59
958.163	2704.89
958.467	2682.51
958.771	2632.35
959.075	2632.12
959.378	2628.28
959.682	2646.13
959.985	2603.19
960.289	2572.91
960.592	2614.72
960.896	2553.48
961.199	2542.63
961.502	2549.18
961.805	2506.47
962.108	2528.85
962.411	2541.73
962.714	2485.68
963.017	2498.56
963.32	2486.59
963.623	2496.98
963.926	2476.19
964.228	2447.94
964.531	2413.37
964.833	2455.18
965.136	2431.9
965.438	2410.88
965.741	2387.15
966.043	2400.26
966.345	2394.61
966.648	2370.43
966.95	2363.88
967.252	2320.04
967.554	2341.51
967.856	2353.26
968.158	2335.63
968.46	2330.21
968.761	2308.29
969.063	2308.29
969.365	2305.8
969.666	2311.68
969.968	2301.73
970.269	2245.69
970.571	2220.61
970.872	2233.26
971.174	2223.09
971.475	2260.83
971.776	2196.65
972.077	2201.62
972.378	2193.94
972.679	2178.8
972.98	2158.46
973.281	2178.35
973.582	2170.44
973.883	2125.01
974.183	2157.56
974.484	2134.28
974.785	2130.21
975.085	2129.53
975.386	2101.74
975.686	2090.44
975.986	2077.11
976.287	2097.22
976.587	2073.72
976.887	2072.13
977.187	2108.52
977.487	2077.78
977.787	2059.48
978.087	2023.32
978.387	2037.33
978.687	2023.55
978.987	2036.88
979.286	2017.22
979.586	1999.14
979.885	1978.8
980.185	1972.93
980.484	1966.83
980.784	1973.61
981.083	1925.25
981.382	1956.66
981.682	1925.25
981.981	1974.96
982.28	1934.29
982.579	1894.06
982.878	1927.96
983.177	1895.42
983.475	1899.48
983.774	1890.9
984.073	1867.85
984.372	1882.76
984.67	1853.61
984.969	1874.85
985.267	1856.32
985.566	1829.43
985.864	1838.69
986.162	1809.09
986.461	1822.88
986.759	1784.68
987.057	1792.59
987.355	1774.52
987.653	1785.36
987.951	1777.23
988.249	1766.15
988.547	1752.6
988.844	1747.4
989.142	1755.31
989.44	1719.15
989.737	1734.52
990.035	1700.17
990.332	1734.97
990.63	1724.12
990.927	1708.75
991.224	1689.09
991.521	1698.13
991.819	1679.15
992.116	1691.81
992.413	1675.76
992.71	1645.71
993.006	1639.83
993.303	1648.42
993.6	1625.82
993.897	1623.78
994.193	1617.23
994.49	1613.84
994.787	1617.68
995.083	1591.02
995.379	1595.76
995.676	1590.79
995.972	1601.64
996.268	1603.67
996.565	1570
996.861	1553.28
997.157	1557.35
997.453	1556.44
997.749	1516.9
998.044	1524.13
998.34	1533.62
998.636	1518.03
998.932	1525.03
999.227	1507.18
999.523	1508.99
999.818	1484.81
1000.114	1497.69
1000.409	1487.07
1000.704	1488.65
1001	1505.14
1001.295	1448.2
1001.59	1452.49
1001.885	1440.29
1002.18	1426.5
1002.475	1417.01
1002.77	1436.45
1003.065	1385.6
1003.359	1403.23
1003.654	1400.74
1003.949	1384.24
1004.243	1389.44
1004.538	1384.02
1004.832	1366.84
1005.127	1335.21
1005.421	1364.81
1005.715	1341.98
1006.009	1360.74
1006.304	1332.72
1006.598	1328.65
1006.892	1296.79
1007.186	1313.96
1007.48	1298.6
1007.773	1306.96
1008.067	1277.13
1008.361	1275.55
1008.655	1282.1
1008.948	1268.31
1009.242	1285.49
1009.535	1273.29
1009.829	1290.01
1010.122	1248.65
1010.415	1267.18
1010.708	1238.94
1011.001	1243.23
1011.295	1219.5
1011.588	1228.77
1011.881	1189.67
1012.173	1214.3
1012.466	1195.1
1012.759	1196.23
1013.052	1223.12
1013.344	1182.44
1013.637	1196
1013.93	1151.71
1014.222	1184.25
1014.514	1138.15
1014.807	1135.66
1015.099	1145.61
1015.391	1111.93
1015.683	1133.4
1015.976	1122.33
1016.268	1111.71
1016.56	1099.73
1016.851	1091.6
1017.143	1055.66
1017.435	1090.01
1017.727	1097.02
1018.018	1091.14
1018.31	1078.94
1018.602	1094.76
1018.893	1057.7
1019.185	1069.9
1019.476	1040.52
1019.767	1061.09
1020.058	1043.24
1020.35	1024.93
1020.641	1032.61
1020.932	1014.08
1021.223	1007.08
1021.514	1003.01
1021.804	1026.29
1022.095	981.09
1022.386	997.13
1022.677	1005.27
1022.967	987.19
1023.258	973.86
1023.548	972.95
1023.839	993.07
1024.129	961.66
1024.419	963.24
1024.709	949.68
1025	961.2
1025.29	961.66
1025.58	936.8
1025.87	912.84
1026.16	908.1
1026.449	936.8
1026.739	912.17
1027.029	924.14
1027.319	896.35
1027.608	888.21
1027.898	897.25
1028.187	880.3
1028.477	882.79
1028.766	863.58
1029.055	871.49
1029.344	862.45
1029.634	866.52
1029.923	849.34
1030.212	839.17
1030.501	851.83
1030.79	856.12
1031.078	848.21
1031.367	822.9
1031.656	831.72
1031.945	830.81
1032.233	822.9
1032.522	815.44
1032.81	804.82
1033.099	770.25
1033.387	810.02
1033.675	792.39
1033.963	808.89
1034.251	808.21
1034.54	815.9
1034.828	802.56
1035.116	794.65
1035.403	781.55
1035.691	757.82
1035.979	775.22
1036.267	739.74
1036.554	765.73
1036.842	751.72
1037.129	773.19
1037.417	745.62
1037.704	726.63
1037.992	723.92
1038.279	727.31
1038.566	715.33
1038.853	715.33
1039.14	715.33
