Data from hue_10_FLMS001491_17.txt Node
Date: Mon Feb 06 15:31:30 GMT 2017
User: dcchb
Spectrometer: FLMS00149
Trigger mode: 0
Integration Time (sec): 2.000000E-2
Scans to average: 10
Electric dark correction enabled: true
Nonlinearity correction enabled: false
Boxcar width: 0
XAxis mode: Wavelengths
Number of Pixels in Spectrum: 2048
>>>>>Begin Spectral Data<<<<<
341.393	-18.04
341.776	-18.04
342.16	-18.04
342.543	-58.04
342.927	-53.06
343.31	-83.8
343.693	-56
344.077	-75.66
344.46	-65.94
344.843	-53.52
345.226	-25.72
345.61	-27.08
345.993	-18.04
346.376	6.82
346.759	5.92
347.142	36.2
347.525	32.58
347.908	53.15
348.291	68.06
348.674	99.7
349.057	103.32
349.44	113.03
349.823	144.22
350.206	163.43
350.588	195.29
350.971	213.37
351.354	225.12
351.737	242.07
352.119	241.39
352.502	233.03
352.884	267.15
353.267	291.56
353.65	294.72
354.032	313.48
354.414	309.19
354.797	334.27
355.179	317.1
355.562	322.52
355.944	349.64
356.326	318.23
356.709	325.01
357.091	332.69
357.473	353.25
357.855	372.46
358.238	327.27
358.62	336.53
359.002	341.5
359.384	363.2
359.766	342.18
360.148	334.5
360.53	343.76
360.912	341.28
361.294	343.54
361.676	342.86
362.057	334.04
362.439	331.79
362.821	320.71
363.203	306.47
363.584	326.59
363.966	314.16
364.348	344.67
364.729	344.44
365.111	323.2
365.493	307.38
365.874	298.34
366.256	325.68
366.637	318.45
367.019	343.31
367.4	319.13
367.781	319.13
368.163	314.16
368.544	309.19
368.925	286.81
369.306	325.68
369.688	322.52
370.069	305.8
370.45	311.67
370.831	350.09
371.212	326.59
371.593	312.12
371.974	323.2
372.355	297.89
372.736	309.19
373.117	314.61
373.498	318.9
373.879	324.55
374.26	301.28
374.641	306.47
375.021	338.11
375.402	329.53
375.783	298.79
376.163	327.27
376.544	309.19
376.925	317.1
377.305	343.08
377.686	314.61
378.066	332.69
378.447	318.9
378.827	327.04
379.208	327.94
379.588	336.53
379.968	320.71
380.349	318.68
380.729	350.77
381.109	331.33
381.489	335.17
381.87	329.53
382.25	338.79
382.63	357.1
383.01	350.32
383.39	342.86
383.77	342.63
384.15	346.02
384.53	346.47
384.91	347.83
385.29	343.08
385.67	327.94
386.049	351.9
386.429	337.21
386.809	340.82
387.189	334.04
387.568	342.63
387.948	339.69
388.328	342.41
388.707	359.35
389.087	324.55
389.466	339.47
389.846	360.26
390.225	336.98
390.605	352.58
390.984	340.37
391.363	351.9
391.743	363.65
392.122	344.21
392.501	337.66
392.881	364.55
393.26	363.87
393.639	361.61
394.018	356.87
394.397	397.09
394.776	383.08
395.155	370.2
395.534	378.34
395.913	384.44
396.292	385.12
396.671	359.81
397.05	384.44
397.429	379.69
397.808	387.38
398.186	374.95
398.565	381.5
398.944	393.48
399.323	384.89
399.701	382.18
400.08	380.15
400.458	377.43
400.837	379.69
401.215	381.28
401.594	379.69
401.972	405.23
402.351	388.51
402.729	377.89
403.107	395.06
403.486	403.2
403.864	405.46
404.242	389.41
404.62	395.29
404.999	394.38
405.377	407.49
405.755	402.97
406.133	394.83
406.511	419.69
406.889	403.87
407.267	398.22
407.645	421.05
408.023	433.48
408.401	411.78
408.779	398.22
409.156	412.69
409.534	408.62
409.912	416.98
410.29	428.51
410.667	421.05
411.045	431.44
411.422	428.51
411.8	433.03
412.178	435.51
412.555	443.42
412.933	443.42
413.31	441.61
413.687	423.31
414.065	445
414.442	428.28
414.819	439.58
415.197	458.11
415.574	469.63
415.951	450.43
416.328	471.44
416.705	475.28
417.082	465.57
417.46	473.02
417.837	458.11
418.214	455.62
418.591	467.15
418.967	479.13
419.344	457.66
419.721	484.78
420.098	482.29
420.475	478.9
420.852	491.55
421.228	476.64
421.605	466.02
421.982	492.23
422.358	508.96
422.735	478.67
423.111	501.95
423.488	509.63
423.864	521.16
424.241	516.86
424.617	517.09
424.994	485.45
425.37	499.46
425.746	499.01
426.123	514.15
426.499	538.56
426.875	515.51
427.251	509.86
427.627	510.76
428.003	531.78
428.379	539.92
428.756	530.88
429.132	548.5
429.507	561.84
429.883	544.66
430.259	550.08
430.635	566.81
431.011	548.5
431.387	575.39
431.763	560.48
432.138	577.43
432.514	567.94
432.89	585.79
433.265	568.84
433.641	598.9
434.016	597.77
434.392	619.69
434.767	602.51
435.143	594.38
435.518	613.36
435.894	614.72
436.269	595.51
436.644	624.66
437.02	642.29
437.395	629.4
437.77	663.08
438.145	655.39
438.52	634.15
438.895	652
439.271	636.41
439.646	663.3
440.021	649.29
440.395	669.63
440.77	674.37
441.145	680.93
441.52	675.5
441.895	667.6
442.27	672.12
442.645	673.92
443.019	685.9
443.394	691.1
443.769	694.49
444.143	683.64
444.518	690.65
444.892	713.47
445.267	693.58
445.641	689.52
446.016	712.11
446.39	702.62
446.764	715.05
447.139	704.2
447.513	741.49
447.887	704.2
448.262	727.48
448.636	727.71
449.01	733.58
449.384	739.23
449.758	745.11
450.132	759.57
450.506	754.37
450.88	762.96
451.254	760.7
451.628	783.98
452.002	778.33
452.376	791.66
452.75	776.75
453.123	800.25
453.497	781.26
453.871	789.17
454.244	797.99
454.618	804.77
454.992	814.94
455.365	798.21
455.739	821.94
456.112	834.6
456.486	830.3
456.859	854.26
457.232	856.29
457.606	862.62
457.979	866.91
458.352	878.21
458.725	880.47
459.099	875.5
459.472	890.41
459.845	907.59
460.218	914.59
460.591	929.28
460.964	939.9
461.337	938.32
461.71	933.58
462.083	927.93
462.456	960.7
462.829	953.01
463.201	975.61
463.574	979.45
463.947	997.3
464.32	1019.22
464.692	1006.8
465.065	1029.17
465.438	1030.3
465.81	1062.16
466.183	1052.9
466.555	1059.9
466.928	1074.36
467.3	1078.66
467.672	1097.19
468.045	1103.97
468.417	1110.07
468.789	1130.18
469.161	1169.28
469.534	1154.36
469.906	1170.63
470.278	1173.34
470.65	1197.3
471.022	1220.58
471.394	1226.22
471.766	1249.28
472.138	1258.54
472.51	1327.92
472.882	1322.49
473.253	1321.14
473.625	1365.88
473.997	1388.48
474.369	1390.74
474.74	1406.11
475.112	1423.96
475.484	1445.65
475.855	1467.12
476.227	1482.04
476.598	1502.83
476.97	1524.75
477.341	1558.87
477.713	1625.08
478.084	1594.58
478.455	1640.45
478.827	1675.25
479.198	1708.92
479.569	1705.99
479.94	1771.97
480.311	1795.48
480.682	1886.77
481.053	1820.33
481.424	1886.09
481.795	1894
482.166	1920.67
482.537	1996.15
482.908	2042.7
483.279	2096.26
483.65	2106.2
484.021	2127.67
484.391	2178.97
484.762	2181.68
485.133	2214.22
485.503	2254.22
485.874	2310.04
486.244	2318.63
486.615	2373.77
486.985	2435.91
487.356	2462.58
487.726	2526.76
488.097	2557.94
488.467	2548.22
488.837	2623.48
489.207	2639.75
489.578	2683.36
489.948	2745.51
490.318	2766.75
490.688	2759.29
491.058	2844.94
491.428	2875.45
491.798	2893.98
492.168	2946.63
492.538	2972.85
492.908	2998.16
493.278	3075.22
493.648	3077.48
494.017	3113.86
494.387	3133.75
494.757	3193.18
495.126	3209.9
495.496	3251.93
495.866	3267.3
496.235	3304.59
496.605	3365.83
496.974	3348.43
497.344	3405.83
497.713	3391.82
498.082	3464.13
498.452	3472.72
498.821	3539.61
499.19	3488.99
499.559	3533.51
499.928	3532.38
500.298	3564.02
500.667	3637.91
501.036	3664.58
501.405	3657.35
501.774	3628.87
502.143	3694.18
502.512	3748.64
502.88	3751.13
503.249	3764.46
503.618	3792.94
503.987	3788.64
504.356	3819.15
504.724	3830.22
505.093	3860.73
505.462	3857.34
505.83	3868.87
506.199	3920.17
506.567	3986.6
506.936	3981.63
507.304	4030.44
507.672	4003.55
508.041	4044
508.409	4062.08
508.777	4086.49
509.145	4141.85
509.514	4118.8
509.882	4126.26
510.25	4158.13
510.618	4173.72
510.986	4198.8
511.354	4200.61
511.722	4258.69
512.09	4322.41
512.458	4256.43
512.826	4278.8
513.193	4328.97
513.561	4308.18
513.929	4311.34
514.297	4364.22
514.664	4339.59
515.032	4399.93
515.4	4419.14
515.767	4439.25
516.135	4397.89
516.502	4436.76
516.869	4494.84
517.237	4447.84
517.604	4497.1
517.972	4520.38
518.339	4541.17
518.706	4535.97
519.073	4520.15
519.44	4575.06
519.808	4614.84
520.175	4582.97
520.542	4666.13
520.909	4646.7
521.276	4663.42
521.643	4705
522.009	4704.33
522.376	4749.97
522.743	4728.96
523.11	4733.7
523.477	4804.44
523.843	4834.27
524.21	4899.8
524.577	4905.9
524.943	4923.98
525.31	4931.44
525.676	4964.43
526.043	4996.97
526.409	5002.4
526.776	5071.77
527.142	5020.48
527.508	5041.04
527.874	5085.11
528.241	5079.46
528.607	5105.44
528.973	5110.87
529.339	5130.53
529.705	5209.17
530.071	5254.14
530.437	5266.34
530.803	5277.87
531.169	5277.87
531.535	5333.24
531.901	5300.47
532.267	5369.39
532.632	5397.87
532.998	5439
533.364	5488.94
533.73	5465.21
534.095	5477.41
534.461	5561.25
534.826	5514.93
535.192	5550.86
535.557	5594.02
535.923	5625.66
536.288	5628.82
536.653	5629.72
537.019	5638.99
537.384	5667.92
537.749	5671.31
538.114	5763.28
538.479	5724.64
538.845	5757.41
539.21	5730.97
539.575	5814.35
539.94	5775.94
540.305	5838.08
540.67	5862.26
541.034	5839.44
541.399	5914.46
541.764	5891.19
542.129	5941.36
542.494	5981.58
542.858	6010.51
543.223	6019.32
543.587	5997.17
543.952	6104.51
544.316	6082.59
544.681	6073.78
545.045	6121.01
545.41	6164.4
545.774	6187.68
546.138	6185.87
546.503	6210.5
546.867	6234.45
547.231	6290.5
547.595	6305.41
547.959	6332.31
548.324	6336.37
548.688	6337.28
549.052	6404.85
549.416	6396.94
549.779	6446.65
550.143	6431.96
550.507	6492.98
550.871	6470.15
551.235	6482.13
551.599	6586.99
551.962	6596.71
552.326	6624.73
552.689	6591.51
553.053	6601.9
553.417	6591.28
553.78	6689.36
554.143	6672.41
554.507	6766.19
554.87	6747.89
555.234	6826.98
555.597	6697.04
555.96	6748.79
556.323	6822.01
556.686	6791.28
557.05	6836.02
557.413	6925.74
557.776	6840.77
558.139	6876.92
558.502	6920.54
558.865	6976.81
559.228	7001.67
559.59	7041.44
559.953	7021.55
560.316	7060.65
560.679	7051.38
561.041	7127.54
561.404	7137.26
561.767	7157.82
562.129	7177.48
562.492	7201.89
562.854	7193.53
563.217	7245.28
563.579	7233.98
563.941	7270.13
564.304	7318.49
564.666	7374.31
565.028	7346.52
565.39	7385.16
565.753	7439.39
566.115	7453.41
566.477	7510.81
566.839	7511.48
567.201	7594.64
567.563	7525.27
567.925	7605.49
568.287	7604.81
568.648	7616.34
569.01	7644.14
569.372	7678.03
569.734	7622.89
570.095	7772.95
570.457	7790.35
570.819	7842.77
571.18	7853.62
571.542	7888.87
571.903	7924.81
572.265	7940.4
572.626	7950.57
572.987	8023.11
573.349	8067.17
573.71	8162.31
574.071	8167.06
574.432	8225.59
574.794	8376.32
575.155	8384.91
575.516	8396.88
575.877	8433.04
576.238	8526.37
576.599	8625.35
576.96	8620.38
577.32	8690.21
577.681	8791.68
578.042	8885.46
578.403	8816.53
578.763	8940.37
579.124	9088.16
579.485	9145.34
579.845	9265.34
580.206	9363.64
580.566	9479.57
580.927	9568.6
581.287	9687.02
581.648	9815.83
582.008	9840.69
582.368	10015.15
582.728	10247
583.089	10342.6
583.449	10460.56
583.809	10596.37
584.169	10777.39
584.529	10911.85
584.889	11140.99
585.249	11277.03
585.609	11407.43
585.969	11722.67
586.329	11837.47
586.688	12004.92
587.048	12225.26
587.408	12357.23
587.768	12672.48
588.127	12860.27
588.487	13046.93
588.846	13379.8
589.206	13545
589.565	13743.18
589.925	14050.97
590.284	14229.5
590.643	14596.04
591.003	14770.73
591.362	15012.53
591.721	15255.46
592.08	15555.57
592.44	15980.19
592.799	16167.53
593.158	16452.04
593.517	16651.81
593.876	17024
594.235	17320.04
594.593	17511.67
594.952	17859.23
595.311	18055.39
595.67	18459.44
596.029	18753.67
596.387	19099.88
596.746	19429.36
597.104	19559.98
597.463	19919.07
597.822	20185.05
598.18	20474.53
598.538	20724.24
598.897	21121.75
599.255	21210.33
599.613	21826.59
599.972	21973.7
600.33	22242.85
600.688	22515.38
601.046	22808.03
601.404	23136.38
601.762	23437.84
602.12	23810.94
602.478	24026.53
602.836	24379.74
603.194	24572.73
603.552	24808.66
603.91	25028.76
604.268	25374.06
604.625	25612.7
604.983	25975.63
605.341	26028.74
605.698	26483.64
606.056	26676.86
606.413	26967.02
606.771	27289.72
607.128	27453.11
607.485	27659.65
607.843	27859.42
608.2	28198.62
608.557	28441.1
608.914	28619.63
609.272	29010.58
609.629	29133.97
609.986	29331.93
610.343	29558.14
610.7	29921.29
611.057	30119.93
611.414	30142.53
611.771	30465.46
612.127	30666.13
612.484	30868.16
612.841	31145.21
613.198	31295.49
613.554	31418.2
613.911	31603.28
614.267	31878.3
614.624	31945.87
614.98	32173.66
615.337	32474.67
615.693	32543.82
616.05	32674.44
616.406	33124.37
616.762	33031.72
617.118	33281.43
617.475	33428.09
617.831	33635.54
618.187	33774.97
618.543	33757.57
618.899	34210.22
619.255	34169.77
619.611	34352.81
619.967	34547.38
620.323	34666.7
620.678	34618.12
621.034	34795.06
621.39	34924.1
621.746	35038.67
622.101	35459.45
622.457	35308.49
622.812	35552.33
623.168	35655.6
623.523	35710.06
623.879	35902.6
624.234	35642.95
624.589	35938.98
624.945	36090.62
625.3	36177.85
625.655	36179.2
626.01	36288.13
626.365	36374
626.72	36407.67
627.075	36589.81
627.43	36518.18
627.785	36547.56
628.14	36630.04
628.495	36716.59
628.85	36781.22
629.205	36727.21
629.559	36869.13
629.914	36856.25
630.269	36984.83
630.623	36953.65
630.978	36835.91
631.332	37100.99
631.687	37216.46
632.041	37046.53
632.396	37100.54
632.75	37162.23
633.104	37195
633.459	37025.06
633.813	37112.51
634.167	37122.46
634.521	37170.14
634.875	37336.46
635.229	37284.26
635.583	37174.66
635.937	37360.64
636.291	37148.67
636.645	37344.82
636.999	37187.09
637.352	37485.16
637.706	37057.83
638.06	37400.41
638.413	37215.56
638.767	37202.45
639.121	37165.39
639.474	37041.78
639.828	37203.36
640.181	37275.67
640.534	37229.12
640.888	37144.38
641.241	37096.69
641.594	37150.48
641.947	37306.18
642.301	37136.02
642.654	37100.99
643.007	37253.98
643.36	37105.28
643.713	37110.48
644.066	37340.76
644.419	37037.26
644.771	36932.18
645.124	36511.62
645.477	36400.67
645.83	36294
646.182	36263.95
646.535	36125.87
646.888	36260.56
647.24	35948.02
647.593	36255.13
647.945	36121.35
648.298	35932.66
648.65	35906.44
649.002	35863.73
649.355	36060.34
649.707	35929.27
650.059	36061.69
650.411	36507.11
650.763	36431.63
651.115	36839.98
651.467	36792.07
651.819	36685.41
652.171	36693.77
652.523	36800.43
652.875	36717.27
653.227	36583.04
653.578	36917.72
653.93	36762.69
654.282	36577.39
654.633	36548.01
654.985	36673.2
655.337	36635.24
655.688	36619.87
656.039	36802.01
656.391	36334.91
656.742	36578.74
657.094	36559.53
657.445	36700.55
657.796	36569.25
658.147	36467.33
658.498	36516.14
658.849	36611.74
659.2	36470.5
659.551	36453.77
659.902	36400.44
660.253	36494.45
660.604	36575.8
660.955	36319.77
661.306	36517.5
661.656	36368.35
662.007	36364.28
662.358	36307.11
662.708	36423.27
663.059	36451.29
663.409	36190.96
663.76	36510.49
664.11	36427.11
664.461	36425.53
664.811	36454.68
665.161	36385.75
665.511	36233.44
665.862	36531.74
666.212	36450.38
666.562	36528.57
666.912	36426.88
667.262	36411.97
667.612	36398.18
667.962	36406.09
668.312	36217.17
668.662	36527.9
669.011	36432.76
669.361	36232.08
669.711	36247.68
670.06	36389.59
670.41	36185.76
670.76	36117.51
671.109	36267.79
671.459	36295.81
671.808	36159.54
672.157	36279.09
672.507	36121.13
672.856	36085.42
673.205	36110.05
673.554	36177.62
673.904	36199.99
674.253	36250.61
674.602	36089.26
674.951	35699.67
675.3	35612.21
675.649	36169.71
675.998	35959.55
676.346	36064.4
676.695	36160.67
677.044	35753
677.393	36106.89
677.741	36010.39
678.09	35958.87
678.438	35765.2
678.787	35838.65
679.135	35899.66
679.484	35654.02
679.832	35896.27
680.181	35653.79
680.529	35772.89
680.877	35633.68
681.225	35644.53
681.573	35896.5
681.922	35526.11
682.27	35435.49
682.618	35361.15
682.966	35416.51
683.314	35365.67
683.661	35246.35
684.009	35107.37
684.357	35106.69
684.705	35073.24
685.053	35142.85
685.4	35073.92
685.748	34903.08
686.095	34804.32
686.443	34820.6
686.79	34709.86
687.138	34849.52
687.485	34809.07
687.832	34593.26
688.18	34695.4
688.527	34502.41
688.874	34475.52
689.221	34369.31
689.568	34244.79
689.915	34335.41
690.262	34226.94
690.609	34104.46
690.956	34038.47
691.303	34045.93
691.65	33878.7
691.997	33840.28
692.344	33722.32
692.69	33646.62
693.037	33646.16
693.383	33430.12
693.73	33692.49
694.077	33350.13
694.423	33323.46
694.769	33172.73
695.116	33163.92
695.462	33076.91
695.808	32961.66
696.155	32977.71
696.501	32703.82
696.847	32686.64
697.193	32527.32
697.539	32653.87
697.885	32436.93
698.231	32267.22
698.577	32328.46
698.923	32346.31
699.269	32132.98
699.614	31971.63
699.96	31917.62
700.306	32065.64
700.651	31827.45
700.997	31674.69
701.342	31727.57
701.688	31674.01
702.033	31500.91
702.379	31594.47
702.724	31494.58
703.069	31415.71
703.415	31153.8
703.76	31188.15
704.105	31134.14
704.45	31050.53
704.795	30875.61
705.14	30863.41
705.485	30755.84
705.83	30649.18
706.175	30626.36
706.52	30570.54
706.865	30458.68
707.209	30481.5
707.554	30288.06
707.899	30459.58
708.243	30300.04
708.588	30295.74
708.932	30046.03
709.277	30020.04
709.621	30081.96
709.966	29909.31
710.31	29946.6
710.654	29617.34
710.998	29720.62
711.342	29701.63
711.687	29639.72
712.031	29636.33
712.375	29411.25
712.719	29398.82
713.063	29404.24
713.407	29338.25
713.75	29211.93
714.094	29381.19
714.438	29064.59
714.782	29034.76
715.125	29028.21
715.469	29143
715.812	28835.44
716.156	28737.59
716.499	28598.39
716.843	28890.58
717.186	28625.96
717.53	28778.95
717.873	28728.33
718.216	28576.69
718.559	28570.14
718.902	28319.07
719.246	28400.65
719.589	28361.33
719.932	28160.66
720.275	28202.46
720.617	28167.44
720.96	28087.44
721.303	28145.74
721.646	28101.22
721.989	27884.51
722.331	27952.08
722.674	27830.05
723.016	28032.75
723.359	27774
723.701	27783.04
724.044	27593.67
724.386	27583.72
724.729	27614.91
725.071	27564.06
725.413	27605.42
725.755	27506.44
726.097	27484.74
726.439	27315.93
726.782	27453.78
727.124	27573.78
727.465	27351.64
727.807	27343.05
728.149	27247.46
728.491	27214.47
728.833	27164.07
729.175	27062.38
729.516	27056.28
729.858	27073.23
730.199	26993.91
730.541	26920.24
730.882	26958.66
731.224	27100.12
731.565	26802.05
731.906	26710.07
732.248	26766.12
732.589	26677.76
732.93	26626.46
733.271	26532
733.612	26608.61
733.953	26528.16
734.294	26539.91
734.635	26358.45
734.976	26367.03
735.317	26289.75
735.658	26334.49
735.999	26349.18
736.339	26247.71
736.68	26355.06
737.021	26341.27
737.361	26117.1
737.702	26144.89
738.042	26145.57
738.383	26084.33
738.723	26152.8
739.063	26046.36
739.404	26116.64
739.744	25967.95
740.084	25984.22
740.424	25913.26
740.764	25879.81
741.104	25902.41
741.444	25774.73
741.784	25658.12
742.124	25816.76
742.464	25703.77
742.804	25740.83
743.143	25572.93
743.483	25712.36
743.823	25480.73
744.162	25502.65
744.502	25510.78
744.841	25459.94
745.181	25525.02
745.52	25300.85
745.86	25428.53
746.199	25423.55
746.538	25289.32
746.877	25373.39
747.216	25336.1
747.556	25230.11
747.895	25202.77
748.234	25172.49
748.573	25041.87
748.911	25015.43
749.25	25050.68
749.589	24867.19
749.928	25137.23
750.267	24980.4
750.605	24949.44
750.944	24894.98
751.283	24845.49
751.621	24884.36
751.96	24694.31
752.298	24682.56
752.636	24623.12
752.975	24547.19
753.313	24526.4
753.651	24675.55
753.989	24485.27
754.327	24398.27
754.666	24292.28
755.004	24404.15
755.342	24316.69
755.679	24287.09
756.017	24251.16
756.355	24200.99
756.693	24126.87
757.031	24222.68
757.368	23989.02
757.706	23960.99
758.044	23962.12
758.381	24015
758.719	23844.39
759.056	23912.86
759.394	23755.58
759.731	23672.64
760.068	23706.76
760.405	23512.19
760.743	23619.76
761.08	23384.51
761.417	23367.34
761.754	23313.78
762.091	23301.8
762.428	23175.93
762.765	23082.83
763.102	23108.59
763.438	22983.39
763.775	23021.58
764.112	22880.34
764.449	22889.61
764.785	22847.58
765.122	22749.05
765.458	22563.97
765.795	22573.91
766.131	22622.5
766.467	22497.3
766.804	22318.33
767.14	22348.61
767.476	22304.31
767.812	22243.53
768.148	22215.73
768.485	22127.14
768.821	21960.14
769.157	21938.22
769.492	21811.67
769.828	21778
770.164	21654.84
770.5	21566.03
770.836	21535.07
771.171	21393.83
771.507	21427.5
771.842	21231.57
772.178	21288.3
772.513	21213.95
772.849	21078.36
773.184	20912.03
773.519	20938.93
773.855	20958.59
774.19	20817.12
774.525	20674.08
774.86	20716.11
775.195	20720.85
775.53	20634.3
775.865	20470.69
776.2	20340.52
776.535	20215.78
776.87	20279.06
777.205	20169.23
777.539	20082.9
777.874	20123.81
778.209	19887.88
778.543	19909.58
778.878	19751.84
779.212	19772.63
779.547	19687.66
779.881	19655.12
780.215	19490.38
780.55	19573.31
780.884	19357.73
781.218	19326.31
781.552	19409.02
781.886	19242.25
782.22	19142.59
782.554	19077.28
782.888	18897.4
783.222	18867.57
783.556	18756.16
783.889	18746.89
784.223	18513.68
784.557	18598.65
784.89	18624.86
785.224	18560.46
785.557	18411.31
785.891	18357.53
786.224	18351.88
786.558	18194.59
786.891	18129.06
787.224	18109.17
787.557	18107.14
787.891	17996.18
788.224	17999.8
788.557	17935.62
788.89	17784.43
789.223	17845
789.556	17701.27
789.888	17607.94
790.221	17543.76
790.554	17383.99
790.887	17397.1
791.219	17394.16
791.552	17319.14
791.884	17251.11
792.217	17161.85
792.549	17140.38
792.882	17013.38
793.214	17007.5
793.546	16942.87
793.879	16909.88
794.211	16797.34
794.543	16822.88
794.875	16640.96
795.207	16713.5
795.539	16662.43
795.871	16544.24
796.203	16505.37
796.535	16471.93
796.867	16405.49
797.198	16276.22
797.53	16383.34
797.862	16198.71
798.193	16214.76
798.525	16173.4
798.856	16234.19
799.188	15980.41
799.519	15982.22
799.85	15945.84
800.182	15978.15
800.513	15865.39
800.844	15769.8
801.175	15781.1
801.506	15736.35
801.837	15638.05
802.168	15642.79
802.499	15564.83
802.83	15466.98
803.161	15468.34
803.491	15421.11
803.822	15450.03
804.153	15302.01
804.483	15182.24
804.814	15257.72
805.145	15179.76
805.475	15132.53
805.805	15062.7
806.136	15113.32
806.466	15102.47
806.796	15092.75
807.126	14902.02
807.457	14885.3
807.787	14875.58
808.117	14767.56
808.447	14658.87
808.777	14804.62
809.107	14692.09
809.436	14643.05
809.766	14666.32
810.096	14547
810.426	14518.3
810.755	14591.07
811.085	14540.23
811.414	14459.55
811.744	14310.63
812.073	14352.66
812.403	14279.89
812.732	14227.24
813.061	14291.64
813.39	14198.77
813.719	14105.89
814.049	14172.33
814.378	14071.08
814.707	14042.61
815.036	14037.64
815.365	13998.77
815.693	13806.46
816.022	13860.24
816.351	13817.76
816.68	13695.28
817.008	13749.06
817.337	13710.64
817.665	13608.5
817.994	13548.16
818.322	13686.69
818.651	13515.39
818.979	13476.3
819.307	13539.8
819.636	13494.83
819.964	13399.46
820.292	13420.48
820.62	13352.01
820.948	13404.89
821.276	13384.32
821.604	13472.23
821.932	13451.21
822.259	13402.85
822.587	13394.27
822.915	13290.09
823.243	13407.15
823.57	13325.79
823.898	13383.87
824.225	13252.8
824.553	13290.77
824.88	13271.78
825.207	13271.11
825.535	13364.89
825.862	13382.06
826.189	13312.01
826.516	13298.45
826.843	13383.19
827.17	13360.37
827.497	13369.41
827.824	13281.73
828.151	13345.45
828.478	13233.82
828.805	13285.34
829.131	13325.34
829.458	13259.13
829.785	13206.93
830.111	13191.56
830.438	13315.4
830.764	13266.13
831.09	13262.52
831.417	13195.63
831.743	13216.87
832.069	13313.82
832.395	13276.98
832.722	13330.09
833.048	13277.21
833.374	13210.09
833.7	13155.63
834.026	13161.28
834.351	13185.46
834.677	13171.9
835.003	13191.56
835.329	13230.2
835.654	13103.65
835.98	13076.08
836.306	12980.94
836.631	13095.07
836.956	13057.33
837.282	13126.25
837.607	12971.45
837.932	12982.98
838.258	12961.28
838.583	12906.6
838.908	12924.22
839.233	12887.84
839.558	12823.89
839.883	12792.93
840.208	12813.49
840.533	12796.77
840.858	12767.39
841.182	12775.75
841.507	12648.75
841.832	12642.65
842.156	12604.23
842.481	12630.44
842.805	12616.43
843.13	12561.97
843.454	12535.31
843.778	12522.42
844.103	12430.9
844.427	12387.06
844.751	12508.19
845.075	12397.91
845.399	12445.14
845.723	12303.9
846.047	12301.41
846.371	12266.39
846.695	12171.25
847.019	12105.03
847.343	11979.84
847.666	11957.02
847.99	11964.02
848.313	11882.22
848.637	11877.7
848.96	11906.4
849.284	11753.41
849.607	11674.31
849.931	11709.34
850.254	11533.3
850.577	11590.7
850.9	11406.97
851.223	11507.31
851.546	11467.99
851.869	11338.05
852.192	11442.23
852.515	11293.76
852.838	11279.07
853.161	11285.17
853.483	11211.95
853.806	11163.59
854.129	11159.07
854.451	11077.49
854.774	11029.13
855.096	10992.52
855.419	11000.66
855.741	10936.7
856.063	10868.46
856.385	10837.5
856.708	10828.01
857.03	10742.13
857.352	10820.77
857.674	10745.3
857.996	10666.65
858.318	10682.7
858.64	10658.29
858.961	10635.24
859.283	10551.86
859.605	10540.33
859.926	10633.89
860.248	10496.94
860.57	10442.48
860.891	10521.8
861.212	10411.29
861.534	10482.93
861.855	10393.44
862.176	10358.64
862.498	10358.87
862.819	10382.14
863.14	10342.37
863.461	10238.64
863.782	10275.48
864.103	10295.82
864.424	10194.8
864.745	10192.99
865.065	10219.66
865.386	10138.08
865.707	10133.11
866.027	10147.57
866.348	10081.59
866.668	9988.71
866.989	9964.75
867.309	10046.33
867.63	10040.46
867.95	9990.06
868.27	9927.46
868.59	9932.44
868.91	9930.85
869.23	9866
869.55	9849.27
869.87	9935.37
870.19	9932.66
870.51	9883.85
870.83	9945.32
871.15	9847.24
871.469	9766.79
871.789	9835.72
872.109	9809.05
872.428	9748.94
872.748	9812.21
873.067	9769.73
873.386	9788.49
873.706	9673.46
874.025	9668.04
874.344	9731.99
874.663	9703.29
874.982	9649.28
875.301	9681.37
875.62	9567.93
875.939	9556.63
876.258	9568.38
876.577	9540.36
876.896	9552.56
877.214	9538.77
877.533	9563.63
877.852	9463.97
878.17	9527.7
878.489	9517.31
878.807	9483.63
879.125	9461.49
879.444	9424.43
879.762	9409.74
880.08	9439.57
880.398	9398.21
880.716	9393.47
881.034	9303.53
881.352	9282.74
881.67	9265.56
881.988	9320.48
882.306	9334.26
882.624	9272.57
882.941	9194.6
883.259	9168.39
883.577	9162.51
883.894	9115.51
884.212	9197.54
884.529	9153.7
884.846	9124.1
885.164	9127.03
885.481	9095.4
885.798	9045.23
886.115	9019.92
886.432	8995.06
886.75	8981.05
887.067	8985.57
887.383	8882.29
887.7	8909.86
888.017	8910.32
888.334	8852.69
888.651	8880.49
888.967	8861.73
889.284	8748.06
889.6	8786.25
889.917	8766.82
890.233	8687.95
890.55	8645.24
890.866	8705.58
891.182	8649.31
891.498	8635.75
891.815	8525.69
892.131	8557.33
892.447	8534.28
892.763	8565.24
893.079	8470.55
893.395	8424.45
893.71	8432.59
894.026	8385.13
894.342	8429.2
894.657	8310.78
894.973	8318.47
895.289	8287.28
895.604	8284.34
895.92	8282.76
896.235	8203.22
896.55	8224.91
896.865	8226.49
897.181	8211.13
897.496	8150.11
897.811	8087.51
898.126	8108.3
898.441	8033.05
898.756	8005.48
899.071	7969.1
899.386	8000.28
899.7	7899.04
900.015	7897.46
900.33	7840.51
900.644	7882.32
900.959	7845.03
901.273	7836.22
901.588	7764.81
901.902	7734.98
902.216	7694.08
902.531	7640.52
902.845	7702.21
903.159	7632.16
903.473	7572.72
903.787	7532.5
904.101	7487.3
904.415	7524.36
904.729	7430.81
905.042	7421.32
905.356	7403.92
905.67	7406.4
905.984	7334.31
906.297	7371.15
906.611	7255.9
906.924	7265.84
907.237	7299.29
907.551	7224.03
907.864	7239.4
908.177	7146.07
908.491	7109.69
908.804	7146.97
909.117	7059.74
909.43	7031.04
909.743	6982.91
910.056	7027.43
910.368	6957.83
910.681	6908.34
910.994	6909.24
911.307	6870.14
911.619	6857.94
911.932	6809.58
912.244	6779.07
912.557	6798.73
912.869	6704.05
913.181	6732.52
913.494	6700.66
913.806	6654.33
914.118	6626.53
914.43	6580.66
914.742	6583.82
915.054	6567.33
915.366	6527.1
915.678	6487.1
915.99	6491.85
916.302	6464.28
916.613	6421.79
916.925	6391.74
917.236	6388.8
917.548	6310.61
917.859	6320.78
918.171	6234.68
918.482	6246.66
918.794	6243.95
919.105	6317.16
919.416	6210.73
919.727	6235.36
920.038	6141.58
920.349	6120.33
920.66	6114.46
920.971	6078.07
921.282	6092.54
921.593	6030.84
921.903	6043.5
922.214	5958.76
922.525	5959.89
922.835	5968.47
923.146	5881.24
923.456	5896.38
923.767	5832.66
924.077	5859.55
924.387	5809.38
924.697	5804.41
925.008	5728.93
925.318	5664.07
925.628	5703.62
925.938	5699.78
926.248	5643.28
926.558	5590.18
926.867	5624.3
927.177	5577.97
927.487	5563.29
927.796	5511.31
928.106	5512.67
928.416	5478.99
928.725	5436.28
929.034	5418.88
929.344	5429.28
929.653	5340.24
929.962	5380.69
930.271	5335.5
930.581	5342.27
930.89	5278.77
931.199	5283.07
931.508	5267.7
931.817	5216.4
932.125	5256.85
932.434	5232.22
932.743	5177.76
933.051	5146.8
933.36	5084.43
933.669	5046.92
933.977	5047.14
934.286	5104.99
934.594	5056.41
934.902	4973.02
935.21	4981.61
935.519	4990.87
935.827	4913.81
936.135	4974.15
936.443	4875.39
936.751	4898.44
937.059	4825.68
937.367	4886.24
937.674	4836.53
937.982	4796.53
938.29	4792.01
938.597	4796.07
938.905	4726.47
939.213	4684.21
939.52	4722.63
939.827	4715.4
940.135	4660.03
940.442	4647.15
940.749	4632.69
941.056	4633.59
941.363	4543.43
941.67	4579.58
941.977	4571.9
942.284	4553.82
942.591	4510.43
942.898	4545.01
943.205	4482.18
943.511	4439.93
943.818	4464.11
944.125	4382.07
944.431	4350.89
944.738	4353.37
945.044	4374.16
945.35	4353.37
945.657	4310.21
945.963	4331.23
946.269	4287.39
946.575	4237.67
946.881	4261.17
947.187	4273.6
947.493	4211.68
947.799	4199.25
948.105	4187.5
948.41	4164
948.716	4164.9
949.022	4150.67
949.327	4124.45
949.633	4096.21
949.938	4065.02
950.244	4062.99
950.549	4034.96
950.854	4012.14
951.16	4012.37
951.465	3954.51
951.77	3982.76
952.075	3929.88
952.38	3932.59
952.685	3929.66
952.99	3925.59
953.294	3882.43
953.599	3889.43
953.904	3876.55
954.209	3861.64
954.513	3841.52
954.818	3787.97
955.122	3787.97
955.426	3767.4
955.731	3710.68
956.035	3745.03
956.339	3741.19
956.643	3726.5
956.948	3690.57
957.252	3676.33
957.556	3669.32
957.86	3633.62
958.163	3657.12
958.467	3572.6
958.771	3642.43
959.075	3608.54
959.378	3546.62
959.682	3576.9
959.985	3550.01
960.289	3475.43
960.592	3497.35
960.896	3484.92
961.199	3536.9
961.502	3500.74
961.805	3450.57
962.108	3455.09
962.411	3390.01
962.714	3412.61
963.017	3389.56
963.32	3427.52
963.623	3334.19
963.926	3336.45
964.228	3341.42
964.531	3339.39
964.833	3335.55
965.136	3272.05
965.438	3259.17
965.741	3279.5
966.043	3201.31
966.345	3211.94
966.648	3243.35
966.95	3219.84
967.252	3174.42
967.554	3187.08
967.856	3150.47
968.158	3127.64
968.46	3132.39
968.761	3088.1
969.063	3119.73
969.365	3044.26
969.666	3043.8
969.968	3046.97
970.269	3049
970.571	3034.99
970.872	2990.7
971.174	3014.2
971.475	3008.55
971.776	3001.55
972.077	3015.56
972.378	2966.97
972.679	2958.61
972.98	2961.32
973.281	2912.73
973.582	2922.23
973.883	2902.34
974.183	2905.73
974.484	2880.42
974.785	2885.84
975.085	2893.75
975.386	2845.84
975.686	2868.67
975.986	2803.81
976.287	2789.8
976.587	2791.16
976.887	2787.77
977.187	2762.46
977.487	2759.74
977.787	2754.55
978.087	2731.72
978.387	2715.68
978.687	2714.32
978.987	2688.11
979.286	2679.07
979.586	2665.96
979.885	2638.39
980.185	2624.15
980.484	2624.15
980.784	2641.78
981.083	2600.65
981.382	2616.02
981.682	2581.67
981.981	2558.17
982.28	2533.99
982.579	2538.96
982.878	2567.43
983.177	2574.44
983.475	2507.55
983.774	2493.54
984.073	2525.63
984.372	2494.44
984.67	2473.42
984.969	2455.57
985.267	2495.12
985.566	2412.18
985.864	2405.63
986.162	2430.49
986.461	2403.82
986.759	2416.7
987.057	2366.08
987.355	2348.91
987.653	2383.93
987.951	2359.08
988.249	2332.41
988.547	2356.82
988.844	2339.42
989.142	2321.34
989.44	2302.35
989.737	2320.43
990.035	2285.18
990.332	2282.92
990.63	2241.11
990.927	2242.47
991.224	2266.2
991.521	2259.19
991.819	2224.16
992.116	2191.17
992.413	2202.02
992.71	2214.9
993.006	2179.87
993.303	2174.45
993.6	2170.83
993.897	2169.02
994.193	2138.29
994.49	2134.68
994.787	2136.03
995.083	2102.36
995.379	2093.09
995.676	2080.44
995.972	2067.78
996.268	2063.94
996.565	2067.11
996.861	2032.31
997.157	2058.75
997.453	2027.11
997.749	2021.01
998.044	2037.73
998.34	1976.94
998.636	1993.89
998.932	1977.39
999.227	1992.76
999.523	1988.01
999.818	1969.03
1000.114	1936.26
1000.409	1943.27
1000.704	1925.19
1001	1935.58
1001.295	1902.59
1001.59	1889.71
1001.885	1913.44
1002.18	1879.09
1002.475	1884.74
1002.77	1864.4
1003.065	1835.02
1003.359	1848.13
1003.654	1840.9
1003.949	1845.42
1004.243	1823.5
1004.538	1788.02
1004.832	1792.76
1005.127	1784.18
1005.421	1794.8
1005.715	1771.52
1006.009	1761.58
1006.304	1754.57
1006.598	1749.83
1006.892	1771.07
1007.186	1711.41
1007.48	1719.77
1007.773	1682.48
1008.067	1706.66
1008.361	1663.5
1008.655	1664.41
1008.948	1647.68
1009.242	1656.04
1009.535	1647.91
1009.829	1616.05
1010.122	1641.36
1010.415	1605.2
1010.708	1580.57
1011.001	1607.91
1011.295	1586.44
1011.588	1612.88
1011.881	1574.01
1012.173	1590.28
1012.466	1551.41
1012.759	1551.87
1013.052	1540.57
1013.344	1528.36
1013.637	1530.85
1013.93	1513.22
1014.222	1488.59
1014.514	1502.38
1014.807	1491.98
1015.099	1494.47
1015.391	1484.3
1015.683	1463.51
1015.976	1446.78
1016.268	1451.98
1016.56	1454.02
1016.851	1427.8
1017.143	1410.17
1017.435	1404.53
1017.727	1413.34
1018.018	1356.39
1018.31	1395.03
1018.602	1372.21
1018.893	1388.25
1019.185	1359.33
1019.476	1341.7
1019.767	1338.54
1020.058	1325.66
1020.35	1344.19
1020.641	1273.91
1020.932	1303.28
1021.223	1291.53
1021.514	1300.57
1021.804	1268.03
1022.095	1276.62
1022.386	1291.31
1022.677	1266
1022.967	1280.23
1023.258	1228.26
1023.548	1247.02
1023.839	1242.95
1024.129	1254.02
1024.419	1212.89
1024.709	1203.4
1025	1207.47
1025.29	1208.6
1025.58	1179.9
1025.87	1174.7
1026.16	1169.96
1026.449	1152.1
1026.739	1166.11
1027.029	1164.53
1027.319	1130.86
1027.608	1130.41
1027.898	1117.98
1028.187	1115.27
1028.477	1147.81
1028.766	1124.98
1029.055	1094.25
1029.344	1091.31
1029.634	1073.91
1029.923	1078.21
1030.212	1078.88
1030.501	1055.61
1030.79	1067.13
1031.078	1044.53
1031.367	1033.46
1031.656	1033.69
1031.945	1037.53
1032.233	1049.05
1032.522	1036.85
1032.81	997.53
1033.099	972.9
1033.387	991.88
1033.675	996.85
1033.963	984.2
1034.251	976.97
1034.54	971.77
1034.828	973.12
1035.116	971.32
1035.403	977.19
1035.691	948.94
1035.979	945.33
1036.267	936.06
1036.554	918.89
1036.842	958.66
1037.129	949.17
1037.417	950.75
1037.704	940.81
1037.992	901.94
1038.279	906.69
1038.566	891.32
1038.853	891.32
1039.14	891.32
