Data from hue_240_FLMS001491_00045.txt Node
Date: Tue Feb 07 16:35:32 GMT 2017
User: dcchb
Spectrometer: FLMS00149
Trigger mode: 0
Integration Time (sec): 2.000000E-2
Scans to average: 10
Electric dark correction enabled: true
Nonlinearity correction enabled: false
Boxcar width: 0
XAxis mode: Wavelengths
Number of Pixels in Spectrum: 2048
>>>>>Begin Spectral Data<<<<<
341.393	-21.33
341.776	-21.33
342.16	-21.33
342.543	-74.66
342.927	-67.43
343.31	-77.82
343.693	-60.65
344.077	-75.34
344.46	-58.84
344.843	-63.36
345.226	-28.78
345.61	-30.37
345.993	-13.42
346.376	6.47
346.759	0.82
347.142	27.71
347.525	43.3
347.908	46.69
348.291	74.94
348.674	99.57
349.057	109.06
349.44	126.01
349.823	131.89
350.206	179.8
350.588	183.87
350.971	187.71
351.354	209.18
351.737	224.77
352.119	248.72
352.502	263.86
352.884	239.68
353.267	270.42
353.65	268.16
354.032	302.51
354.414	292.79
354.797	288.04
355.179	318.32
355.562	302.05
355.944	321.71
356.326	324.88
356.709	331.21
357.091	328.49
357.473	320.58
357.855	346.35
358.238	325.78
358.62	323.52
359.002	327.82
359.384	335.27
359.766	321.94
360.148	315.84
360.53	322.39
360.912	300.25
361.294	333.24
361.676	332.34
362.057	334.82
362.439	307.93
362.821	323.07
363.203	324.65
363.584	311.09
363.966	300.02
364.348	297.76
364.729	314.48
365.111	311.32
365.493	301.15
365.874	304.54
366.256	293.69
366.637	314.71
367.019	309.06
367.4	295.73
367.781	313.81
368.163	311.32
368.544	297.31
368.925	308.61
369.306	314.26
369.688	315.84
370.069	295.27
370.45	304.54
370.831	314.26
371.212	299.12
371.593	300.47
371.974	306.12
372.355	307.48
372.736	309.06
373.117	298.21
373.498	302.51
373.879	314.03
374.26	308.38
374.641	287.59
375.021	308.83
375.402	318.32
375.783	305.44
376.163	326.46
376.544	300.7
376.925	313.58
377.305	296.86
377.686	325.33
378.066	308.38
378.447	348.83
378.827	343.86
379.208	304.99
379.588	318.55
379.968	319.68
380.349	322.39
380.729	312.68
381.109	303.41
381.489	306.8
381.87	316.52
382.25	298.44
382.63	352.9
383.01	336.4
383.39	338.44
383.77	325.1
384.15	340.25
384.53	335.95
384.91	318.78
385.29	332.34
385.67	329.85
386.049	346.12
386.429	319
386.809	340.02
387.189	354.03
387.568	357.42
387.948	316.97
388.328	349.74
388.707	356.97
389.087	349.96
389.466	361.71
389.846	355.61
390.225	344.31
390.605	344.54
390.984	360.36
391.363	338.66
391.743	370.53
392.122	363.75
392.501	345.22
392.881	370.08
393.26	370.75
393.639	389.51
394.018	384.54
394.397	364.2
394.776	370.53
395.155	369.62
395.534	366.01
395.913	383.86
396.292	373.46
396.671	404.42
397.05	391.54
397.429	370.3
397.808	378.21
398.186	378.89
398.565	389.96
398.944	393.8
399.323	379.57
399.701	376.4
400.08	395.39
400.458	403.07
400.837	410.75
401.215	403.75
401.594	400.81
401.972	389.28
402.351	413.69
402.729	423.86
403.107	420.47
403.486	420.47
403.864	427.25
404.242	406.68
404.62	420.24
404.999	421.83
405.377	424.99
405.755	441.71
406.133	433.58
406.511	444.88
406.889	466.8
407.267	458.66
407.645	438.32
408.023	448.04
408.401	466.8
408.779	471.99
409.156	442.62
409.534	458.66
409.912	480.58
410.29	481.26
410.667	486
411.045	497.3
411.422	488.26
411.8	497.3
412.178	487.13
412.555	505.66
412.933	513.35
413.31	531.2
413.687	535.49
414.065	536.85
414.442	546.12
414.819	552.44
415.197	601.93
415.574	559
415.951	570.3
416.328	577.98
416.705	576.4
417.082	584.31
417.46	606.23
417.837	589.96
418.214	588.6
418.591	604.65
418.967	629.05
419.344	619.79
419.721	640.8
420.098	631.09
420.475	633.12
420.852	640.35
421.228	645.32
421.605	657.98
421.982	671.76
422.358	675.83
422.735	693.46
423.111	704.98
423.488	700.69
423.864	722.61
424.241	724.87
424.617	744.53
424.994	744.3
425.37	743.62
425.746	749.73
426.123	780.69
426.499	772.32
426.875	790.85
427.251	770.97
427.627	796.05
428.003	808.71
428.379	813.45
428.756	805.77
429.132	824.53
429.507	845.09
429.883	861.14
430.259	860.01
430.635	846.9
431.011	876.28
431.387	911.08
431.763	900.91
432.138	893
432.514	927.57
432.89	933.45
433.265	947.46
433.641	967.12
434.016	979.32
434.392	979.78
434.767	1022.71
435.143	1016.61
435.518	1043.5
435.894	1044.86
436.269	1041.7
436.644	1073.11
437.02	1097.74
437.395	1114.24
437.77	1125.08
438.145	1118.08
438.52	1125.31
438.895	1154.46
439.271	1149.72
439.646	1187.45
440.021	1206.21
440.395	1198.3
440.77	1222.48
441.145	1236.72
441.52	1231.52
441.895	1264.06
442.27	1268.13
442.645	1288.02
443.019	1316.26
443.394	1312.42
443.769	1292.76
444.143	1309.03
444.518	1330.5
444.892	1340.9
445.267	1339.32
445.641	1358.07
446.016	1360.56
446.39	1383.16
446.764	1364.4
447.139	1395.36
447.513	1420.67
447.887	1422.7
448.262	1429.48
448.636	1439.43
449.01	1454.79
449.384	1484.17
449.758	1491.4
450.132	1502.02
450.506	1494.57
450.88	1479.42
451.254	1504.96
451.628	1506.99
452.002	1518.07
452.376	1576.14
452.75	1579.31
453.123	1549.71
453.497	1605.97
453.871	1599.65
454.244	1645.97
454.618	1640.78
454.992	1669.7
455.365	1663.37
455.739	1703.6
456.112	1745.18
456.486	1732.3
456.859	1742.24
457.232	1771.85
457.606	1743.82
457.979	1777.27
458.352	1829.47
458.725	1840.09
459.099	1858.4
459.472	1895.46
459.845	1883.71
460.218	1884.16
460.591	1900.88
460.964	1944.04
461.337	1970.26
461.71	2009.58
462.083	1991.5
462.456	2055.23
462.829	2057.49
463.201	2006.87
463.574	2082.12
463.947	2090.03
464.32	2139.75
464.692	2160.76
465.065	2169.35
465.438	2190.37
465.81	2252.51
466.183	2231.72
466.555	2251.16
466.928	2312.4
467.3	2322.57
467.672	2314.2
468.045	2378.16
468.417	2369.34
468.789	2431.26
469.161	2419.29
469.534	2449.12
469.906	2501.54
470.278	2514.88
470.65	2520.75
471.022	2594.88
471.394	2608.89
471.766	2636.68
472.138	2684.82
472.51	2740.41
472.882	2759.84
473.253	2746.06
473.625	2810.91
473.997	2874.64
474.369	2902.66
474.74	2897.92
475.112	2951.7
475.484	3037.8
475.855	3035.32
476.227	3049.33
476.598	3116.67
476.97	3113.73
477.341	3201.86
477.713	3225.59
478.084	3243.67
478.455	3342.2
478.827	3371.58
479.198	3472.82
479.569	3463.55
479.94	3568.18
480.311	3580.61
480.682	3638.01
481.053	3729.99
481.424	3747.16
481.795	3787.16
482.166	3818.8
482.537	3862.41
482.908	3910.32
483.279	4017.89
483.65	4079.58
484.021	4115.29
484.391	4149.18
484.762	4148.96
485.133	4205.91
485.503	4242.06
485.874	4372.91
486.244	4362.74
486.615	4459.91
486.985	4501.27
487.356	4565.9
487.726	4609.96
488.097	4707.81
488.467	4649.74
488.837	4739.9
489.207	4807.7
489.578	4877.08
489.948	4849.28
490.318	4953.46
490.688	4878.66
491.058	5026.22
491.428	5097.18
491.798	5144.19
492.168	5233.22
492.538	5187.12
492.908	5263.96
493.278	5372.88
493.648	5392.77
494.017	5405.42
494.387	5423.28
494.757	5432.77
495.126	5539.88
495.496	5554.12
495.866	5595.93
496.235	5661.46
496.605	5684.74
496.974	5663.04
497.344	5729.71
497.713	5730.61
498.082	5784.4
498.452	5819.88
498.821	5858.29
499.19	5815.81
499.559	5894.68
499.928	5986.65
500.298	5945.3
500.667	6016.71
501.036	5964.28
501.405	6020.32
501.774	6048.34
502.143	6087.66
502.512	6129.47
502.88	6156.59
503.249	6124.5
503.618	6134.9
503.987	6251.73
504.356	6228.68
504.724	6225.97
505.093	6237.49
505.462	6286.98
505.83	6307.55
506.199	6355
506.567	6417.37
506.936	6372.63
507.304	6466.19
507.672	6439.52
508.041	6426.64
508.409	6526.3
508.777	6520.65
509.145	6554.32
509.514	6631.83
509.882	6520.65
510.25	6596.13
510.618	6669.12
510.986	6638.84
511.354	6654.66
511.722	6682
512.09	6736.91
512.458	6701.66
512.826	6778.49
513.193	6764.94
513.561	6755.22
513.929	6823.24
514.297	6826.63
514.664	6907.3
515.032	6925.61
515.4	6968.55
515.767	6945.04
516.135	6969.68
516.502	6877.7
516.869	7043.35
517.237	7039.73
517.604	6997.7
517.972	7076.57
518.339	7026.17
518.706	7030.69
519.073	7095.77
519.44	7140.97
519.808	7129.67
520.175	7114.08
520.542	7223
520.909	7186.17
521.276	7171.03
521.643	7245.37
522.009	7289.44
522.376	7263.91
522.743	7250.8
523.11	7272.94
523.477	7345.94
523.843	7329.89
524.21	7370.12
524.577	7458.48
524.943	7484.92
525.31	7470.23
525.676	7463.67
526.043	7488.08
526.409	7519.49
526.776	7524.01
527.142	7536.89
527.508	7539.38
527.874	7603.11
528.241	7632.71
528.607	7559.04
528.973	7613.95
529.339	7587.29
529.705	7627.74
530.071	7679.71
530.437	7587.51
530.803	7727.85
531.169	7723.55
531.535	7659.83
531.901	7732.37
532.267	7720.16
532.632	7726.49
532.998	7722.42
533.364	7766.94
533.73	7794.06
534.095	7774.4
534.461	7745.47
534.826	7795.42
535.192	7792.03
535.557	7801.52
535.923	7743.21
536.288	7730.11
536.653	7706.83
537.019	7707.96
537.384	7751.12
537.749	7728.3
538.114	7755.64
538.479	7714.51
538.845	7711.8
539.21	7672.26
539.575	7735.08
539.94	7742.76
540.305	7721.29
540.67	7712.71
541.034	7729.66
541.399	7712.25
541.764	7668.87
542.129	7744.57
542.494	7695.98
542.858	7687.17
543.223	7654.18
543.587	7720.62
543.952	7646.27
544.316	7659.6
544.681	7686.04
545.045	7643.33
545.41	7644.01
545.774	7676.1
546.138	7645.82
546.503	7659.6
546.867	7606.49
547.231	7700.5
547.595	7689.2
547.959	7680.62
548.324	7624.57
548.688	7648.53
549.052	7644.69
549.416	7634.29
549.779	7582.31
550.143	7553.84
550.507	7605.36
550.871	7616.89
551.235	7558.81
551.599	7617.79
551.962	7617.79
552.326	7577.8
552.689	7625.03
553.053	7523.79
553.417	7581.64
553.78	7616.66
554.143	7563.11
554.507	7542.77
554.87	7588.64
555.234	7632.03
555.597	7559.49
555.96	7578.7
556.323	7624.35
556.686	7588.64
557.05	7660.28
557.413	7683.33
557.776	7584.35
558.139	7621.18
558.502	7640.62
558.865	7633.16
559.228	7664.57
559.59	7688.75
559.953	7647.85
560.316	7707.06
560.679	7685.81
561.041	7687.17
561.404	7670.22
561.767	7761.07
562.129	7763.55
562.492	7791.12
562.854	7701.63
563.217	7743.44
563.579	7750.9
563.941	7822.76
564.304	7853.04
564.666	7853.27
565.028	7837.9
565.39	7946.82
565.753	7882.19
566.115	7898.01
566.477	7940.05
566.839	7909.99
567.201	7979.59
567.563	7977.11
567.925	7982.98
568.287	7994.96
568.648	8020.95
569.01	8039.25
569.372	8048.52
569.734	8076.99
570.095	8095.75
570.457	8099.14
570.819	8108.18
571.18	8138.46
571.542	8188.85
571.903	8201.51
572.265	8211.68
572.626	8214.39
572.987	8218
573.349	8240.15
573.71	8290.09
574.071	8275.63
574.432	8314.05
574.794	8356.76
575.155	8354.95
575.516	8256.65
575.877	8394.27
576.238	8351.56
576.599	8392.69
576.96	8414.61
577.32	8431.33
577.681	8443.76
578.042	8436.53
578.403	8488.51
578.763	8514.27
579.124	8548.39
579.485	8536.64
579.845	8515.4
580.206	8522.85
580.566	8500.48
580.927	8568.73
581.287	8668.39
581.648	8607.6
582.008	8579.12
582.368	8573.25
582.728	8635.17
583.089	8622.51
583.449	8663.42
583.809	8659.8
584.169	8688.5
584.529	8681.04
584.889	8745.67
585.249	8679.91
585.609	8709.97
585.969	8758.1
586.329	8738.67
586.688	8729.4
587.048	8804.2
587.408	8782.06
587.768	8760.36
588.127	8777.54
588.487	8812.56
588.846	8839.68
589.206	8790.42
589.565	8832.9
589.925	8852.79
590.284	8891.43
590.643	8873.58
591.003	8813.02
591.362	8884.65
591.721	8889.17
592.08	8913.81
592.44	8926.01
592.799	8992
593.158	8919.68
593.517	8878.55
593.876	8928.04
594.235	9010.07
594.593	8896.63
594.952	8955.84
595.311	8920.58
595.67	8947.02
596.029	9015.5
596.387	9034.71
596.746	8979.11
597.104	8919
597.463	8954.93
597.822	8951.32
598.18	8997.19
598.538	8974.37
598.897	9027.7
599.255	8987.93
599.613	9054.59
599.972	9058.89
600.33	9060.92
600.688	8983.63
601.046	9104.53
601.404	9144.31
601.762	9072.22
602.12	9115.83
602.478	9076.96
602.836	9102.5
603.194	9036.74
603.552	9035.16
603.91	9082.39
604.268	9111.54
604.625	9122.61
604.983	9128.71
605.341	9088.04
605.698	9102.95
606.056	9152.44
606.413	9100.47
606.771	9162.84
607.128	9116.51
607.485	9121.94
607.843	9093.69
608.2	9166.68
608.557	9197.19
608.914	9143.4
609.272	9285.55
609.629	9208.03
609.986	9269.05
610.343	9264.08
610.7	9274.02
611.057	9180.01
611.414	9214.59
611.771	9261.14
612.127	9210.52
612.484	9243.97
612.841	9325.32
613.198	9237.86
613.554	9251.65
613.911	9373.68
614.267	9342.95
614.624	9322.16
614.98	9256.17
615.337	9369.61
615.693	9349.05
616.05	9351.31
616.406	9386.34
616.762	9355.83
617.118	9337.3
617.475	9324.64
617.831	9392.89
618.187	9388.59
618.543	9387.92
618.899	9436.28
619.255	9483.06
619.611	9403.06
619.967	9407.58
620.323	9457.52
620.678	9443.96
621.034	9370.06
621.39	9401.02
621.746	9350.4
622.101	9496.16
622.457	9399.22
622.812	9425.88
623.168	9428.59
623.523	9464.53
623.879	9416.16
624.234	9373
624.589	9451.64
624.945	9489.61
625.3	9487.58
625.655	9468.82
626.01	9516.05
626.365	9466.56
626.72	9437.63
627.075	9452.1
627.43	9425.66
627.785	9429.72
628.14	9481.7
628.495	9398.09
628.85	9417.75
629.205	9390.18
629.559	9453
629.914	9370.29
630.269	9467.46
630.623	9421.36
630.978	9344.3
631.332	9376.39
631.687	9383.17
632.041	9384.3
632.396	9292.78
632.75	9356.51
633.104	9326.22
633.459	9288.03
633.813	9314.47
634.167	9236.73
634.521	9278.09
634.875	9291.42
635.229	9218.66
635.583	9126.91
635.937	9251.65
636.291	9191.76
636.645	9231.76
636.999	9112.44
637.352	9179.79
637.706	9163.74
638.06	9195.38
638.413	9151.99
638.767	9121.03
639.121	9160.8
639.474	9164.87
639.828	9107.92
640.181	9126.23
640.534	9063.86
640.888	9108.83
641.241	9088.94
641.594	9075.16
641.947	9080.58
642.301	8986.57
642.654	9005.1
643.007	9072.45
643.36	9054.14
643.713	9032.22
644.066	9043.29
644.419	8954.48
644.771	8957.65
645.124	8856.63
645.477	8841.72
645.83	8812.79
646.182	8773.47
646.535	8707.93
646.888	8704.77
647.24	8664.55
647.593	8731.66
647.945	8719.23
648.298	8662.29
648.65	8605.56
649.002	8607.15
649.355	8616.41
649.707	8691.66
650.059	8713.36
650.411	8755.62
650.763	8843.75
651.115	8934.37
651.467	8869.06
651.819	8891.88
652.171	8888.27
652.523	8829.74
652.875	8826.12
653.227	8890.53
653.578	8847.14
653.93	8847.37
654.282	8871.77
654.633	8813.02
654.985	8810.76
655.337	8861.6
655.688	8862.73
656.039	8891.66
656.391	8828.38
656.742	8853.69
657.094	8824.99
657.445	8835.39
657.796	8799.46
658.147	8881.26
658.498	8815.05
658.849	8827.48
659.2	8869.06
659.551	8794.26
659.902	8869.96
660.253	8822.06
660.604	8824.54
660.955	8784.09
661.306	8859.34
661.656	8859.12
662.007	8806.46
662.358	8861.15
662.708	8847.37
663.059	8802.85
663.409	8847.82
663.76	8824.32
664.11	8798.78
664.461	8879.91
664.811	8810.53
665.161	8862.06
665.511	8813.02
665.862	8853.02
666.212	8812.56
666.562	8820.7
666.912	8863.64
667.262	8830.64
667.612	8815.28
667.962	8853.69
668.312	8790.87
668.662	8855.05
669.011	8824.09
669.361	8798.78
669.711	8824.99
670.06	8808.05
670.41	8735.73
670.76	8857.31
671.109	8888.27
671.459	8835.62
671.808	8774.15
672.157	8747.48
672.507	8721.49
672.856	8775.96
673.205	8705
673.554	8785.45
673.904	8718.78
674.253	8826.12
674.602	8755.84
674.951	8559.46
675.3	8596.53
675.649	8718.1
675.998	8731.21
676.346	8690.08
676.695	8711.55
677.044	8641.04
677.393	8649.18
677.741	8649.63
678.09	8645.11
678.438	8678.11
678.787	8642.4
679.135	8622.74
679.484	8615.96
679.832	8603.98
680.181	8642.4
680.529	8519.24
680.877	8592.46
681.225	8548.84
681.573	8583.64
681.922	8535.06
682.27	8546.58
682.618	8509.07
682.966	8503.87
683.314	8486.02
683.661	8386.36
684.009	8426.13
684.357	8427.72
684.705	8340.03
685.053	8402.41
685.4	8379.58
685.748	8394.04
686.095	8349.75
686.443	8334.84
686.79	8288.06
687.138	8261.39
687.485	8277.89
687.832	8238.79
688.18	8292.35
688.527	8260.04
688.874	8194.28
689.221	8218.46
689.568	8116.99
689.915	8105.69
690.262	8095.75
690.609	8130.1
690.956	8026.14
691.303	8027.73
691.65	8012.59
691.997	7985.92
692.344	7950.44
692.69	7944.57
693.037	7922.42
693.383	7820.73
693.73	7855.53
694.077	7817.34
694.423	7827.96
694.769	7785.47
695.116	7802.87
695.462	7784.8
695.808	7706.83
696.155	7742.08
696.501	7677
696.847	7660.73
697.193	7620.96
697.539	7601.75
697.885	7569.43
698.231	7533.05
698.577	7561.52
698.923	7543.67
699.269	7498.25
699.614	7449.89
699.96	7431.36
700.306	7439.27
700.651	7437.01
700.997	7381.64
701.342	7355.43
701.688	7311.36
702.033	7303.45
702.379	7284.02
702.724	7220.74
703.069	7257.58
703.415	7210.8
703.76	7240.4
704.105	7207.41
704.45	7100.97
704.795	7119.5
705.14	7109.33
705.485	7136.22
705.83	7039.28
706.175	7041.31
706.52	7033.63
706.865	6951.37
707.209	6943.24
707.554	6935.78
707.899	7018.94
708.243	6913.18
708.588	6832.05
708.932	6822.33
709.277	6854.65
709.621	6799.51
709.966	6829.34
710.31	6861.2
710.654	6764.94
710.998	6733.98
711.342	6759.96
711.687	6721.77
712.031	6761.09
712.375	6694.88
712.719	6666.63
713.063	6680.19
713.407	6706.63
713.75	6627.09
714.094	6648.55
714.438	6667.76
714.782	6652.62
715.125	6618.95
715.469	6578.27
715.812	6588.22
716.156	6547.99
716.499	6560.42
716.843	6545.28
717.186	6504.83
717.53	6539.86
717.873	6495.11
718.216	6499.18
718.559	6442.01
718.902	6443.81
719.246	6499.63
719.589	6421.22
719.932	6388.67
720.275	6375.11
720.617	6454.66
720.96	6409.92
721.303	6448.11
721.646	6406.75
721.989	6400.88
722.331	6418.28
722.674	6316.59
723.016	6335.34
723.359	6378.05
723.701	6395.91
724.044	6279.07
724.386	6335.34
724.729	6354.1
725.071	6348.22
725.413	6351.61
725.755	6317.94
726.097	6301.67
726.439	6298.05
726.782	6344.83
727.124	6313.2
727.465	6336.7
727.807	6330.14
728.149	6279.75
728.491	6294.66
728.833	6283.59
729.175	6241.33
729.516	6269.35
729.858	6279.3
730.199	6212.63
730.541	6204.27
730.882	6296.02
731.224	6275.46
731.565	6217.6
731.906	6270.03
732.248	6239.3
732.589	6202.92
732.93	6210.15
733.271	6216.93
733.612	6211.05
733.953	6226.64
734.294	6213.09
734.635	6254.67
734.976	6224.38
735.317	6195.46
735.658	6168.11
735.999	6194.78
736.339	6206.08
736.68	6223.25
737.021	6165.85
737.361	6202.69
737.702	6194.1
738.042	6167.21
738.383	6223.25
738.723	6179.41
739.063	6171.5
739.404	6248.79
739.744	6238.17
740.084	6222.58
740.424	6234.33
740.764	6296.7
741.104	6230.49
741.444	6265.06
741.784	6256.47
742.124	6230.26
742.464	6285.63
742.804	6269.35
743.143	6275.91
743.483	6310.26
743.823	6343.7
744.162	6316.36
744.502	6338.96
744.841	6368.56
745.181	6420.54
745.52	6360.2
745.86	6397.04
746.199	6479.74
746.538	6463.02
746.877	6570.59
747.216	6541.44
747.556	6566.75
747.895	6583.92
748.234	6585.5
748.573	6595.9
748.911	6688.33
749.25	6644.49
749.589	6700.3
749.928	6730.59
750.267	6842.67
750.605	6865.5
750.944	6852.62
751.283	6871.6
751.621	6990.01
751.96	6980.97
752.298	7093.74
752.636	7121.08
752.975	7175.55
753.313	7204.02
753.651	7313.4
753.989	7304.13
754.327	7342.77
754.666	7448.31
755.004	7526.5
755.342	7615.53
755.679	7673.84
756.017	7780.5
756.355	7861.18
756.693	7921.97
757.031	7988.18
757.368	8078.8
757.706	8180.04
758.044	8222.98
758.381	8358.34
758.719	8364.22
759.056	8576.41
759.394	8592.91
759.731	8657.77
760.068	8720.36
760.405	8816.86
760.743	8884.88
761.08	9040.58
761.417	9062.28
761.754	9209.39
762.091	9326.68
762.428	9398.31
762.765	9419.78
763.102	9578.19
763.438	9611.64
763.775	9742.48
764.112	9825.87
764.449	9929.15
764.785	9944.51
765.122	10040.56
765.458	10087.33
765.795	10207.56
766.131	10283.03
766.467	10369.59
766.804	10452.75
767.14	10448.91
767.476	10531.62
767.812	10613.87
768.148	10705.17
768.485	10735
768.821	10746.53
769.157	10856.35
769.492	10843.7
769.828	10978.16
770.164	10926.18
770.5	10977.71
770.836	11068.78
771.171	11075.1
771.507	11224.7
771.842	11158.49
772.178	11215.67
772.513	11259.51
772.849	11292.05
773.184	11357.58
773.519	11346.96
773.855	11332.5
774.19	11367.3
774.525	11433.96
774.86	11492.04
775.195	11518.71
775.53	11569.1
775.865	11529.33
776.2	11522.78
776.535	11473.06
776.87	11493.4
777.205	11536.79
777.539	11574.75
777.874	11622.66
778.209	11524.13
778.543	11541.76
778.878	11536.34
779.212	11592.38
779.547	11579.05
779.881	11588.09
780.215	11522.78
780.55	11557.8
780.884	11570.23
781.218	11558.03
781.552	11577.01
781.886	11568.88
782.22	11543.34
782.554	11519.39
782.888	11536.56
783.222	11487.07
783.556	11518.48
783.889	11501.53
784.223	11413.85
784.557	11410.01
784.89	11453.4
785.224	11421.76
785.557	11277.13
785.891	11333.63
786.224	11270.35
786.558	11358.49
786.891	11276.91
787.224	11221.77
787.557	11246.4
787.891	11248.66
788.224	11266.96
788.557	11295.66
788.89	11258.38
789.223	11237.81
789.556	11150.81
789.888	11181.99
790.221	11161.66
790.554	11099.74
790.887	11093.63
791.219	11045.05
791.552	10980.19
791.884	11014.99
792.217	10969.12
792.549	10985.84
792.882	10934.09
793.214	10858.16
793.546	10857.26
793.879	10829.24
794.211	10812.74
794.543	10881.89
794.875	10812.06
795.207	10830.36
795.539	10756.92
795.871	10766.86
796.203	10758.5
796.535	10666.75
796.867	10740.42
797.198	10633.08
797.53	10689.35
797.862	10582.46
798.193	10574.1
798.525	10480.77
798.856	10535.23
799.188	10399.87
799.519	10380.89
799.85	10348.57
800.182	10334.33
800.513	10376.59
800.844	10304.73
801.175	10346.54
801.506	10325.97
801.837	10305.18
802.168	10266.54
802.499	10186.99
802.83	10176.37
803.161	10145.86
803.491	10167.11
803.822	10136.15
804.153	10139.31
804.483	10086.43
804.814	9972.31
805.145	10031.74
805.475	10036.71
805.805	9948.58
806.136	9929.6
806.466	9939.09
806.796	10004.85
807.126	9907.68
807.457	9881.01
807.787	9893.44
808.117	9755.36
808.447	9822.71
808.777	9786.1
809.107	9704.29
809.436	9715.59
809.766	9763.27
810.096	9680.34
810.426	9677.17
810.755	9628.81
811.085	9652.77
811.414	9638.08
811.744	9618.19
812.073	9550.85
812.403	9614.8
812.732	9528.93
813.061	9503.39
813.39	9499.1
813.719	9444.86
814.049	9503.85
814.378	9452.77
814.707	9443.73
815.036	9374.58
815.365	9346.79
815.693	9257.75
816.022	9359.67
816.351	9292.55
816.68	9244.64
817.008	9303.17
817.337	9225.21
817.665	9178.2
817.994	9247.58
818.322	9123.07
818.651	9155.83
818.979	9124.2
819.307	9161.26
819.636	9105.66
819.964	9043.29
820.292	9072.9
820.62	9104.08
820.948	9079.68
821.276	9100.47
821.604	9028.38
821.932	9067.7
822.259	9010.53
822.587	9053.24
822.915	8984.54
823.243	9093.24
823.57	9001.03
823.898	9028.6
824.225	9025.89
824.553	8967.59
824.88	9010.98
825.207	9017.31
825.535	8961.26
825.862	9066.34
826.189	9056.17
826.516	9068.15
826.843	9100.01
827.17	9069.73
827.497	9084.87
827.824	9101.6
828.151	9048.26
828.478	9042.62
828.805	9071.32
829.131	9073.12
829.458	9049.39
829.785	9032.22
830.111	9019.57
830.438	9067.02
830.764	9004.88
831.09	9063.18
831.417	8980.7
831.743	9029.51
832.069	9048.04
832.395	8950.41
832.722	9053.46
833.048	9024.31
833.374	8989.28
833.7	9046.46
834.026	9026.12
834.351	9010.07
834.677	8996.51
835.003	9005.33
835.329	9046.46
835.654	9005.33
835.98	8995.61
836.306	8907.93
836.631	8889.85
836.956	8928.95
837.282	8983.18
837.607	8861.38
837.932	8839.91
838.258	8907.25
838.583	8875.84
838.908	8824.54
839.233	8812.34
839.558	8878.1
839.883	8804.43
840.208	8813.69
840.533	8814.37
840.858	8784.32
841.182	8788.61
841.507	8753.36
841.832	8634.72
842.156	8692.34
842.481	8679.46
842.805	8696.64
843.13	8693.47
843.454	8657.31
843.778	8576.86
844.103	8587.71
844.427	8552.91
844.751	8588.39
845.075	8582.06
845.399	8455.96
845.723	8506.58
846.047	8535.06
846.371	8446.02
846.695	8483.99
847.019	8423.2
847.343	8371.45
847.666	8297.78
847.99	8228.85
848.313	8293.03
848.637	8191.56
848.96	8199.7
849.284	8172.13
849.607	8119.48
849.931	8054.17
850.254	8061.62
850.577	7992.25
850.9	7957.9
851.223	7902.31
851.546	7899.59
851.869	7865.02
852.192	7897.56
852.515	7769.65
852.838	7740.05
853.161	7817.79
853.483	7683.56
853.806	7733.27
854.129	7712.25
854.451	7647.85
854.774	7686.27
855.096	7564.24
855.419	7599.26
855.741	7591.81
856.063	7555.87
856.385	7526.95
856.708	7481.3
857.03	7458.48
857.352	7465.03
857.674	7455.99
857.996	7379.83
858.318	7382.77
858.64	7389.78
858.961	7362.89
859.283	7353.85
859.605	7324.02
859.926	7322.21
860.248	7314.98
860.57	7261.65
860.891	7229.78
861.212	7166.73
861.534	7210.35
861.855	7182.78
862.176	7176.22
862.498	7154.98
862.819	7162.44
863.14	7088.99
863.461	7122.21
863.782	7096.23
864.103	7125.15
864.424	7133.06
864.745	7124.93
865.065	7051.71
865.386	7039.5
865.707	7024.82
866.027	7016.68
866.348	6992.5
866.668	7010.8
866.989	6961.77
867.309	6917.93
867.63	6965.83
867.95	6956.12
868.27	6859.17
868.59	6983.69
868.91	6931.48
869.23	6876.8
869.55	6851.71
869.87	6917.47
870.19	6856.46
870.51	6880.19
870.83	6895.55
871.15	6812.62
871.469	6794.54
871.789	6873.41
872.109	6766.74
872.428	6805.39
872.748	6787.53
873.067	6804.26
873.386	6789.12
873.706	6775.1
874.025	6721.09
874.344	6695.56
874.663	6739.17
874.982	6740.98
875.301	6773.3
875.62	6690.36
875.939	6688.55
876.258	6657.14
876.577	6686.07
876.896	6594.32
877.214	6633.64
877.533	6640.87
877.852	6618.95
878.17	6587.54
878.489	6604.49
878.807	6617.82
879.125	6619.85
879.444	6631.83
879.762	6573.98
880.08	6565.39
880.398	6498.5
880.716	6596.8
881.034	6549.12
881.352	6491.27
881.67	6520.42
881.988	6475.45
882.306	6567.2
882.624	6451.05
882.941	6431.61
883.259	6432.97
883.577	6410.59
883.894	6435.45
884.212	6378.73
884.529	6373.76
884.846	6360.88
885.164	6301.9
885.481	6345.96
885.798	6328.79
886.115	6291.73
886.432	6247.89
886.75	6267.55
887.067	6255.57
887.383	6253.08
887.7	6216.7
888.017	6197.04
888.334	6220.99
888.651	6173.99
888.967	6160.88
889.284	6158.17
889.6	6128.12
889.917	6089.02
890.233	6109.36
890.55	6092.86
890.866	6106.42
891.182	6018.97
891.498	6049.47
891.815	6014.45
892.131	6009.02
892.447	5960.89
892.763	6003.6
893.079	5988.46
893.395	5999.53
893.71	5926.99
894.026	5953.43
894.342	5864.62
894.657	5833.43
894.973	5822.59
895.289	5818.29
895.604	5849.7
895.92	5816.94
896.235	5790.27
896.55	5800.44
896.865	5778.07
897.181	5699.88
897.496	5747.33
897.811	5672.99
898.126	5675.02
898.441	5664.63
898.756	5619.65
899.071	5601.35
899.386	5618.07
899.7	5535.81
900.015	5482.26
900.33	5466.44
900.644	5522.48
900.959	5499.43
901.273	5482.71
901.588	5421.47
901.902	5450.62
902.216	5463.27
902.531	5391.64
902.845	5406.33
903.159	5373.11
903.473	5336.5
903.787	5313
904.101	5286.78
904.415	5269.38
904.729	5249.49
905.042	5232.09
905.356	5213.56
905.67	5189.16
905.984	5193.23
906.297	5183.28
906.611	5151.87
906.924	5103.51
907.237	5106.67
907.551	5107.13
907.864	5064.41
908.177	5078.43
908.491	5058.77
908.804	4993.46
909.117	4998.43
909.43	5007.47
909.743	4969.5
910.056	4989.16
910.368	4912.55
910.681	4944.87
910.994	4900.8
911.307	4891.99
911.619	4832.33
911.932	4860.58
912.244	4820.58
912.557	4755.04
912.869	4770.64
913.181	4772.9
913.494	4740.13
913.806	4711.2
914.118	4714.82
914.43	4647.25
914.742	4637.99
915.054	4664.2
915.366	4655.39
915.678	4597.99
915.99	4566.8
916.302	4542.62
916.613	4515.28
916.925	4570.64
917.236	4551.43
917.548	4482.06
917.859	4476.18
918.171	4431.44
918.482	4451.1
918.794	4397.31
919.105	4391.44
919.416	4383.3
919.727	4345.79
920.038	4373.59
920.349	4337.2
920.66	4344.21
920.971	4329.29
921.282	4325.23
921.593	4278.45
921.903	4234.15
922.214	4240.03
922.525	4265.57
922.835	4217.21
923.146	4164.78
923.456	4141.05
923.767	4110.09
924.077	4182.86
924.387	4136.76
924.697	4095.4
925.008	4125.46
925.318	4085.23
925.628	4078.9
925.938	4101.05
926.248	4004.1
926.558	3984.22
926.867	4049.98
927.177	3953.48
927.487	3980.38
927.796	3931.79
928.106	3930.21
928.416	3922.52
928.725	3903.99
929.034	3873.71
929.344	3887.27
929.653	3892.24
929.962	3804.11
930.271	3857.44
930.581	3819.7
930.89	3808.4
931.199	3756.65
931.508	3749.42
931.817	3737.44
932.125	3766.37
932.434	3753.94
932.743	3672.81
933.051	3697.45
933.36	3653.15
933.669	3638.92
933.977	3641.18
934.286	3619.71
934.594	3678.01
934.902	3583.1
935.21	3598.69
935.519	3556.88
935.827	3561.18
936.135	3570.22
936.443	3519.6
936.751	3549.88
937.059	3497.9
937.367	3486.38
937.674	3499.48
937.982	3502.42
938.29	3444.34
938.597	3444.12
938.905	3410.45
939.213	3419.26
939.52	3387.62
939.827	3391.01
940.135	3392.14
940.442	3335.19
940.749	3347.17
941.056	3349.21
941.363	3337.23
941.67	3329.09
941.977	3288.42
942.284	3267.4
942.591	3285.25
942.898	3248.87
943.205	3250.9
943.511	3229.89
943.818	3215.88
944.125	3225.14
944.431	3212.03
944.738	3182.88
945.044	3148.53
945.35	3160.06
945.657	3136.56
945.963	3118.48
946.269	3105.14
946.575	3094.75
946.881	3096.56
947.187	3100.17
947.493	3082.55
947.799	3058.59
948.105	3046.61
948.41	3008.88
948.716	3018.59
949.022	2978.37
949.327	3009.78
949.633	2990.57
949.938	2982.89
950.244	2975.2
950.549	2949.22
950.854	2911.7
951.16	2903.79
951.465	2885.94
951.77	2897.92
952.075	2854.76
952.38	2878.48
952.685	2854.53
952.99	2815.66
953.294	2823.34
953.599	2800.75
953.904	2817.69
954.209	2784.7
954.513	2770.24
954.818	2803.91
955.122	2734.98
955.426	2749.22
955.731	2734.53
956.035	2725.04
956.339	2703.35
956.643	2716
956.948	2715.78
957.252	2697.7
957.556	2714.42
957.86	2658.6
958.163	2640.52
958.467	2646.17
958.771	2645.72
959.075	2619.51
959.378	2611.15
959.682	2607.76
959.985	2578.6
960.289	2573.18
960.592	2614.08
960.896	2570.7
961.199	2546.29
961.502	2543.13
961.805	2495.44
962.108	2544.93
962.411	2482.11
962.714	2475.56
963.017	2468.55
963.32	2461.55
963.623	2441.88
963.926	2480.3
964.228	2446.86
964.531	2435.11
964.833	2427.87
965.136	2435.33
965.438	2413.41
965.741	2408.44
966.043	2365.05
966.345	2387.42
966.648	2379.97
966.95	2353.98
967.252	2356.24
967.554	2332.06
967.856	2322.57
968.158	2299.74
968.46	2277.82
968.761	2298.84
969.063	2286.63
969.365	2231.04
969.666	2291.61
969.968	2260.19
970.269	2266.52
970.571	2225.17
970.872	2219.97
971.174	2217.94
971.475	2209.8
971.776	2223.59
972.077	2185.39
972.378	2171.38
972.679	2195.11
972.98	2198.28
973.281	2192.17
973.582	2142.23
973.883	2149.24
974.183	2138.84
974.484	2104.72
974.785	2140.2
975.085	2137.49
975.386	2122.8
975.686	2109.01
975.986	2063.59
976.287	2072.4
976.587	2089.8
976.887	2028.34
977.187	2051.61
977.487	2070.6
977.787	2046.42
978.087	2033.08
978.387	2007.32
978.687	2025.85
978.987	2014.55
979.286	1983.82
979.586	1984.95
979.885	1989.69
980.185	1966.64
980.484	1964.16
980.784	1946.3
981.083	1959.86
981.382	1925.97
981.682	1930.49
981.981	1934.1
982.28	1908.79
982.579	1917.6
982.878	1910.83
983.177	1894.55
983.475	1892.52
983.774	1855.91
984.073	1850.71
984.372	1858.17
984.67	1858.17
984.969	1835.12
985.267	1854.78
985.566	1814.78
985.864	1823.82
986.162	1812.75
986.461	1797.16
986.759	1812.97
987.057	1788.57
987.355	1786.76
987.653	1805.74
987.951	1789.7
988.249	1753.77
988.547	1778.63
988.844	1735.24
989.142	1730.94
989.44	1725.97
989.737	1746.31
990.035	1689.81
990.332	1712.41
990.63	1673.77
990.927	1693.66
991.224	1687.78
991.521	1659.98
991.819	1643.71
992.116	1650.72
992.413	1654.34
992.71	1659.76
993.006	1650.72
993.303	1649.82
993.6	1625.18
993.897	1651.62
994.193	1634.9
994.49	1640.1
994.787	1624.96
995.083	1612.75
995.379	1595.35
995.676	1605.3
995.972	1607.1
996.268	1583.6
996.565	1568.46
996.861	1542.25
997.157	1553.32
997.453	1517.16
997.749	1528.01
998.044	1541.12
998.34	1511.29
998.636	1517.39
998.932	1492.31
999.227	1485.98
999.523	1505.19
999.818	1472.19
1000.114	1478.29
1000.409	1474.9
1000.704	1429.26
1001	1465.41
1001.295	1445.53
1001.59	1464.96
1001.885	1434.23
1002.18	1417.73
1002.475	1399.65
1002.77	1397.62
1003.065	1369.82
1003.359	1385.64
1003.654	1403.04
1003.949	1361.24
1004.243	1366.21
1004.538	1369.14
1004.832	1346.09
1005.127	1341.35
1005.421	1330.28
1005.715	1349.26
1006.009	1338.41
1006.304	1359.43
1006.598	1326.21
1006.892	1310.84
1007.186	1309.94
1007.48	1297.51
1007.773	1314.46
1008.067	1278.75
1008.361	1265.64
1008.655	1258.64
1008.948	1240.11
1009.242	1237.17
1009.535	1253.44
1009.829	1249.83
1010.122	1249.83
1010.415	1234.46
1010.708	1223.61
1011.001	1237.62
1011.295	1234.23
1011.588	1206.89
1011.881	1213.67
1012.173	1181.13
1012.466	1210.28
1012.759	1204.4
1013.052	1199.21
1013.344	1173.9
1013.637	1171.41
1013.93	1151.52
1014.222	1134.57
1014.514	1143.61
1014.807	1137.51
1015.099	1127.57
1015.391	1130.73
1015.683	1121.02
1015.976	1095.03
1016.268	1083.28
1016.56	1095.71
1016.851	1090.28
1017.143	1098.87
1017.435	1106.1
1017.727	1085.99
1018.018	1075.37
1018.31	1069.94
1018.602	1063.84
1018.893	1057.06
1019.185	1049.38
1019.476	1032.88
1019.767	1042.6
1020.058	1045.54
1020.35	1038.53
1020.641	1013.9
1020.932	989.72
1021.223	1016.61
1021.514	1008.7
1021.804	983.39
1022.095	999.21
1022.386	995.37
1022.677	993.56
1022.967	984.07
1023.258	971.19
1023.548	963.05
1023.839	999.44
1024.129	954.92
1024.419	967.8
1024.709	938.42
1025	947.46
1025.29	935.03
1025.58	919.67
1025.87	917.41
1026.16	914.47
1026.449	928.25
1026.739	930.51
1027.029	911.53
1027.319	904.3
1027.608	899.33
1027.898	905.2
1028.187	885.99
1028.477	886.67
1028.766	888.93
1029.055	892.1
1029.344	871.76
1029.634	863.17
1029.923	850.51
1030.212	867.92
1030.501	843.06
1030.79	833.79
1031.078	831.31
1031.367	814.36
1031.656	824.3
1031.945	811.19
1032.233	807.13
1032.522	811.19
1032.81	805.54
1033.099	846.22
1033.387	789.05
1033.675	777.97
1033.963	796.96
1034.251	776.62
1034.54	785.88
1034.828	769.84
1035.116	775.26
1035.403	770.06
1035.691	757.18
1035.979	752.21
1036.267	759.9
1036.554	730.74
1036.842	751.08
1037.129	731.87
1037.417	739.1
1037.704	725.32
1037.992	740.91
1038.279	723.51
1038.566	735.49
1038.853	735.49
1039.14	735.49
