Data from hue_28_FLMS001491_00004.txt Node
Date: Tue Feb 07 17:16:47 GMT 2017
User: dcchb
Spectrometer: FLMS00149
Trigger mode: 0
Integration Time (sec): 2.000000E-2
Scans to average: 10
Electric dark correction enabled: true
Nonlinearity correction enabled: false
Boxcar width: 0
XAxis mode: Wavelengths
Number of Pixels in Spectrum: 2048
>>>>>Begin Spectral Data<<<<<
341.393	-0.32
341.776	-0.32
342.16	-0.32
342.543	-43.49
342.927	-88.91
343.31	-94.79
343.693	-57.72
344.077	-53.66
344.46	-55.24
344.843	-55.46
345.226	-24.28
345.61	-25.41
345.993	-47.56
346.376	10.97
346.759	-2.58
347.142	24.31
347.525	34.7
347.908	60.24
348.291	81.25
348.674	90.07
349.057	115.15
349.44	129.16
349.823	148.82
350.206	169.39
350.588	201.7
350.971	215.71
351.354	226.34
351.737	251.42
352.119	266.33
352.502	288.26
352.884	278.54
353.267	299.55
353.65	282.38
354.032	299.1
354.414	314.24
354.797	314.47
355.179	307.92
355.562	337.52
355.944	335.94
356.326	342.04
356.709	342.04
357.091	338.2
357.473	344.52
357.855	345.2
358.238	363.73
358.62	355.6
359.002	360.34
359.384	342.49
359.766	343.39
360.148	339.78
360.53	354.24
360.912	337.97
361.294	348.82
361.676	344.98
362.057	333.45
362.439	340.91
362.821	353.11
363.203	315.83
363.584	310.18
363.966	305.2
364.348	328.25
364.729	340.91
365.111	325.32
365.493	320.34
365.874	321.93
366.256	318.99
366.637	308.37
367.019	314.7
367.4	312.89
367.781	325.32
368.163	324.86
368.544	324.64
368.925	296.84
369.306	333.9
369.688	315.83
370.069	325.09
370.45	328.03
370.831	310.63
371.212	321.7
371.593	312.66
371.974	329.38
372.355	321.25
372.736	332.77
373.117	333.45
373.498	325.99
373.879	347.24
374.26	333
374.641	323.06
375.021	325.09
375.402	337.52
375.783	342.27
376.163	332.77
376.544	341.81
376.925	328.93
377.305	345.2
377.686	331.19
378.066	329.61
378.447	340.91
378.827	338.42
379.208	347.69
379.588	358.54
379.968	350.63
380.349	352.66
380.729	344.3
381.109	346.33
381.489	351.98
381.87	323.73
382.25	354.24
382.63	355.15
383.01	368.03
383.39	342.04
383.77	357.86
384.15	373.45
384.53	369.61
384.91	360.8
385.29	351.3
385.67	350.4
386.049	368.48
386.429	371.64
386.809	363.06
387.189	371.87
387.568	358.31
387.948	380.91
388.328	363.28
388.707	381.36
389.087	361.7
389.466	372.09
389.846	385.2
390.225	402.38
390.605	397.86
390.984	368.7
391.363	362.38
391.743	362.38
392.122	392.21
392.501	394.92
392.881	404.86
393.26	392.43
393.639	390.85
394.018	391.98
394.397	405.77
394.776	399.44
395.155	377.74
395.534	402.38
395.913	382.94
396.292	404.64
396.671	396.27
397.05	392.66
397.429	396.95
397.808	408.7
398.186	418.2
398.565	410.74
398.944	418.42
399.323	403.28
399.701	428.14
400.08	406.44
400.458	398.53
400.837	431.98
401.215	416.16
401.594	399.21
401.972	436.95
402.351	433.56
402.729	433.56
403.107	429.27
403.486	438.53
403.864	437.63
404.242	441.7
404.62	427.69
404.999	443.51
405.377	443.96
405.755	441.92
406.133	440.34
406.511	446.67
406.889	437.63
407.267	458.87
407.645	449.15
408.023	463.39
408.401	466.56
408.779	476.95
409.156	453.45
409.534	457.97
409.912	463.84
410.29	482.15
410.667	502.26
411.045	481.7
411.422	467.23
411.8	477.18
412.178	481.24
412.555	499.1
412.933	514.24
413.31	501.58
413.687	513.33
414.065	489.61
414.442	512.88
414.819	506.55
415.197	521.7
415.574	548.59
415.951	525.31
416.328	517.85
416.705	524.18
417.082	514.92
417.46	535.93
417.837	528.7
418.214	540.45
418.591	550.17
418.967	549.04
419.344	546.55
419.721	554.46
420.098	567.34
420.475	582.48
420.852	565.08
421.228	574.35
421.605	564.86
421.982	572.77
422.358	563.28
422.735	597.4
423.111	591.98
423.488	590.62
423.864	572.99
424.241	597.17
424.617	601.69
424.994	636.27
425.37	605.08
425.746	617.74
426.123	614.57
426.499	606.66
426.875	633.78
427.251	620.9
427.627	649.6
428.003	634.23
428.379	646.44
428.756	628.81
429.132	658.64
429.507	674.01
429.883	653.44
430.259	663.84
430.635	699.32
431.011	689.15
431.387	713.33
431.763	708.36
432.138	690.96
432.514	674.46
432.89	727.34
433.265	709.94
433.641	734.57
434.016	697.06
434.392	751.97
434.767	770.28
435.143	748.58
435.518	769.6
435.894	753.78
436.269	791.74
436.644	760.33
437.02	776.83
437.395	779.09
437.77	771.41
438.145	802.82
438.52	817.73
438.895	820.67
439.271	810.28
439.646	829.94
440.021	817.96
440.395	822.03
440.77	856.83
441.145	820.67
441.52	858.64
441.895	857.73
442.27	869.03
442.645	879.43
443.019	857.73
443.394	867.67
443.769	890.27
444.143	880.1
444.518	888.24
444.892	884.62
445.267	881.69
445.641	916.94
446.016	936.15
446.39	901.35
446.764	918.52
447.139	911.06
447.513	930.72
447.887	928.69
448.262	922.36
448.636	944.51
449.01	933.89
449.384	963.94
449.758	948.58
450.132	975.24
450.506	993.77
450.88	984.28
451.254	984.28
451.628	998.29
452.002	1031.29
452.376	1033.77
452.75	1009.82
453.123	1045.07
453.497	1031.06
453.871	1061.79
454.244	1052.53
454.618	1063.6
454.992	1094.34
455.365	1058.63
455.739	1104.5
456.112	1121.45
456.486	1141.11
456.859	1137.27
457.232	1168.91
457.606	1146.99
457.979	1169.14
458.352	1176.59
458.725	1172.75
459.099	1181.34
459.472	1201.68
459.845	1221.56
460.218	1253.2
460.591	1236.25
460.964	1252.52
461.337	1283.26
461.71	1310.15
462.083	1311.51
462.456	1298.17
462.829	1309.25
463.201	1366.64
463.574	1360.54
463.947	1344.72
464.32	1413.65
464.692	1400.77
465.065	1434.67
465.438	1446.64
465.81	1455.68
466.183	1460.88
466.555	1505.4
466.928	1489.58
467.3	1503.14
467.672	1512.86
468.045	1562.35
468.417	1582.68
468.789	1581.1
469.161	1596.47
469.534	1650.25
469.906	1670.59
470.278	1658.84
470.65	1704.26
471.022	1739.52
471.394	1776.13
471.766	1782.45
472.138	1821.1
472.51	1818.16
472.882	1880.53
473.253	1873.75
473.625	1915.33
473.997	1956.23
474.369	1969.11
474.74	2005.27
475.112	2033.29
475.484	2088.21
475.855	2139.28
476.227	2139.05
476.598	2185.61
476.97	2200.97
477.341	2256.79
477.713	2330.46
478.084	2316.68
478.455	2358.71
478.827	2426.73
479.198	2468.76
479.569	2493.62
479.94	2553.96
480.311	2590.34
480.682	2675.09
481.053	2708.98
481.424	2771.13
481.795	2825.14
482.166	2880.5
482.537	2894.29
482.908	2935.42
483.279	3017.9
483.65	3070.33
484.021	3134.51
484.391	3203.88
484.762	3247.5
485.133	3266.93
485.503	3390.32
485.874	3420.6
486.244	3397.33
486.615	3543.08
486.985	3570.43
487.356	3627.6
487.726	3680.48
488.097	3745.11
488.467	3789.63
488.837	3864.43
489.207	3951.89
489.578	4051.32
489.948	4042.28
490.318	4108.04
490.688	4139.23
491.058	4254.7
491.428	4290.41
491.798	4355.72
492.168	4440.24
492.538	4492.21
492.908	4563.4
493.278	4583.74
493.648	4611.98
494.017	4654.24
494.387	4716.84
494.757	4805.2
495.126	4848.36
495.496	4880
495.866	4918.64
496.235	4998.41
496.605	5040.45
496.974	5049.26
497.344	5159.77
497.713	5148.69
498.082	5225.75
498.452	5272.3
498.821	5318.41
499.19	5328.12
499.559	5386.2
499.928	5423.04
500.298	5442.7
500.667	5526.76
501.036	5515.01
501.405	5540.32
501.774	5607.44
502.143	5629.58
502.512	5694.44
502.88	5710.26
503.249	5778.05
503.618	5773.31
503.987	5830.26
504.356	5880.42
504.724	5919.29
505.093	6007.88
505.462	6006.52
505.83	6013.08
506.199	6098.5
506.567	6148.89
506.936	6161.32
507.304	6236.35
507.672	6189.57
508.041	6287.42
508.409	6301.88
508.777	6331.49
509.145	6394.54
509.514	6386.63
509.882	6456
510.25	6456.91
510.618	6564.7
510.986	6489.9
511.354	6575.32
511.722	6613.29
512.09	6658.03
512.458	6716.79
512.826	6718.37
513.193	6759.95
513.561	6772.15
513.929	6854.18
514.297	6879.95
514.664	6864.81
515.032	6914.97
515.4	6959.72
515.767	7023.45
516.135	7009.89
516.502	7030.68
516.869	7140.5
517.237	7132.82
517.604	7068.42
517.972	7157.45
518.339	7196.1
518.706	7232.25
519.073	7229.54
519.44	7286.49
519.808	7365.36
520.175	7404.45
520.542	7453.26
520.909	7425.02
521.276	7526.71
521.643	7521.29
522.009	7547.05
522.376	7579.14
522.743	7678.34
523.11	7710.21
523.477	7810.54
523.843	7766.48
524.21	7863.65
524.577	7910.65
524.943	7933.25
525.31	7979.35
525.676	8079.01
526.043	8022.97
526.409	8089.63
526.776	8162.17
527.142	8289.17
527.508	8297.99
527.874	8322.17
528.241	8346.35
528.607	8388.83
528.973	8466.57
529.339	8426.57
529.705	8530.07
530.071	8603.97
530.437	8635.15
530.803	8646.68
531.169	8718.32
531.535	8726
531.901	8742.27
532.267	8810.74
532.632	8869.95
532.998	8885.09
533.364	9003.96
533.73	8971.19
534.095	9042.6
534.461	9111.07
534.826	9079.44
535.192	9131.41
535.557	9205.99
535.923	9162.15
536.288	9245.53
536.653	9348.81
537.019	9268.58
537.384	9339.99
537.749	9394.68
538.114	9394.91
538.479	9409.6
538.845	9459.54
539.21	9507
539.575	9555.36
539.94	9528.46
540.305	9694.34
540.67	9687.1
541.034	9699.53
541.399	9738.18
541.764	9780.89
542.129	9833.99
542.494	9847.78
542.858	9885.52
543.223	9928
543.587	9988.34
543.952	9918.28
544.316	9995.8
544.681	10061.56
545.045	10111.5
545.41	10200.31
545.774	10163.93
546.138	10250.25
546.503	10250.03
546.867	10243.93
547.231	10353.08
547.595	10437.82
547.959	10410.7
548.324	10468.55
548.688	10476.24
549.052	10555.33
549.416	10585.84
549.779	10564.82
550.143	10654.76
550.507	10642.11
550.871	10699.51
551.235	10710.13
551.599	10678.94
551.962	10812.95
552.326	10829.9
552.689	10918.48
553.053	10878.03
553.417	10915.09
553.78	11019.95
554.143	10940.18
554.507	11054.98
554.87	11026.5
555.234	11210.23
555.597	11121.64
555.96	11154.86
556.323	11147.86
556.686	11264.24
557.05	11307.63
557.413	11325.03
557.776	11378.13
558.139	11412.48
558.502	11470.56
558.865	11441.41
559.228	11573.61
559.59	11577.22
559.953	11567.51
560.316	11704.9
560.679	11671.91
561.041	11778.12
561.404	11791.91
561.767	11875.52
562.129	11781.06
562.492	11921.62
562.854	11946.93
563.217	11954.62
563.579	12080.71
563.941	12129.3
564.304	12113.93
564.666	12132.24
565.028	12214.72
565.39	12256.3
565.753	12296.98
566.115	12292.01
566.477	12455.17
566.839	12452.46
567.201	12497.43
567.563	12532
567.925	12629.17
568.287	12680.92
568.648	12646.57
569.01	12738.1
569.372	12816.51
569.734	12694.03
570.095	12856.29
570.457	12901.26
570.819	13034.59
571.18	13003.4
571.542	13121.36
571.903	13094.02
572.265	13218.31
572.626	13217.63
572.987	13315.71
573.349	13278.65
573.71	13442.03
574.071	13481.58
574.432	13490.62
574.794	13679.09
575.155	13658.07
575.516	13680.45
575.877	13830.95
576.238	13893.77
576.599	14008.35
576.96	14066.88
577.32	14178.06
577.681	14273.88
578.042	14299.41
578.403	14427.32
578.763	14548.45
579.124	14691.27
579.485	14770.13
579.845	14937.59
580.206	14945.72
580.566	15183.68
580.927	15237.24
581.287	15477.23
581.648	15498.93
582.008	15764.91
582.368	15728.3
582.728	16049.42
583.089	16212.13
583.449	16393.14
583.809	16527.83
584.169	16703.87
584.529	16900.02
584.889	17274.93
585.249	17386.11
585.609	17512.89
585.969	17791.75
586.329	17885.31
586.688	18150.61
587.048	18386.31
587.408	18627.43
587.768	18849.12
588.127	19079.63
588.487	19364.82
588.846	19585.37
589.206	19774.3
589.565	20011.35
589.925	20494.05
590.284	20690.66
590.643	20985.11
591.003	21254.26
591.362	21573.57
591.721	21852.66
592.08	22097.4
592.44	22357.05
592.799	22627.1
593.158	22908
593.517	23191.61
593.876	23547.08
594.235	23717.02
594.593	24092.37
594.952	24437
595.311	24675.86
595.67	25021.84
596.029	25480.81
596.387	25726.91
596.746	26038.09
597.104	26207.57
597.463	26479.88
597.822	26878.52
598.18	27062.47
598.538	27399.63
598.897	27772.73
599.255	27966.85
599.613	28614.06
599.972	28609.54
600.33	29034.84
600.688	29099.47
601.046	29434.83
601.404	29816.29
601.762	30144.42
602.12	30621.02
602.478	30705.99
602.836	31082.93
603.194	31094.45
603.552	31399.08
603.91	31646.75
604.268	32154.76
604.625	32172.84
604.983	32608.31
605.341	32663
605.698	33093.95
606.056	33455.07
606.413	33556.08
606.771	33920.59
607.128	34122.39
607.485	34185.67
607.843	34299.34
608.2	34815.71
608.557	35205.76
608.914	35283.49
609.272	35567.78
609.629	35800.99
609.986	36038.5
610.343	35995.56
610.7	36674.87
611.057	36809.1
611.414	36845.71
611.771	37008.87
612.127	37345.36
612.484	37548.74
612.841	37768.17
613.198	37948.51
613.554	38048.62
613.911	38368.38
614.267	38645.21
614.624	38659.68
614.98	38799.11
615.337	39248.59
615.693	39081.81
616.05	39300.11
616.406	39658.07
616.762	39670.95
617.118	39682.93
617.475	39872.75
617.831	40240.42
618.187	40277.94
618.543	40380.08
618.899	40786.17
619.255	40797.02
619.611	40881.99
619.967	41037.69
620.323	41142.1
620.678	41375.99
621.034	41152.94
621.39	41326.27
621.746	41308.65
622.101	41996.31
622.457	41762.42
622.812	41818.91
623.168	42134.84
623.523	42172.35
623.879	42350.65
624.234	42133.93
624.589	42424.32
624.945	42457.54
625.3	42601.27
625.655	42666.8
626.01	42793.58
626.365	42840.58
626.72	42707.7
627.075	42921.94
627.43	42869.51
627.785	42772.79
628.14	43049.39
628.495	43089.39
628.85	43225.43
629.205	43048.49
629.559	43285.54
629.914	43152.66
630.269	43291.87
630.623	43251.65
630.978	43310.63
631.332	43498.87
631.687	43580
632.041	43394.01
632.396	43477.4
632.75	43443.05
633.104	43592.43
633.459	43348.14
633.813	43382.94
634.167	43320.57
634.521	43495.93
634.875	43521.92
635.229	43490.28
635.583	43322.6
635.937	43483.5
636.291	43441.24
636.645	43513.56
636.999	43369.16
637.352	43581.58
637.706	43356.05
638.06	43530.28
638.413	43452.77
638.767	43378.87
639.121	43541.81
639.474	43220.23
639.828	43447.12
640.181	43434.47
640.534	43401.7
640.888	43333.9
641.241	43029.28
641.594	43317.63
641.947	43432.21
642.301	43399.89
642.654	43284.41
643.007	43354.92
643.36	43284.86
643.713	43281.93
644.066	43383.39
644.419	43189.95
644.771	42816.4
645.124	42385.45
645.477	42673.81
645.83	42378.22
646.182	42020.49
646.535	42067.27
646.888	42237.21
647.24	42022.98
647.593	42168.28
647.945	42285.57
648.298	42004.45
648.65	41904.11
649.002	41915.41
649.355	42001.06
649.707	41915.86
650.059	42164.67
650.411	42665.22
650.763	42675.84
651.115	43101.82
651.467	42816.18
651.819	42949.28
652.171	42963.74
652.523	42753.58
652.875	42954.25
653.227	42666.35
653.578	42834.26
653.93	42735.27
654.282	42687.14
654.633	42572.79
654.985	42612.79
655.337	42621.83
655.688	42749.06
656.039	42885.1
656.391	42579.8
656.742	42653.24
657.094	42497.54
657.445	42782.96
657.796	42517.88
658.147	42691.43
658.498	42540.03
658.849	42537.31
659.2	42517.2
659.551	42537.09
659.902	42478.56
660.253	42579.8
660.604	42653.24
660.955	42403.76
661.306	42558.1
661.656	42422.51
662.007	42579.12
662.358	42510.65
662.708	42479.69
663.059	42451.44
663.409	42189.53
663.76	42542.29
664.11	42627.48
664.461	42608.95
664.811	42430.2
665.161	42489.41
665.511	42437.88
665.862	42397.43
666.212	42592
666.562	42501.38
666.912	42315.85
667.262	42398.11
667.612	42397.88
667.962	42444.21
668.312	42439.01
668.662	42468.16
669.011	42433.59
669.361	42431.55
669.711	42223.42
670.06	42296.64
670.41	42222.29
670.76	42218.68
671.109	42341.61
671.459	42239.92
671.808	42063.2
672.157	42353.59
672.507	42020.94
672.856	42014.39
673.205	42109.3
673.554	42234.5
673.904	42217.55
674.253	42460.03
674.602	42067.72
674.951	41653.04
675.3	41483.56
675.649	41923.77
675.998	41968.74
676.346	42040.6
676.695	42117.89
677.044	41835.86
677.393	42031.56
677.741	42038.57
678.09	41906.6
678.438	41923.54
678.787	41968.74
679.135	41978.01
679.484	41709.54
679.832	41788.86
680.181	41459.38
680.529	41717.22
680.877	41587.73
681.225	41516.78
681.573	41808.29
681.922	41476.32
682.27	41331.7
682.618	41414.86
682.966	41325.14
683.314	41421.86
683.661	41320.17
684.009	41123.57
684.357	41061.65
684.705	40930.35
685.053	40967.86
685.4	40921.54
685.748	40599.74
686.095	40746.4
686.443	40663.46
686.79	40580.53
687.138	40700.53
687.485	40671.37
687.832	40493.98
688.18	40514.99
688.527	40416.01
688.874	40296.69
689.221	40191.16
689.568	40177.6
689.915	40061.45
690.262	39959.75
690.609	39915.91
690.956	39752.3
691.303	39722.02
691.65	39476.83
691.997	39583.95
692.344	39424.18
692.69	39426.89
693.037	39330.84
693.383	39035.03
693.73	39195.25
694.077	38920.01
694.423	38880.46
694.769	38836.17
695.116	38827.13
695.462	38728.6
695.808	38521.6
696.155	38560.24
696.501	38290.19
696.847	38355.73
697.193	38192.12
697.539	38213.81
697.885	37956.42
698.231	37871
698.577	37999.81
698.923	37831.67
699.269	37705.35
699.614	37360.5
699.96	37447.05
700.306	37534.96
700.651	37184.01
700.997	37145.14
701.342	37094.29
701.688	36963.45
702.033	36915.99
702.379	36952.38
702.724	36758.03
703.069	36922.77
703.415	36515.55
703.76	36565.04
704.105	36527.75
704.45	36479.39
704.795	36329.57
705.14	36182
705.485	36066.07
705.83	36036.24
706.175	35894.78
706.52	35903.59
706.865	35751.96
707.209	35736.59
707.554	35699.3
707.899	35811.39
708.243	35552.64
708.588	35593.09
708.932	35203.04
709.277	35246.88
709.621	35307.45
709.966	35167.34
710.31	34997.17
710.654	34717.18
710.998	34840.34
711.342	34921.02
711.687	34813.9
712.031	34684.64
712.375	34478.54
712.719	34535.94
713.063	34425.89
713.407	34543.63
713.75	34354.48
714.094	34333.69
714.438	34111.09
714.782	34159
715.125	33911.33
715.469	34113.13
715.812	33881.95
716.156	33795.17
716.499	33865.23
716.843	33949.52
717.186	33545.69
717.53	33733.7
717.873	33745.68
718.216	33584.55
718.559	33461.39
718.902	33360.15
719.246	33420.49
719.589	33200.16
719.932	33160.61
720.275	33105.47
720.617	33160.39
720.96	32965.81
721.303	33051.46
721.646	32955.87
721.989	32728.53
722.331	32895.99
722.674	32866.16
723.016	32839.94
723.359	32746.61
723.701	32879.94
724.044	32573.28
724.386	32390.24
724.729	32520.18
725.071	32516.56
725.413	32542.32
725.755	32322.22
726.097	32373.06
726.439	32090.36
726.782	32140.98
727.124	32266.17
727.465	32279.96
727.807	32049.68
728.149	31908.67
728.491	31902.34
728.833	31951.38
729.175	31850.14
729.516	31872.06
729.858	31770.37
730.199	31796.35
730.541	31611.95
730.882	31620.99
731.224	31715
731.565	31563.36
731.906	31605.62
732.248	31524.04
732.589	31351.17
732.93	31194.34
733.271	31387.1
733.612	31392.75
733.953	31410.15
734.294	31179.65
734.635	31178.97
734.976	31144.62
735.317	30983.49
735.658	31000.67
735.999	30892.42
736.339	30869.82
736.68	31005.87
737.021	30876.38
737.361	30757.74
737.702	31035.47
738.042	30718.42
738.383	30722.94
738.723	30707.34
739.063	30607.68
739.404	30587.12
739.744	30594.12
740.084	30505.09
740.424	30546.44
740.764	30513
741.104	30607.01
741.444	30360.46
741.784	30420.34
742.124	30319.1
742.464	30259.22
742.804	30236.85
743.143	30176.06
743.483	30221.03
743.823	30027.81
744.162	30022.39
744.502	30066.68
744.841	29885.22
745.181	29967.25
745.52	29838.44
745.86	30031.65
746.199	29824.2
746.538	29768.61
746.877	29766.12
747.216	29855.61
747.556	29750.98
747.895	29656.97
748.234	29670.76
748.573	29582.63
748.911	29491.33
749.25	29404.78
749.589	29355.97
749.928	29459.01
750.267	29337.43
750.605	29206.59
750.944	29179.92
751.283	28999.59
751.621	29331.56
751.96	28992.81
752.298	29103.99
752.636	28961.85
752.975	28757.11
753.313	28851.57
753.651	28925.47
753.989	28772.25
754.327	28797.56
754.666	28603.22
755.004	28675.31
755.342	28661.97
755.679	28702.42
756.017	28360.06
756.355	28463.56
756.693	28411.13
757.031	28352.38
757.368	28298.59
757.706	28276.67
758.044	28129.56
758.381	28247.52
758.719	28116.9
759.056	28047.3
759.394	28108.99
759.731	27761.43
760.068	27746.52
760.405	27740.41
760.743	27559.18
761.08	27555.11
761.417	27499.07
761.754	27380.65
762.091	27411.16
762.428	27262.69
762.765	27170.26
763.102	27280.31
763.438	26963.94
763.775	26950.15
764.112	27035.35
764.449	27018.85
764.785	26799.65
765.122	26604.63
765.458	26591.74
765.795	26631.52
766.131	26484.85
766.467	26396.04
766.804	26348.36
767.14	26154.02
767.476	26194.69
767.812	25965.09
768.148	26178.42
768.485	25834.02
768.821	25694.59
769.157	25719.45
769.492	25696.63
769.828	25714.03
770.164	25513.58
770.5	25381.61
770.836	25328.05
771.171	25164.89
771.507	25262.06
771.842	25069.3
772.178	25061.84
772.513	24954.27
772.849	24825.01
773.184	24663.21
773.519	24637.45
773.855	24541.18
774.19	24434.29
774.525	24368.53
774.86	24475.42
775.195	24378.47
775.53	24190.45
775.865	24198.13
776.2	23886.05
776.535	23749.11
776.87	23854.19
777.205	23660.75
777.539	23529.45
777.874	23614.65
778.209	23539.62
778.543	23378.04
778.878	23178.73
779.212	23210.36
779.547	23056.47
779.881	23184.38
780.215	22999.3
780.55	22993.19
780.884	22849.02
781.218	22700.32
781.552	22702.81
781.886	22669.59
782.22	22492.64
782.554	22432.98
782.888	22312.99
783.222	22165.42
783.556	22200.67
783.889	21990.06
784.223	21836.62
784.557	21826.9
784.89	21859.21
785.224	21713.23
785.557	21660.8
785.891	21579.45
786.224	21564.31
786.558	21484.31
786.891	21334.71
787.224	21215.84
787.557	21229.17
787.891	21155.5
788.224	21094.04
788.557	21035.96
788.89	21004.77
789.223	21023.53
789.556	20826.25
789.888	20812.46
790.221	20603.65
790.554	20553.48
790.887	20468.06
791.219	20421.74
791.552	20445.69
791.884	20296.32
792.217	20140.16
792.549	20175.64
792.882	20015.87
793.214	19949.66
793.546	20068.75
793.879	19834.63
794.211	19764.58
794.543	19726.84
794.875	19696.78
795.207	19702.66
795.539	19600.52
795.871	19579.73
796.203	19464.47
796.535	19291.6
796.867	19332.73
797.198	19226.29
797.53	19208.44
797.862	19093.86
798.193	19119.85
798.525	19008.89
798.856	19013.41
799.188	18782.23
799.519	18710.37
799.85	18706.53
800.182	18626.08
800.513	18696.13
800.844	18523.93
801.175	18703.14
801.506	18507.21
801.837	18461.56
802.168	18453.2
802.499	18375.01
802.83	18190.38
803.161	18224.05
803.491	18170.27
803.822	18167.33
804.153	18120.33
804.483	17989.03
804.814	17834.46
805.145	17756.04
805.475	17747.46
805.805	17709.04
806.136	17744.97
806.466	17718.76
806.796	17665.65
807.126	17587.69
807.457	17487.12
807.787	17472.21
808.117	17390.63
808.447	17394.92
808.777	17350.41
809.107	17294.36
809.436	17236.51
809.766	17173.01
810.096	17155.61
810.426	17118.55
810.755	17186.34
811.085	17026.8
811.414	16975.05
811.744	16951.77
812.073	16862.51
812.403	16835.62
812.732	16632.01
813.061	16765.79
813.39	16687.15
813.719	16573.7
814.049	16768.73
814.378	16530.09
814.707	16568.28
815.036	16473.14
815.365	16389.07
815.693	16267.95
816.022	16325.12
816.351	16260.72
816.68	16081.51
817.008	16257.78
817.337	16027.95
817.665	15967.39
817.994	16048.07
818.322	16039.71
818.651	15973.94
818.979	15911.35
819.307	16009.2
819.636	15968.52
819.964	15863.21
820.292	15925.81
820.62	15873.61
820.948	15778.47
821.276	15783.21
821.604	15719.49
821.932	15750.45
822.259	15724.69
822.587	15741.86
822.915	15743.44
823.243	15816.66
823.57	15701.64
823.898	15623.22
824.225	15531.24
824.553	15632.48
824.88	15688.3
825.207	15695.76
825.535	15697.12
825.862	15689.66
826.189	15615.08
826.516	15714.52
826.843	15716.1
827.17	15736.21
827.497	15721.75
827.824	15722.88
828.151	15714.97
828.478	15656.66
828.805	15693.95
829.131	15607.63
829.458	15628.19
829.785	15625.93
830.111	15679.26
830.438	15730.79
830.764	15596.33
831.09	15663.67
831.417	15536.89
831.743	15691.24
832.069	15696.21
832.395	15522.2
832.722	15560.17
833.048	15456.67
833.374	15558.14
833.7	15487.18
834.026	15503.45
834.351	15547.51
834.677	15488.31
835.003	15517.69
835.329	15397.46
835.654	15465.71
835.98	15331.02
836.306	15391.36
836.631	15305.71
836.956	15438.82
837.282	15350.23
837.607	15282.21
837.932	15239.5
838.258	15197.92
838.583	15292.15
838.908	15171.48
839.233	15102.78
839.558	15020.75
839.883	15022.33
840.208	15053.06
840.533	15113.85
840.858	14950.24
841.182	15052.39
841.507	15014.42
841.832	14950.69
842.156	14808.78
842.481	14893.52
842.805	14842
843.13	14806.29
843.454	14808.78
843.778	14760.19
844.103	14704.83
844.427	14635.9
844.751	14610.59
845.075	14548.67
845.399	14523.81
845.723	14393.65
846.047	14516.81
846.371	14360.88
846.695	14379.41
847.019	14262.58
847.343	14141.45
847.666	14071.4
847.99	14025.52
848.313	14048.12
848.637	13923.15
848.96	13933.09
849.284	13911.85
849.607	13827.11
849.931	13728.58
850.254	13748.47
850.577	13545.08
850.9	13501.47
851.223	13413.11
851.546	13463.28
851.869	13375.37
852.192	13425.31
852.515	13299.89
852.838	13238.42
853.161	13216.95
853.483	13115.26
853.806	13101.25
854.129	13047.92
854.451	13081.37
854.774	12991.88
855.096	12965.21
855.419	12891.99
855.741	12838.89
856.063	12773.58
856.385	12832.33
856.708	12782.16
857.03	12684.54
857.352	12744.65
857.674	12622.85
857.996	12504.21
858.318	12547.37
858.64	12568.16
858.961	12444.32
859.283	12429.4
859.605	12384.89
859.926	12419.01
860.248	12383.3
860.57	12323.87
860.891	12309.41
861.212	12261.73
861.534	12223.31
861.855	12174.04
862.176	12235.96
862.498	12178.11
862.819	12150.32
863.14	12065.12
863.461	12102.18
863.782	12009.75
864.103	12065.57
864.424	12012.69
864.745	11990.77
865.065	11978.34
865.386	11918.46
865.707	11923.66
866.027	11884.11
866.348	11892.47
866.668	11898.57
866.989	11760.5
867.309	11790.33
867.63	11807.5
867.95	11750.33
868.27	11699.93
868.59	11759.82
868.91	11673.04
869.23	11675.07
869.55	11613.61
869.87	11648.63
870.19	11608.18
870.51	11626.26
870.83	11566.6
871.15	11505.14
871.469	11538.58
871.789	11527.28
872.109	11475.31
872.428	11503.55
872.748	11484.12
873.067	11443.44
873.386	11489.54
873.706	11416.78
874.025	11384.69
874.344	11395.31
874.663	11357.57
874.982	11325.93
875.301	11294.07
875.62	11252.71
875.939	11286.38
876.258	11280.96
876.577	11264.46
876.896	11193.73
877.214	11210.91
877.533	11161.64
877.852	11160.96
878.17	11194.18
878.489	11127.74
878.807	11205.48
879.125	11052.27
879.444	11128.42
879.762	11033.96
880.08	11007.75
880.398	10960.97
880.716	11025.15
881.034	10948.77
881.352	10981.53
881.67	10944.25
881.988	10905.38
882.306	10956
882.624	10822.67
882.941	10765.04
883.259	10710.13
883.577	10767.53
883.894	10719.62
884.212	10698.38
884.529	10695.89
884.846	10676.46
885.164	10637.81
885.481	10605.72
885.798	10635.78
886.115	10546.52
886.432	10507.42
886.75	10546.74
887.067	10549
887.383	10478.5
887.7	10486.63
888.017	10453.64
888.334	10401.21
888.651	10387.42
888.967	10303.36
889.284	10284.15
889.6	10327.77
889.917	10249.35
890.233	10225.17
890.55	10173.19
890.866	10187.88
891.182	10174.55
891.498	10177.49
891.815	10122.35
892.131	10057.94
892.447	10028.34
892.763	10005.51
893.079	9980.66
893.395	9956.48
893.71	9934.56
894.026	9915.35
894.342	9908.34
894.657	9819.3
894.973	9792.19
895.289	9779.98
895.604	9755.8
895.92	9706.09
896.235	9658.86
896.55	9647.56
896.865	9597.61
897.181	9509.48
897.496	9571.17
897.811	9491.18
898.126	9423.38
898.441	9425.42
898.756	9384.51
899.071	9339.77
899.386	9329.83
899.7	9227.46
900.015	9268.36
900.33	9154.46
900.644	9226.78
900.959	9203.05
901.273	9170.96
901.588	9142.26
901.902	9053.45
902.216	9047.35
902.531	9048.02
902.845	8957.63
903.159	8936.16
903.473	8924.19
903.787	8867.92
904.101	8837.86
904.415	8801.48
904.729	8850.97
905.042	8760.57
905.356	8751.54
905.67	8721.03
905.984	8663.63
906.297	8652.1
906.611	8553.57
906.924	8572.78
907.237	8582.73
907.551	8469.96
907.864	8488.94
908.177	8489.4
908.491	8377.53
908.804	8383.86
909.117	8361.49
909.43	8258.89
909.743	8228.84
910.056	8195.39
910.368	8170.08
910.681	8098.9
910.994	8127.37
911.307	8069.07
911.619	8034.72
911.932	8025.45
912.244	7928.51
912.557	7949.3
912.869	7989.52
913.181	7902.07
913.494	7887.83
913.806	7889.86
914.118	7841.73
914.43	7676.08
914.742	7735.52
915.054	7704.78
915.366	7705.24
915.678	7667.72
915.99	7612.81
916.302	7555.18
916.613	7496.2
916.925	7498.24
917.236	7536.2
917.548	7468.41
917.859	7413.27
918.171	7349.09
918.482	7312.7
918.794	7325.13
919.105	7347.96
919.416	7238.58
919.727	7270.44
920.038	7171.46
920.349	7119.26
920.66	7136.66
920.971	7162.42
921.282	7102.31
921.593	7048.98
921.903	7037.91
922.214	6982.99
922.525	6923.56
922.835	6938.7
923.146	6866.61
923.456	6893.96
923.767	6799.95
924.077	6843.11
924.387	6791.81
924.697	6752.27
925.008	6724.7
925.318	6631.37
925.628	6686.73
925.938	6682.89
926.248	6588.2
926.558	6619.84
926.867	6563.12
927.177	6586.85
927.487	6467.08
927.796	6459.84
928.106	6433.86
928.416	6428.21
928.725	6381.43
929.034	6372.16
929.344	6320.41
929.653	6371.94
929.962	6350.24
930.271	6244.93
930.581	6257.36
930.89	6218.49
931.199	6224.37
931.508	6196.57
931.817	6192.28
932.125	6107.76
932.434	6078.84
932.743	6052.4
933.051	5979.18
933.36	5941.44
933.669	5923.36
933.977	5969.46
934.286	5919.29
934.594	5919.52
934.902	5826.41
935.21	5832.06
935.519	5807.43
935.827	5797.04
936.135	5750.48
936.443	5661.22
936.751	5655.57
937.059	5684.72
937.367	5660.09
937.674	5618.96
937.982	5637.04
938.29	5546.2
938.597	5599.3
938.905	5529.7
939.213	5537.61
939.52	5469.36
939.827	5525.86
940.135	5462.36
940.442	5448.57
940.749	5442.7
941.056	5437.95
941.363	5359.53
941.67	5362.25
941.977	5332.64
942.284	5285.19
942.591	5267.11
942.898	5176.04
943.205	5206.77
943.511	5197.5
943.818	5176.04
944.125	5119.09
944.431	5167.67
944.738	5116.38
945.044	5073.67
945.35	5080.67
945.657	5025.53
945.963	4991.41
946.269	5014.68
946.575	4975.36
946.881	4918.87
947.187	4894.24
947.493	4928.13
947.799	4907.79
948.105	4856.72
948.41	4803.39
948.716	4822.37
949.022	4816.27
949.327	4843.39
949.633	4757.97
949.938	4752.54
950.244	4713.45
950.549	4633.9
950.854	4663.28
951.16	4688.14
951.465	4633.45
951.77	4599.33
952.075	4602.94
952.38	4569.27
952.685	4558.43
952.99	4540.8
953.294	4531.76
953.599	4470.97
953.904	4457.41
954.209	4427.58
954.513	4481.82
954.818	4432.33
955.122	4416.51
955.426	4333.8
955.731	4372.89
956.035	4321.37
956.339	4290.18
956.643	4322.5
956.948	4284.31
957.252	4238.21
957.556	4248.6
957.86	4262.39
958.163	4219.9
958.467	4222.84
958.771	4150.53
959.075	4160.7
959.378	4129.74
959.682	4136.52
959.985	4111.88
960.289	4081.83
960.592	4051.09
960.896	4039.34
961.199	4000.7
961.502	4037.54
961.805	4009.97
962.108	3979.68
962.411	3975.16
962.714	3957.99
963.017	3955.28
963.32	3917.76
963.623	3902.17
963.926	3885.45
964.228	3878.44
964.531	3821.95
964.833	3820.14
965.136	3809.52
965.438	3795.73
965.741	3791.44
966.043	3747.15
966.345	3739.46
966.648	3716.87
966.95	3742.63
967.252	3703.76
967.554	3664.21
967.856	3671.44
968.158	3637.77
968.46	3606.13
968.761	3596.42
969.063	3611.11
969.365	3615.17
969.666	3554.16
969.968	3524.78
970.269	3517.77
970.571	3540.82
970.872	3517.1
971.174	3482.52
971.475	3505.57
971.776	3506.48
972.077	3431.68
972.378	3447.72
972.679	3421.28
972.98	3446.36
973.281	3413.14
973.582	3353.49
973.883	3369.76
974.183	3339.25
974.484	3345.12
974.785	3285.24
975.085	3284.56
975.386	3271.68
975.686	3285.24
975.986	3278.46
976.287	3291.79
976.587	3189.42
976.887	3218.12
977.187	3201.4
977.487	3203.88
977.787	3187.16
978.087	3184.9
978.387	3122.3
978.687	3125.02
978.987	3112.14
979.286	3082.08
979.586	3086.6
979.885	3063.55
980.185	3044.34
980.484	3057.67
980.784	3065.81
981.083	3012.93
981.382	2980.16
981.682	3005.47
981.981	2988.07
982.28	2950.33
982.579	2968.64
982.878	2945.59
983.177	2923.21
983.475	2892.25
983.774	2892.03
984.073	2890.67
984.372	2902.2
984.67	2885.02
984.969	2839.83
985.267	2800.51
985.566	2823.78
985.864	2815.19
986.162	2788.53
986.461	2807.74
986.759	2766.16
987.057	2747.4
987.355	2746.04
987.653	2792.37
987.951	2747.17
988.249	2702.43
988.547	2704.01
988.844	2682.32
989.142	2690.23
989.44	2647.52
989.737	2650.68
990.035	2659.27
990.332	2611.13
990.63	2563.9
990.927	2598.25
991.224	2602.54
991.521	2557.35
991.819	2556.67
992.116	2544.24
992.413	2540.63
992.71	2541.98
993.006	2523
993.303	2519.83
993.6	2470.8
993.897	2507.63
994.193	2479.84
994.49	2463.79
994.787	2473.73
995.083	2430.8
995.379	2437.13
995.676	2410.23
995.972	2395.32
996.268	2384.92
996.565	2368.88
996.861	2383.34
997.157	2374.53
997.453	2311.7
997.749	2321.2
998.044	2338.14
998.34	2345.15
998.636	2304.93
998.932	2277.36
999.227	2269.45
999.523	2262.44
999.818	2257.92
1000.114	2262.67
1000.409	2225.38
1000.704	2233.29
1001	2204.81
1001.295	2187.41
1001.59	2189
1001.885	2163.46
1002.18	2126.62
1002.475	2121.2
1002.77	2136.57
1003.065	2120.75
1003.359	2096.34
1003.654	2096.12
1003.949	2109.9
1004.243	2065.16
1004.538	2069.68
1004.832	2055.89
1005.127	2026.06
1005.421	2038.04
1005.715	2003.69
1006.009	1990.36
1006.304	1967.31
1006.598	1977.7
1006.892	1965.5
1007.186	1972.05
1007.48	1935.22
1007.773	1965.95
1008.067	1895.9
1008.361	1886.18
1008.655	1910.59
1008.948	1861.1
1009.242	1899.74
1009.535	1895.44
1009.829	1874.65
1010.122	1832.85
1010.415	1862.9
1010.708	1861.1
1011.001	1832.4
1011.295	1818.84
1011.588	1805.73
1011.881	1755.79
1012.173	1785.39
1012.466	1786.52
1012.759	1797.14
1013.052	1755.56
1013.344	1756.69
1013.637	1733.87
1013.93	1700.2
1014.222	1718.73
1014.514	1691.38
1014.807	1673.76
1015.099	1677.82
1015.391	1662.23
1015.683	1686.64
1015.976	1671.95
1016.268	1645.96
1016.56	1629.24
1016.851	1627.43
1017.143	1618.84
1017.435	1614.32
1017.727	1576.58
1018.018	1564.38
1018.31	1600.54
1018.602	1572.29
1018.893	1559.86
1019.185	1553.08
1019.476	1537.94
1019.767	1532.52
1020.058	1556.92
1020.35	1485.29
1020.641	1479.18
1020.932	1490.94
1021.223	1483.93
1021.514	1465.85
1021.804	1442.35
1022.095	1479.86
1022.386	1451.61
1022.677	1429.92
1022.967	1396.93
1023.258	1402.58
1023.548	1395.12
1023.839	1379.75
1024.129	1404.84
1024.419	1349.7
1024.709	1374.1
1025	1375.01
1025.29	1364.84
1025.58	1330.49
1025.87	1331.84
1026.16	1325.74
1026.449	1325.74
1026.739	1305.86
1027.029	1309.7
1027.319	1291.17
1027.608	1275.35
1027.898	1271.96
1028.187	1286.42
1028.477	1241
1028.766	1241.22
1029.055	1218.17
1029.344	1227.67
1029.634	1189.7
1029.923	1228.34
1030.212	1219.3
1030.501	1212.07
1030.79	1203.26
1031.078	1175.69
1031.367	1173.2
1031.656	1158.51
1031.945	1152.19
1032.233	1135.01
1032.522	1129.14
1032.81	1124.62
1033.099	1120.1
1033.387	1116.48
1033.675	1115.13
1033.963	1081.68
1034.251	1104.28
1034.54	1098.4
1034.828	1076.48
1035.116	1080.1
1035.403	1042.59
1035.691	1028.8
1035.979	1043.04
1036.267	1045.52
1036.554	1049.59
1036.842	1029.7
1037.129	1056.82
1037.417	1031.06
1037.704	1014.56
1037.992	991.97
1038.279	986.54
1038.566	980.44
1038.853	980.44
1039.14	980.44
