Data from hue_26_FLMS001491_00070.txt Node
Date: Tue Feb 07 17:14:22 GMT 2017
User: dcchb
Spectrometer: FLMS00149
Trigger mode: 0
Integration Time (sec): 2.000000E-2
Scans to average: 10
Electric dark correction enabled: true
Nonlinearity correction enabled: false
Boxcar width: 0
XAxis mode: Wavelengths
Number of Pixels in Spectrum: 2048
>>>>>Begin Spectral Data<<<<<
341.393	0.85
341.776	0.85
342.16	0.85
342.543	-49.09
342.927	-62.88
343.31	-82.31
343.693	-80.96
344.077	-66.27
344.46	-66.95
344.843	-59.72
345.226	-29.43
345.61	-55.42
345.993	-17.23
346.376	25.71
346.759	20.06
347.142	28.87
347.525	31.81
347.908	80.62
348.291	69.55
348.674	101.41
349.057	100.28
349.44	135.53
349.823	166.49
350.206	159.26
350.588	185.25
350.971	224.12
351.354	233.16
351.737	244
352.119	241.29
352.502	272.48
352.884	297.11
353.267	294.4
353.65	292.82
354.032	315.42
354.414	306.15
354.797	312.03
355.179	333.72
355.562	322.42
355.944	331.23
356.326	342.31
356.709	339.14
357.091	349.54
357.473	355.19
357.855	367.17
358.238	344.57
358.62	352.02
359.002	359.48
359.384	355.19
359.766	350.22
360.148	363.55
360.53	379.82
360.912	355.41
361.294	350.22
361.676	354.28
362.057	381.63
362.439	346.15
362.821	333.72
363.203	352.02
363.584	327.62
363.966	340.5
364.348	338.01
364.729	347.28
365.111	342.76
365.493	310.9
365.874	346.15
366.256	318.35
366.637	333.72
367.019	321.97
367.4	343.21
367.781	317.68
368.163	305.7
368.544	324.23
368.925	326.71
369.306	337.11
369.688	329.43
370.069	322.19
370.45	340.5
370.831	316.09
371.212	334.4
371.593	330.78
371.974	339.14
372.355	328.3
372.736	330.1
373.117	334.85
373.498	350.89
373.879	318.35
374.26	321.29
374.641	323.78
375.021	326.26
375.402	337.11
375.783	345.02
376.163	351.12
376.544	351.8
376.925	363.1
377.305	329.65
377.686	355.64
378.066	363.78
378.447	355.87
378.827	359.26
379.208	357
379.588	350.44
379.968	366.94
380.349	348.63
380.729	361.97
381.109	380.5
381.489	361.97
381.87	341.86
382.25	362.19
382.63	348.18
383.01	372.59
383.39	356.09
383.77	379.82
384.15	354.96
384.53	375.3
384.91	381.4
385.29	395.19
385.67	350.22
386.049	386.83
386.429	365.58
386.809	379.82
387.189	358.13
387.568	387.5
387.948	383.89
388.328	391.12
388.707	390.89
389.087	396.32
389.466	373.94
389.846	393.15
390.225	382.76
390.605	399.48
390.984	375.07
391.363	400.61
391.743	408.07
392.122	388.86
392.501	383.89
392.881	393.61
393.26	387.28
393.639	414.62
394.018	406.71
394.397	408.29
394.776	420.72
395.155	424.34
395.534	422.08
395.913	413.04
396.292	415.07
396.671	420.5
397.05	413.49
397.429	408.97
397.808	435.41
398.186	415.07
398.565	437.22
398.944	413.49
399.323	426.82
399.701	416.66
400.08	430.89
400.458	437.45
400.837	433.6
401.215	453.49
401.594	447.39
401.972	455.3
402.351	457.11
402.729	461.4
403.107	450.55
403.486	448.52
403.864	467.28
404.242	452.59
404.62	450.1
404.999	459.59
405.377	459.37
405.755	466.82
406.133	466.15
406.511	468.18
406.889	484.45
407.267	493.49
407.645	488.74
408.023	485.81
408.401	498.46
408.779	493.04
409.156	490.33
409.534	499.14
409.912	506.37
410.29	514.05
410.667	506.82
411.045	509.99
411.422	525.13
411.8	524
412.178	516.31
412.555	535.97
412.933	515.18
413.31	540.72
413.687	538.91
414.065	542.98
414.442	531
414.819	543.21
415.197	552.02
415.574	550.44
415.951	538.23
416.328	551.57
416.705	569.19
417.082	539.14
417.46	554.73
417.837	582.08
418.214	588.85
418.591	581.62
418.967	570.1
419.344	622.07
419.721	585.69
420.098	586.37
420.475	590.89
420.852	594.05
421.228	615.07
421.605	620.27
421.982	608.29
422.358	619.59
422.735	616.88
423.111	617.78
423.488	655.97
423.864	649.19
424.241	644.67
424.617	641.51
424.994	646.25
425.37	645.58
425.746	671.34
426.123	645.8
426.499	673.15
426.875	669.76
427.251	694.16
427.627	692.81
428.003	684.9
428.379	714.28
428.756	683.54
429.132	712.69
429.507	718.12
429.883	712.02
430.259	714.95
430.635	745.91
431.011	762.86
431.387	747.72
431.763	762.86
432.138	757.44
432.514	768.74
432.89	780.71
433.265	799.02
433.641	811.45
434.016	776.65
434.392	808.74
434.767	820.49
435.143	833.37
435.518	801.5
435.894	860.49
436.269	824.78
436.644	849.64
437.02	852.35
437.395	855.97
437.77	855.51
438.145	865.23
438.52	887.83
438.895	881.73
439.271	886.7
439.646	912.91
440.021	899.81
440.395	896.87
440.77	910.2
441.145	904.33
441.52	931.22
441.895	926.02
442.27	942.97
442.645	937.77
443.019	936.19
443.394	953.14
443.769	960.14
444.143	937.32
444.518	981.39
444.892	966.7
445.267	980.48
445.641	985.91
446.016	978.22
446.39	988.39
446.764	979.8
447.139	999.01
447.513	997.43
447.887	1009.18
448.262	1023.42
448.636	1019.13
449.01	1036.98
449.384	1024.32
449.758	1045.11
450.132	1057.77
450.506	1054.83
450.88	1056.64
451.254	1058.45
451.628	1090.54
452.002	1088.73
452.376	1108.16
452.75	1106.81
453.123	1127.15
453.497	1156.07
453.871	1154.04
454.244	1160.14
454.618	1173.7
454.992	1189.06
455.365	1162.62
455.739	1199.69
456.112	1215.05
456.486	1221.38
456.859	1215.5
457.232	1246.01
457.606	1242.17
457.979	1273.58
458.352	1277.42
458.725	1311.1
459.099	1305.67
459.472	1356.74
459.845	1341.6
460.218	1341.6
460.591	1342.96
460.964	1356.07
461.337	1375.5
461.71	1404.43
462.083	1415.95
462.456	1429.28
462.829	1449.17
463.201	1474.71
463.574	1474.26
463.947	1521.71
464.32	1527.59
464.692	1528.26
465.065	1544.54
465.438	1575.04
465.81	1578.43
466.183	1581.82
466.555	1623.4
466.928	1646
467.3	1617.75
467.672	1662.72
468.045	1704.76
468.417	1692.55
468.789	1724.19
469.161	1738.88
469.534	1756.96
469.906	1808.03
470.278	1808.71
470.65	1864.53
471.022	1887.13
471.394	1932.77
471.766	1910.4
472.138	1951.53
472.51	1980.68
472.882	2021.59
473.253	2062.26
473.625	2079.21
473.997	2141.58
474.369	2140
474.74	2169.15
475.112	2198.3
475.484	2251.18
475.855	2270.84
476.227	2307.45
476.598	2375.47
476.97	2393.33
477.341	2473.1
477.713	2510.16
478.084	2517.84
478.455	2596.94
478.827	2589.48
479.198	2708.8
479.569	2702.7
479.94	2756.48
480.311	2784.5
480.682	2864.73
481.053	2943.82
481.424	2983.59
481.795	3053.2
482.166	3079.18
482.537	3111.5
482.908	3210.03
483.279	3241.89
483.65	3289.57
484.021	3367.31
484.391	3410.93
484.762	3464.03
485.133	3472.62
485.503	3595.78
485.874	3632.62
486.244	3686.63
486.615	3792.61
486.985	3826.74
487.356	3896.79
487.726	3911.93
488.097	4017.46
488.467	4063.57
488.837	4172.49
489.207	4193.73
489.578	4272.83
489.948	4311.47
490.318	4334.74
490.688	4402.77
491.058	4508.07
491.428	4566.38
491.798	4600.27
492.168	4707.39
492.538	4721.85
492.908	4809.08
493.278	4851.57
493.648	4901.74
494.017	4954.16
494.387	4986.03
494.757	5089.08
495.126	5150.99
495.496	5112.35
495.866	5191.45
496.235	5311.67
496.605	5297.21
496.974	5340.37
497.344	5387.6
497.713	5397.09
498.082	5462.85
498.452	5557.54
498.821	5557.76
499.19	5676.86
499.559	5677.08
499.928	5674.6
500.298	5744.65
500.667	5809.73
501.036	5825.55
501.405	5869.85
501.774	5859.45
502.143	5924.08
502.512	6059.45
502.88	6066.68
503.249	6007.02
503.618	6133.12
503.987	6138.54
504.356	6140.8
504.724	6240.46
505.093	6227.58
505.462	6266.67
505.83	6318.2
506.199	6364.3
506.567	6475.93
506.936	6416.5
507.304	6504.18
507.672	6489.26
508.041	6521.35
508.409	6520.22
508.777	6620.33
509.145	6719.99
509.514	6668.92
509.882	6714.57
510.25	6730.84
510.618	6774.45
510.986	6789.82
511.354	6854.45
511.722	6887.67
512.09	6972.64
512.458	6960.44
512.826	7018.97
513.193	7069.81
513.561	7075.92
513.929	7113.65
514.297	7150.94
514.664	7243.82
515.032	7250.83
515.4	7247.21
515.767	7302.35
516.135	7359.98
516.502	7258.51
516.869	7396.13
517.237	7442.01
517.604	7398.85
517.972	7501.22
518.339	7526.75
518.706	7567.65
519.073	7536.92
519.44	7629.57
519.808	7673.41
520.175	7707.76
520.542	7793.18
520.909	7757.93
521.276	7841.77
521.643	7898.94
522.009	7945.95
522.376	7987.53
522.743	8026.85
523.11	8097.36
523.477	8168.99
523.843	8216.68
524.21	8254.19
524.577	8307.3
524.943	8272.72
525.31	8392.49
525.676	8421.87
526.043	8451.25
526.409	8498.7
526.776	8589.1
527.142	8670.68
527.508	8653.73
527.874	8749.77
528.241	8749.32
528.607	8790.45
528.973	8821.18
529.339	8843.55
529.705	8993.83
530.071	8969.43
530.437	9038.35
530.803	9044
531.169	9206.26
531.535	9229.08
531.901	9202.64
532.267	9207.61
532.632	9292.58
532.998	9302.52
533.364	9406.93
533.73	9406.7
534.095	9419.13
534.461	9488.28
534.826	9560.14
535.192	9554.04
535.557	9659.12
535.923	9616.41
536.288	9639.69
536.653	9708.16
537.019	9749.97
537.384	9814.83
537.749	9809.63
538.114	9855.28
538.479	9934.82
538.845	10032
539.21	9996.29
539.575	10017.53
539.94	10124.65
540.305	10108.83
540.67	10114.48
541.034	10182.95
541.399	10243.97
541.764	10274.93
542.129	10357.41
542.494	10356.96
542.858	10395.6
543.223	10466.56
543.587	10464.98
543.952	10500.91
544.316	10526.22
544.681	10521.7
545.045	10593.11
545.41	10713.33
545.774	10699.32
546.138	10738.42
546.503	10765.31
546.867	10757.85
547.231	10927.34
547.595	10917.4
547.959	10933.22
548.324	10923.27
548.688	11008.92
549.052	11001.91
549.416	11094.12
549.779	11176.82
550.143	11153.77
550.507	11194.9
550.871	11268.12
551.235	11295.47
551.599	11365.29
551.962	11348.12
552.326	11439.87
552.689	11399.42
553.053	11352.64
553.417	11451.62
553.78	11629.69
554.143	11586.08
554.507	11655.91
554.87	11659.3
555.234	11709.24
555.597	11724.83
555.96	11758.96
556.323	11845.73
556.686	11822.46
557.05	11918.95
557.413	11984.04
557.776	11933.64
558.139	12075.33
558.502	12107.87
558.865	12117.82
559.228	12189
559.59	12213.63
559.953	12271.49
560.316	12416.34
560.679	12366.17
561.041	12452.72
561.404	12473.97
561.767	12555.09
562.129	12519.39
562.492	12624.47
562.854	12643.23
563.217	12612.95
563.579	12630.57
563.941	12772.94
564.304	12799.83
564.666	12930.9
565.028	12931.35
565.39	12972.48
565.753	13047.51
566.115	13094.97
566.477	13087.28
566.839	13204.12
567.201	13240.73
567.563	13278.46
567.925	13313.27
568.287	13318.24
568.648	13480.72
569.01	13508.06
569.372	13496.09
569.734	13498.12
570.095	13660.6
570.457	13738.11
570.819	13726.81
571.18	13777.89
571.542	13917.32
571.903	13902.63
572.265	13980.14
572.626	14016.3
572.987	14080.03
573.349	14040.48
573.71	14214.03
574.071	14340.58
574.432	14360.92
574.794	14512.56
575.155	14556.85
575.516	14562.5
575.877	14622.84
576.238	14698.77
576.599	14825.77
576.96	14840.91
577.32	14984.41
577.681	15096.04
578.042	15197.74
578.403	15214.01
578.763	15319.54
579.124	15422.81
579.485	15616.26
579.845	15653.54
580.206	15857.61
580.566	15968.11
580.927	16079.07
581.287	16249.46
581.648	16451.94
582.008	16587.53
582.368	16671.37
582.728	16924.7
583.089	17006.5
583.449	17177.57
583.809	17401.75
584.169	17648.07
584.529	17766.71
584.889	17998.57
585.249	18119.02
585.609	18270.88
585.969	18688.72
586.329	18965.55
586.688	19139.33
587.048	19271.08
587.408	19558.98
587.768	19863.6
588.127	19949.48
588.487	20257.04
588.846	20586.97
589.206	20781.54
589.565	21113.51
589.925	21537.23
590.284	21602.09
590.643	22106.71
591.003	22306.93
591.362	22700.59
591.721	22908.27
592.08	23230.07
592.44	23598.42
592.799	23821.69
593.158	24198.86
593.517	24513.2
593.876	24946.41
594.235	25227.53
594.593	25516.56
594.952	25891.69
595.311	26189.76
595.67	26500.94
596.029	26891.21
596.387	27205.1
596.746	27650.29
597.104	27739.1
597.463	28189.71
597.822	28565.97
598.18	28729.13
598.538	29168.44
598.897	29631.48
599.255	29743.34
599.613	30504
599.972	30531.57
600.33	31036.42
600.688	31285.67
601.046	31753.23
601.404	31967.69
601.762	32305.08
602.12	32715.69
602.478	33042.01
602.836	33301.67
603.194	33522.9
603.552	33855.55
603.91	33959.73
604.268	34541.86
604.625	34698.92
604.983	35132.35
605.341	35125.35
605.698	35737.53
606.056	35943.41
606.413	36215.94
606.771	36544.97
607.128	36865.19
607.485	36975.02
607.843	37230.6
608.2	37723.47
608.557	37880.98
608.914	38089.56
609.272	38541.75
609.629	38818.81
609.986	39161.4
610.343	39138.12
610.7	39637.55
611.057	39780.37
611.414	39943.98
611.771	40069.17
612.127	40600.01
612.484	40730.85
612.841	40924.07
613.198	41124.96
613.554	41212.65
613.911	41609.7
614.267	41771.27
614.624	41938.73
614.98	42176.01
615.337	42552.5
615.693	42585.26
616.05	42689.22
616.406	43013.5
616.762	43086.72
617.118	43174.4
617.475	43380.27
617.831	43482.64
618.187	43780.94
618.543	44040.37
618.899	44269.06
619.255	44256.18
619.611	44335.27
619.967	44553.8
620.323	44661.59
620.678	44894.13
621.034	44861.14
621.39	45038.53
621.746	45064.75
622.101	45561.01
622.457	45255.25
622.812	45429.03
623.168	45661.12
623.523	45796.25
623.879	45916.93
624.234	45790.6
624.589	46051.61
624.945	46110.37
625.3	46205.28
625.655	46285.96
626.01	46414.77
626.365	46513.97
626.72	46483.02
627.075	46586.29
627.43	46607.53
627.785	46469.46
628.14	46755.1
628.495	46810.46
628.85	46723.46
629.205	46685.04
629.559	47048.2
629.914	46796
630.269	46928.43
630.623	46995.09
630.978	46899.95
631.332	47016.33
631.687	47200.06
632.041	47064.92
632.396	47180.85
632.75	47104.02
633.104	47200.96
633.459	47059.95
633.813	47092.04
634.167	47159.16
634.521	47250.45
634.875	47197.8
635.229	47203
635.583	47026.28
635.937	47143.11
636.291	47129.33
636.645	47187.63
636.999	46921.42
637.352	47175.43
637.706	47023.34
638.06	47165.26
638.413	47105.15
638.767	47047.97
639.121	47125.94
639.474	46973.17
639.828	47067.86
640.181	47083.68
640.534	47117.8
640.888	46991.02
641.241	46814.53
641.594	46994.87
641.947	47081.64
642.301	46873.29
642.654	47046.16
643.007	46863.57
643.36	46882.1
643.713	46888.43
644.066	47057.92
644.419	46883.46
644.771	46633.75
645.124	46079.41
645.477	46097.26
645.83	45881.67
646.182	45852.3
646.535	45615.47
646.888	45860.21
647.24	45488.69
647.593	45773.43
647.945	45754.67
648.298	45606.65
648.65	45528.01
649.002	45460.9
649.355	45523.94
649.707	45436.49
650.059	45712.41
650.411	46225.17
650.763	46154.66
651.115	46669
651.467	46398.95
651.819	46512.84
652.171	46409.8
652.523	46309.69
652.875	46461.77
653.227	46187.2
653.578	46392.17
653.93	46277.14
654.282	46275.56
654.633	46223.81
654.985	46288.44
655.337	46372.06
655.688	46276.24
656.039	46373.19
656.391	46026.53
656.742	46090.26
657.094	46148.56
657.445	46262.23
657.796	46154.21
658.147	46130.26
658.498	46113.76
658.849	46219.29
659.2	46151.95
659.551	45943.59
659.902	46214.32
660.253	46056.59
660.604	46044.61
660.955	45949.47
661.306	46186.3
661.656	45944.95
662.007	46090.48
662.358	45929.58
662.708	46047.32
663.059	46038.51
663.409	45785.63
663.76	46076.47
664.11	45956.7
664.461	46020.88
664.811	46018.39
665.161	45997.38
665.511	45953.09
665.862	45831.96
666.212	46022.24
666.562	46044.16
666.912	45956.48
667.262	45742.92
667.612	45802.81
667.962	45949.24
668.312	45865.4
668.662	45960.09
669.011	45932.07
669.361	45762.81
669.711	45864.27
670.06	45862.01
670.41	45812.98
670.76	45730.94
671.109	45734.79
671.459	45785.41
671.808	45698.4
672.157	45812.07
672.507	45521.91
672.856	45548.35
673.205	45565.53
673.554	45610.95
673.904	45545.64
674.253	45737.5
674.602	45682.36
674.951	45032.66
675.3	44772.33
675.649	45469.26
675.998	45440.33
676.346	45404.17
676.695	45531.18
677.044	45354.46
677.393	45385.19
677.741	45383.83
678.09	45269.49
678.438	45204.86
678.787	45305.42
679.135	45250.96
679.484	45139.32
679.832	45177.29
680.181	44907.01
680.529	45066.1
680.877	44958.31
681.225	44960.8
681.573	45225.2
681.922	44848.93
682.27	44733
682.618	44802.16
682.966	44676.28
683.314	44820.91
683.661	44614.14
684.009	44495.72
684.357	44359.68
684.705	44393.58
685.053	44399.45
685.4	44221.83
685.748	44145
686.095	44134.15
686.443	44037.2
686.79	43941.16
687.138	44065
687.485	44053.02
687.832	43749.98
688.18	43815.51
688.527	43578.01
688.874	43491
689.221	43510.44
689.568	43367.62
689.915	43330.56
690.262	43284.46
690.609	43199.94
690.956	43074.52
691.303	43013.28
691.65	42921.75
691.997	42872.04
692.344	42554.08
692.69	42599.28
693.037	42706.39
693.383	42246.74
693.73	42371.94
694.077	42149.34
694.423	42096.24
694.769	42225.5
695.116	41928.56
695.462	42004.04
695.808	41852.63
696.155	41892.4
696.501	41637.04
696.847	41718.85
697.193	41406.76
697.539	41492.41
697.885	41101.91
698.231	41145.3
698.577	41103.95
698.923	41041.35
699.269	40840
699.614	40579.44
699.96	40541.02
700.306	40545.77
700.651	40391.2
700.997	40250.41
701.342	40163.18
701.688	40080.7
702.033	40118.89
702.379	40023.52
702.724	39947.82
703.069	40109.4
703.415	39689.97
703.76	39712.12
704.105	39544.89
704.45	39530.43
704.795	39280.72
705.14	39209.53
705.485	39166.15
705.83	38873.95
706.175	39028.97
706.52	38920.73
706.865	38788.53
707.209	38777.68
707.554	38635.09
707.899	38674.41
708.243	38453.62
708.588	38515.31
708.932	38111.94
709.277	38132.95
709.621	38157.81
709.966	37864.03
710.31	38011.37
710.654	37731.61
710.998	37721.66
711.342	37825.84
711.687	37760.08
712.031	37593.76
712.375	37386.08
712.719	37514.66
713.063	37332.52
713.407	37403.93
713.75	37375.23
714.094	37103.37
714.438	37067.67
714.782	36980.44
715.125	36896.83
715.469	37018.63
715.812	36742.71
716.156	36562.37
716.499	36628.13
716.843	36652.09
717.186	36413.68
717.53	36671.97
717.873	36655.48
718.216	36429.95
718.559	36425.88
718.902	36141.37
719.246	36042.61
719.589	36179.56
719.932	35989.73
720.275	35921.94
720.617	35847.81
720.96	35763.97
721.303	35783.86
721.646	35814.37
721.989	35569.4
722.331	35730.08
722.674	35555.84
723.016	35675.84
723.359	35524.21
723.701	35547.71
724.044	35177.1
724.386	35145.23
724.729	35312.24
725.071	35126.48
725.413	35225.68
725.755	35058.68
726.097	34922.87
726.439	34828.41
726.782	34758.13
727.124	34960.61
727.465	34894.39
727.807	34878.35
728.149	34727.84
728.491	34699.6
728.833	34611.46
729.175	34509.09
729.516	34522.43
729.858	34458.92
730.199	34371.7
730.541	34206.05
730.882	34228.2
731.224	34354.97
731.565	34051.03
731.906	34090.8
732.248	34152.49
732.589	33978.94
732.93	33885.83
733.271	33953.63
733.612	33829.56
733.953	33813.52
734.294	33682.45
734.635	33750.92
734.976	33765.16
735.317	33564.03
735.658	33483.58
735.999	33618.72
736.339	33444.04
736.68	33645.39
737.021	33439.29
737.361	33242.01
737.702	33486.29
738.042	33271.16
738.383	33365.39
738.723	33393.19
739.063	33148.22
739.404	33123.37
739.744	33128.79
740.084	33037.72
740.424	33064.38
740.764	32876.14
741.104	32887.21
741.444	32835.46
741.784	32728.8
742.124	32844.5
742.464	32758.18
742.804	32691.29
743.143	32618.75
743.483	32581.91
743.823	32276.61
744.162	32380.34
744.502	32304.86
744.841	32261.47
745.181	32433.22
745.52	32235.71
745.86	32222.15
746.199	32174.24
746.538	32132.66
746.877	32176.27
747.216	32308.02
747.556	32150.51
747.895	32053.34
748.234	31992.55
748.573	31871.42
748.911	31826.45
749.25	31970.4
749.589	31670.98
749.928	31749.84
750.267	31855.6
750.605	31674.59
750.944	31696.96
751.283	31430.08
751.621	31443.64
751.96	31376.97
752.298	31511.88
752.636	31447.48
752.975	31254.49
753.313	31146.02
753.651	31399.57
753.989	31080.93
754.327	31013.37
754.666	30820.6
755.004	30976.76
755.342	30915.51
755.679	30861.28
756.017	30686.59
756.355	30714.84
756.693	30610.44
757.031	30659.02
757.368	30426.71
757.706	30415.64
758.044	30255.19
758.381	30406.6
758.719	30228.3
759.056	30281.41
759.394	30184.69
759.731	29985.82
760.068	29984.69
760.405	29916.67
760.743	29821.53
761.08	29879.61
761.417	29621.09
761.754	29614.98
762.091	29349.91
762.428	29406.18
762.765	29270.59
763.102	29397.36
763.438	29302.9
763.775	29200.76
764.112	29088.67
764.449	29058.39
764.785	28975.9
765.122	28827.43
765.458	28611.17
765.795	28638.29
766.131	28614.78
766.467	28414.34
766.804	28350.16
767.14	28148.36
767.476	28212.99
767.812	28057.74
768.148	27981.58
768.485	27878.53
768.821	27689.84
769.157	27751.3
769.492	27593.57
769.828	27654.36
770.164	27375.72
770.5	27347.7
770.836	27248.94
771.171	27248.04
771.507	27117.2
771.842	26920.59
772.178	26937.54
772.513	26803.08
772.849	26722.86
773.184	26602.41
773.519	26552.01
773.855	26423.2
774.19	26429.08
774.525	26225.02
774.86	26230.67
775.195	26227.73
775.53	26058.69
775.865	25957.45
776.2	25833.16
776.535	25538.26
776.87	25677.01
777.205	25467.75
777.539	25471.59
777.874	25496
778.209	25244.7
778.543	25208.32
778.878	25110.02
779.212	25050.13
779.547	24912.96
779.881	24887.65
780.215	24739.63
780.55	24693.98
780.884	24661.89
781.218	24580.77
781.552	24615.79
781.886	24404.27
782.22	24249.02
782.554	24129.03
782.888	23917.73
783.222	23899.88
783.556	23805.19
783.889	23773.78
784.223	23586.22
784.557	23546.89
784.89	23635.03
785.224	23517.97
785.557	23322.27
785.891	23323.62
786.224	23138.09
786.558	23066.46
786.891	22922.28
787.224	22797.76
787.557	22788.72
787.891	22774.49
788.224	22689.52
788.557	22722.96
788.89	22513.48
789.223	22502.18
789.556	22475.51
789.888	22353.48
790.221	22216.76
790.554	22166.59
790.887	22101.96
791.219	21966.82
791.552	22003.21
791.884	21894.96
792.217	21615.42
792.549	21724.8
792.882	21605.48
793.214	21478.93
793.546	21666.72
793.879	21321.19
794.211	21277.8
794.543	21296.78
794.875	21222.44
795.207	21353.28
795.539	21123
795.871	21240.97
796.203	20949.9
796.535	20889.79
796.867	20784.03
797.198	20673.07
797.53	20705.84
797.862	20495.68
798.193	20618.61
798.525	20496.35
798.856	20492.51
799.188	20199.41
799.519	20180.2
799.85	20160.54
800.182	20074.44
800.513	20115.35
800.844	19912.64
801.175	20007.78
801.506	19939.08
801.837	19849.82
802.168	19758.97
802.499	19715.81
802.83	19691.18
803.161	19588.36
803.491	19542.48
803.822	19517.4
804.153	19433.78
804.483	19208.93
804.814	19294.13
805.145	19276.95
805.475	19175.94
805.805	19091.87
806.136	19187.01
806.466	19074.24
806.796	19023.17
807.126	18845.55
807.457	18872.22
807.787	18897.53
808.117	18744.76
808.447	18607.82
808.777	18709.73
809.107	18585.9
809.436	18496.63
809.766	18647.81
810.096	18480.59
810.426	18337.09
810.755	18408.95
811.085	18345.68
811.414	18300.25
811.744	18196.75
812.073	18089.19
812.403	18119.02
812.732	18014.16
813.061	18112.01
813.39	17852.81
813.719	18002.41
814.049	17922.41
814.378	17825.01
814.707	17690.1
815.036	17731.23
815.365	17601.06
815.693	17467.73
816.022	17539.37
816.351	17535.3
816.68	17366.04
817.008	17467.73
817.337	17277.46
817.665	17194.75
817.994	17279.94
818.322	17366.27
818.651	17146.16
818.979	17082.88
819.307	17226.16
819.636	17136.89
819.964	17072.71
820.292	17045.37
820.62	17072.71
820.948	17091.25
821.276	17039.04
821.604	16960.85
821.932	16990.46
822.259	16954.3
822.587	16976.22
822.915	16913.17
823.243	17006.05
823.57	16960.4
823.898	17014.41
824.225	16829.33
824.553	16760.63
824.88	16814.64
825.207	16972.15
825.535	16936
825.862	16921.08
826.189	16861.65
826.516	16971.02
826.843	16883.57
827.17	16886.28
827.497	16857.13
827.824	16928.09
828.151	16954.75
828.478	16780.29
828.805	16934.19
829.131	16840.4
829.458	16798.15
829.785	16695.78
830.111	16711.59
830.438	16950.01
830.764	16871.14
831.09	16854.42
831.417	16744.59
831.743	16822.33
832.069	16836.79
832.395	16726.51
832.722	16819.61
833.048	16783.68
833.374	16749.79
833.7	16649.9
834.026	16648.32
834.351	16714.08
834.677	16650.13
835.003	16759.73
835.329	16658.49
835.654	16652.39
835.98	16672.05
836.306	16546.63
836.631	16457.82
836.956	16566.74
837.282	16587.3
837.607	16520.41
837.932	16472.96
838.258	16397.03
838.583	16422.56
838.908	16379.4
839.233	16335.56
839.558	16320.64
839.883	16237.03
840.208	16293.3
840.533	16235.45
840.858	16244.94
841.182	16218.27
841.507	16147.99
841.832	16146.86
842.156	16069.13
842.481	15993.87
842.805	15966.76
843.13	15917.49
843.454	15996.36
843.778	15882.01
844.103	15854.67
844.427	15888.11
844.751	15722.02
845.075	15738.74
845.399	15627.33
845.723	15599.53
846.047	15629.59
846.371	15380.56
846.695	15451.74
847.019	15358.41
847.343	15315.25
847.666	15235.7
847.99	15138.53
848.313	15134.69
848.637	15072.09
848.96	15017.18
849.284	14948.03
849.607	14913.68
849.931	14891.3
850.254	14760.23
850.577	14646.34
850.9	14541.03
851.223	14556.62
851.546	14419.9
851.869	14387.14
852.192	14476.85
852.515	14305.78
852.838	14304.88
853.161	14219.68
853.483	14224.88
853.806	14127.26
854.129	14115.96
854.451	13975.17
854.774	14016.52
855.096	13849.97
855.419	13852.23
855.741	13893.59
856.063	13857.21
856.385	13761.16
856.708	13791.22
857.03	13659.7
857.352	13712.58
857.674	13648.4
857.996	13598
858.318	13489.76
858.64	13519.36
858.961	13463.54
859.283	13400.27
859.605	13390.78
859.926	13386.94
860.248	13359.82
860.57	13301.06
860.891	13364.34
861.212	13193.27
861.534	13168.41
861.855	13124.34
862.176	13205.02
862.498	13120.28
862.819	13131.12
863.14	13104.91
863.461	13006.61
863.782	12940.62
864.103	13030.34
864.424	12967.29
864.745	12950.79
865.065	12833.96
865.386	12804.8
865.707	12760.74
866.027	12821.75
866.348	12804.8
866.668	12762.09
866.989	12719.61
867.309	12691.59
867.63	12664.47
867.95	12606.84
868.27	12506.28
868.59	12595.32
868.91	12576.11
869.23	12541.31
869.55	12532.5
869.87	12593.28
870.19	12550.57
870.51	12516.68
870.83	12502.21
871.15	12547.64
871.469	12500.18
871.789	12484.59
872.109	12438.94
872.428	12383.35
872.748	12375.66
873.067	12308.09
873.386	12325.72
873.706	12384.48
874.025	12272.39
874.344	12278.04
874.663	12289.11
874.982	12223.8
875.301	12180.64
875.62	12144.03
875.939	12213.18
876.258	12129.79
876.577	12096.57
876.896	12059.51
877.214	12047.08
877.533	12092.96
877.852	12048.44
878.17	12036.24
878.489	11943.13
878.807	11943.36
879.125	11864.04
879.444	11962.57
879.762	11877.37
880.08	11861.33
880.398	11851.38
880.716	11840.08
881.034	11797.83
881.352	11829.24
881.67	11811.38
881.988	11757.83
882.306	11704.04
882.624	11698.84
882.941	11599.64
883.259	11616.36
883.577	11605.29
883.894	11536.59
884.212	11576.36
884.529	11498.17
884.846	11526.87
885.164	11493.65
885.481	11406.65
885.798	11454.11
886.115	11311.06
886.432	11371.62
886.75	11326.88
887.067	11294.34
887.383	11238.29
887.7	11300.89
888.017	11212.76
888.334	11172.31
888.651	11170.72
888.967	11135.92
889.284	11093.21
889.6	11106.77
889.917	10989.71
890.233	11010.95
890.55	11033.55
890.866	10952.42
891.182	10930.73
891.498	10954.91
891.815	10881.92
892.131	10802.6
892.447	10776.16
892.763	10773.67
893.079	10729.83
893.395	10616.61
893.71	10644.18
894.026	10635.82
894.342	10677.4
894.657	10457.07
894.973	10520.8
895.289	10530.51
895.604	10524.64
895.92	10380.91
896.235	10397.64
896.55	10369.39
896.865	10332.78
897.181	10276.51
897.496	10297.3
897.811	10200.81
898.126	10245.55
898.441	10144.54
898.756	10139.56
899.071	10053.46
899.386	10062.96
899.7	9992.45
900.015	9959.68
900.33	9830.87
900.644	9895.73
900.959	9862.96
901.273	9836.97
901.588	9790.65
901.902	9775.96
902.216	9732.79
902.531	9707.26
902.845	9585.23
903.159	9631.1
903.473	9569.41
903.787	9562.18
904.101	9520.82
904.415	9520.6
904.729	9453.48
905.042	9394.05
905.356	9298
905.67	9302.75
905.984	9293.94
906.297	9259.81
906.611	9259.36
906.924	9197.89
907.237	9201.51
907.551	9192.7
907.864	9111.34
908.177	9081.74
908.491	9036.99
908.804	9066.37
909.117	8976.88
909.43	8870.22
909.743	8836.1
910.056	8845.59
910.368	8752.03
910.681	8800.84
910.994	8751.58
911.307	8754.74
911.619	8650.56
911.932	8697.57
912.244	8628.42
912.557	8604.01
912.869	8520.85
913.181	8509.55
913.494	8451.02
913.806	8449.44
914.118	8426.16
914.43	8367.18
914.742	8338.71
915.054	8341.19
915.366	8322.44
915.678	8211.25
915.99	8192.5
916.302	8181.65
916.613	8098.71
916.925	8097.36
917.236	8073.86
917.548	8024.37
917.859	8033.86
918.171	7944.82
918.482	7885.84
918.794	7901.2
919.105	7952.73
919.416	7852.17
919.727	7803.35
920.038	7766.29
920.349	7742.11
920.66	7647.88
920.971	7668.44
921.282	7618.73
921.593	7575.11
921.903	7559.74
922.214	7527.2
922.525	7459.41
922.835	7468.9
923.146	7450.14
923.456	7421.9
923.767	7398.62
924.077	7362.46
924.387	7300.09
924.697	7297.83
925.008	7197.95
925.318	7225.06
925.628	7140.09
925.938	7093.54
926.248	7049.25
926.558	7023.94
926.867	7091.28
927.177	7028.46
927.487	6975.81
927.796	6930.83
928.106	6910.27
928.416	6881.8
928.725	6874.79
929.034	6829.14
929.344	6837.05
929.653	6751.18
929.962	6712.08
930.271	6706.89
930.581	6678.64
930.89	6668.92
931.199	6618.53
931.508	6619.2
931.817	6635.02
932.125	6537.4
932.434	6522.48
932.743	6484.07
933.051	6423.96
933.36	6420.79
933.669	6317.74
933.977	6319.1
934.286	6388.93
934.594	6313.22
934.902	6278.65
935.21	6204.75
935.519	6297.86
935.827	6208.59
936.135	6194.36
936.443	6148.93
936.751	6155.94
937.059	6099.44
937.367	6043.63
937.674	6062.61
937.982	6067.13
938.29	5980.8
938.597	6012.67
938.905	5944.65
939.213	5928.6
939.52	5912.33
939.827	5918.21
940.135	5833.69
940.442	5840.47
940.749	5847.7
941.056	5790.98
941.363	5802.5
941.67	5750.75
941.977	5665.78
942.284	5664.2
942.591	5628.95
942.898	5614.94
943.205	5605.22
943.511	5561.38
943.818	5566.12
944.125	5498.78
944.431	5540.14
944.738	5466.47
945.044	5515.96
945.35	5413.13
945.657	5415.17
945.963	5382.85
946.269	5369.07
946.575	5348.05
946.881	5298.56
947.187	5307.6
947.493	5264.21
947.799	5313.7
948.105	5223.53
948.41	5179.47
948.716	5230.31
949.022	5137.21
949.327	5132.01
949.633	5092.24
949.938	5075.52
950.244	5097.66
950.549	5034.61
950.854	5047.04
951.16	5046.36
951.465	4970.21
951.77	4990.77
952.075	4953.71
952.38	4870.78
952.685	4927.27
952.99	4854.05
953.294	4881.17
953.599	4819.7
953.904	4751.68
954.209	4751.01
954.513	4774.96
954.818	4718.24
955.122	4708.52
955.426	4684.11
955.731	4654.96
956.035	4675.75
956.339	4653.38
956.643	4595.08
956.948	4564.12
957.252	4618.58
957.556	4574.06
957.86	4552.59
958.163	4502.42
958.467	4529.54
958.771	4456.1
959.075	4461.97
959.378	4435.99
959.682	4451.8
959.985	4401.86
960.289	4387.4
960.592	4366.83
960.896	4340.85
961.199	4318.7
961.502	4301.98
961.805	4293.39
962.108	4240.96
962.411	4269.44
962.714	4244.8
963.017	4226.95
963.32	4211.36
963.623	4198.48
963.926	4164.58
964.228	4135.43
964.531	4106.05
964.833	4115.77
965.136	4076.22
965.438	4081.19
965.741	4057.69
966.043	4081.42
966.345	4003
966.648	4017.24
966.95	3993.06
967.252	3973.85
967.554	3974.75
967.856	3960.74
968.158	3900.86
968.46	3910.58
968.761	3878.49
969.063	3837.81
969.365	3849.33
969.666	3821.99
969.968	3799.17
970.269	3847.98
970.571	3799.39
970.872	3794.42
971.174	3712.84
971.475	3734.76
971.776	3723.01
972.077	3699.96
972.378	3723.69
972.679	3662.22
972.98	3680.98
973.281	3641.88
973.582	3624.71
973.883	3609.34
974.183	3614.09
974.484	3582.67
974.785	3557.82
975.085	3582
975.386	3555.78
975.686	3506.29
975.986	3474.65
976.287	3493.86
976.587	3471.49
976.887	3446.41
977.187	3467.65
977.487	3377.93
977.787	3360.08
978.087	3407.54
978.387	3369.57
978.687	3366.63
978.987	3356.69
979.286	3353.98
979.586	3294.55
979.885	3261.55
980.185	3243.02
980.484	3255
980.784	3246.86
981.083	3219.52
981.382	3230.37
981.682	3188.79
981.981	3191.72
982.28	3153.08
982.579	3131.16
982.878	3156.24
983.177	3136.81
983.475	3148.34
983.774	3136.36
984.073	3057.72
984.372	3074.44
984.67	3092.07
984.969	3027.21
985.267	3023.59
985.566	3035.34
985.864	3030.82
986.162	2996.47
986.461	2998.28
986.759	2976.59
987.057	2938.62
987.355	2939.98
987.653	2924.39
987.951	2933.2
988.249	2897.49
988.547	2900.66
988.844	2881.45
989.142	2858.63
989.44	2856.82
989.737	2812.75
990.035	2833.99
990.332	2817.72
990.63	2772.07
990.927	2769.59
991.224	2785.18
991.521	2760.1
991.819	2751.96
992.116	2754.67
992.413	2737.27
992.71	2725.52
993.006	2681.23
993.303	2686.65
993.6	2654.11
993.897	2641.91
994.193	2671.51
994.49	2589.48
994.787	2645.52
995.083	2603.26
995.379	2595.58
995.676	2573.21
995.972	2548.35
996.268	2561.46
996.565	2530.95
996.861	2511.52
997.157	2523.94
997.453	2500.67
997.749	2496.38
998.044	2470.39
998.34	2448.47
998.636	2423.83
998.932	2464.96
999.227	2409.82
999.523	2391.75
999.818	2390.16
1000.114	2392.42
1000.409	2368.92
1000.704	2378.64
1001	2315.59
1001.295	2325.53
1001.59	2330.96
1001.885	2334.8
1002.18	2318.3
1002.475	2270.62
1002.77	2283.73
1003.065	2273.33
1003.359	2219.55
1003.654	2260
1003.949	2245.53
1004.243	2253.44
1004.538	2218.64
1004.832	2197.85
1005.127	2169.83
1005.421	2156.5
1005.715	2167.12
1006.009	2129.38
1006.304	2138.64
1006.598	2083.5
1006.892	2089.83
1007.186	2101.58
1007.48	2056.16
1007.773	2076.5
1008.067	2072.66
1008.361	2045.09
1008.655	2040.79
1008.948	2054.58
1009.242	2036.27
1009.535	1985.88
1009.829	1983.39
1010.122	2002.6
1010.415	1967.35
1010.708	1988.82
1011.001	1929.84
1011.295	1929.38
1011.588	1925.99
1011.881	1897.29
1012.173	1927.35
1012.466	1850.29
1012.759	1875.6
1013.052	1853.23
1013.344	1853.91
1013.637	1861.82
1013.93	1839.44
1014.222	1796.96
1014.514	1841.03
1014.807	1803.74
1015.099	1767.81
1015.391	1785.89
1015.683	1763.06
1015.976	1760.35
1016.268	1747.69
1016.56	1749.95
1016.851	1712.67
1017.143	1713.57
1017.435	1694.14
1017.727	1675.15
1018.018	1695.94
1018.31	1650.3
1018.602	1674.48
1018.893	1643.74
1019.185	1600.13
1019.476	1619.56
1019.767	1626.79
1020.058	1609.84
1020.35	1576.4
1020.641	1596.06
1020.932	1592.44
1021.223	1556.74
1021.514	1570.07
1021.804	1523.75
1022.095	1519.68
1022.386	1532.56
1022.677	1514.48
1022.967	1504.31
1023.258	1511.32
1023.548	1500.47
1023.839	1461.6
1024.129	1481.26
1024.419	1441.04
1024.709	1446.01
1025	1440.81
1025.29	1431.77
1025.58	1438.32
1025.87	1406.46
1026.16	1421.83
1026.449	1392.9
1026.739	1399.68
1027.029	1373.24
1027.319	1361.26
1027.608	1374.82
1027.898	1355.39
1028.187	1320.36
1028.477	1285.11
1028.766	1339.8
1029.055	1297.99
1029.344	1290.53
1029.634	1313.58
1029.923	1287.82
1030.212	1293.47
1030.501	1279.91
1030.79	1239.23
1031.078	1259.12
1031.367	1233.81
1031.656	1211.21
1031.945	1216.86
1032.233	1217.31
1032.522	1227.71
1032.81	1234.26
1033.099	1198.78
1033.387	1187.71
1033.675	1187.48
1033.963	1163.08
1034.251	1180.03
1034.54	1158.33
1034.828	1137.09
1035.116	1130.31
1035.403	1126.24
1035.691	1132.8
1035.979	1110.2
1036.267	1103.64
1036.554	1089.18
1036.842	1099.12
1037.129	1095.06
1037.417	1070.88
1037.704	1084.43
1037.992	1062.74
1038.279	1067.03
1038.566	1062.51
1038.853	1062.51
1039.14	1062.51
