Data from hue_60_FLMS001491_13.txt Node
Date: Mon Feb 06 15:12:00 GMT 2017
User: dcchb
Spectrometer: FLMS00149
Trigger mode: 0
Integration Time (sec): 2.000000E-2
Scans to average: 10
Electric dark correction enabled: true
Nonlinearity correction enabled: false
Boxcar width: 0
XAxis mode: Wavelengths
Number of Pixels in Spectrum: 2048
>>>>>Begin Spectral Data<<<<<
341.393	-15.75
341.776	-15.75
342.16	-15.75
342.543	-51.45
342.927	-58.91
343.31	-45.8
343.693	-58.68
344.077	-76.76
344.46	-76.54
344.843	-58.46
345.226	-32.02
345.61	-22.98
345.993	-15.97
346.376	-8.97
346.759	-1.96
347.142	32.16
347.525	37.58
347.908	60.63
348.291	92.95
348.674	77.58
349.057	97.24
349.44	123.68
349.823	140.63
350.206	155.77
350.588	213.4
350.971	210.01
351.354	243.45
351.737	249.33
352.119	255.21
352.502	266.28
352.884	278.71
353.267	277.13
353.65	303.57
354.032	325.03
354.414	308.09
354.797	305.83
355.179	328.2
355.562	335.88
355.944	334.3
356.326	338.59
356.709	344.47
357.091	333.17
357.473	336.11
357.855	342.43
358.238	349.44
358.62	348.54
359.002	360.29
359.384	338.59
359.766	355.99
360.148	340.85
360.53	342.89
360.912	338.14
361.294	323.9
361.676	355.32
362.057	340.85
362.439	338.59
362.821	323.68
363.203	327.97
363.584	348.31
363.966	321.42
364.348	326.16
364.729	308.99
365.111	323
365.493	323.68
365.874	344.02
366.256	339.04
366.637	307.63
367.019	310.12
367.4	326.84
367.781	325.26
368.163	298.82
368.544	316.67
368.925	288.42
369.306	312.83
369.688	310.12
370.069	342.21
370.45	321.64
370.831	321.42
371.212	324.36
371.593	327.29
371.974	328.65
372.355	307.18
372.736	321.19
373.117	330.23
373.498	321.42
373.879	322.32
374.26	337.24
374.641	303.34
375.021	311.93
375.402	339.27
375.783	306.28
376.163	327.07
376.544	334.3
376.925	345.82
377.305	344.02
377.686	328.42
378.066	332.72
378.447	338.37
378.827	331.36
379.208	333.85
379.588	347.63
379.968	329.55
380.349	323.9
380.729	345.15
381.109	348.99
381.489	320.51
381.87	314.19
382.25	319.16
382.63	340.85
383.01	342.89
383.39	331.14
383.77	345.37
384.15	353.51
384.53	333.17
384.91	339.72
385.29	356.22
385.67	351.25
386.049	352.38
386.429	355.09
386.809	348.54
387.189	347.18
387.568	348.54
387.948	334.53
388.328	361.87
388.707	349.67
389.087	349.44
389.466	348.31
389.846	365.71
390.225	377.91
390.605	365.03
390.984	368.65
391.363	363.9
391.743	374.75
392.122	380.85
392.501	370.68
392.881	355.32
393.26	369.78
393.639	366.39
394.018	369.55
394.397	389.44
394.776	365.71
395.155	388.08
395.534	371.13
395.913	383.34
396.292	378.14
396.671	370.23
397.05	369.33
397.429	381.76
397.808	379.04
398.186	403.68
398.565	392.15
398.944	396.22
399.323	394.64
399.701	382.21
400.08	368.42
400.458	403.9
400.837	380.85
401.215	399.38
401.594	384.24
401.972	382.43
402.351	380.17
402.729	404.13
403.107	396.9
403.486	413.39
403.864	401.42
404.242	409.33
404.62	411.59
404.999	405.26
405.377	410.23
405.755	415.65
406.133	417.69
406.511	416.1
406.889	417.01
407.267	415.2
407.645	426.05
408.023	423.79
408.401	424.47
408.779	428.99
409.156	434.18
409.534	420.85
409.912	441.64
410.29	430.79
410.667	460.17
411.045	442.77
411.422	436.44
411.8	469.66
412.178	452.71
412.555	466.95
412.933	459.04
413.31	452.04
413.687	474.41
414.065	455.43
414.442	455.65
414.819	468.53
415.197	473.05
415.574	483.67
415.951	490.23
416.328	499.27
416.705	473.28
417.082	474.18
417.46	484.35
417.837	505.59
418.214	487.06
418.591	496.78
418.967	491.58
419.344	502.66
419.721	513.05
420.098	507.4
420.475	512.37
420.852	502.2
421.228	501.75
421.605	508.98
421.982	537.01
422.358	523.22
422.735	544.46
423.111	501.07
423.488	528.64
423.864	549.43
424.241	538.59
424.617	545.82
424.994	546.72
425.37	543.79
425.746	552.15
426.123	564.12
426.499	550.11
426.875	580.39
427.251	564.35
427.627	540.17
428.003	568.87
428.379	572.03
428.756	573.61
429.132	605.48
429.507	588.53
429.883	599.83
430.259	609.55
430.635	590.79
431.011	594.41
431.387	598.02
431.763	623.56
432.138	616.78
432.514	602.31
432.89	637.12
433.265	632.14
433.641	644.57
434.016	623.11
434.392	655.87
434.767	637.12
435.143	643.22
435.518	651.8
435.894	665.59
436.269	645.48
436.644	652.48
437.02	677.79
437.395	687.74
437.77	680.28
438.145	685.93
438.52	657.91
438.895	673.73
439.271	686.38
439.646	701.97
440.021	689.32
440.395	697.45
440.77	696.1
441.145	721.18
441.52	727.96
441.895	736.32
442.27	728.87
442.645	727.28
443.019	731.8
443.394	739.94
443.769	748.3
444.143	733.38
444.518	750.56
444.892	744.91
445.267	753.27
445.641	761.63
446.016	772.93
446.39	771.8
446.764	747.85
447.139	774.29
447.513	770.45
447.887	786.04
448.262	777.45
448.636	805.47
449.01	798.02
449.384	806.38
449.758	831.24
450.132	833.27
450.506	816.09
450.88	822.65
451.254	826.94
451.628	822.65
452.002	834.85
452.376	853.83
452.75	820.84
453.123	862.42
453.497	861.29
453.871	871.91
454.244	871.23
454.618	888.86
454.992	901.29
455.365	901.97
455.739	936.77
456.112	938.35
456.486	935.41
456.859	919.82
457.232	957.33
457.606	948.07
457.979	990.55
458.352	971.12
458.725	993.49
459.099	993.72
459.472	982.87
459.845	1012.47
460.218	1002.76
460.591	1019.25
460.964	1039.37
461.337	1053.38
461.71	1061.74
462.083	1090.44
462.456	1086.6
462.829	1116.2
463.201	1107.61
463.574	1144.22
463.947	1144.22
464.32	1153.26
464.692	1166.37
465.065	1191
465.438	1215.63
465.81	1229.19
466.183	1233.03
466.555	1259.7
466.928	1272.81
467.3	1284.33
467.672	1312.35
468.045	1319.58
468.417	1351.22
468.789	1348.28
469.161	1374.95
469.534	1405.46
469.906	1445.68
470.278	1472.35
470.65	1465.79
471.022	1527.26
471.394	1569.52
471.766	1580.59
472.138	1602.97
472.51	1648.61
472.882	1659.46
473.253	1680.48
473.625	1724.55
473.997	1790.08
474.369	1825.79
474.74	1813.36
475.112	1915.05
475.484	1891.55
475.855	1962.5
476.227	2012.67
476.598	2075.27
476.97	2090.86
477.341	2187.58
477.713	2220.8
478.084	2254.47
478.455	2358.43
478.827	2430.29
479.198	2521.13
479.569	2551.19
479.94	2650.17
480.311	2689.27
480.682	2813.78
481.053	2898.98
481.424	2954.57
481.795	3073.21
482.166	3130.16
482.537	3198.63
482.908	3338.74
483.279	3375.35
483.65	3515.46
484.021	3625.96
484.391	3693.31
484.762	3808.78
485.133	3870.48
485.503	4006.52
485.874	4198.6
486.244	4264.14
486.615	4375.32
486.985	4472.72
487.356	4652.38
487.726	4750.23
488.097	4930.56
488.467	4978.24
488.837	5167.62
489.207	5304.79
489.578	5474.5
489.948	5535.97
490.318	5767.15
490.688	5818.45
491.058	5978.67
491.428	6177.54
491.798	6307.48
492.168	6436.51
492.538	6580.24
492.908	6758.99
493.278	6904.97
493.648	7077.62
494.017	7195.81
494.387	7326.66
494.757	7568.91
495.126	7711.51
495.496	7761.45
495.866	7894.55
496.235	8110.82
496.605	8295.22
496.974	8423.8
497.344	8626.06
497.713	8739.95
498.082	8913.96
498.452	9020.62
498.821	9092.03
499.19	9302.42
499.559	9477.56
499.928	9575.64
500.298	9771.79
500.667	9953.93
501.036	9979.24
501.405	10229.41
501.774	10274.15
502.143	10519.12
502.512	10549.17
502.88	10804.53
503.249	10858.77
503.618	10988.93
503.987	11134.69
504.356	11272.54
504.724	11435.48
505.093	11567
505.462	11684.06
505.83	11784.85
506.199	11919.31
506.567	12198.39
506.936	12223.25
507.304	12424.6
507.672	12509.35
508.041	12732.17
508.409	12832.28
508.777	13038.15
509.145	13130.35
509.514	13165.83
509.882	13259.38
510.25	13446.04
510.618	13594.74
510.986	13589.77
511.354	13921.96
511.722	14202.86
512.09	14145.24
512.458	14179.13
512.826	14442.4
513.193	14536.64
513.561	14596.75
513.929	14746.12
514.297	14914.48
514.664	15051.65
515.032	15178.65
515.4	15266.79
515.767	15394.69
516.135	15545.2
516.502	15488.7
516.869	15900.9
517.237	16017.5
517.604	15983.61
517.972	16193.54
518.339	16474.21
518.706	16362.35
519.073	16500.65
519.44	16704.49
519.808	16808.22
520.175	16821.1
520.542	17054.31
520.909	17228.32
521.276	17241.43
521.643	17501.76
522.009	17602.09
522.376	17724.12
522.743	17861.3
523.11	18121.4
523.477	18316.43
523.843	18440.04
524.21	18641.16
524.577	18784.89
524.943	18849.52
525.31	18887.94
525.676	19161.37
526.043	19313.91
526.409	19384.42
526.776	19695.6
527.142	19728.37
527.508	19783.96
527.874	19984.18
528.241	20097.85
528.607	20103.27
528.973	20311.85
529.339	20397.05
529.705	20615.8
530.071	20779.86
530.437	20897.37
530.803	21037.26
531.169	21209.23
531.535	21096.92
531.901	21299.4
532.267	21340.75
532.632	21527.64
532.998	21649.44
533.364	21739.39
533.73	21733.06
534.095	21988.64
534.461	22103.9
534.826	22150.67
535.192	22231.12
535.557	22504.56
535.923	22409.42
536.288	22463.66
536.653	22762.86
537.019	22596.31
537.384	22771.22
537.749	22957.89
538.114	22893.48
538.479	22954.27
538.845	23101.84
539.21	23018.45
539.575	23230.19
539.94	23264.32
540.305	23419.34
540.67	23417.99
541.034	23549.28
541.399	23647.13
541.764	23585.89
542.129	23740.46
542.494	23820.46
542.858	23974.36
543.223	23944.75
543.587	24205.08
543.952	24114.69
544.316	24323.5
544.681	24243.5
545.045	24299.09
545.41	24525.98
545.774	24551.74
546.138	24583.38
546.503	24659.08
546.867	24638.97
547.231	24806.65
547.595	24857.27
547.959	25028.11
548.324	25063.59
548.688	25164.61
549.052	25274.43
549.416	25315.79
549.779	25303.81
550.143	25440.53
550.507	25589
550.871	25676.23
551.235	25690.92
551.599	25918.71
551.962	25904.02
552.326	25977.01
552.689	26168.65
553.053	25943.12
553.417	26065.15
553.78	26404.57
554.143	26405.03
554.507	26463.56
554.87	26620.61
555.234	26798.69
555.597	26743.77
555.96	26851.12
556.323	27085.46
556.686	27037.78
557.05	27284.55
557.413	27275.96
557.776	27414.72
558.139	27516.18
558.502	27631.43
558.865	27652.45
559.228	27841.37
559.59	27934.25
559.953	28095.38
560.316	28338.53
560.679	28287.46
561.041	28468.02
561.404	28707.79
561.767	28724.97
562.129	28810.39
562.492	29039.31
562.854	29028.23
563.217	29092.86
563.579	29244.73
563.941	29348.68
564.304	29549.58
564.666	29675.22
565.028	29760.87
565.39	29904.37
565.753	30089.45
566.115	30168.77
566.477	30223.91
566.839	30312.27
567.201	30506.39
567.563	30695.08
567.925	30800.84
568.287	30788.19
568.648	30922.65
569.01	31131.91
569.372	31379.36
569.734	31185.47
570.095	31405.35
570.457	31648.5
570.819	31633.82
571.18	31688.95
571.542	31763.76
571.903	31838.1
572.265	31947.71
572.626	32043.97
572.987	32128.27
573.349	32184.76
573.71	32409.61
574.071	32525.32
574.432	32460.91
574.794	32839.21
575.155	32637.18
575.516	32703.39
575.877	32785.88
576.238	32901.35
576.599	33032.42
576.96	33011.63
577.32	33084.62
577.681	33229.48
578.042	33301.12
578.403	33250.72
578.763	33281.23
579.124	33367.78
579.485	33562.8
579.845	33649.13
580.206	33592.41
580.566	33605.29
580.927	33658.62
581.287	33708.56
581.648	33644.61
582.008	33808.45
582.368	33791.05
582.728	33981.1
583.089	33811.61
583.449	33913.76
583.809	33832.18
584.169	34072.85
584.529	33836.7
584.889	34199.85
585.249	33991.49
585.609	33856.58
585.969	34066.52
586.329	34114.43
586.688	34083.69
587.048	34068.78
587.408	34036.69
587.768	34178.38
588.127	34083.92
588.487	33975
588.846	34292.28
589.206	34094.77
589.565	34222.67
589.925	34176.35
590.284	34138.38
590.643	34247.76
591.003	34307.19
591.362	34476
591.721	34311.48
592.08	34407.08
592.44	34446.17
592.799	34517.13
593.158	34362.33
593.517	34487.53
593.876	34473.06
594.235	34398.94
594.593	34531.59
594.952	34654.3
595.311	34560.29
595.67	34486.85
596.029	34938.81
596.387	34717.8
596.746	34946.72
597.104	34728.87
597.463	34651.59
597.822	34794.64
598.18	34759.83
598.538	34722.77
598.897	35058.58
599.255	34771.36
599.613	35184.91
599.972	35092.26
600.33	35280.72
600.688	35007.74
601.046	35149.2
601.404	35375.41
601.762	35210.44
602.12	35326.37
602.478	35350.1
602.836	35387.39
603.194	35170.45
603.552	35311.46
603.91	35330.22
604.268	35443.21
604.625	35529.08
604.983	35476.2
605.341	35356.88
605.698	35757.32
606.056	35634.39
606.413	35738.79
606.771	35822.18
607.128	35929.52
607.485	35708.06
607.843	35811.11
608.2	36061.72
608.557	36129.52
608.914	36032.8
609.272	36183.07
609.629	36300.59
609.986	36422.39
610.343	36302.62
610.7	36493.12
611.057	36549.84
611.414	36510.75
611.771	36479.11
612.127	36741.7
612.484	36603.4
612.841	36835.03
613.198	36739.22
613.554	36810.18
613.911	36997.74
614.267	37036.16
614.624	37091.52
614.98	37046.1
615.337	37177.62
615.693	37160.68
616.05	37200.9
616.406	37329.71
616.762	37320.67
617.118	37295.36
617.475	37415.13
617.831	37479.09
618.187	37458.52
618.543	37581.68
618.899	37710.94
619.255	37773.09
619.611	37699.19
619.967	37769.47
620.323	37964.5
620.678	37839.98
621.034	37749.13
621.39	37842.24
621.746	37805.86
622.101	38217.6
622.457	37969.24
622.812	38095.57
623.168	38215.79
623.523	38181.89
623.879	38312.74
624.234	38000.43
624.589	38218.05
624.945	38195.45
625.3	38400.19
625.655	38334.88
626.01	38312.96
626.365	38370.59
626.72	38375.78
627.075	38400.19
627.43	38328.33
627.785	38305.5
628.14	38351.6
628.495	38417.59
628.85	38390.7
629.205	38293.3
629.559	38566.74
629.914	38334.88
630.269	38349.57
630.623	38249.23
630.978	38180.08
631.332	38344.83
631.687	38455.1
632.041	38304.15
632.396	38398.38
632.75	38272.06
633.104	38360.19
633.459	38188.9
633.813	38209.91
634.167	38191.61
634.521	38156.36
634.875	38193.64
635.229	38117.94
635.583	37889.24
635.937	38081.78
636.291	38068.22
636.645	38086.3
636.999	37893.54
637.352	38001.56
637.706	37970.6
638.06	37965.63
638.413	37990.94
638.767	37946.64
639.121	37962.46
639.474	37728.8
639.828	37758.17
640.181	37851.73
640.534	37881.79
640.888	37734.9
641.241	37754.11
641.594	37683.6
641.947	37781.9
642.301	37657.61
642.654	37752.07
643.007	37634.56
643.36	37722.24
643.713	37513.21
644.066	37734.45
644.419	37466.88
644.771	37274.12
645.124	36831.64
645.477	36863.51
645.83	36574.48
646.182	36560.92
646.535	36401.6
646.888	36515.49
647.24	36313.01
647.593	36559.79
647.945	36405.22
648.298	36274.37
648.65	36224.2
649.002	36074.83
649.355	36461.48
649.707	36185.56
650.059	36387.81
650.411	36782.83
650.763	36671.42
651.115	37287.45
651.467	36978.99
651.819	36999.1
652.171	37005.88
652.523	36907.35
652.875	36931.98
653.227	36773.57
653.578	36988.7
653.93	36872.55
654.282	36705.32
654.633	36704.19
654.985	36648.15
655.337	36622.61
655.688	36670.52
656.039	36856.95
656.391	36479.56
656.742	36602.72
657.094	36630.75
657.445	36745.77
657.796	36649.05
658.147	36627.13
658.498	36443.18
658.849	36564.53
659.2	36520.47
659.551	36402.96
659.902	36580.58
660.253	36612.44
660.604	36516.17
660.955	36353.69
661.306	36628.49
661.656	36411.77
662.007	36567.02
662.358	36421.71
662.708	36443.41
663.059	36389.4
663.409	36221.04
663.76	36599.56
664.11	36347.59
664.461	36534.93
664.811	36389.17
665.161	36323.41
665.511	36476.85
665.862	36415.61
666.212	36510.75
666.562	36581.93
666.912	36232.11
667.262	36344.65
667.612	36321.38
667.962	36248.61
668.312	36242.73
668.662	36405.22
669.011	36207.03
669.361	36275.05
669.711	36327.93
670.06	36237.31
670.41	36204.09
670.76	36113.25
671.109	36268.27
671.459	36183.07
671.808	36160.02
672.157	36300.59
672.507	35919.58
672.856	36003.64
673.205	36034.83
673.554	36186.69
673.904	36159.57
674.253	36096.75
674.602	36085.22
674.951	35614.95
675.3	35317.56
675.649	36033.02
675.998	35970.65
676.346	35881.16
676.695	35917.54
677.044	35747.83
677.393	35835.74
677.741	35888.17
678.09	35766.59
678.438	35711.45
678.787	35696.76
679.135	35858.11
679.484	35508.74
679.832	35671
680.181	35536.09
680.529	35538.35
680.877	35478.23
681.225	35363.43
681.573	35584.9
681.922	35391.46
682.27	35189.2
682.618	35263.55
682.966	35255.87
683.314	35321.18
683.661	35222.87
684.009	34955.31
684.357	34955.08
684.705	34915.54
685.053	35144.91
685.4	34866.72
685.748	34676.22
686.095	34760.96
686.443	34603.91
686.79	34582.66
687.138	34710.57
687.485	34613.17
687.832	34486.85
688.18	34451.59
688.527	34363.91
688.874	34352.39
689.221	34252.96
689.568	34249.79
689.915	34113.07
690.262	34136.8
690.609	34001.21
690.956	33984.04
691.303	33814.1
691.65	33827.66
691.997	33619.75
692.344	33489.13
692.69	33443.26
693.037	33516.93
693.383	33103.83
693.73	33413.43
694.077	33092.53
694.423	33146.09
694.769	32979.99
695.116	32951.07
695.462	32911.07
695.808	32813.9
696.155	32901.35
696.501	32684.86
696.847	32639.21
697.193	32423.62
697.539	32554.69
697.885	32318.54
698.231	32174.82
698.577	32200.35
698.923	32118.77
699.269	31992.22
699.614	31814.15
699.96	31912.23
700.306	31959.91
700.651	31756.52
700.997	31651.22
701.342	31553.37
701.688	31579.58
702.033	31330.77
702.379	31356.76
702.724	31374.84
703.069	31364.9
703.415	31059.59
703.76	31104.56
704.105	31055.07
704.45	31003.1
704.795	30862.76
705.14	30700.05
705.485	30798.81
705.83	30526.73
706.175	30618.25
706.52	30459.16
706.865	30325.37
707.209	30344.13
707.554	30218.71
707.899	30295.32
708.243	30063.46
708.588	30214.87
708.932	30006.97
709.277	29883.13
709.621	29842.68
709.966	29636.13
710.31	29754.54
710.654	29425.29
710.998	29507.54
711.342	29577.82
711.687	29471.39
712.031	29326.98
712.375	29127.21
712.719	29374.21
713.063	29158.85
713.407	29291.5
713.75	29049.48
714.094	29084.05
714.438	29009.93
714.782	29034.79
715.125	28932.87
715.469	28982.36
715.812	28775.59
716.156	28680.9
716.499	28687
716.843	28769.26
717.186	28532.2
717.53	28678.19
717.873	28564.29
718.216	28548.47
718.559	28425.09
718.902	28320.91
719.246	28244.98
719.589	28128.14
719.932	28024.42
720.275	28067.81
720.617	28019.45
720.96	28105.55
721.303	27942.39
721.646	28002.05
721.989	27814.25
722.331	27794.59
722.674	27801.37
723.016	27850.41
723.359	27696.07
723.701	27695.16
724.044	27468.27
724.386	27370.42
724.729	27510.53
725.071	27431.21
725.413	27444.77
725.755	27429.18
726.097	27247.94
726.439	27038.91
726.782	27038.91
727.124	27204.55
727.465	27092.92
727.807	27071.68
728.149	26996.87
728.491	26926.37
728.833	27074.61
729.175	26851.79
729.516	26826.03
729.858	26898.12
730.199	26745.81
730.541	26700.61
730.882	26719.59
731.224	26815.41
731.565	26598.24
731.906	26563.44
732.248	26525.47
732.589	26508.07
732.93	26553.95
733.271	26416.33
733.612	26476.21
733.953	26485.48
734.294	26276.44
734.635	26352.15
734.976	26397.57
735.317	26235.31
735.658	26097.46
735.999	26200.51
736.339	26156.67
736.68	26268.98
737.021	26077.35
737.361	25917.58
737.702	26115.09
738.042	25904.47
738.383	25948.54
738.723	26015.88
739.063	25919.84
739.404	25950.57
739.744	25805.04
740.084	25664.48
740.424	25680.07
740.764	25727.3
741.104	25780.64
741.444	25460.19
741.784	25484.15
742.124	25499.51
742.464	25420.42
742.804	25473.98
743.143	25371.61
743.483	25333.42
743.823	25281.44
744.162	25174.55
744.502	25258.62
744.841	25145.4
745.181	25107.21
745.52	25052.52
745.86	25144.27
746.199	25083.7
746.538	25007.55
746.877	24985.63
747.216	24959.41
747.556	24927.55
747.895	24803.03
748.234	24815.46
748.573	24829.93
748.911	24769.14
749.25	24789.25
749.589	24646.88
749.928	24693.43
750.267	24547.22
750.605	24587.67
750.944	24431.97
751.283	24461.57
751.621	24508.13
751.96	24339.32
752.298	24301.58
752.636	24269.94
752.975	24174.12
753.313	24073.56
753.651	24250.96
753.989	24064.97
754.327	24016.39
754.666	23959.44
755.004	23964.41
755.342	23932.32
755.679	23937.07
756.017	23724.42
756.355	23679.22
756.693	23822.5
757.031	23638.55
757.368	23604.42
757.706	23437.19
758.044	23414.37
758.381	23440.81
758.719	23372.11
759.056	23368.27
759.394	23322.17
759.731	23145.45
760.068	23053.7
760.405	22968.96
760.743	23033.14
761.08	22864.78
761.417	22817.1
761.754	22771.9
762.091	22703.88
762.428	22620.49
762.765	22477.9
763.102	22578.91
763.438	22395.19
763.775	22345.47
764.112	22342.99
764.449	22431.8
764.785	22291.01
765.122	22106.61
765.458	22074.29
765.795	21925.14
766.131	21820.74
766.467	21939.15
766.804	21816.45
767.14	21645.6
767.476	21741.65
767.812	21531.71
768.148	21519.96
768.485	21436.57
768.821	21314.99
769.157	21290.58
769.492	21290.13
769.828	21156.35
770.164	21006.98
770.5	20882.69
770.836	21036.35
771.171	20854.89
771.507	20777.15
771.842	20671.39
772.178	20680.2
772.513	20561.11
772.849	20636.59
773.184	20376.94
773.519	20459.65
773.855	20341.46
774.19	20207.9
774.525	20142.82
774.86	20195.47
775.195	20242.02
775.53	20006.1
775.865	19875.03
776.2	19655.6
776.535	19627.13
776.87	19677.07
777.205	19514.81
777.539	19508.26
777.874	19441.37
778.209	19301.26
778.543	19246.57
778.878	19212.67
779.212	19196.85
779.547	19138.55
779.881	19094.03
780.215	18921.38
780.55	19023.98
780.884	18717.32
781.218	18799.35
781.552	18773.14
781.886	18643.42
782.22	18552.13
782.554	18499.92
782.888	18304.67
783.222	18275.07
783.556	18204.79
783.889	18221.06
784.223	18103.78
784.557	18020.84
784.89	18039.14
785.224	18008.64
785.557	17845.93
785.891	17774.29
786.224	17700.17
786.558	17686.16
786.891	17643.67
787.224	17547.18
787.557	17486.62
787.891	17464.02
788.224	17421.08
788.557	17399.16
788.89	17377.92
789.223	17290.46
789.556	17129.79
789.888	17138.15
790.221	17063.58
790.554	16831.49
790.887	16933.18
791.219	16865.39
791.552	16770.48
791.884	16708.56
792.217	16708.33
792.549	16643.7
792.882	16551.73
793.214	16360.54
793.546	16462.46
793.879	16344.05
794.211	16250.72
794.543	16315.57
794.875	16192.19
795.207	16208.91
795.539	16187.44
795.871	16132.98
796.203	15943.61
796.535	15955.58
796.867	15860.67
797.198	15907
797.53	15847.11
797.862	15682.14
798.193	15738.41
798.525	15625.87
798.856	15729.6
799.188	15416.39
799.519	15493.45
799.85	15335.71
800.182	15453
800.513	15489.83
800.844	15198.54
801.175	15347.46
801.506	15292.55
801.837	15168.26
802.168	15148.82
802.499	15063.18
802.83	14997.19
803.161	15021.37
803.491	15041.26
803.822	14994.25
804.153	14889.62
804.483	14761.04
804.814	14735.73
805.145	14749.74
805.475	14709.06
805.805	14607.6
806.136	14650.31
806.466	14639.69
806.796	14604.66
807.126	14480.59
807.457	14454.15
807.787	14365.57
808.117	14349.07
808.447	14331.45
808.777	14377.55
809.107	14228.17
809.436	14202.18
809.766	14114.5
810.096	14172.35
810.426	14054.16
810.755	14008.29
811.085	14073.37
811.414	14018.23
811.744	13836.32
812.073	13891
812.403	13867.28
812.732	13820.05
813.061	13802.65
813.39	13735.08
813.719	13657.56
814.049	13737.56
814.378	13705.02
814.707	13577.57
815.036	13605.36
815.365	13530.79
815.693	13374.18
816.022	13330.79
816.351	13413.05
816.68	13344.58
817.008	13332.83
817.337	13239.04
817.665	13245.82
817.994	13258.25
818.322	13194.53
818.651	13114.75
818.979	13101.65
819.307	13166.73
819.636	13098.26
819.964	13005.6
820.292	13038.37
820.62	13037.02
820.948	12971.93
821.276	13026.85
821.604	13018.03
821.932	13007.86
822.259	12985.94
822.587	12953.4
822.915	12895.32
823.243	13063.68
823.57	12965.15
823.898	12888.77
824.225	12853.07
824.553	12949.56
824.88	12942.1
825.207	12955.89
825.535	12839.96
825.862	12884.93
826.189	12869.34
826.516	12999.5
826.843	12933.97
827.17	12967.87
827.497	12892.61
827.824	12967.41
828.151	12977.81
828.478	12918.6
828.805	12900.3
829.131	12873.86
829.458	12900.97
829.785	12834.31
830.111	12777.36
830.438	12928.77
830.764	12887.19
831.09	12863.91
831.417	12810.81
831.743	12859.85
832.069	12877.7
832.395	12821.43
832.722	12835.89
833.048	12781.66
833.374	12839.96
833.7	12753.86
834.026	12772.62
834.351	12760.19
834.677	12737.81
835.003	12721.77
835.329	12663.92
835.654	12672.73
835.98	12670.92
836.306	12568.55
836.631	12627.31
836.956	12631.83
837.282	12684.48
837.607	12553.86
837.932	12561.32
838.258	12559.74
838.583	12497.6
838.908	12405.62
839.233	12510.02
839.558	12491.49
839.883	12430.7
840.208	12405.17
840.533	12305.51
840.858	12318.39
841.182	12375.11
841.507	12386.64
841.832	12252.86
842.156	12209.02
842.481	12280.2
842.805	12211.95
843.13	12247.43
843.454	12126.98
843.778	12164.27
844.103	12061.67
844.427	12021.45
844.751	12153.88
845.075	12044.27
845.399	12004.5
845.723	11851.96
846.047	11888.12
846.371	11736.94
846.695	11885.86
847.019	11778.74
847.343	11675.92
847.666	11645.41
847.99	11584.85
848.313	11559.09
848.637	11508.02
848.96	11502.82
849.284	11515.7
849.607	11398.19
849.931	11322.26
850.254	11275.93
850.577	11209.95
850.9	11152.77
851.223	11090.63
851.546	11019.89
851.869	10994.81
852.192	11080.91
852.515	10933.57
852.838	10987.13
853.161	10907.81
853.483	10827.58
853.806	10877.3
854.129	10736.74
854.451	10718.21
854.774	10630.07
855.096	10665.33
855.419	10602.73
855.741	10628.72
856.063	10522.28
856.385	10527.48
856.708	10446.58
857.03	10428.27
857.352	10497.87
857.674	10396.18
857.996	10484.99
858.318	10282.06
858.64	10278.22
858.961	10277.31
859.283	10227.15
859.605	10168.62
859.926	10214.27
860.248	10114.38
860.57	10063.99
860.891	10031.22
861.212	10041.84
861.534	10130.65
861.855	10078.22
862.176	10035.29
862.498	10062.63
862.819	10009.07
863.14	9989.41
863.461	9936.53
863.782	9916.87
864.103	9899.7
864.424	9913.93
864.745	9882.75
865.065	9809.08
865.386	9865.12
865.707	9801.17
866.027	9836.2
866.348	9757.1
866.668	9762.53
866.989	9697.89
867.309	9710.1
867.63	9721.85
867.95	9733.37
868.27	9644.11
868.59	9684.79
868.91	9630.78
869.23	9597.11
869.55	9546.49
869.87	9620.38
870.19	9593.04
870.51	9615.86
870.83	9627.61
871.15	9532.48
871.469	9494.74
871.789	9523.44
872.109	9542.42
872.428	9472.59
872.748	9554.62
873.067	9473.49
873.386	9462.65
873.706	9460.61
874.025	9326.15
874.344	9307.17
874.663	9356.43
874.982	9342.65
875.301	9414.74
875.62	9341.07
875.939	9303.55
876.258	9266.49
876.577	9272.82
876.896	9285.93
877.214	9213.16
877.533	9197.57
877.852	9186.95
878.17	9224.01
878.489	9185.59
878.807	9266.72
879.125	9157.57
879.444	9140.85
879.762	9077.12
880.08	9134.29
880.398	9098.36
880.716	9145.82
881.034	9083.9
881.352	9012.49
881.67	9047.52
881.988	9036.67
882.306	8969.55
882.624	8929.78
882.941	8911.02
883.259	8912.15
883.577	8898.59
883.894	8860.63
884.212	8803.23
884.529	8828.31
884.846	8803.23
885.164	8790.57
885.481	8805.71
885.798	8784.47
886.115	8734.08
886.432	8712.38
886.75	8737.02
887.067	8729.78
887.383	8585.83
887.7	8652.72
888.017	8565.27
888.334	8583.57
888.651	8544.03
888.967	8563.46
889.284	8526.17
889.6	8485.27
889.917	8424.48
890.233	8432.17
890.55	8443.01
890.866	8386.29
891.182	8350.36
891.498	8329.34
891.815	8339.51
892.131	8281.66
892.447	8350.81
892.763	8199.18
893.079	8198.5
893.395	8230.81
893.71	8181.78
894.026	8130.48
894.342	8097.26
894.657	8041.89
894.973	8097.71
895.289	8068.79
895.604	8072.17
895.92	7964.83
896.235	7947.21
896.55	7944.04
896.865	7874.67
897.181	7865.4
897.496	7891.84
897.811	7862.01
898.126	7831.05
898.441	7782.46
898.756	7779.3
899.071	7640.77
899.386	7735.01
899.7	7648.68
900.015	7617.27
900.33	7651.39
900.644	7603.49
900.959	7593.54
901.273	7514.45
901.588	7504.96
901.902	7416.82
902.216	7491.63
902.531	7430.61
902.845	7456.37
903.159	7420.21
903.473	7304.74
903.787	7344.06
904.101	7220.9
904.415	7287.56
904.729	7225.87
905.042	7206.89
905.356	7205.98
905.67	7144.97
905.984	7166.66
906.297	7129.6
906.611	7097.96
906.924	7018.42
907.237	7023.84
907.551	6995.37
907.864	6975.25
908.177	6961.47
908.491	6998.53
908.804	6890.51
909.117	6892.09
909.43	6815.26
909.743	6777.75
910.056	6829.04
910.368	6746.56
910.681	6740.23
910.994	6703.4
911.307	6648.26
911.619	6591.08
911.932	6712.89
912.244	6619.11
912.557	6567.81
912.869	6575.04
913.181	6509.5
913.494	6406.46
913.806	6473.35
914.118	6478.77
914.43	6362.62
914.742	6437.87
915.054	6335.5
915.366	6296.63
915.678	6332.11
915.99	6251.21
916.302	6229.06
916.613	6207.82
916.925	6151.32
917.236	6146.58
917.548	6176.86
917.859	6092.79
918.171	6068.16
918.482	6080.59
918.794	5999.69
919.105	6049.63
919.416	5976.41
919.727	6018.67
920.038	5919.01
920.349	5902.97
920.66	5907.49
920.971	5850.09
921.282	5899.8
921.593	5810.99
921.903	5737.09
922.214	5807.6
922.525	5782.29
922.835	5751.33
923.146	5691.67
923.456	5686.02
923.767	5645.35
924.077	5631.56
924.387	5611.67
924.697	5584.56
925.008	5614.39
925.318	5527.38
925.628	5557.21
925.938	5531.45
926.248	5471.11
926.558	5430.66
926.867	5413.94
927.177	5406.03
927.487	5364.68
927.796	5376.2
928.106	5285.58
928.416	5328.74
928.725	5287.84
929.034	5282.42
929.344	5289.42
929.653	5269.99
929.962	5223.89
930.271	5190.67
930.581	5163.78
930.89	5112.48
931.199	5126.26
931.508	5081.52
931.817	5083.1
932.125	5117.68
932.434	5053.95
932.743	4998.36
933.051	5006.94
933.36	4917.68
933.669	4912.26
933.977	4910.9
934.286	4917.23
934.594	4890.34
934.902	4826.61
935.21	4866.38
935.519	4841.98
935.827	4800.17
936.135	4777.12
936.443	4760.17
936.751	4757.46
937.059	4753.84
937.367	4706.61
937.674	4734.86
937.982	4659.38
938.29	4656.45
938.597	4628.42
938.905	4588.2
939.213	4557.92
939.52	4560.85
939.827	4543
940.135	4548.65
940.442	4545.49
940.749	4475.43
941.056	4492.83
941.363	4435.21
941.67	4394.08
941.977	4392.72
942.284	4385.27
942.591	4408.54
942.898	4377.81
943.205	4369.45
943.511	4313.18
943.818	4244.93
944.125	4280.18
944.431	4194.99
944.738	4206.74
945.044	4232.05
945.35	4183.92
945.657	4172.62
945.963	4178.27
946.269	4146.85
946.575	4123.58
946.881	4118.83
947.187	4081.55
947.493	4068.21
947.799	4112.96
948.105	4046.29
948.41	4031.83
948.716	4087.19
949.022	3957.03
949.327	4037.25
949.633	3925.17
949.938	3961.32
950.244	3962.23
950.549	3942.34
950.854	3945.28
951.16	3862.12
951.465	3880.19
951.77	3816.92
952.075	3777.6
952.38	3841.33
952.685	3790.03
952.99	3753.42
953.294	3787.54
953.599	3740.54
953.904	3757.71
954.209	3713.87
954.513	3700.09
954.818	3699.63
955.122	3680.43
955.426	3633.2
955.731	3606.3
956.035	3617.83
956.339	3627.55
956.643	3579.19
956.948	3559.98
957.252	3544.16
957.556	3575.12
957.86	3540.77
958.163	3534.44
958.467	3484.95
958.771	3506.65
959.075	3479.08
959.378	3479.75
959.682	3457.15
959.985	3403.14
960.289	3416.93
960.592	3404.27
960.896	3395.46
961.199	3364.05
961.502	3371.28
961.805	3385.52
962.108	3294.22
962.411	3330.15
962.714	3290.38
963.017	3293.54
963.32	3289.25
963.623	3269.82
963.926	3223.49
964.228	3189.82
964.531	3207.67
964.833	3186.88
965.136	3211.74
965.438	3160.21
965.741	3169.7
966.043	3149.82
966.345	3086.54
966.648	3113.44
966.95	3146.43
967.252	3076.83
967.554	3064.62
967.856	3079.99
968.158	3036.15
968.46	3046.54
968.761	3007.9
969.063	2992.76
969.365	2988.01
969.666	2948.24
969.968	2965.87
970.269	2930.16
970.571	2932.2
970.872	2949.37
971.174	2908.47
971.475	2907.34
971.776	2900.33
972.077	2870.73
972.378	2875.25
972.679	2857.17
972.98	2845.87
973.281	2796.38
973.582	2852.88
973.883	2819.88
974.183	2798.42
974.484	2800.67
974.785	2765.87
975.085	2788.02
975.386	2733.11
975.686	2706.21
975.986	2683.84
976.287	2695.82
976.587	2675.71
976.887	2692.2
977.187	2697.85
977.487	2670.28
977.787	2645.65
978.087	2665.99
978.387	2633.67
978.687	2633.22
978.987	2620.34
979.286	2599.78
979.586	2605.88
979.885	2566.78
980.185	2577.18
980.484	2550.51
980.784	2545.09
981.083	2523.39
981.382	2517.07
981.682	2544.41
981.981	2516.61
982.28	2480.68
982.579	2468.25
982.878	2486.78
983.177	2437.52
983.475	2457.41
983.774	2453.34
984.073	2419.67
984.372	2415.15
984.67	2413.11
984.969	2406.11
985.267	2367.47
985.566	2350.52
985.864	2333.79
986.162	2352.1
986.461	2372.44
986.759	2309.39
987.057	2333.12
987.355	2339.22
987.653	2277.75
987.951	2284.53
988.249	2278.43
988.547	2264.64
988.844	2263.97
989.142	2263.51
989.44	2230.29
989.737	2230.97
990.035	2219
990.332	2214.93
990.63	2169.05
990.927	2191.65
991.224	2151.65
991.521	2199.56
991.819	2177.19
992.116	2168.15
992.413	2154.82
992.71	2134.93
993.006	2112.11
993.303	2132.22
993.6	2113.69
993.897	2112.56
994.193	2095.61
994.49	2079.56
994.787	2045.21
995.083	2067.59
995.379	2045.67
995.676	2046.34
995.972	2032.33
996.268	2026.46
996.565	2001.83
996.861	1996.63
997.157	1964.09
997.453	1966.57
997.749	1957.76
998.044	1956.18
998.34	1960.92
998.636	1958.44
998.932	1924.77
999.227	1915.5
999.523	1920.25
999.818	1906.24
1000.114	1890.42
1000.409	1870.98
1000.704	1864.2
1001	1859
1001.295	1861.49
1001.59	1852.9
1001.885	1839.34
1002.18	1803.86
1002.475	1835.73
1002.77	1810.19
1003.065	1776.75
1003.359	1789.18
1003.654	1807.71
1003.949	1776.52
1004.243	1735.39
1004.538	1773.13
1004.832	1744.21
1005.127	1715.28
1005.421	1735.62
1005.715	1728.84
1006.009	1695.85
1006.304	1724.55
1006.598	1705.34
1006.892	1658.56
1007.186	1681.61
1007.48	1646.13
1007.773	1646.81
1008.067	1630.99
1008.361	1623.53
1008.655	1629.41
1008.948	1616.53
1009.242	1609.97
1009.535	1618.79
1009.829	1588.5
1010.122	1558.45
1010.415	1592.35
1010.708	1571.33
1011.001	1540.82
1011.295	1537.21
1011.588	1516.87
1011.881	1558.67
1012.173	1529.3
1012.466	1512.12
1012.759	1487.04
1013.052	1524.78
1013.344	1469.86
1013.637	1482.29
1013.93	1487.26
1014.222	1461.5
1014.514	1457.43
1014.807	1438.9
1015.099	1420.15
1015.391	1431.67
1015.683	1427.15
1015.976	1424.67
1016.268	1398.68
1016.56	1386.47
1016.851	1401.62
1017.143	1413.59
1017.435	1360.71
1017.727	1364.78
1018.018	1359.13
1018.31	1347.38
1018.602	1337.44
1018.893	1319.36
1019.185	1321.62
1019.476	1317.32
1019.767	1315.74
1020.058	1306.25
1020.35	1303.31
1020.641	1269.64
1020.932	1238.68
1021.223	1256.31
1021.514	1295.86
1021.804	1230.09
1022.095	1240.49
1022.386	1267.61
1022.677	1243.2
1022.967	1214.73
1023.258	1213.37
1023.548	1228.74
1023.839	1222.41
1024.129	1203.2
1024.419	1178.34
1024.709	1152.58
1025	1158.01
1025.29	1148.74
1025.58	1162.3
1025.87	1130.44
1026.16	1160.04
1026.449	1152.36
1026.739	1141.96
1027.029	1124.33
1027.319	1105.13
1027.608	1103.54
1027.898	1075.07
1028.187	1098.12
1028.477	1110.32
1028.766	1088.86
1029.055	1078.23
1029.344	1054.28
1029.634	1073.26
1029.923	1034.39
1030.212	1033.49
1030.501	1042.76
1030.79	1046.82
1031.078	995.75
1031.367	1023.09
1031.656	1031.46
1031.945	993.04
1032.233	1000.95
1032.522	992.81
1032.81	995.98
1033.099	983.1
1033.387	966.15
1033.675	942.87
1033.963	955.75
1034.251	961.63
1034.54	978.12
1034.828	937.67
1035.116	955.53
1035.403	934.51
1035.691	919.59
1035.979	904
1036.267	891.12
1036.554	909.2
1036.842	916.2
1037.129	902.65
1037.417	884.57
1037.704	912.59
1037.992	889.31
1038.279	882.53
1038.566	866.26
1038.853	866.26
1039.14	866.26
