Data from hue_340_FLMS001491_96.txt Node
Date: Mon Feb 06 15:43:54 GMT 2017
User: dcchb
Spectrometer: FLMS00149
Trigger mode: 0
Integration Time (sec): 2.000000E-2
Scans to average: 10
Electric dark correction enabled: true
Nonlinearity correction enabled: false
Boxcar width: 0
XAxis mode: Wavelengths
Number of Pixels in Spectrum: 2048
>>>>>Begin Spectral Data<<<<<
341.393	-15.41
341.776	-15.41
342.16	-15.41
342.543	-49.98
342.927	-65.58
343.31	-79.14
343.693	-69.42
344.077	-77.55
344.46	-75.52
344.843	-41.85
345.226	-32.58
345.61	-33.71
345.993	-29.42
346.376	4.48
346.759	12.16
347.142	41.09
347.525	41.31
347.908	62.33
348.291	72.72
348.674	79.73
349.057	125.38
349.44	133.06
349.823	142.55
350.206	153.85
350.588	179.16
350.971	208.99
351.354	214.42
351.737	240.4
352.119	258.93
352.502	248.31
352.884	266.62
353.267	288.76
353.65	274.07
354.032	294.41
354.414	296.67
354.797	297.35
355.179	316.56
355.562	299.61
355.944	321.53
356.326	328.99
356.709	339.38
357.091	318.59
357.473	325.6
357.855	339.16
358.238	336.67
358.62	345.71
359.002	330.8
359.384	342.1
359.766	329.89
360.148	326.95
360.53	314.3
360.912	339.84
361.294	316.79
361.676	329.44
362.057	308.2
362.439	319.27
362.821	324.24
363.203	308.88
363.584	314.98
363.966	312.04
364.348	318.82
364.729	312.49
365.111	326.73
365.493	301.19
365.874	331.93
366.256	303.45
366.637	296
367.019	289.89
367.4	295.32
367.781	309.55
368.163	319.95
368.544	293.06
368.925	315.2
369.306	324.47
369.688	299.84
370.069	297.58
370.45	296.9
370.831	313.85
371.212	297.12
371.593	304.36
371.974	310.68
372.355	305.03
372.736	316.33
373.117	316.56
373.498	292.15
373.879	285.6
374.26	298.25
374.641	312.94
375.021	291.25
375.402	300.51
375.783	319.95
376.163	330.34
376.544	307.97
376.925	328.08
377.305	307.52
377.686	294.19
378.066	309.55
378.447	306.39
378.827	310.01
379.208	319.95
379.588	309.1
379.968	314.3
380.349	331.25
380.729	337.8
381.109	313.85
381.489	333.51
381.87	345.94
382.25	324.92
382.63	313.4
383.01	305.49
383.39	352.72
383.77	337.12
384.15	344.13
384.53	307.52
384.91	336.9
385.29	319.05
385.67	338.25
386.049	346.39
386.429	332.15
386.809	346.84
387.189	361.53
387.568	335.32
387.948	353.85
388.328	351.81
388.707	368.76
389.087	329.21
389.466	328.99
389.846	338.93
390.225	349.78
390.605	345.94
390.984	361.3
391.363	346.39
391.743	370.8
392.122	341.42
392.501	360.85
392.881	328.54
393.26	364.02
393.639	348.2
394.018	359.27
394.397	348.88
394.776	349.33
395.155	369.67
395.534	359.95
395.913	348.42
396.292	365.37
396.671	374.41
397.05	383.22
397.429	369.44
397.808	374.41
398.186	363.79
398.565	351.36
398.944	359.95
399.323	378.48
399.701	385.26
400.08	384.13
400.458	382.32
400.837	390.91
401.215	368.08
401.594	364.69
401.972	374.19
402.351	385.03
402.729	390.23
403.107	413.28
403.486	371.02
403.864	383.45
404.242	372.38
404.62	396.56
404.999	423
405.377	414.41
405.755	386.84
406.133	412.6
406.511	424.81
406.889	420.74
407.267	403.11
407.645	408.76
408.023	428.42
408.401	417.8
408.779	425.48
409.156	413.73
409.534	441.75
409.912	413.96
410.29	441.98
410.667	446.27
411.045	436.78
411.422	477.01
411.8	441.08
412.178	458.25
412.555	448.08
412.933	443.11
413.31	467.06
413.687	493.05
414.065	484.24
414.442	463.67
414.819	492.6
415.197	480.85
415.574	474.97
415.951	485.59
416.328	482.2
416.705	470.23
417.082	505.26
417.46	495.99
417.837	503
418.214	500.96
418.591	494.63
418.967	511.13
419.344	501.41
419.721	510
420.098	525.37
420.475	537.57
420.852	518.81
421.228	525.37
421.605	560.62
421.982	535.76
422.358	545.03
422.735	571.92
423.111	537.8
423.488	573.28
423.864	564.46
424.241	572.82
424.617	589.32
424.994	580.06
425.37	592.26
425.746	600.39
426.123	580.51
426.499	608.53
426.875	588.87
427.251	591.58
427.627	608.3
428.003	592.94
428.379	638.81
428.756	626.38
429.132	648.3
429.507	617.34
429.883	624.57
430.259	646.95
430.635	640.62
431.011	671.58
431.387	665.02
431.763	662.31
432.138	676.32
432.514	679.49
432.89	689.88
433.265	708.41
433.641	707.74
434.016	709.77
434.392	683.33
434.767	714.52
435.143	720.16
435.518	728.75
435.894	751.8
436.269	739.37
436.644	754.97
437.02	746.15
437.395	754.06
437.77	754.97
438.145	759.71
438.52	793.61
438.895	755.87
439.271	775.53
439.646	788.64
440.021	774.17
440.395	797.45
440.77	795.42
441.145	802.65
441.52	815.76
441.895	825.47
442.27	804.46
442.645	812.37
443.019	845.59
443.394	826.15
443.769	834.96
444.143	813.72
444.518	826.83
444.892	824.34
445.267	832.25
445.641	813.27
446.016	859.6
446.39	882.65
446.764	849.43
447.139	881.29
447.513	844.68
447.887	851.91
448.262	876.54
448.636	878.8
449.01	879.03
449.384	889.88
449.758	879.26
450.132	873.83
450.506	883.55
450.88	887.39
451.254	885.58
451.628	903.89
452.002	925.13
452.376	921.29
452.75	915.87
453.123	921.29
453.497	951.8
453.871	931.01
454.244	948.18
454.618	924.45
454.992	985.24
455.365	965.81
455.739	977.11
456.112	980.04
456.486	982.3
456.859	982.3
457.232	1025.47
457.606	994.06
457.979	1021.85
458.352	1018.01
458.725	1032.25
459.099	1018.69
459.472	1041.74
459.845	1051.23
460.218	1071.79
460.591	1081.51
460.964	1074.05
461.337	1089.42
461.71	1094.39
462.083	1105.24
462.456	1130.1
462.829	1091.68
463.201	1142.07
463.574	1124
463.947	1144.11
464.32	1149.53
464.692	1182.98
465.065	1160.83
465.438	1190.21
465.81	1194.95
466.183	1179.81
466.555	1202.86
466.928	1258.46
467.3	1209.42
467.672	1253.48
468.045	1255.97
468.417	1264.78
468.789	1301.62
469.161	1281.05
469.534	1311.11
469.906	1314.5
470.278	1325.12
470.65	1344.1
471.022	1359.47
471.394	1366.48
471.766	1388.62
472.138	1400.6
472.51	1420.71
472.882	1432.01
473.253	1454.38
473.625	1478.79
473.997	1505.68
474.369	1509.97
474.74	1475.63
475.112	1529.18
475.484	1553.59
475.855	1601.27
476.227	1582.97
476.598	1604.66
476.97	1638.11
477.341	1686.92
477.713	1695.05
478.084	1681.04
478.455	1753.36
478.827	1760.36
479.198	1810.31
479.569	1786.8
479.94	1844.65
480.311	1857.08
480.682	1887.37
481.053	1899.12
481.424	1909.51
481.795	1922.39
482.166	1981.83
482.537	2010.75
482.908	2071.32
483.279	2078.1
483.65	2104.54
484.021	2160.35
484.391	2159.9
484.762	2193.35
485.133	2187.7
485.503	2212.78
485.874	2249.84
486.244	2268.37
486.615	2288.26
486.985	2296.62
487.356	2389.5
487.726	2395.37
488.097	2415.04
488.467	2403.28
488.837	2487.8
489.207	2466.11
489.578	2537.74
489.948	2576.84
490.318	2597.4
490.688	2600.57
491.058	2648.25
491.428	2660.23
491.798	2691.19
492.168	2760.56
492.538	2751.07
492.908	2795.59
493.278	2814.57
493.648	2822.93
494.017	2857.28
494.387	2876.49
494.757	2917.4
495.126	2939.77
495.496	2957.17
495.866	2966.21
496.235	2993.33
496.605	2998.52
496.974	3022.93
497.344	3022.25
497.713	3038.75
498.082	3051.18
498.452	3102.93
498.821	3115.36
499.19	3135.69
499.559	3177.28
499.928	3194.68
500.298	3197.39
500.667	3163.72
501.036	3207.1
501.405	3291.85
501.774	3236.93
502.143	3230.38
502.512	3289.81
502.88	3282.58
503.249	3280.1
503.618	3358.29
503.987	3358.06
504.356	3350.6
504.724	3375.01
505.093	3384.95
505.462	3405.52
505.83	3393.77
506.199	3415.24
506.567	3479.41
506.936	3427.89
507.304	3458.85
507.672	3465.86
508.041	3500.66
508.409	3520.99
508.777	3570.03
509.145	3535.01
509.514	3563.25
509.882	3564.61
510.25	3547.21
510.618	3581.11
510.986	3600.31
511.354	3640.09
511.722	3674.66
512.09	3687.09
512.458	3649.13
512.826	3698.39
513.193	3727.09
513.561	3684.15
513.929	3733.87
514.297	3748.11
514.664	3765.96
515.032	3728.9
515.4	3798.95
515.767	3755.79
516.135	3774.77
516.502	3760.54
516.869	3801.21
517.237	3821.33
517.604	3825.62
517.972	3869.23
518.339	3885.51
518.706	3876.24
519.073	3873.75
519.44	3935.9
519.808	3905.39
520.175	3909.46
520.542	3911.27
520.909	3958.95
521.276	3931.38
521.643	4003.24
522.009	3975.67
522.376	3990.59
522.743	4047.31
523.11	4048.21
523.477	4053.86
523.843	4090.02
524.21	4095.9
524.577	4160.3
524.943	4138.38
525.31	4161.66
525.676	4201.88
526.043	4163.69
526.409	4180.19
526.776	4263.8
527.142	4275.55
527.508	4264.93
527.874	4272.16
528.241	4303.12
528.607	4318.71
528.973	4393.29
529.339	4344.48
529.705	4384.7
530.071	4459.05
530.437	4442.78
530.803	4411.37
531.169	4488.65
531.535	4492.49
531.901	4480.52
532.267	4538.37
532.632	4577.69
532.998	4562.1
533.364	4611.59
533.73	4577.01
534.095	4615.43
534.461	4652.49
534.826	4641.19
535.192	4668.54
535.557	4701.53
535.923	4629.21
536.288	4705.37
536.653	4729.32
537.019	4715.31
537.384	4774.75
537.749	4780.4
538.114	4801.87
538.479	4808.64
538.845	4877.57
539.21	4853.84
539.575	4939.04
539.94	4885.25
540.305	4912.37
540.67	4940.62
541.034	4944.69
541.399	4973.84
541.764	4949.66
542.129	5042.99
542.494	5039.15
542.858	5067.85
543.223	5052.25
543.587	5099.26
543.952	5109.65
544.316	5136.32
544.681	5131.35
545.045	5104.23
545.41	5177.9
545.774	5221.52
546.138	5162.53
546.503	5215.19
546.867	5270.78
547.231	5288.86
547.595	5304
547.959	5339.93
548.324	5285.02
548.688	5351.91
549.052	5366.82
549.416	5373.83
549.779	5406.37
550.143	5392.58
550.507	5472.58
550.871	5449.08
551.235	5470.32
551.599	5543.77
551.962	5502.86
552.326	5503.99
552.689	5489.53
553.053	5546.93
553.417	5556.42
553.78	5646.59
554.143	5573.14
554.507	5645.68
554.87	5641.39
555.234	5674.16
555.597	5675.51
555.96	5708.28
556.323	5784.44
556.686	5719.58
557.05	5752.35
557.413	5739.24
557.776	5791.67
558.139	5849.3
558.502	5783.08
558.865	5770.43
559.228	5828.5
559.59	5847.26
559.953	5901.72
560.316	5976.98
560.679	5905.79
561.041	5950.31
561.404	5955.96
561.767	6002.74
562.129	5965.9
562.492	6050.19
562.854	6015.39
563.217	6041.61
563.579	6103.3
563.941	6051.78
564.304	6101.94
564.666	6211.09
565.028	6131.1
565.39	6163.41
565.753	6166.8
566.115	6172.22
566.477	6227.14
566.839	6221.26
567.201	6222.62
567.563	6310.75
567.925	6320.92
568.287	6339.45
568.648	6370.64
569.01	6353.01
569.372	6453.8
569.734	6441.14
570.095	6442.05
570.457	6467.81
570.819	6567.47
571.18	6568.15
571.542	6625.09
571.903	6612.89
572.265	6650.86
572.626	6734.02
572.987	6730.4
573.349	6727.92
573.71	6793.9
574.071	6842.72
574.432	6853.11
574.794	6979.44
575.155	7003.84
575.516	6993.22
575.877	7045.42
576.238	7129.94
576.599	7150.28
576.96	7208.81
577.32	7291.97
577.681	7349.82
578.042	7408.58
578.403	7486.77
578.763	7604.96
579.124	7633.66
579.485	7736.7
579.845	7862.58
580.206	7904.83
580.566	8012.85
580.927	8053.53
581.287	8173.08
581.648	8237.71
582.008	8435.67
582.368	8527.19
582.728	8710.46
583.089	8746.17
583.449	8994.07
583.809	9084.92
584.169	9287.85
584.529	9397
584.889	9612.13
585.249	9802.41
585.609	9783.43
585.969	10094.61
586.329	10156.98
586.688	10396.75
587.048	10623.86
587.408	10815.49
587.768	11006.22
588.127	11212.77
588.487	11410.28
588.846	11637.39
589.206	11852.08
589.565	11992.64
589.925	12419.29
590.284	12545.84
590.643	12782.45
591.003	13055.89
591.362	13320.74
591.721	13521.18
592.08	13821.29
592.44	14125.01
592.799	14271.45
593.158	14527.26
593.517	14768.38
593.876	15184.42
594.235	15315.49
594.593	15586.44
594.952	15881.57
595.311	16014.9
595.67	16483.37
596.029	16860.53
596.387	17100.98
596.746	17376.45
597.104	17518.82
597.463	17810.79
597.822	18184.34
598.18	18465.01
598.538	18592.24
598.897	19015.28
599.255	19108.83
599.613	19686.9
599.972	19855.03
600.33	20113.55
600.688	20277.84
601.046	20733.42
601.404	20984.04
601.762	21141.1
602.12	21712.38
602.478	21931.58
602.836	22043.45
603.194	22140.62
603.552	22485.92
603.91	22553.49
604.268	23000.03
604.625	23176.75
604.983	23433.69
605.341	23646.12
605.698	24020.79
606.056	24211.52
606.413	24397.51
606.771	24686.54
607.128	24960.88
607.485	25058.73
607.843	25255.34
608.2	25605.61
608.557	25908.65
608.914	25946.62
609.272	26339.6
609.629	26389.32
609.986	26724.23
610.343	26843.77
610.7	27208.06
611.057	27334.61
611.414	27484.21
611.771	27635.16
612.127	27881.48
612.484	28088.94
612.841	28403.96
613.198	28382.26
613.554	28693.21
613.911	28921.23
614.267	29055.24
614.624	29150.38
614.98	29322.58
615.337	29542.23
615.693	29597.15
616.05	29887.31
616.406	30110.58
616.762	30092.95
617.118	30231.03
617.475	30371.36
617.831	30592.83
618.187	30653.84
618.543	30856.32
618.899	31202.53
619.255	31063.55
619.611	31212.24
619.967	31461.73
620.323	31576.53
620.678	31400.26
621.034	31635.28
621.39	31630.31
621.746	31755.28
622.101	32243.63
622.457	32021.04
622.812	32272.1
623.168	32368.6
623.523	32541.25
623.879	32604.07
624.234	32534.92
624.589	32740.79
624.945	32923.16
625.3	32915.7
625.655	32962.25
626.01	33009.94
626.365	33153.44
626.72	33124.06
627.075	33197.05
627.43	33159.99
627.785	33207.9
628.14	33362.7
628.495	33478.4
628.85	33522.69
629.205	33381.23
629.559	33607.44
629.914	33601.33
630.269	33727.66
630.623	33598.4
630.978	33610.6
631.332	33676.81
631.687	33800.88
632.041	33785.28
632.396	33926.07
632.75	33704.38
633.104	33903.02
633.459	33718.85
633.813	33693.08
634.167	33774.44
634.521	33725.17
634.875	33944.38
635.229	33964.49
635.583	33774.21
635.937	33858.28
636.291	33860.08
636.645	33934.66
636.999	33821.44
637.352	33958.16
637.706	33766.75
638.06	33810.82
638.413	33917.71
638.767	33805.85
639.121	33947.31
639.474	33729.69
639.828	33974.88
640.181	33799.07
640.534	34014.66
640.888	33890.37
641.241	33762.46
641.594	33885.62
641.947	34010.59
642.301	33867.99
642.654	33966.97
643.007	33869.58
643.36	33842.91
643.713	33889.91
644.066	33943.92
644.419	33656.47
644.771	33459.19
645.124	33323.38
645.477	33220.1
645.83	33036.6
646.182	32893.78
646.535	32787.57
646.888	32777.4
647.24	32694.24
647.593	32925.65
647.945	32911.18
648.298	32786.67
648.65	32644.07
649.002	32689.72
649.355	32767.23
649.707	32800.9
650.059	32844.97
650.411	33256.94
650.763	33167
651.115	33603.82
651.467	33441.11
651.819	33583.48
652.171	33341.23
652.523	33426.42
652.875	33400.21
653.227	33211.06
653.578	33550.26
653.93	33377.84
654.282	33295.81
654.633	33315.01
654.985	33423.94
655.337	33473.65
655.688	33378.52
656.039	33481.34
656.391	33153.89
656.742	33309.82
657.094	33226.2
657.445	33330.61
657.796	33280.66
658.147	33139.2
658.498	33197.28
658.849	33318.4
659.2	33230.04
659.551	33188.46
659.902	33261.46
660.253	33192.53
660.604	33240.44
660.955	33044.96
661.306	33266.43
661.656	33171.29
662.007	33145.98
662.358	33136.94
662.708	33184.17
663.059	33151.85
663.409	32917.74
663.76	33188.24
664.11	33143.72
664.461	33259.2
664.811	33207.45
665.161	33214.45
665.511	33042.48
665.862	33248.12
666.212	33226.65
666.562	33298.74
666.912	33138.97
667.262	33174.9
667.612	33152.98
667.962	33071.18
668.312	33105.98
668.662	33168.35
669.011	33004.97
669.361	33027.79
669.711	33053.78
670.06	32972.88
670.41	32982.37
670.76	33010.62
671.109	33141.69
671.459	32995.7
671.808	32809.04
672.157	32992.76
672.507	32774.92
672.856	32735.14
673.205	32880.22
673.554	32926.1
673.904	32728.14
674.253	32958.19
674.602	32927.23
674.951	32484.75
675.3	32239.79
675.649	32724.97
675.998	32663.73
676.346	32764.75
676.695	32857.17
677.044	32662.6
677.393	32729.27
677.741	32870.05
678.09	32726.55
678.438	32624.41
678.787	32684.07
679.135	32708.93
679.484	32379.22
679.832	32587.35
680.181	32442.72
680.529	32593.22
680.877	32459.22
681.225	32336.96
681.573	32572.43
681.922	32308.03
682.27	32284.08
682.618	32293.57
682.966	32237.08
683.314	32283.63
683.661	32167.7
684.009	31969.96
684.357	31988.5
684.705	31924.32
685.053	31900.36
685.4	31721.38
685.748	31757.99
686.095	31700.82
686.443	31730.87
686.79	31589.64
687.138	31827.14
687.485	31741.5
687.832	31564.78
688.18	31588.96
688.527	31356.2
688.874	31417.89
689.221	31350.55
689.568	31208.4
689.915	31197.33
690.262	31148.97
690.609	31049.54
690.956	30961.86
691.303	30895.19
691.65	30731.8
691.997	30733.16
692.344	30505.6
692.69	30650.45
693.037	30582.66
693.383	30455.65
693.73	30331.14
694.077	30172.27
694.423	30283.68
694.769	30230.35
695.116	30081.65
695.462	29997.81
695.808	29963.92
696.155	30026.51
696.501	29845.5
696.847	29746.29
697.193	29623.59
697.539	29717.59
697.885	29428.79
698.231	29398.73
698.577	29437.38
698.923	29387.89
699.269	29282.35
699.614	29210.49
699.96	29139.08
700.306	29098.4
700.651	28905.41
700.997	28877.16
701.342	28835.58
701.688	28871.97
702.033	28636.72
702.379	28779.31
702.724	28555.36
703.069	28758.75
703.415	28336.61
703.76	28591.3
704.105	28480.56
704.45	28234.92
704.795	28208.71
705.14	28008.71
705.485	28017.53
705.83	27880.58
706.175	28054.36
706.52	27874.25
706.865	27784.76
707.209	27851.88
707.554	27698.44
707.899	27744.31
708.243	27569.85
708.588	27586.8
708.932	27319.24
709.277	27345.23
709.621	27393.59
709.966	27146.59
710.31	27189.53
710.654	27073.14
710.998	26984.33
711.342	26991.56
711.687	26900.27
712.031	26955.18
712.375	26817.56
712.719	26851.23
713.063	26691.69
713.407	26692.59
713.75	26724.23
714.094	26562.42
714.438	26364.01
714.782	26391.58
715.125	26359.49
715.469	26445.59
715.812	26298.93
716.156	26137.58
716.499	26195.2
716.843	26199.95
717.186	26044.7
717.53	26163.34
717.873	25959.28
718.216	26058.48
718.559	25937.35
718.902	25744.37
719.246	25712.5
719.589	25811.03
719.932	25684.71
720.275	25651.49
720.617	25565.39
720.96	25524.48
721.303	25489.91
721.646	25540.98
721.989	25440.64
722.331	25526.97
722.674	25463.24
723.016	25374.88
723.359	25376.92
723.701	25286.52
724.044	25161.33
724.386	25184.38
724.729	25193.19
725.071	25129.01
725.413	25090.15
725.755	24982.13
726.097	24932.18
726.439	24838.85
726.782	24848.8
727.124	24984.84
727.465	24788.01
727.807	24886.08
728.149	24727.67
728.491	24714.11
728.833	24794.11
729.175	24619.42
729.516	24594.79
729.858	24682.7
730.199	24513.66
730.541	24517.05
730.882	24577.84
731.224	24489.71
731.565	24424.85
731.906	24336.04
732.248	24320.9
732.589	24192.09
732.93	24184.86
733.271	24264.18
733.612	24252.2
733.953	24284.06
734.294	24130.4
734.635	23967.91
734.976	24118.42
735.317	24056.5
735.658	23930.18
735.999	23996.39
736.339	23902.38
736.68	23924.07
737.021	23808.15
737.361	23595.95
737.702	23793.68
738.042	23752.1
738.383	23704.65
738.723	23709.16
739.063	23642.73
739.404	23722.72
739.744	23652.44
740.084	23548.27
740.424	23659.67
740.764	23503.75
741.104	23604.76
741.444	23453.13
741.784	23413.13
742.124	23441.15
742.464	23304.88
742.804	23335.16
743.143	23183.75
743.483	23223.75
743.823	23066.47
744.162	23174.26
744.502	23275.05
744.841	23154.15
745.181	23087.49
745.52	23044.32
745.86	23116.41
746.199	23032.57
746.538	22992.8
746.877	23089.52
747.216	22937.43
747.556	22956.19
747.895	22958.68
748.234	22798.45
748.573	22783.09
748.911	22852.69
749.25	22748.96
749.589	22656.99
749.928	22650.21
750.267	22642.3
750.605	22621.51
750.944	22635.07
751.283	22472.81
751.621	22502.42
751.96	22445.24
752.298	22384
752.636	22351.91
752.975	22271.24
753.313	22199.37
753.651	22336.77
753.989	22137.68
754.327	22163.67
754.666	22029.43
755.004	22059.49
755.342	22137
755.679	21932.26
756.017	21909.89
756.355	21880.29
756.693	21950.34
757.031	21858.82
757.368	21753.96
757.706	21644.59
758.044	21626.28
758.381	21612.72
758.719	21567.75
759.056	21508.77
759.394	21473.74
759.731	21329.79
760.068	21304.26
760.405	21185.84
760.743	21109.69
761.08	21243.47
761.417	21083.92
761.754	21062.45
762.091	21090.48
762.428	20912.4
762.765	20821.56
763.102	20973.87
763.438	20711.73
763.775	20633.99
764.112	20690.49
764.449	20743.82
764.785	20493.2
765.122	20472.41
765.458	20346.32
765.795	20391.06
766.131	20262.02
766.467	20237.17
766.804	20096.38
767.14	20010.96
767.476	20030.39
767.812	19976.38
768.148	19994.46
768.485	19796.73
768.821	19722.6
769.157	19727.57
769.492	19686.45
769.828	19618.2
770.164	19458.43
770.5	19449.84
770.836	19458.43
771.171	19382.5
771.507	19335.49
771.842	19156.52
772.178	19136.4
772.513	19074.03
772.849	18982.74
773.184	18907.48
773.519	18910.42
773.855	18780.71
774.19	18787.71
774.525	18679.01
774.86	18683.08
775.195	18550.66
775.53	18494.16
775.865	18438.34
776.2	18206.26
776.535	18240.61
776.87	18249.87
777.205	18157.67
777.539	18016.89
777.874	18069.76
778.209	17880.39
778.543	17859.83
778.878	17785.25
779.212	17846.27
779.547	17783.22
779.881	17710.45
780.215	17564.47
780.55	17607.4
780.884	17399.27
781.218	17470.23
781.552	17395.66
781.886	17381.65
782.22	17239.28
782.554	17158.15
782.888	16996.57
783.222	16971.04
783.556	16874.09
783.889	16965.84
784.223	16775.56
784.557	16806.52
784.89	16702.34
785.224	16657.82
785.557	16576.02
785.891	16511.39
786.224	16500.99
786.558	16489.24
786.891	16293.99
787.224	16231.62
787.557	16174.67
787.891	16271.62
788.224	16192.75
788.557	16210.83
788.89	16098.74
789.223	16086.77
789.556	15899.2
789.888	15917.05
790.221	15798.86
790.554	15668.02
790.887	15716.38
791.219	15581.92
791.552	15596.61
791.884	15451.53
792.217	15553
792.549	15409.95
792.882	15359.1
793.214	15178.54
793.546	15288.14
793.879	15222.16
794.211	15117.3
794.543	15200.01
794.875	15026.91
795.207	15130.18
795.539	14957.3
795.871	14974.03
796.203	14897.87
796.535	14798.44
796.867	14759.12
797.198	14743.52
797.53	14659.46
797.862	14532.23
798.193	14654.04
798.525	14571.78
798.856	14541.5
799.188	14315.97
799.519	14410.43
799.85	14365.23
800.182	14328.39
800.513	14175.63
800.844	14171.56
801.175	14184.9
801.506	14189.64
801.837	14127.95
802.168	14089.53
802.499	13971.34
802.83	13933.15
803.161	13939.93
803.491	13893.38
803.822	13876.88
804.153	13777.9
804.483	13729.09
804.814	13671.69
805.145	13684.57
805.475	13620.84
805.805	13633.05
806.136	13516.21
806.466	13540.84
806.796	13536.32
807.126	13369.55
807.457	13376.1
807.787	13382.43
808.117	13260.85
808.447	13347.63
808.777	13306.27
809.107	13239.16
809.436	13283.22
809.766	13154.41
810.096	13136.79
810.426	13083
810.755	12995.55
811.085	13064.7
811.414	12949.45
811.744	12963.46
812.073	12844.82
812.403	12854.08
812.732	12793.07
813.061	12808.43
813.39	12718.95
813.719	12681.66
814.049	12654.99
814.378	12691.38
814.707	12612.73
815.036	12637.59
815.365	12536.8
815.693	12495.45
816.022	12453.64
816.351	12465.62
816.68	12378.62
817.008	12355.34
817.337	12261.56
817.665	12285.28
817.994	12305.4
818.322	12258.39
818.651	12168.9
818.979	12123.03
819.307	12205.51
819.636	12206.64
819.964	12096.36
820.292	12163.93
820.62	12025.4
820.948	12032.41
821.276	12043.26
821.604	11994.22
821.932	12044.61
822.259	12104.72
822.587	12054.33
822.915	12044.61
823.243	12043.48
823.57	12041
823.898	12003.48
824.225	11959.64
824.553	11946.08
824.88	11946.54
825.207	11973.2
825.535	11875.8
825.862	11929.81
826.189	11922.13
826.516	11960.32
826.843	12105.18
827.17	12048.91
827.497	12003.26
827.824	11913.77
828.151	11968.23
828.478	11985.63
828.805	11987.89
829.131	11962.58
829.458	11983.82
829.785	11829.25
830.111	11905.18
830.438	11982.69
830.764	11961.9
831.09	11920.55
831.417	11891.4
831.743	11957.61
832.069	11949.93
832.395	11893.88
832.722	11841.23
833.048	11850.95
833.374	11871.28
833.7	11789.48
834.026	11817.5
834.351	11883.26
834.677	11828.35
835.003	11762.13
835.329	11789.25
835.654	11816.6
835.98	11726.65
836.306	11610.73
836.631	11757.39
836.956	11746.09
837.282	11699.09
837.607	11702.93
837.932	11639.65
838.258	11657.5
838.583	11658.41
838.908	11569.6
839.233	11507.9
839.558	11530.28
839.883	11504.97
840.208	11492.08
840.533	11495.25
840.858	11481.46
841.182	11457.28
841.507	11467
841.832	11346.55
842.156	11381.58
842.481	11339.77
842.805	11359.21
843.13	11342.26
843.454	11296.38
843.778	11259.32
844.103	11191.08
844.427	11213.9
844.751	11193.11
845.075	11135.26
845.399	11145.88
845.723	11058.88
846.047	11100.23
846.371	10976.39
846.695	11020.91
847.019	10890.52
847.343	10867.47
847.666	10832.89
847.99	10790.18
848.313	10784.76
848.637	10653.91
848.96	10621.37
849.284	10611.43
849.607	10567.14
849.931	10585.44
850.254	10486.91
850.577	10370.31
850.9	10329.18
851.223	10341.15
851.546	10254.38
851.869	10215.06
852.192	10296.41
852.515	10207.37
852.838	10110.88
853.161	10149.97
853.483	10097.32
853.806	10044.44
854.129	10075.17
854.451	10000.15
854.774	9954.95
855.096	9872.24
855.419	9859.13
855.741	9876.31
856.063	9864.33
856.385	9774.39
856.708	9780.94
857.03	9738.68
857.352	9694.39
857.674	9665.47
857.996	9596.54
858.318	9571.46
858.64	9541.63
858.961	9535.75
859.283	9537.33
859.605	9479.03
859.926	9509.99
860.248	9459.14
860.57	9447.17
860.891	9439.26
861.212	9388.86
861.534	9377.34
861.855	9339.83
862.176	9292.37
862.498	9347.51
862.819	9319.94
863.14	9297.57
863.461	9206.72
863.782	9201.98
864.103	9237.23
864.424	9145.03
864.745	9202.2
865.065	9155.2
865.386	9143.67
865.707	9144.12
866.027	9090.57
866.348	9087.85
866.668	9096.44
866.989	9076.33
867.309	9016.67
867.63	8985.26
867.95	8957.69
868.27	8907.97
868.59	8983.9
868.91	9035.2
869.23	8973.96
869.55	8909.55
869.87	8859.84
870.19	8919.72
870.51	8843.79
870.83	8894.19
871.15	8865.94
871.469	8844.24
871.789	8945.03
872.109	8845.15
872.428	8773.96
872.748	8773.29
873.067	8790.23
873.386	8754.76
873.706	8701.42
874.025	8707.3
874.344	8721.76
874.663	8687.64
874.982	8653.97
875.301	8716.79
875.62	8677.7
875.939	8594.31
876.258	8589.56
876.577	8620.97
876.896	8590.01
877.214	8554.76
877.533	8619.62
877.852	8567.42
878.17	8571.48
878.489	8544.82
878.807	8568.09
879.125	8513.18
879.444	8572.61
879.762	8435.44
880.08	8451.49
880.398	8409
880.716	8491.03
881.034	8390.92
881.352	8375.33
881.67	8363.81
881.988	8381.21
882.306	8321.09
882.624	8322.9
882.941	8324.71
883.259	8242.68
883.577	8250.81
883.894	8231.83
884.212	8261.89
884.529	8209.91
884.846	8162
885.164	8204.49
885.481	8179.86
885.798	8200.19
886.115	8111.83
886.432	8148.67
886.75	8072.29
887.067	8089.01
887.383	8009.69
887.7	8049.01
888.017	8028.67
888.334	8012.18
888.651	7958.84
888.967	7899.64
889.284	7895.8
889.6	7886.98
889.917	7812.63
890.233	7895.57
890.55	7879.3
890.866	7830.03
891.182	7795.23
891.498	7728.34
891.815	7731.51
892.131	7728.12
892.447	7666.87
892.763	7623.94
893.079	7635.01
893.395	7631.4
893.71	7618.74
894.026	7529.48
894.342	7538.97
894.657	7505.52
894.973	7500.55
895.289	7476.6
895.604	7499.2
895.92	7361.8
896.235	7384.4
896.55	7326.32
896.865	7388.46
897.181	7345.08
897.496	7334.45
897.811	7298.97
898.126	7242.71
898.441	7229.6
898.756	7198.41
899.071	7175.59
899.386	7220.56
899.7	7104.4
900.015	7077.29
900.33	7035.03
900.644	7037.74
900.959	6974.92
901.273	7035.03
901.588	7018.3
901.902	6944.86
902.216	6908.7
902.531	6920
902.845	6878.42
903.159	6833.68
903.473	6768.37
903.787	6799.78
904.101	6747.35
904.415	6825.09
904.729	6681.82
905.042	6707.8
905.356	6744.64
905.67	6672.55
905.984	6661.25
906.297	6670.52
906.611	6604.98
906.924	6550.07
907.237	6592.1
907.551	6514.81
907.864	6487.7
908.177	6502.39
908.491	6486.57
908.804	6461.48
909.117	6409.05
909.43	6390.98
909.743	6295.84
910.056	6341.49
910.368	6287.93
910.681	6302.62
910.994	6325.67
911.307	6209.29
911.619	6195.5
911.932	6186.24
912.244	6104.66
912.557	6060.14
912.869	6082.06
913.181	6064.43
913.494	6032.12
913.806	6029.18
914.118	6016.3
914.43	5983.3
914.742	5967.71
915.054	5951.21
915.366	5954.83
915.678	5860.59
915.99	5894.72
916.302	5837.77
916.613	5775.4
916.925	5799.81
917.236	5743.54
917.548	5718.23
917.859	5726.81
918.171	5710.09
918.482	5650.88
918.794	5634.84
919.105	5609.98
919.416	5543.99
919.727	5562.52
920.038	5580.83
920.349	5494.95
920.66	5519.81
920.971	5486.59
921.282	5426.26
921.593	5480.49
921.903	5383.77
922.214	5380.61
922.525	5409.98
922.835	5304.22
923.146	5369.31
923.456	5290.44
923.767	5301.97
924.077	5274.17
924.387	5239.82
924.697	5200.05
925.008	5169.09
925.318	5204.79
925.628	5175.64
925.938	5110.11
926.248	5066.27
926.558	5074.63
926.867	5082.08
927.177	5057.23
927.487	4987.17
927.796	4985.36
928.106	4946.72
928.416	4942.2
928.725	4925.7
929.034	4924.12
929.344	4957.57
929.653	4880.28
929.962	4842.77
930.271	4843.45
930.581	4806.61
930.89	4805.48
931.199	4780.85
931.508	4760.74
931.817	4749.44
932.125	4740.85
932.434	4702.21
932.743	4681.19
933.051	4658.59
933.36	4652.26
933.669	4590.12
933.977	4579.27
934.286	4610.68
934.594	4551.25
934.902	4551.02
935.21	4495.88
935.519	4517.35
935.827	4509.67
936.135	4487.07
936.443	4414.98
936.751	4405.72
937.059	4441.2
937.367	4382.67
937.674	4377.47
937.982	4394.19
938.29	4332.27
938.597	4313.06
938.905	4315.1
939.213	4304.25
939.52	4262.9
939.827	4259.28
940.135	4264.48
940.442	4211.15
940.749	4192.62
941.056	4198.27
941.363	4153.07
941.67	4165.05
941.977	4134.09
942.284	4119.62
942.591	4188.1
942.898	4082.34
943.205	4031.26
943.511	4054.54
943.818	3992.85
944.125	4012.73
944.431	3949.46
944.738	3990.81
945.044	3925.96
945.35	3956.69
945.657	3911.72
945.963	3913.08
946.269	3816.35
946.575	3873.53
946.881	3839.4
947.187	3823.81
947.493	3823.36
947.799	3798.95
948.105	3786.3
948.41	3785.17
948.716	3782.91
949.022	3762.12
949.327	3758.5
949.633	3698.62
949.938	3671.05
950.244	3662.01
950.549	3661.78
950.854	3632.86
951.16	3616.81
951.465	3617.26
951.77	3623.37
952.075	3594.89
952.38	3591.73
952.685	3582.01
952.99	3539.07
953.294	3527.32
953.599	3532.97
953.904	3500.66
954.209	3487.32
954.513	3483.48
954.818	3459.75
955.122	3404.39
955.426	3418.4
955.731	3411.62
956.035	3402.35
956.339	3371.85
956.643	3372.75
956.948	3351.51
957.252	3353.32
957.556	3309.93
957.86	3324.62
958.163	3290.94
958.467	3291.62
958.771	3263.83
959.075	3244.84
959.378	3259.31
959.682	3242.13
959.985	3207.33
960.289	3217.27
960.592	3199.87
960.896	3185.64
961.199	3129.14
961.502	3139.54
961.805	3123.27
962.108	3092.31
962.411	3094.34
962.714	3104.28
963.017	3050.72
963.32	3073.78
963.623	3055.92
963.926	3023.61
964.228	3012.76
964.531	2998.52
964.833	2994.23
965.136	2971.4
965.438	2966.89
965.741	2968.02
966.043	2939.77
966.345	2931.86
966.648	2873.1
966.95	2953.1
967.252	2898.64
967.554	2890.73
967.856	2861.8
968.158	2846.66
968.46	2844.18
968.761	2820.45
969.063	2809.38
969.365	2817.51
969.666	2806.21
969.968	2765.76
970.269	2761.47
970.571	2770.05
970.872	2792.2
971.174	2770.05
971.475	2759.21
971.776	2726.89
972.077	2681.92
972.378	2724.41
972.679	2692.77
972.98	2665.88
973.281	2669.72
973.582	2683.95
973.883	2668.14
974.183	2606.44
974.484	2633.56
974.785	2610.06
975.085	2562.15
975.386	2540.68
975.686	2595.37
975.986	2554.47
976.287	2561.92
976.587	2526.22
976.887	2527.8
977.187	2493
977.487	2509.04
977.787	2460.91
978.087	2496.62
978.387	2457.97
978.687	2462.72
978.987	2450.51
979.286	2445.32
979.586	2441.7
979.885	2366.9
980.185	2389.27
980.484	2413
980.784	2407.13
981.083	2373
981.382	2371.19
981.682	2337.07
981.981	2343.17
982.28	2342.72
982.579	2339.33
982.878	2327.58
983.177	2304.98
983.475	2298.65
983.774	2277.19
984.073	2292.33
984.372	2248.03
984.67	2257.07
984.969	2257.98
985.267	2273.8
985.566	2219.56
985.864	2239.9
986.162	2240.12
986.461	2173.01
986.759	2196.06
987.057	2184.98
987.355	2189.28
987.653	2158.54
987.951	2140.24
988.249	2128.26
988.547	2142.27
988.844	2138.66
989.142	2126
989.44	2085.1
989.737	2110.41
990.035	2095.27
990.332	2099.56
990.63	2094.37
990.927	2069.96
991.224	2042.62
991.521	2042.39
991.819	2013.92
992.116	2049.62
992.413	2039.68
992.71	2001.49
993.006	2027.93
993.303	1984.54
993.6	1981.83
993.897	1998.1
994.193	1956.52
994.49	1960.58
994.787	1949.74
995.083	1925.78
995.379	1932.34
995.676	1904.09
995.972	1918.33
996.268	1917.87
996.565	1893.24
996.861	1896.86
997.157	1857.76
997.453	1882.85
997.749	1849.4
998.044	1833.13
998.34	1856.63
998.636	1824.32
998.932	1826.8
999.227	1794.03
999.523	1805.11
999.818	1807.37
1000.114	1784.54
1000.409	1776.63
1000.704	1739.57
1001	1794.26
1001.295	1766.69
1001.59	1718.33
1001.885	1754.71
1002.18	1709.29
1002.475	1727.14
1002.77	1711.1
1003.065	1687.14
1003.359	1699.12
1003.654	1665.45
1003.949	1635.62
1004.243	1659.12
1004.538	1648.05
1004.832	1655.96
1005.127	1624.1
1005.421	1632.01
1005.715	1593.81
1006.009	1637.65
1006.304	1615.28
1006.598	1602.18
1006.892	1603.98
1007.186	1601.27
1007.48	1550.43
1007.773	1552.91
1008.067	1538
1008.361	1535.96
1008.655	1550.65
1008.948	1542.74
1009.242	1550.88
1009.535	1493.25
1009.829	1499.13
1010.122	1469.75
1010.415	1480.6
1010.708	1466.36
1011.001	1488.96
1011.295	1435.4
1011.588	1427.04
1011.881	1422.97
1012.173	1420.71
1012.466	1465.68
1012.759	1401.05
1013.052	1426.59
1013.344	1414.84
1013.637	1411.9
1013.93	1407.15
1014.222	1383.88
1014.514	1367.15
1014.807	1382.07
1015.099	1349.53
1015.391	1362.41
1015.683	1349.07
1015.976	1331.45
1016.268	1328.96
1016.56	1342.97
1016.851	1299.36
1017.143	1300.94
1017.435	1299.13
1017.727	1258.68
1018.018	1293.03
1018.31	1253.26
1018.602	1295.06
1018.893	1243.99
1019.185	1246.7
1019.476	1249.64
1019.767	1233.6
1020.058	1242.86
1020.35	1257.33
1020.641	1197.89
1020.932	1218
1021.223	1220.49
1021.514	1185.46
1021.804	1201.06
1022.095	1189.98
1022.386	1181.85
1022.677	1161.96
1022.967	1168.97
1023.258	1158.35
1023.548	1145.69
1023.839	1136.2
1024.129	1136.2
1024.419	1107.5
1024.709	1106.14
1025	1107.5
1025.29	1117.89
1025.58	1114.73
1025.87	1091.68
1026.16	1089.65
1026.449	1103.43
1026.739	1077.44
1027.029	1077.9
1027.319	1066.14
1027.608	1028.86
1027.898	1038.35
1028.187	1046.03
1028.477	1041.96
1028.766	1025.92
1029.055	1025.69
1029.344	1015.3
1029.634	1020.5
1029.923	994.28
1030.212	1004.45
1030.501	996.54
1030.79	985.02
1031.078	976.43
1031.367	992.25
1031.656	937.79
1031.945	951.8
1032.233	934.62
1032.522	938.92
1032.81	928.75
1033.099	945.24
1033.387	930.55
1033.675	950.67
1033.963	908.18
1034.251	903.21
1034.54	884.68
1034.828	888.97
1035.116	896.43
1035.403	896.21
1035.691	909.76
1035.979	869.99
1036.267	855.3
1036.554	860.5
1036.842	869.54
1037.129	870.67
1037.417	862.31
1037.704	841.74
1037.992	826.83
1038.279	849.88
1038.566	855.75
1038.853	855.75
1039.14	855.75
