Data from hue_110_FLMS001491_00062.txt Node
Date: Tue Feb 07 17:01:39 GMT 2017
User: dcchb
Spectrometer: FLMS00149
Trigger mode: 0
Integration Time (sec): 2.000000E-2
Scans to average: 10
Electric dark correction enabled: true
Nonlinearity correction enabled: false
Boxcar width: 0
XAxis mode: Wavelengths
Number of Pixels in Spectrum: 2048
>>>>>Begin Spectral Data<<<<<
341.393	-4.75
341.776	-4.75
342.16	-4.75
342.543	-46.1
342.927	-84.52
343.31	-72.54
343.693	-76.38
344.077	-80.22
344.46	-71.18
344.843	-63.05
345.226	-42.03
345.61	-29.83
345.993	-10.85
346.376	-26.89
346.759	19.89
347.142	35.71
347.525	44.74
347.908	94.91
348.291	74.35
348.674	85.87
349.057	117.51
349.44	131.52
349.823	143.05
350.206	170.84
350.588	216.04
350.971	202.25
351.354	204.97
351.737	234.8
352.119	258.52
352.502	263.27
352.884	272.99
353.267	271.86
353.65	273.21
354.032	287.68
354.414	305.3
354.797	291.74
355.179	318.18
355.562	316.38
355.944	325.64
356.326	326.32
356.709	328.35
357.091	315.02
357.473	333.55
357.855	335.58
358.238	328.8
358.62	360.67
359.002	338.97
359.384	338.52
359.766	342.82
360.148	341.91
360.53	345.08
360.912	333.55
361.294	345.08
361.676	325.19
362.057	330.39
362.439	335.58
362.821	322.25
363.203	333.55
363.584	308.92
363.966	332.42
364.348	326.32
364.729	318.64
365.111	331.06
365.493	305.75
365.874	309.14
366.256	311.86
366.637	297.62
367.019	306.43
367.4	313.89
367.781	315.7
368.163	317.05
368.544	317.51
368.925	322.03
369.306	320.67
369.688	289.26
370.069	312.31
370.45	284.29
370.831	301.46
371.212	313.89
371.593	310.5
371.974	315.92
372.355	314.34
372.736	314.57
373.117	292.2
373.498	302.36
373.879	313.44
374.26	318.64
374.641	323.38
375.021	334
375.402	313.66
375.783	318.41
376.163	323.16
376.544	347.79
376.925	320.44
377.305	315.47
377.686	310.95
378.066	318.86
378.447	314.34
378.827	323.83
379.208	319.54
379.588	339.65
379.968	348.92
380.349	343.04
380.729	328.13
381.109	357.96
381.489	368.58
381.87	339.2
382.25	332.42
382.63	343.72
383.01	332.42
383.39	341.46
383.77	338.97
384.15	361.57
384.53	335.36
384.91	350.05
385.29	351.86
385.67	357.5
386.049	358.63
386.429	367.67
386.809	374.91
387.189	363.15
387.568	355.02
387.948	358.41
388.328	353.21
388.707	355.24
389.087	355.02
389.466	358.41
389.846	378.07
390.225	359.09
390.605	376.71
390.984	362.48
391.363	375.58
391.743	375.58
392.122	384.4
392.501	374.91
392.881	380.33
393.26	372.65
393.639	390.72
394.018	358.86
394.397	379.65
394.776	383.72
395.155	373.55
395.534	358.86
395.913	380.1
396.292	389.37
396.671	406.77
397.05	385.3
397.429	385.3
397.808	412.42
398.186	402.02
398.565	388.24
398.944	388.46
399.323	404.28
399.701	409.25
400.08	401.12
400.458	392.08
400.837	401.12
401.215	413.77
401.594	404.06
401.972	407.22
402.351	436.82
402.729	435.02
403.107	415.13
403.486	419.2
403.864	412.64
404.242	429.82
404.62	415.36
404.999	431.18
405.377	435.92
405.755	416.26
406.133	445.41
406.511	418.07
406.889	448.58
407.267	421.23
407.645	448.35
408.023	453.55
408.401	429.37
408.779	439.76
409.156	446.54
409.534	470.95
409.912	473.89
410.29	442.7
410.667	471.85
411.045	466.65
411.422	481.57
411.8	463.72
412.178	485.18
412.555	480.21
412.933	470.27
413.31	508.01
413.687	479.76
414.065	498.07
414.442	504.62
414.819	496.48
415.197	499.65
415.574	498.29
415.951	526.09
416.328	496.71
416.705	514.79
417.082	513.88
417.46	505.52
417.837	540.1
418.214	542.13
418.591	532.64
418.967	510.27
419.344	535.58
419.721	562.25
420.098	565.86
420.475	566.76
420.852	557.73
421.228	570.61
421.605	555.69
421.982	578.97
422.358	563.38
422.735	565.63
423.111	559.99
423.488	587.33
423.864	601.11
424.241	589.59
424.617	588.69
424.994	597.27
425.37	607.89
425.746	629.36
426.123	623.26
426.499	603.6
426.875	605.63
427.251	628.68
427.627	626.65
428.003	624.39
428.379	624.62
428.756	644.5
429.132	650.38
429.507	643.82
429.883	663.26
430.259	671.62
430.635	681.11
431.011	671.62
431.387	671.62
431.763	719.08
432.138	698.06
432.514	712.98
432.89	714.11
433.265	700.32
433.641	725.18
434.016	724.95
434.392	734.67
434.767	739.64
435.143	721.56
435.518	748
435.894	752.97
436.269	758.62
436.644	768.34
437.02	783.48
437.395	780.77
437.77	772.64
438.145	785.29
438.52	828
438.895	794.33
439.271	802.46
439.646	832.97
440.021	855.12
440.395	844.5
440.77	824.16
441.145	827.1
441.52	877.27
441.895	877.27
442.27	851.95
442.645	855.12
443.019	895.34
443.394	874.33
443.769	875.68
444.143	897.38
444.518	902.58
444.892	892.63
445.267	920.43
445.641	920.65
446.016	938.96
446.39	928.34
446.764	936.7
447.139	925.17
447.513	957.26
447.887	928.34
448.262	970.14
448.636	976.25
449.01	964.27
449.384	982.12
449.758	999.52
450.132	989.13
450.506	997.94
450.88	1008.34
451.254	1030.03
451.628	1004.95
452.002	1013.08
452.376	1045.62
452.75	1030.71
453.123	1046.07
453.497	1053.08
453.871	1081.55
454.244	1103.93
454.618	1066.86
454.992	1103.93
455.365	1136.47
455.739	1161.1
456.112	1152.74
456.486	1152.29
456.859	1177.37
457.232	1197.93
457.606	1178.95
457.979	1213.75
458.352	1213.53
458.725	1251.94
459.099	1253.98
459.472	1287.42
459.845	1278.38
460.218	1296.92
460.591	1328.55
460.964	1323.81
461.337	1365.39
461.71	1348.89
462.083	1406.74
462.456	1404.71
462.829	1400.87
463.201	1419.4
463.574	1449
463.947	1454.2
464.32	1476.57
464.692	1498.72
465.065	1535.33
465.438	1566.96
465.81	1601.77
466.183	1621.88
466.555	1643.12
466.928	1654.42
467.3	1657.36
467.672	1691.93
468.045	1704.59
468.417	1748.2
468.789	1758.15
469.161	1803.57
469.534	1803.12
469.906	1902.77
470.278	1911.59
470.65	1923.57
471.022	1980.51
471.394	1995.43
471.766	2023.9
472.138	2089.44
472.51	2103.22
472.882	2146.84
473.253	2211.69
473.625	2268.41
473.997	2336.66
474.369	2326.94
474.74	2370.33
475.112	2444.46
475.484	2522.19
475.855	2588.86
476.227	2605.13
476.598	2719.02
476.97	2733.71
477.341	2802.64
477.713	2883.31
478.084	2929.64
478.455	3007.83
478.827	3086.25
479.198	3222.51
479.569	3238.56
479.94	3398.78
480.311	3464.77
480.682	3533.69
481.053	3678.1
481.424	3753.8
481.795	3848.71
482.166	3978.2
482.537	4036.5
482.908	4152.43
483.279	4211.64
483.65	4365.08
484.021	4485.98
484.391	4594
484.762	4711.51
485.133	4747.67
485.503	4937.27
485.874	5046.87
486.244	5199.19
486.615	5313.31
486.985	5521.21
487.356	5590.81
487.726	5689.57
488.097	5902.9
488.467	6012.95
488.837	6152.61
489.207	6280.96
489.578	6514.4
489.948	6567.96
490.318	6737.9
490.688	6802.76
491.058	6974.73
491.428	7126.37
491.798	7329.52
492.168	7504.44
492.538	7596.64
492.908	7786.24
493.278	7951.88
493.648	8062.39
494.017	8244.3
494.387	8352.77
494.757	8444.52
495.126	8613.78
495.496	8748.47
495.866	8865.08
496.235	9037.73
496.605	9126.99
496.974	9260.1
497.344	9439.53
497.713	9532.63
498.082	9633.65
498.452	9750.25
498.821	9909.8
499.19	9920.19
499.559	10188.88
499.928	10231.37
500.298	10371.25
500.667	10538.71
501.036	10541.42
501.405	10663.67
501.774	10716.78
502.143	10892.14
502.512	10989.99
502.88	11145.24
503.249	11145.7
503.618	11299.36
503.987	11399.25
504.356	11496.65
504.724	11602.63
505.093	11641.28
505.462	11789.52
505.83	11774.83
506.199	11880.14
506.567	12125.1
506.936	12133.69
507.304	12259.56
507.672	12331.65
508.041	12333.46
508.409	12535.72
508.777	12630.18
509.145	12615.71
509.514	12705.2
509.882	12782.04
510.25	12820.91
510.618	12885.99
510.986	12911.3
511.354	13131.86
511.722	13215.25
512.09	13295.02
512.458	13210.27
512.826	13356.48
513.193	13502.24
513.561	13422.02
513.929	13573.43
514.297	13645.52
514.664	13653.65
515.032	13765.51
515.4	13810.48
515.767	13832.86
516.135	13958.95
516.502	13837.38
516.869	14029.69
517.237	14078.5
517.604	14002.8
517.972	14138.84
518.339	14236.01
518.706	14281.66
519.073	14236.46
519.44	14330.47
519.808	14433.29
520.175	14416.34
520.542	14603.23
520.909	14609.56
521.276	14591.48
521.643	14631.71
522.009	14739.5
522.376	14804.58
522.743	14802.55
523.11	14941.53
523.477	15014.29
523.843	14944.47
524.21	14999.83
524.577	15133.84
524.943	15218.36
525.31	15229.66
525.676	15257.9
526.043	15313.27
526.409	15381.52
526.776	15478.92
527.142	15395.75
527.508	15572.02
527.874	15437.56
528.241	15605.92
528.607	15491.34
528.973	15633.04
529.339	15573.6
529.705	15667.38
530.071	15696.54
530.437	15663.09
530.803	15736.99
531.169	15811.56
531.535	15710.32
531.901	15755.52
532.267	15720.26
532.632	15805.01
532.998	15821.5
533.364	15717.78
533.73	15708.74
534.095	15887.04
534.461	15845.91
534.826	15831.45
535.192	15883.2
535.557	15866.48
535.923	15820.83
536.288	15882.52
536.653	15802.75
537.019	15741.73
537.384	15736.76
537.749	15759.81
538.114	15707.38
538.479	15674.16
538.845	15674.62
539.21	15619.25
539.575	15589.87
539.94	15605.01
540.305	15692.24
540.67	15662.19
541.034	15631.68
541.399	15637.33
541.764	15489.31
542.129	15511.46
542.494	15522.08
542.858	15545.58
543.223	15382.42
543.587	15391.01
543.952	15376.54
544.316	15393.27
544.681	15344.23
545.045	15315.3
545.41	15386.04
545.774	15331.57
546.138	15254.29
546.503	15235.08
546.867	15172.71
547.231	15240.28
547.595	15263.55
547.959	15205.02
548.324	15074.63
548.688	15152.14
549.052	15135.42
549.416	15136.1
549.779	15049.77
550.143	15010.23
550.507	15071.69
550.871	15046.61
551.235	14945.82
551.599	14996.22
551.962	14904.92
552.326	14959.61
552.689	14972.04
553.053	14865.82
553.417	14880.06
553.78	14942.88
554.143	14808.65
554.507	14839.84
554.87	14804.36
555.234	14927.97
555.597	14840.29
555.96	14834.64
556.323	14837.35
556.686	14765.94
557.05	14828.08
557.413	14718.26
557.776	14797.58
558.139	14777.01
558.502	14794.41
558.865	14712.38
559.228	14835.54
559.59	14799.61
559.953	14816.11
560.316	14910.57
560.679	14919.16
561.041	14823.34
561.404	14885.94
561.767	14845.94
562.129	14874.86
562.492	14935.2
562.854	14931.81
563.217	14880.96
563.579	14932.94
563.941	14946.95
564.304	15008.64
564.666	14995.54
565.028	15015.88
565.39	15008.19
565.753	15035.08
566.115	15087.96
566.477	15011.81
566.839	15165.48
567.201	15184.01
567.563	15115.76
567.925	15231.92
568.287	15304.46
568.648	15132.48
569.01	15212.26
569.372	15266.27
569.734	15282.31
570.095	15296.32
570.457	15318.92
570.819	15346.49
571.18	15257.68
571.542	15344.68
571.903	15346.26
572.265	15366.15
572.626	15365.25
572.987	15376.09
573.349	15473.49
573.71	15514.39
574.071	15373.38
574.432	15400.72
574.794	15541.51
575.155	15505.36
575.516	15422.87
575.877	15433.27
576.238	15548.29
576.599	15445.92
576.96	15480.5
577.32	15523.89
577.681	15642.3
578.042	15555.75
578.403	15627.39
578.763	15638.01
579.124	15603.88
579.485	15639.81
579.845	15593.04
580.206	15609.53
580.566	15569.53
580.927	15624.9
581.287	15545.58
581.648	15579.7
582.008	15655.18
582.368	15599.59
582.728	15559.36
583.089	15488.41
583.449	15586.48
583.809	15543.32
584.169	15555.3
584.529	15526.37
584.889	15569.99
585.249	15506.03
585.609	15431.68
585.969	15509.87
586.329	15478.92
586.688	15456.09
587.048	15470.55
587.408	15449.76
587.768	15408.63
588.127	15362.99
588.487	15453.83
588.846	15468.75
589.206	15382.42
589.565	15377.9
589.925	15466.26
590.284	15415.41
590.643	15355.08
591.003	15495.19
591.362	15479.82
591.721	15386.94
592.08	15401.18
592.44	15436.43
592.799	15340.16
593.158	15450.89
593.517	15373.83
593.876	15392.59
594.235	15292.71
594.593	15308.07
594.952	15310.78
595.311	15209.77
595.67	15386.71
596.029	15346.49
596.387	15358.24
596.746	15345.59
597.104	15307.62
597.463	15167.06
597.822	15279.82
598.18	15263.78
598.538	15231.01
598.897	15291.8
599.255	15181.75
599.613	15395.53
599.972	15215.42
600.33	15256.55
600.688	15240.5
601.046	15340.61
601.404	15270.78
601.762	15337.9
602.12	15311.24
602.478	15359.82
602.836	15317.11
603.194	15168.19
603.552	15258.36
603.91	15200.05
604.268	15246.38
604.625	15221.29
604.983	15257.45
605.341	15221.75
605.698	15406.37
606.056	15310.33
606.413	15230.11
606.771	15336.77
607.128	15318.69
607.485	15216.32
607.843	15228.53
608.2	15339.48
608.557	15333.38
608.914	15271.01
609.272	15388.75
609.629	15318.24
609.986	15384.45
610.343	15366.83
610.7	15488.41
611.057	15427.16
611.414	15286.6
611.771	15412.93
612.127	15424.23
612.484	15445.92
612.841	15438.69
613.198	15471.46
613.554	15509.42
613.911	15591.45
614.267	15525.24
614.624	15487.05
614.98	15581.29
615.337	15731.34
615.693	15580.38
616.05	15508.29
616.406	15705.8
616.762	15569.31
617.118	15608.63
617.475	15545.13
617.831	15679.59
618.187	15633.26
618.543	15754.84
618.899	15711.45
619.255	15740.38
619.611	15680.94
619.967	15743.54
620.323	15805.91
620.678	15680.49
621.034	15677.1
621.39	15715.97
621.746	15736.54
622.101	15763.65
622.457	15658.12
622.812	15719.13
623.168	15732.02
623.523	15752.13
623.879	15816.76
624.234	15733.6
624.589	15693.82
624.945	15715.74
625.3	15709.64
625.655	15716.2
626.01	15801.39
626.365	15801.17
626.72	15693.82
627.075	15776.76
627.43	15732.69
627.785	15667.38
628.14	15665.12
628.495	15737.89
628.85	15693.15
629.205	15685.46
629.559	15766.82
629.914	15654.5
630.269	15539.93
630.623	15533.83
630.978	15513.72
631.332	15677.33
631.687	15699.02
632.041	15627.84
632.396	15627.61
632.75	15456.99
633.104	15571.57
633.459	15472.36
633.813	15429.42
634.167	15453.38
634.521	15532.02
634.875	15342.65
635.229	15418.13
635.583	15289.77
635.937	15327.05
636.291	15288.86
636.645	15425.13
636.999	15259.26
637.352	15344.68
637.706	15320.95
638.06	15294.06
638.413	15269.88
638.767	15268.53
639.121	15328.41
639.474	15100.85
639.828	15182.2
640.181	15147.62
640.534	15112.6
640.888	15196.21
641.241	15071.47
641.594	15148.53
641.947	15114.4
642.301	15048.19
642.654	15073.5
643.007	15176.1
643.36	15096.55
643.713	15082.77
644.066	15131.35
644.419	14988.31
644.771	14914.41
645.124	14851.81
645.477	14782.21
645.83	14690.69
646.182	14704.47
646.535	14679.39
646.888	14675.77
647.24	14552.39
647.593	14599.39
647.945	14540.18
648.298	14534.76
648.65	14466.96
649.002	14544.02
649.355	14601.42
649.707	14562.78
650.059	14557.13
650.411	14809.1
650.763	14796.67
651.115	14896.33
651.467	14925.94
651.819	14889.1
652.171	14809.33
652.523	14793.51
652.875	14866.73
653.227	14713.74
653.578	14886.39
653.93	14906.73
654.282	14801.64
654.633	14756.67
654.985	14894.75
655.337	14727.3
655.688	14870.57
656.039	14817.69
656.391	14770.23
656.742	14835.09
657.094	14858.59
657.445	15011.58
657.796	14923.45
658.147	14818.37
658.498	14846.84
658.849	14821.53
659.2	14850.46
659.551	14858.59
659.902	14825.6
660.253	14796
660.604	14942.66
660.955	14809.78
661.306	14877.12
661.656	14901.98
662.007	14848.2
662.358	14876.9
662.708	14857.24
663.059	14862.66
663.409	14801.42
663.76	14909.21
664.11	14918.03
664.461	14881.19
664.811	14910.57
665.161	14899.04
665.511	14917.8
665.862	14937.46
666.212	14931.81
666.562	14972.04
666.912	14900.85
667.262	14893.17
667.612	14831.25
667.962	14928.2
668.312	14952.83
668.662	15016.1
669.011	14840.97
669.361	14893.62
669.711	14830.8
670.06	14878.93
670.41	14797.35
670.76	14821.76
671.109	14885.48
671.459	14822.21
671.808	14823.79
672.157	14861.76
672.507	14798.71
672.856	14759.39
673.205	14813.62
673.554	14827.86
673.904	14720.74
674.253	14823.11
674.602	14815.88
674.951	14521.43
675.3	14489.34
675.649	14792.15
675.998	14614.3
676.346	14695.21
676.695	14740.86
677.044	14559.17
677.393	14637.36
677.741	14644.13
678.09	14647.75
678.438	14585.38
678.787	14589.22
679.135	14541.54
679.484	14465.83
679.832	14478.49
680.181	14455.21
680.529	14461.77
680.877	14447.3
681.225	14440.52
681.573	14517.36
681.922	14350.81
682.27	14354.65
682.618	14362.11
682.966	14300.87
683.314	14280.98
683.661	14294.09
684.009	14198.72
684.357	14156.24
684.705	14154.66
685.053	14086.41
685.4	14132.06
685.748	14067.43
686.095	14075.56
686.443	14040.08
686.79	14005.96
687.138	13988.56
687.485	14010.93
687.832	13984.72
688.18	13951.72
688.527	13818.39
688.874	13798.28
689.221	13747.89
689.568	13745.85
689.915	13689.13
690.262	13768.9
690.609	13581.34
690.956	13519.19
691.303	13556.48
691.65	13503.83
691.997	13510.15
692.344	13342.7
692.69	13377.5
693.037	13332.76
693.383	13200.1
693.73	13322.59
694.077	13158.3
694.423	13140.45
694.769	13068.36
695.116	13098.19
695.462	13039.21
695.808	12953.56
696.155	13066.78
696.501	12908.36
696.847	12903.16
697.193	12802.15
697.539	12771.87
697.885	12721.7
698.231	12715.15
698.577	12693.9
698.923	12611.19
699.269	12507.92
699.614	12494.13
699.96	12420.46
700.306	12407.58
700.651	12350.64
700.997	12382.27
701.342	12297.3
701.688	12312.9
702.033	12259.11
702.379	12172.11
702.724	12161.49
703.069	12128.04
703.415	12036.29
703.76	11951.55
704.105	11947.48
704.45	11930.31
704.795	11887.82
705.14	11822.97
705.485	11785.68
705.83	11740.93
706.175	11730.54
706.52	11627.94
706.865	11640.15
707.209	11618.23
707.554	11611.45
707.899	11582.97
708.243	11434.05
708.588	11518.57
708.932	11413.49
709.277	11403.32
709.621	11426.37
709.966	11288.74
710.31	11375.52
710.654	11256.65
710.998	11269.99
711.342	11199.03
711.687	11235.18
712.031	11154.28
712.375	11155.41
712.719	11124.45
713.063	11142.31
713.407	11177.11
713.75	11119.93
714.094	11037.9
714.438	11003.1
714.782	10985.7
715.125	10959.03
715.469	11014.63
715.812	10902.99
716.156	10891.24
716.499	10866.15
716.843	10921.75
717.186	10899.6
717.53	10892.37
717.873	10893.5
718.216	10816.66
718.559	10799.04
718.902	10731.7
719.246	10782.77
719.589	10728.31
719.932	10666.61
720.275	10753.62
720.617	10722.66
720.96	10652.38
721.303	10682.2
721.646	10677.23
721.989	10647.86
722.331	10755.42
722.674	10621.42
723.016	10586.16
723.359	10562.89
723.701	10629.33
724.044	10500.74
724.386	10522.89
724.729	10591.59
725.071	10501.42
725.413	10500.74
725.755	10510.68
726.097	10460.97
726.439	10393.85
726.782	10412.38
727.124	10485.37
727.465	10433.17
727.807	10418.03
728.149	10419.39
728.491	10417.58
728.833	10377.13
729.175	10410.35
729.516	10411.48
729.858	10416
730.199	10405.38
730.541	10365.15
730.882	10425.04
731.224	10406.28
731.565	10380.74
731.906	10397.24
732.248	10417.13
732.589	10356.11
732.93	10323.34
733.271	10303.91
733.612	10374.19
733.953	10299.16
734.294	10320.86
734.635	10340.52
734.976	10292.61
735.317	10221.88
735.658	10334.64
735.999	10311.37
736.339	10327.64
736.68	10332.84
737.021	10307.3
737.361	10292.61
737.702	10360.86
738.042	10368.31
738.383	10284.93
738.723	10344.13
739.063	10336.68
739.404	10437.01
739.744	10397.47
740.084	10369.22
740.424	10392.72
740.764	10446.96
741.104	10429.1
741.444	10439.73
741.784	10423.45
742.124	10394.98
742.464	10435.21
742.804	10472.04
743.143	10466.62
743.483	10514.75
743.823	10511.36
744.162	10612.6
744.502	10607.18
744.841	10587.52
745.181	10646.95
745.52	10594.52
745.86	10725.14
746.199	10735.54
746.538	10835.87
746.877	10827.06
747.216	10918.13
747.556	10985.02
747.895	11002.2
748.234	11002.87
748.573	11077
748.911	11062.31
749.25	11186.6
749.589	11215.75
749.928	11307.27
750.267	11422.75
750.605	11508.62
750.944	11555.85
751.283	11596.53
751.621	11726.25
751.96	11799.24
752.298	11851.21
752.636	11985.67
752.975	12119.46
753.313	12140.92
753.651	12336.85
753.989	12300.69
754.327	12506.11
754.666	12625.2
755.004	12690.74
755.342	12829.27
755.679	12947.68
756.017	13076.49
756.355	13191.07
756.693	13388.35
757.031	13515.58
757.368	13547.67
757.706	13768.45
758.044	13853.65
758.381	14046.64
758.719	14120.53
759.056	14370.02
759.394	14544.02
759.731	14620.86
760.068	14821.76
760.405	14918.25
760.743	15070.34
761.08	15235.31
761.417	15422.42
761.754	15533.15
762.091	15678.68
762.428	15852.69
762.765	15921.39
763.102	16180.14
763.438	16243.41
763.775	16357.76
764.112	16558.21
764.449	16720.24
764.785	16777.86
765.122	16842.04
765.458	17000.68
765.795	17233.9
766.131	17307.57
766.467	17461.01
766.804	17595.24
767.14	17699.87
767.476	17812.19
767.812	17886.54
768.148	18091.95
768.485	18048.34
768.821	18167.43
769.157	18300.08
769.492	18408.56
769.828	18610.13
770.164	18526.97
770.5	18620.3
770.836	18730.13
771.171	18767.19
771.507	18793.86
771.842	18819.84
772.178	19059.61
772.513	19119.95
772.849	19137.8
773.184	19181.42
773.519	19272.26
773.855	19168.54
774.19	19296.44
774.525	19307.51
774.86	19431.35
775.195	19432.48
775.53	19440.62
775.865	19535.53
776.2	19381.86
776.535	19353.84
776.87	19477.91
777.205	19500.28
777.539	19524.01
777.874	19574.4
778.209	19492.14
778.543	19581.18
778.878	19504.12
779.212	19591.58
779.547	19537.11
779.881	19601.52
780.215	19617.79
780.55	19672.48
780.884	19590.45
781.218	19671.35
781.552	19619.15
781.886	19646.49
782.22	19542.76
782.554	19561.07
782.888	19466.83
783.222	19376.44
783.556	19444.01
783.889	19486.95
784.223	19341.19
784.557	19274.52
784.89	19363.33
785.224	19199.27
785.557	19168.76
785.891	19216.9
786.224	19163.11
786.558	19267.29
786.891	19116.56
787.224	19057.35
787.557	19058.93
787.891	19169.44
788.224	19046.5
788.557	19026.17
788.89	19063.91
789.223	18959.05
789.556	18861.65
789.888	18868.43
790.221	18809.22
790.554	18736.23
790.887	18785.95
791.219	18642.45
791.552	18663.46
791.884	18664.82
792.217	18627.53
792.549	18511.6
792.882	18453.75
793.214	18427.09
793.546	18517.93
793.879	18349.8
794.211	18239.97
794.543	18262.57
794.875	18304.6
795.207	18307.77
795.539	18192.06
795.871	18199.97
796.203	18062.58
796.535	17984.84
796.867	17979.19
797.198	17859.64
797.53	17959.08
797.862	17837.95
798.193	17861.45
798.525	17683.6
798.856	17850.83
799.188	17602.25
799.519	17471.63
799.85	17503.72
800.182	17450.39
800.513	17499.88
800.844	17311.64
801.175	17420.11
801.506	17502.36
801.837	17329.71
802.168	17331.97
802.499	17219.89
802.83	17129.49
803.161	17058.76
803.491	17141.92
803.822	17111.64
804.153	17030.29
804.483	16954.58
804.814	16922.94
805.145	16880.69
805.475	16874.58
805.805	16762.27
806.136	16743.29
806.466	16712.1
806.796	16654.93
807.126	16586.68
807.457	16512.11
807.787	16611.31
808.117	16556.85
808.447	16490.87
808.777	16492.45
809.107	16460.58
809.436	16447.48
809.766	16365.67
810.096	16283.87
810.426	16227.6
810.755	16237.99
811.085	16264.21
811.414	16187.15
811.744	16099.69
812.073	16053.59
812.403	16041.16
812.732	15995.06
813.061	15996.19
813.39	15929.52
813.719	15888.17
814.049	15908.51
814.378	15899.92
814.707	15766.14
815.036	15831.22
815.365	15705.35
815.693	15559.82
816.022	15711.68
816.351	15590.55
816.68	15548.52
817.008	15559.59
817.337	15319.37
817.665	15399.6
817.994	15448.86
818.322	15489.54
818.651	15289.77
818.979	15324.34
819.307	15363.21
819.636	15257.45
819.964	15204.8
820.292	15405.24
820.62	15296.32
820.948	15204.35
821.276	15256.55
821.604	15157.34
821.932	15250.67
822.259	15167.06
822.587	15135.65
822.915	15167.28
823.243	15228.3
823.57	15122.31
823.898	15112.37
824.225	15119.83
824.553	15202.31
824.88	15138.81
825.207	15214.52
825.535	15117.57
825.862	15219.94
826.189	15091.35
826.516	15189.43
826.843	15236.89
827.17	15210.22
827.497	15209.54
827.824	15264.68
828.151	15277.34
828.478	15213.61
828.805	15276.66
829.131	15245.02
829.458	15136.78
829.785	15140.39
830.111	15157.79
830.438	15203.44
830.764	15214.29
831.09	15248.64
831.417	15214.06
831.743	15214.06
832.069	15132.48
832.395	15165.48
832.722	15225.14
833.048	15075.54
833.374	15157.79
833.7	15068.08
834.026	15134.29
834.351	15135.42
834.677	15021.75
835.003	15131.13
835.329	15137
835.654	15047.74
835.98	14946.73
836.306	15005.48
836.631	14939.27
836.956	14997.35
837.282	15039.6
837.607	14837.35
837.932	14849.1
838.258	14877.35
838.583	14790.35
838.908	14721.65
839.233	14799.61
839.558	14727.52
839.883	14718.03
840.208	14724.58
840.533	14752.15
840.858	14662.44
841.182	14692.5
841.507	14637.13
841.832	14535.44
842.156	14528.43
842.481	14523.23
842.805	14501.99
843.13	14501.77
843.454	14438.04
843.778	14358.94
844.103	14269.46
844.427	14266.52
844.751	14376.35
845.075	14230.59
845.399	14225.16
845.723	14079.18
846.047	14142.45
846.371	13990.59
846.695	13993.76
847.019	13892.97
847.343	13859.07
847.666	13758.96
847.99	13696.36
848.313	13786.3
848.637	13714.22
848.96	13646.65
849.284	13610.04
849.607	13503.37
849.931	13426.54
850.254	13354.68
850.577	13332.76
850.9	13265.87
851.223	13237.62
851.546	13114.46
851.869	13053.44
852.192	13163.04
852.515	12969.38
852.838	12937.29
853.161	12927.12
853.483	12930.28
853.806	12786.1
854.129	12801.47
854.451	12728.25
854.774	12728.03
855.096	12664.53
855.419	12643.28
855.741	12596.73
856.063	12558.31
856.385	12545.66
856.708	12475.83
857.03	12384.31
857.352	12460.24
857.674	12342.95
857.996	12368.26
858.318	12246.91
858.64	12312.9
858.961	12272.22
859.283	12137.99
859.605	12184.09
859.926	12201.71
860.248	12075.61
860.57	12000.36
860.891	12091.21
861.212	11969.4
861.534	11901.16
861.855	11950.19
862.176	11882.17
862.498	11894.83
862.819	11900.48
863.14	11840.59
863.461	11833.81
863.782	11780.71
864.103	11779.58
864.424	11788.62
864.745	11791.33
865.065	11668.62
865.386	11707.26
865.707	11685.79
866.027	11638.34
866.348	11678.79
866.668	11684.66
866.989	11635.85
867.309	11507.49
867.63	11539.36
867.95	11521.28
868.27	11458.68
868.59	11479.7
868.91	11426.59
869.23	11467.27
869.55	11390.89
869.87	11441.96
870.19	11432.47
870.51	11326.26
870.83	11394.95
871.15	11352.47
871.469	11295.07
871.789	11323.32
872.109	11340.94
872.428	11280.61
872.748	11266.82
873.067	11193.38
873.386	11241.29
873.706	11198.58
874.025	11132.59
874.344	11156.77
874.663	11113.15
874.982	11085.13
875.301	11181.63
875.62	11052.36
875.939	11004.23
876.258	11034.74
876.577	11001.52
876.896	11036.09
877.214	10969.66
877.533	10959.71
877.852	10907.74
878.17	10950.67
878.489	10930.33
878.807	10930.11
879.125	10859.6
879.444	10902.76
879.762	10844.91
880.08	10813.5
880.398	10796.55
880.716	10841.75
881.034	10784.58
881.352	10733.73
881.67	10740.51
881.988	10752.26
882.306	10700.74
882.624	10635.43
882.941	10611.7
883.259	10592.26
883.577	10581.19
883.894	10570.8
884.212	10479.72
884.529	10540.06
884.846	10489.22
885.164	10419.16
885.481	10428.65
885.798	10392.27
886.115	10342.1
886.432	10368.99
886.75	10405.83
887.067	10306.62
887.383	10279.5
887.7	10285.83
888.017	10170.13
888.334	10232.95
888.651	10267.3
888.967	10185.72
889.284	10092.84
889.6	10104.37
889.917	9970.36
890.233	10065.27
890.55	9975.33
890.866	9913.64
891.182	9985.73
891.498	9958.16
891.815	9839.06
892.131	9830.25
892.447	9788.9
892.763	9802.91
893.079	9787.99
893.395	9705.06
893.71	9663.02
894.026	9707.09
894.342	9686.52
894.657	9587.32
894.973	9544.61
895.289	9518.85
895.604	9626.41
895.92	9452.63
896.235	9394.56
896.55	9471.16
896.865	9412.86
897.181	9295.12
897.496	9416.48
897.811	9271.85
898.126	9272.98
898.441	9225.97
898.756	9207.44
899.071	9125.18
899.386	9208.12
899.7	9037.05
900.015	9052.19
900.33	9006.99
900.644	8915.7
900.959	9041.12
901.273	8911.4
901.588	8931.06
901.902	8873.21
902.216	8887
902.531	8789.15
902.845	8763.39
903.159	8745.98
903.473	8698.3
903.787	8710.73
904.101	8570.62
904.415	8609.04
904.729	8538.98
905.042	8509.61
905.356	8496.73
905.67	8447.01
905.984	8430.51
906.297	8418.54
906.611	8359.1
906.924	8291.08
907.237	8357.75
907.551	8343.06
907.864	8208.37
908.177	8212.89
908.491	8163.85
908.804	8125.21
909.117	8111.43
909.43	8108.26
909.743	8005.21
910.056	8008.38
910.368	7988.49
910.681	7936.29
910.994	7868.72
911.307	7921.83
911.619	7832.56
911.932	7857.42
912.244	7811.55
912.557	7796.63
912.869	7723.64
913.181	7696.97
913.494	7683.64
913.806	7604.55
914.118	7547.6
914.43	7508.73
914.742	7513.93
915.054	7464.89
915.366	7484.77
915.678	7461.95
915.99	7398.9
916.302	7384.21
916.613	7307.6
916.925	7363.42
917.236	7255.4
917.548	7285.91
917.859	7252.24
918.171	7188.29
918.482	7235.29
918.794	7109.42
919.105	7175.4
919.416	7065.8
919.727	7123.43
920.038	7029.65
920.349	6936.31
920.66	6974.05
920.971	6953.72
921.282	6917.33
921.593	6844.34
921.903	6847.73
922.214	6807.5
922.525	6787.62
922.835	6774.96
923.146	6743.1
923.456	6687.51
923.767	6670.79
924.077	6699.94
924.387	6626.72
924.697	6630.33
925.008	6577.23
925.318	6528.64
925.628	6552.14
925.938	6504.46
926.248	6472.15
926.558	6405.26
926.867	6403.67
927.177	6366.61
927.487	6346.27
927.796	6309.89
928.106	6355.09
928.416	6275.09
928.725	6237.8
929.034	6186.96
929.344	6211.59
929.653	6183.34
929.962	6162.78
930.271	6124.36
930.581	6129.33
930.89	6095.43
931.199	6050.69
931.508	6028.09
931.817	6023.12
932.125	5976.34
932.434	5997.13
932.743	5972.27
933.051	5901.31
933.36	5870.13
933.669	5861.54
933.977	5822.9
934.286	5849.11
934.594	5817.47
934.902	5712.17
935.21	5706.74
935.519	5749.23
935.827	5685.73
936.135	5639.85
936.443	5591.49
936.751	5618.61
937.059	5610.7
937.367	5597.37
937.674	5514.43
937.982	5553.75
938.29	5485.96
938.597	5498.16
938.905	5430.59
939.213	5385.85
939.52	5411.16
939.827	5412.29
940.135	5386.07
940.442	5311.05
940.749	5311.72
941.056	5296.81
941.363	5264.72
941.67	5237.83
941.977	5246.42
942.284	5193.08
942.591	5164.38
942.898	5110.37
943.205	5141.56
943.511	5076.25
943.818	5076.25
944.125	5069.25
944.431	5028.34
944.738	4996.93
945.044	5016.59
945.35	4930.94
945.657	4958.29
945.963	4923.49
946.269	4902.24
946.575	4887.33
946.881	4864.73
947.187	4884.62
947.493	4793.32
947.799	4812.3
948.105	4800.1
948.41	4777.5
948.716	4782.93
949.022	4721.91
949.327	4711.97
949.633	4681.01
949.938	4706.77
950.244	4662.02
950.549	4593.1
950.854	4577.51
951.16	4629.93
951.465	4576.38
951.77	4590.84
952.075	4521.24
952.38	4532.99
952.685	4485.76
952.99	4487.34
953.294	4444.63
953.599	4436.95
953.904	4437.85
954.209	4328.93
954.513	4348.36
954.818	4382.71
955.122	4335.71
955.426	4338.42
955.731	4267.46
956.035	4249.83
956.339	4276.72
956.643	4283.05
956.948	4215.71
957.252	4210.28
957.556	4204.18
957.86	4183.39
958.163	4149.95
958.467	4138.87
958.771	4160.57
959.075	4119.67
959.378	4077.41
959.682	4089.84
959.985	4043.96
960.289	4017.07
960.592	4021.36
960.896	4031.53
961.199	3943.4
961.502	3964.64
961.805	3970.07
962.108	3895.94
962.411	3913.57
962.714	3866.11
963.017	3865.89
963.32	3860.46
963.623	3844.19
963.926	3854.81
964.228	3817.53
964.531	3803.52
964.833	3842.84
965.136	3729.85
965.438	3753.35
965.741	3745.44
966.043	3698.89
966.345	3709.96
966.648	3665.21
966.95	3671.54
967.252	3653.46
967.554	3640.36
967.856	3637.42
968.158	3577.53
968.46	3587.25
968.761	3532.56
969.063	3568.72
969.365	3536.63
969.666	3507.03
969.968	3474.94
970.269	3474.03
970.571	3478.1
970.872	3512.22
971.174	3452.56
971.475	3436.97
971.776	3397.42
972.077	3399.68
972.378	3400.81
972.679	3378.22
972.98	3349.97
973.281	3330.76
973.582	3337.99
973.883	3321.95
974.183	3295.28
974.484	3288.28
974.785	3272.68
975.085	3304.09
975.386	3260.48
975.686	3226.36
975.986	3235.17
976.287	3208.28
976.587	3186.13
976.887	3169.86
977.187	3154.27
977.487	3159.46
977.787	3129.64
978.087	3087.83
978.387	3095.51
978.687	3099.58
978.987	3058.45
979.286	3055.96
979.586	3046.25
979.885	3005.12
980.185	3031.78
980.484	3018.23
980.784	2968.28
981.083	2993.82
981.382	2964.89
981.682	2935.29
981.981	2927.61
982.28	2924.89
982.579	2928.51
982.878	2900.04
983.177	2881.73
983.475	2881.51
983.774	2843.99
984.073	2851.9
984.372	2831.11
984.67	2844.22
984.969	2814.16
985.267	2804.22
985.566	2802.64
985.864	2798.34
986.162	2765.58
986.461	2745.24
986.759	2735.07
987.057	2668.4
987.355	2716.54
987.653	2688.74
987.951	2667.05
988.249	2664.79
988.547	2652.81
988.844	2659.59
989.142	2617.78
989.44	2604.68
989.737	2626.6
990.035	2605.58
990.332	2579.37
990.63	2558.58
990.927	2580.95
991.224	2528.97
991.521	2562.87
991.819	2515.41
992.116	2511.57
992.413	2497.11
992.71	2491.01
993.006	2474.06
993.303	2455.98
993.6	2466.83
993.897	2466.6
994.193	2429.54
994.49	2434.29
994.787	2411.46
995.083	2368.07
995.379	2373.04
995.676	2371.46
995.972	2373.04
996.268	2336.21
996.565	2329.88
996.861	2347.51
997.157	2319.71
997.453	2304.35
997.749	2313.39
998.044	2293.95
998.34	2295.08
998.636	2253.27
998.932	2228.87
999.227	2233.16
999.523	2229.09
999.818	2233.61
1000.114	2223.9
1000.409	2202.65
1000.704	2171.47
1001	2143.22
1001.295	2127.4
1001.59	2160.4
1001.885	2147.51
1002.18	2127.18
1002.475	2102.54
1002.77	2098.25
1003.065	2072.26
1003.359	2061.19
1003.654	2071.58
1003.949	2054.41
1004.243	2045.37
1004.538	2044.69
1004.832	2026.39
1005.127	2024.81
1005.421	1999.04
1005.715	1999.04
1006.009	1969.44
1006.304	1962.21
1006.598	1973.51
1006.892	1975.77
1007.186	1907.07
1007.48	1927.41
1007.773	1922.44
1008.067	1889.89
1008.361	1898.03
1008.655	1891.7
1008.948	1874.75
1009.242	1856.22
1009.535	1856
1009.829	1842.44
1010.122	1804.25
1010.415	1814.42
1010.708	1795.21
1011.001	1802.66
1011.295	1775.32
1011.588	1791.82
1011.881	1746.39
1012.173	1772.83
1012.466	1752.95
1012.759	1743.46
1013.052	1733.51
1013.344	1701.2
1013.637	1720.18
1013.93	1710.69
1014.222	1684.02
1014.514	1651.03
1014.807	1677.7
1015.099	1633.86
1015.391	1646.74
1015.683	1657.58
1015.976	1647.41
1016.268	1591.6
1016.56	1595.44
1016.851	1598.15
1017.143	1583.01
1017.435	1569.9
1017.727	1566.29
1018.018	1564.03
1018.31	1538.72
1018.602	1531.03
1018.893	1515.89
1019.185	1521.99
1019.476	1507.3
1019.767	1486.29
1020.058	1475.89
1020.35	1477.7
1020.641	1479.28
1020.932	1477.93
1021.223	1416.01
1021.514	1444.03
1021.804	1412.17
1022.095	1415.33
1022.386	1418.27
1022.677	1401.55
1022.967	1395.9
1023.258	1340.98
1023.548	1379.4
1023.839	1365.16
1024.129	1343.92
1024.419	1349.12
1024.709	1317.03
1025	1314.32
1025.29	1315.9
1025.58	1315.22
1025.87	1311.83
1026.16	1302.34
1026.449	1309.34
1026.739	1287.42
1027.029	1282.45
1027.319	1282.45
1027.608	1258.95
1027.898	1244.26
1028.187	1235.9
1028.477	1200.65
1028.766	1216.24
1029.055	1196.58
1029.344	1196.8
1029.634	1187.31
1029.923	1189.12
1030.212	1195.9
1030.501	1160.87
1030.79	1164.72
1031.078	1146.41
1031.367	1156.81
1031.656	1126.07
1031.945	1121.78
1032.233	1139.18
1032.522	1107.32
1032.81	1090.14
1033.099	1113.19
1033.387	1103.25
1033.675	1088.11
1033.963	1084.72
1034.251	1106.64
1034.54	1076.13
1034.828	1067.09
1035.116	1077.03
1035.403	1030.93
1035.691	1020.31
1035.979	1064.83
1036.267	1038.39
1036.554	1001.56
1036.842	990.03
1037.129	1002.46
1037.417	1005.4
1037.704	983.93
1037.992	995
1038.279	968.34
1038.566	974.89
1038.853	974.89
1039.14	974.89
