Data from hue_310_FLMS001491_83.txt Node
Date: Mon Feb 06 15:50:19 GMT 2017
User: dcchb
Spectrometer: FLMS00149
Trigger mode: 0
Integration Time (sec): 2.000000E-2
Scans to average: 10
Electric dark correction enabled: true
Nonlinearity correction enabled: false
Boxcar width: 0
XAxis mode: Wavelengths
Number of Pixels in Spectrum: 2048
>>>>>Begin Spectral Data<<<<<
341.393	-27.16
341.776	-27.16
342.16	-27.16
342.543	-56.31
342.927	-65.35
343.31	-80.27
343.693	-55.63
344.077	-53.15
344.46	-61.06
344.843	-59.25
345.226	-47.5
345.61	-37.56
345.993	-35.52
346.376	-6.82
346.759	6.96
347.142	13.74
347.525	67.98
347.908	53.74
348.291	66.17
348.674	103.23
349.057	124.93
349.44	122.21
349.823	150.69
350.206	145.72
350.588	182.33
350.971	220.97
351.354	238.6
351.737	237.01
352.119	258.93
352.502	260.06
352.884	277.92
353.267	273.62
353.65	290.12
354.032	302.55
354.414	310.46
354.797	312.49
355.179	294.19
355.562	314.3
355.944	330.34
356.326	319.95
356.709	338.71
357.091	348.2
357.473	355.65
357.855	344.13
358.238	337.35
358.62	344.58
359.002	364.02
359.384	339.84
359.766	339.84
360.148	331.93
360.53	333.73
360.912	347.52
361.294	351.59
361.676	312.27
362.057	347.07
362.439	328.08
362.821	334.86
363.203	317.24
363.584	317.69
363.966	316.33
364.348	335.32
364.729	340.97
365.111	296.22
365.493	310.91
365.874	317.01
366.256	289.44
366.637	317.46
367.019	326.73
367.4	323.34
367.781	304.58
368.163	314.53
368.544	314.75
368.925	319.05
369.306	320.63
369.688	315.43
370.069	311.81
370.45	307.97
370.831	321.08
371.212	331.02
371.593	310.23
371.974	317.01
372.355	307.97
372.736	316.11
373.117	328.54
373.498	318.59
373.879	325.6
374.26	311.59
374.641	306.16
375.021	313.62
375.402	312.72
375.783	326.95
376.163	325.82
376.544	334.64
376.925	329.21
377.305	322.44
377.686	349.33
378.066	324.47
378.447	314.75
378.827	322.89
379.208	337.12
379.588	341.19
379.968	332.83
380.349	333.73
380.729	331.93
381.109	328.76
381.489	347.52
381.87	336.67
382.25	340.97
382.63	345.71
383.01	345.26
383.39	338.48
383.77	357.91
384.15	363.11
384.53	365.37
384.91	352.94
385.29	356.78
385.67	360.63
386.049	361.98
386.429	348.42
386.809	365.37
387.189	353.39
387.568	351.81
387.948	338.48
388.328	364.02
388.707	368.31
389.087	358.82
389.466	367.63
389.846	385.94
390.225	359.72
390.605	381.64
390.984	376.22
391.363	358.59
391.743	355.65
392.122	368.54
392.501	382.32
392.881	394.07
393.26	375.31
393.639	393.39
394.018	395.43
394.397	385.26
394.776	390
395.155	382.77
395.534	385.26
395.913	385.03
396.292	395.88
396.671	384.58
397.05	402.66
397.429	411.02
397.808	403.79
398.186	415.09
398.565	392.04
398.944	401.53
399.323	390
399.701	424.81
400.08	412.6
400.458	390.23
400.837	410.79
401.215	419.16
401.594	428.19
401.972	430.68
402.351	424.13
402.729	420.51
403.107	427.07
403.486	427.74
403.864	434.97
404.242	441.3
404.62	451.7
404.999	460.06
405.377	451.7
405.755	455.54
406.133	440.17
406.511	448.31
406.889	480.62
407.267	457.57
407.645	466.39
408.023	474.52
408.401	470
408.779	503.45
409.156	480.62
409.534	519.27
409.912	511.81
410.29	507.74
410.667	494.63
411.045	514.07
411.422	546.16
411.8	518.14
412.178	535.76
412.555	558.14
412.933	538.47
413.31	585.25
413.687	590.45
414.065	558.14
414.442	590
414.819	587.96
415.197	600.62
415.574	620.51
415.951	622.54
416.328	613.27
416.705	628.19
417.082	637
417.46	637.23
417.837	651.92
418.214	673.84
418.591	664.12
418.967	676.55
419.344	681.3
419.721	703.89
420.098	700.28
420.475	710.67
420.852	728.07
421.228	734.63
421.605	738.92
421.982	736.66
422.358	750.22
422.735	761.52
423.111	744.8
423.488	767.17
423.864	775.98
424.241	803.1
424.617	824.12
424.994	811.91
425.37	830.44
425.746	838.13
426.123	830.22
426.499	851.46
426.875	850.56
427.251	836.09
427.627	878.58
428.003	874.28
428.379	899.37
428.756	895.08
429.132	913.38
429.507	927.62
429.883	912.93
430.259	932.59
430.635	938.24
431.011	948.86
431.387	979.14
431.763	994.28
432.138	1022.08
432.514	998.12
432.89	1006.71
433.265	1013.72
433.641	1048.97
434.016	1065.47
434.392	1094.62
434.767	1105.01
435.143	1072.47
435.518	1099.36
435.894	1098.91
436.269	1116.76
436.644	1132.81
437.02	1174.62
437.395	1151.57
437.77	1173.26
438.145	1211.23
438.52	1206.71
438.895	1227.04
439.271	1231.11
439.646	1221.85
440.021	1245.8
440.395	1247.61
440.77	1231.79
441.145	1234.73
441.52	1251.45
441.895	1278.57
442.27	1299.58
442.645	1303.65
443.019	1295.97
443.394	1269.98
443.769	1308.4
444.143	1308.4
444.518	1313.6
444.892	1304.56
445.267	1300.26
445.641	1348.85
446.016	1343.65
446.39	1337.1
446.764	1352.46
447.139	1355.18
447.513	1353.82
447.887	1361.28
448.262	1373.03
448.636	1368.96
449.01	1384.55
449.384	1418.23
449.758	1367.61
450.132	1404.67
450.506	1401.05
450.88	1413.71
451.254	1410.54
451.628	1404.21
452.002	1432.69
452.376	1459.81
452.75	1451.67
453.123	1442.18
453.497	1489.41
453.871	1480.82
454.244	1519.01
454.618	1530.76
454.992	1519.69
455.365	1513.14
455.739	1562.63
456.112	1587.26
456.486	1577.77
456.859	1588.16
457.232	1587.26
457.606	1606.47
457.979	1620.03
458.352	1614.83
458.725	1669.29
459.099	1664.32
459.472	1685.11
459.845	1665.22
460.218	1699.12
460.591	1689.63
460.964	1694.15
461.337	1755.62
461.71	1737.31
462.083	1754.49
462.456	1767.37
462.829	1793.36
463.201	1819.34
463.574	1788.16
463.947	1842.62
464.32	1861.6
464.692	1831.1
465.065	1862.96
465.438	1893.92
465.81	1926.23
466.183	1881.04
466.555	1944.99
466.928	1951.77
467.3	1941.38
467.672	1965.56
468.045	2012.79
468.417	2016.85
468.789	1997.87
469.161	2035.84
469.534	2061.6
469.906	2074.48
470.278	2072.22
470.65	2100.92
471.022	2139.34
471.394	2204.19
471.766	2166
472.138	2178.21
472.51	2226.79
472.882	2233.35
473.253	2240.58
473.625	2296.39
473.997	2311.31
474.369	2310.63
474.74	2318.31
475.112	2407.58
475.484	2414.36
475.855	2461.81
476.227	2440.8
476.598	2462.04
476.97	2502.94
477.341	2548.82
477.713	2597.63
478.084	2598.76
478.455	2639.89
478.827	2663.62
479.198	2711.3
479.569	2711.07
479.94	2800.11
480.311	2758.53
480.682	2883.72
481.053	2902.25
481.424	2924.85
481.795	2947.9
482.166	2959.43
482.537	3016.15
482.908	3051.63
483.279	3020.67
483.65	3071.52
484.021	3142.93
484.391	3165.07
484.762	3144.73
485.133	3149.48
485.503	3243.94
485.874	3288.68
486.244	3224.05
486.615	3334.56
486.985	3353.77
487.356	3408.91
487.726	3436.7
488.097	3488.45
488.467	3494.56
488.837	3529.58
489.207	3591.05
489.578	3642.57
489.948	3631.73
490.318	3678.96
490.688	3696.81
491.058	3735
491.428	3790.59
491.798	3814.55
492.168	3854.09
492.538	3835.34
492.908	3916.46
493.278	3945.62
493.648	3923.92
494.017	3999.4
494.387	4000.98
494.757	4081.66
495.126	4042.11
495.496	4042.56
495.866	4109
496.235	4165.5
496.605	4113.75
496.974	4167.53
497.344	4161.43
497.713	4179.28
498.082	4216.57
498.452	4283.23
498.821	4273.07
499.19	4297.7
499.559	4355.78
499.928	4366.4
500.298	4323.46
500.667	4369.79
501.036	4418.37
501.405	4469.9
501.774	4445.72
502.143	4449.11
502.512	4447.3
502.88	4508.09
503.249	4446.39
503.618	4518.03
503.987	4569.33
504.356	4536.11
504.724	4582.44
505.093	4592.83
505.462	4595.32
505.83	4610.68
506.199	4648.87
506.567	4682.77
506.936	4707.18
507.304	4714.41
507.672	4704.01
508.041	4750.57
508.409	4730
508.777	4771.58
509.145	4833.95
509.514	4830.34
509.882	4805.93
510.25	4870.56
510.618	4838.93
510.986	4864.24
511.354	4884.57
511.722	4943.1
512.09	5011.8
512.458	4930.45
512.826	5019.94
513.193	5030.56
513.561	5029.2
513.929	5014.97
514.297	5039.15
514.664	5129.31
515.032	5105.36
515.4	5098.35
515.767	5082.08
516.135	5075.76
516.502	5033.95
516.869	5180.84
517.237	5123.89
517.604	5143.55
517.972	5203.66
518.339	5223.55
518.706	5230.33
519.073	5269.2
519.44	5238.01
519.808	5285.69
520.175	5250.89
520.542	5306.94
520.909	5310.78
521.276	5285.24
521.643	5409.53
522.009	5429.19
522.376	5447.27
522.743	5461.06
523.11	5511.9
523.477	5523.65
523.843	5483.2
524.21	5517.1
524.577	5607.49
524.943	5574.5
525.31	5619.24
525.676	5669.41
526.043	5727.72
526.409	5745.8
526.776	5751.44
527.142	5764.55
527.508	5775.85
527.874	5802.74
528.241	5838.45
528.607	5865.11
528.973	5930.2
529.339	5946.69
529.705	5949.86
530.071	6000.93
530.437	6096.07
530.803	6092.68
531.169	6120.25
531.535	6072.79
531.901	6151.43
532.267	6141.27
532.632	6218.55
532.998	6221.94
533.364	6220.59
533.73	6303.75
534.095	6282.05
534.461	6294.71
534.826	6390.75
535.192	6343.29
535.557	6400.24
535.923	6362.73
536.288	6448.15
536.653	6500.58
537.019	6442.95
537.384	6469.84
537.749	6549.84
538.114	6541.25
538.479	6559.33
538.845	6643.62
539.21	6627.35
539.575	6674.13
539.94	6607.02
540.305	6708.93
540.67	6678.2
541.034	6713.23
541.399	6777.63
541.764	6803.85
542.129	6842.04
542.494	6848.82
542.858	6950.28
543.223	6910.06
543.587	6923.17
543.952	6962.71
544.316	7013.78
544.681	6995.71
545.045	7110.28
545.41	7109.6
545.774	7195.47
546.138	7123.84
546.503	7087.45
546.867	7136.49
547.231	7181.69
547.595	7243.83
547.959	7209.94
548.324	7216.94
548.688	7305.3
549.052	7345.53
549.416	7350.95
549.779	7305.75
550.143	7417.84
550.507	7452.87
550.871	7432.76
551.235	7412.19
551.599	7507.56
551.962	7547.78
552.326	7529.7
552.689	7601.57
553.053	7535.13
553.417	7594.11
553.78	7630.72
554.143	7675.46
554.507	7702.58
554.87	7742.58
555.234	7769.02
555.597	7744.61
555.96	7732.64
556.323	7806.98
556.686	7795.68
557.05	7844.05
557.413	7899.41
557.776	7867.55
558.139	7931.73
558.502	7968.56
558.865	7982.35
559.228	8067.54
559.59	8003.14
559.953	8077.03
560.316	8107.54
560.679	8114.77
561.041	8133.3
561.404	8164.71
561.767	8203.13
562.129	8119.07
562.492	8286.07
562.854	8224.37
563.217	8244.94
563.579	8261.21
563.941	8326.29
564.304	8386.86
564.666	8426.63
565.028	8449.9
565.39	8428.66
565.753	8480.86
566.115	8507.53
566.477	8540.52
566.839	8564.03
567.201	8593.63
567.563	8592.27
567.925	8631.14
568.287	8710.69
568.648	8742.55
569.01	8733.29
569.372	8809.67
569.734	8736
570.095	8839.05
570.457	8875.66
570.819	8937.8
571.18	8907.75
571.542	8955.43
571.903	9019.38
572.265	9069.78
572.626	9122.66
572.987	9192.94
573.349	9266.15
573.71	9280.39
574.071	9309.09
574.432	9414.4
574.794	9456.66
575.155	9468.18
575.516	9493.04
575.877	9600.16
576.238	9636.99
576.599	9700.95
576.96	9802.86
577.32	9919.02
577.681	10016.87
578.042	10082.18
578.403	10171.67
578.763	10270.87
579.124	10354.26
579.485	10498.66
579.845	10669.96
580.206	10736.4
580.566	10916.05
580.927	10966.67
581.287	11029.27
581.648	11220.68
582.008	11410.05
582.368	11502.71
582.728	11657.28
583.089	11758.52
583.449	11972.75
583.809	12226.08
584.169	12348.11
584.529	12478.05
584.889	12805.95
585.249	12977.92
585.609	13110.8
585.969	13347.63
586.329	13657.23
586.688	13805.02
587.048	14059.02
587.408	14287.94
587.768	14465.79
588.127	14786.01
588.487	15045.44
588.846	15271.87
589.206	15473.68
589.565	15820.33
589.925	16129.93
590.284	16296.93
590.643	16660.99
591.003	16994.09
591.362	17242.67
591.721	17461.65
592.08	17886.49
592.44	18112.25
592.799	18427.27
593.158	18612.8
593.517	18989.97
593.876	19336.85
594.235	19521.03
594.593	19974.35
594.952	20295.24
595.311	20486.2
595.67	20837.15
596.029	21249.12
596.387	21586.06
596.746	21949.21
597.104	22153.5
597.463	22492.47
597.822	22821.96
598.18	23005.45
598.538	23336.97
598.897	23771.76
599.255	23820.8
599.613	24407.9
599.972	24586.43
600.33	25011.96
600.688	25242.23
601.046	25510.93
601.404	26024.81
601.762	26297.57
602.12	26626.15
602.478	26810.78
602.836	27086.7
603.194	27302.29
603.552	27603.53
603.91	27680.13
604.268	28203.06
604.625	28437.18
604.983	28677.85
605.341	28853.44
605.698	29240.09
606.056	29636.92
606.413	29795.33
606.771	30091.82
607.128	30487.97
607.485	30558.7
607.843	30794.63
608.2	31103.77
608.557	31438
608.914	31553.03
609.272	31935.62
609.629	32242.95
609.986	32499.44
610.343	32535.37
610.7	32926.32
611.057	33117.5
611.414	33195.69
611.771	33497.16
612.127	33688.79
612.484	33930.36
612.841	34298.26
613.198	34345.04
613.554	34325.83
613.911	34740.97
614.267	34891.92
614.624	35071.13
614.98	35278.8
615.337	35495.75
615.693	35634.5
616.05	35707.04
616.406	36068.61
616.762	36178.67
617.118	36251.21
617.475	36394.25
617.831	36608.94
618.187	36777.97
618.543	36928.48
618.899	37320.11
619.255	37293.21
619.611	37302.71
619.967	37597.84
620.323	37822.69
620.678	37721.9
621.034	37796.7
621.39	37951.28
621.746	37969.13
622.101	38453.86
622.457	38245.51
622.812	38393.75
623.168	38613.41
623.523	38709.9
623.879	38876.68
624.234	38776.79
624.589	39076.67
624.945	39042.32
625.3	39158.7
625.655	39168.87
626.01	39330.45
626.365	39427.4
626.72	39443.89
627.075	39506.04
627.43	39680.5
627.785	39577.67
628.14	39719.59
628.495	39794.62
628.85	39840.49
629.205	39653.15
629.559	39986.93
629.914	39971.11
630.269	40022.18
630.623	39934.27
630.978	40080.94
631.332	40240.71
631.687	40145.79
632.041	40169.75
632.396	40216.3
632.75	40148.05
633.104	40229.63
633.459	40172.23
633.813	40173.82
634.167	40216.3
634.521	40264.21
634.875	40265.11
635.229	40319.58
635.583	40216.98
635.937	40181.5
636.291	40330.65
636.645	40201.39
636.999	40179.92
637.352	40436.86
637.706	40208.39
638.06	40349.18
638.413	40293.59
638.767	40192.12
639.121	40332
639.474	40193.48
639.828	40082.07
640.181	40229.18
640.534	40238.22
640.888	40167.49
641.241	39930.66
641.594	40121.16
641.947	40341.95
642.301	40197.32
642.654	40171.78
643.007	40147.6
643.36	40171.56
643.713	40165.46
644.066	40176.98
644.419	40017.89
644.771	39776.54
645.124	39418.81
645.477	39403.67
645.83	39184.92
646.182	39099.27
646.535	38961.42
646.888	39074.86
647.24	38840.07
647.593	39027.63
647.945	38991.02
648.298	38890.46
648.65	38791.03
649.002	38723.91
649.355	38870.12
649.707	38811.37
650.059	38892.72
650.411	39351.01
650.763	39434.63
651.115	39806.59
651.467	39637.56
651.819	39655.64
652.171	39586.49
652.523	39610.22
652.875	39561.86
653.227	39414.74
653.578	39763.21
653.93	39751.45
654.282	39519.37
654.633	39377.91
654.985	39463.33
655.337	39519.82
655.688	39490.44
656.039	39646.82
656.391	39185.37
656.742	39437.34
657.094	39416.1
657.445	39513.72
657.796	39303.33
658.147	39426.04
658.498	39306.27
658.849	39360.96
659.2	39286.83
659.551	39329.77
659.902	39365.02
660.253	39301.07
660.604	39401.86
660.955	39132.26
661.306	39332.26
661.656	39255.42
662.007	39324.12
662.358	39248.19
662.708	39280.73
663.059	39259.26
663.409	39015.2
663.76	39331.13
664.11	39383.1
664.461	39259.94
664.811	39202.54
665.161	39243.22
665.511	39154.63
665.862	39206.84
666.212	39354.63
666.562	39334.97
666.912	39210.45
667.262	39115.09
667.612	39270.56
667.962	39171.81
668.312	39124.35
668.662	39343.78
669.011	39089.33
669.361	39149.89
669.711	38971.59
670.06	38983.11
670.41	38863.34
670.76	38956.22
671.109	39091.81
671.459	39144.69
671.808	39049.1
672.157	39066.5
672.507	38850.01
672.856	38811.59
673.205	38812.27
673.554	38937.24
673.904	38924.13
674.253	39045.03
674.602	38894.53
674.951	38358.95
675.3	38165.73
675.649	38724.82
675.998	38751.03
676.346	38694.76
676.695	38927.3
677.044	38614.99
677.393	38701.31
677.741	38756.68
678.09	38723.23
678.438	38569.56
678.787	38593.75
679.135	38662.44
679.484	38483.47
679.832	38551.49
680.181	38343.13
680.529	38414.77
680.877	38333.41
681.225	38239.63
681.573	38420.87
681.922	38295.67
682.27	38252.06
682.618	38082.12
682.966	38074.44
683.314	38219.97
683.661	37996.7
684.009	37711.51
684.357	37864.5
684.705	37736.14
685.053	37782.92
685.4	37706.08
685.748	37601.68
686.095	37659.08
686.443	37445.75
686.79	37427.67
687.138	37473.32
687.485	37418.18
687.832	37364.85
688.18	37359.2
688.527	37103.61
688.874	37022.94
689.221	37085.08
689.568	36842.38
689.915	36868.14
690.262	36845.09
690.609	36710.86
690.956	36722.38
691.303	36669.05
691.65	36469.73
691.997	36396.29
692.344	36242.62
692.69	36217.54
693.037	36210.98
693.383	35916.75
693.73	36040.82
694.077	35885.34
694.423	36100.03
694.769	35685.57
695.116	35736.65
695.462	35618.68
695.808	35453.94
696.155	35575.75
696.501	35248.75
696.847	35279.93
697.193	34981.41
697.539	35378.46
697.885	35030.22
698.231	34925.37
698.577	34852.83
698.923	34885.82
699.269	34687.41
699.614	34563.57
699.96	34572.61
700.306	34456.23
700.651	34391.6
700.997	34358.15
701.342	34229.34
701.688	34221.88
702.033	34034.32
702.379	33960.87
702.724	33873.64
703.069	33990.25
703.415	33633.88
703.76	33602.01
704.105	33586.42
704.45	33486.76
704.795	33320.89
705.14	33336.26
705.485	33298.07
705.83	33134.68
706.175	33216.03
706.52	33139.88
706.865	32850.17
707.209	32924.97
707.554	32770.4
707.899	32890.39
708.243	32681.13
708.588	32603.39
708.932	32382.61
709.277	32344.87
709.621	32324.08
709.966	32212.22
710.31	32358.43
710.654	32035.27
710.998	32040.25
711.342	31999.79
711.687	31983.75
712.031	31958.89
712.375	31672.12
712.719	31852.68
713.063	31696.3
713.407	31752.57
713.75	31643.65
714.094	31540.6
714.438	31430.09
714.782	31493.14
715.125	31285.01
715.469	31354.84
715.812	31159.36
716.156	31158.91
716.499	31125.01
716.843	31070.1
717.186	30897.45
717.53	31075.98
717.873	31083.21
718.216	30896.55
718.559	30690.22
718.902	30690.22
719.246	30672.82
719.589	30616.33
719.932	30596.44
720.275	30456.33
720.617	30419.72
720.96	30587.85
721.303	30417.69
721.646	30272.16
721.989	30099.05
722.331	30302.66
722.674	30161.88
723.016	30131.59
723.359	30096.34
723.701	30190.58
724.044	29813.41
724.386	29695.45
724.729	29893.86
725.071	29774.09
725.413	29815.44
725.755	29724.6
726.097	29632.62
726.439	29502.91
726.782	29489.13
727.124	29526.86
727.465	29391.73
727.807	29367.55
728.149	29291.62
728.491	29353.08
728.833	29400.77
729.175	29224.5
729.516	29170.72
729.858	29139.08
730.199	29158.29
730.541	29051.62
730.882	29088.01
731.224	29059.53
731.565	28895.7
731.906	28916.94
732.248	28923.49
732.589	28768.24
732.93	28515.82
733.271	28799.65
733.612	28717.17
733.953	28613.89
734.294	28643.5
734.635	28495.71
734.976	28574.8
735.317	28467.68
735.658	28401.47
735.999	28394.69
736.339	28300.23
736.68	28334.58
737.021	28329.16
737.361	28219.55
737.702	28299.78
738.042	28241.47
738.383	28106.56
738.723	28171.42
739.063	27935.72
739.404	28175.49
739.744	28035.6
740.084	27891.43
740.424	27910.18
740.764	27822.73
741.104	27985.89
741.444	27756.74
741.784	27691.43
742.124	27768.49
742.464	27726.23
742.804	27607.14
743.143	27498.9
743.483	27579.8
743.823	27451.89
744.162	27378.45
744.502	27519.91
744.841	27262.97
745.181	27285.79
745.52	27279.92
745.86	27259.13
746.199	27274.95
746.538	27191.56
746.877	27244.89
747.216	27161.73
747.556	27098.68
747.895	27167.83
748.234	26945.92
748.573	26838.8
748.911	26878.8
749.25	26857.1
749.589	26719.03
749.928	26767.62
750.267	26788.41
750.605	26632.03
750.944	26567.62
751.283	26377.57
751.621	26576.43
751.96	26273.62
752.298	26393.16
752.636	26332.15
752.975	26223.67
753.313	26258.25
753.651	26252.6
753.989	26125.82
754.327	25949.56
754.666	25875.44
755.004	25907.98
755.342	26032.72
755.679	25904.36
756.017	25773.97
756.355	25810.35
756.693	25647.19
757.031	25695.78
757.368	25518.61
757.706	25426.86
758.044	25459.18
758.381	25531.04
758.719	25301.67
759.056	25395.22
759.394	25149.13
759.731	25148.22
760.068	24955.23
760.405	25029.81
760.743	24827.78
761.08	24936.03
761.417	24672.76
761.754	24709.14
762.091	24656.94
762.428	24654
762.765	24340.79
763.102	24560.44
763.438	24349.6
763.775	24289.26
764.112	24324.06
764.449	24268.47
764.785	24073.45
765.122	23980.34
765.458	23928.37
765.795	23845.66
766.131	23879.78
766.467	23679.79
766.804	23584.65
767.14	23484.99
767.476	23518.89
767.812	23411.09
768.148	23446.8
768.485	23143.76
768.821	23118.67
769.157	23048.39
769.492	23100.37
769.828	22996.42
770.164	22889.07
770.5	22656.54
770.836	22790.32
771.171	22590.78
771.507	22507.16
771.842	22406.15
772.178	22360.95
772.513	22328.86
772.849	22335.64
773.184	22165.48
773.519	22214.06
773.855	22025.37
774.19	21970.91
774.525	21970.91
774.86	21919.16
775.195	21861.76
775.53	21701.99
775.865	21531.82
776.2	21448.21
776.535	21316.46
776.87	21344.26
777.205	21171.83
777.539	21074.21
777.874	21255.67
778.209	21046.41
778.543	20988.56
778.878	20859.97
779.212	20826.3
779.547	20609.59
779.881	20695.01
780.215	20541.11
780.55	20679.19
780.884	20382.02
781.218	20451.85
781.552	20432.41
781.886	20335.02
782.22	20130.28
782.554	20056.38
782.888	19913.78
783.222	19881.69
783.556	19698.2
783.889	19733.9
784.223	19542.72
784.557	19500.46
784.89	19520.12
785.224	19541.36
785.557	19390.63
785.891	19295.27
786.224	19240.13
786.558	19200.13
786.891	19098.66
787.224	19089.85
787.557	18906.81
787.891	18994.03
788.224	18968.5
788.557	18862.74
788.89	18834.49
789.223	18799.69
789.556	18618.68
789.888	18501.39
790.221	18524.89
790.554	18337.33
790.887	18417.55
791.219	18232.92
791.552	18244.22
791.884	18224.11
792.217	18115.41
792.549	17997.45
792.882	17960.84
793.214	17903.67
793.546	17940.28
793.879	17751.36
794.211	17738.93
794.543	17717.01
794.875	17672.49
795.207	17694.41
795.539	17612.15
795.871	17528.99
796.203	17413.06
796.535	17275.44
796.867	17199.73
797.198	17209.67
797.53	17273.85
797.862	17039.51
798.193	17158.83
798.525	16987.31
798.856	17029.34
799.188	16784.83
799.519	16774.43
799.85	16712.51
800.182	16768.78
800.513	16728.11
800.844	16589.8
801.175	16578.5
801.506	16633.64
801.837	16452.63
802.168	16436.14
802.499	16407.66
802.83	16360.43
803.161	16285.63
803.491	16265.29
803.822	16255.58
804.153	16218.74
804.483	15966.32
804.814	16003.6
805.145	15948.92
805.475	15856.72
805.805	15921.12
806.136	15901.91
806.466	15842.25
806.796	15835.25
807.126	15692.43
807.457	15704.4
807.787	15627.12
808.117	15580.56
808.447	15560.45
808.777	15518.42
809.107	15442.26
809.436	15395.94
809.766	15440.68
810.096	15332.21
810.426	15336.28
810.755	15342.61
811.085	15214.25
811.414	15218.77
811.744	15087.47
812.073	15061.71
812.403	15031.2
812.732	14924.31
813.061	15007.92
813.39	14869.4
813.719	14843.64
814.049	14910.98
814.378	14834.37
814.707	14823.75
815.036	14712.79
815.365	14679.35
815.693	14633.7
816.022	14605.22
816.351	14556.64
816.68	14417.88
817.008	14572.91
817.337	14359.35
817.665	14318
817.994	14367.26
818.322	14321.16
818.651	14321.16
818.979	14174.05
819.307	14298.79
819.636	14211.34
819.964	14073.03
820.292	14193.71
820.62	14199.13
820.948	14067.84
821.276	14168.62
821.604	14106.71
821.932	14098.8
822.259	14146.93
822.587	14061.28
822.915	14049.76
823.243	14098.34
823.57	14049.76
823.898	14020.38
824.225	13951.68
824.553	14012.24
824.88	14009.31
825.207	14077.1
825.535	14034.84
825.862	14057.22
826.189	13961.17
826.516	14014.96
826.843	14070.77
827.17	14076.42
827.497	14075.07
827.824	14061.73
828.151	14052.02
828.478	14065.12
828.805	14111.23
829.131	14023.54
829.458	13997.56
829.785	13963.43
830.111	14001.85
830.438	14058.8
830.764	13919.14
831.09	14095.63
831.417	13920.04
831.743	13987.16
832.069	13962.08
832.395	13904.68
832.722	13973.6
833.048	13844.34
833.374	13859.03
833.7	13857.45
834.026	13922.08
834.351	13845.7
834.677	13854.73
835.003	13837.11
835.329	13838.92
835.654	13763.44
835.98	13790.33
836.306	13781.52
836.631	13639.82
836.956	13774.28
837.282	13701.07
837.607	13592.82
837.932	13650.45
838.258	13697.22
838.583	13647.73
838.908	13541.3
839.233	13559.38
839.558	13527.51
839.883	13482.31
840.208	13454.97
840.533	13474.63
840.858	13457
841.182	13465.14
841.507	13333.39
841.832	13382.88
842.156	13219.72
842.481	13298.82
842.805	13222.89
843.13	13201.42
843.454	13109.9
843.778	13151.25
844.103	13136.34
844.427	13103.12
844.751	13110.8
845.075	13003.23
845.399	12937.47
845.723	12929.79
846.047	12961.88
846.371	12795.78
846.695	12824.25
847.019	12723.69
847.343	12703.58
847.666	12608.67
847.99	12607.31
848.313	12575.45
848.637	12505.84
848.96	12436.01
849.284	12419.29
849.607	12331.38
849.931	12289.13
850.254	12273.53
850.577	12129.13
850.9	12103.14
851.223	12079.41
851.546	11982.24
851.869	11925.97
852.192	12018.17
852.515	11848.69
852.838	11930.04
853.161	11844.17
853.483	11751.51
853.806	11760.55
854.129	11678.52
854.451	11673.55
854.774	11634.68
855.096	11605.98
855.419	11524.17
855.741	11532.31
856.063	11441.24
856.385	11402.6
856.708	11380.22
857.03	11329.15
857.352	11305.42
857.674	11316.72
857.996	11313.56
858.318	11291.41
858.64	11169.16
858.961	11141.59
859.283	11114.69
859.605	11085.77
859.926	11152.88
860.248	11065.2
860.57	10980.23
860.891	11023.62
861.212	10946.56
861.534	10945.21
861.855	10891.42
862.176	10856.17
862.498	10899.56
862.819	10860.24
863.14	10802.84
863.461	10820.24
863.782	10762.61
864.103	10714.48
864.424	10669.73
864.745	10697.98
865.065	10740.92
865.386	10644.42
865.707	10622.05
866.027	10634.25
866.348	10573.92
866.668	10619.34
866.989	10595.61
867.309	10484.2
867.63	10533.92
867.95	10485.78
868.27	10477.87
868.59	10474.71
868.91	10430.42
869.23	10387.71
869.55	10460.47
869.87	10423.41
870.19	10432.45
870.51	10316.07
870.83	10406.24
871.15	10324.66
871.469	10258.44
871.789	10303.64
872.109	10313.81
872.428	10191.55
872.748	10263.87
873.067	10262.51
873.386	10264.77
873.706	10266.58
874.025	10158.33
874.344	10162.85
874.663	10176.19
874.982	10074.49
875.301	10123.76
875.62	10100.26
875.939	10048.51
876.258	10054.83
876.577	9948.17
876.896	10003.31
877.214	9991.79
877.533	10025
877.852	9910.88
878.17	9949.53
878.489	9926.02
878.807	10017.1
879.125	9911.34
879.444	9937.1
879.762	9860.72
880.08	9879.47
880.398	9819.13
880.716	9857.1
881.034	9779.14
881.352	9880.83
881.67	9821.39
881.988	9712.24
882.306	9820.72
882.624	9702.98
882.941	9668.86
883.259	9657.1
883.577	9618.24
883.894	9632.02
884.212	9623.66
884.529	9631.57
884.846	9493.49
885.164	9547.28
885.481	9568.29
885.798	9512.25
886.115	9422.53
886.432	9385.02
886.75	9426.83
887.067	9382.31
887.383	9343.21
887.7	9446.71
888.017	9307.96
888.334	9349.77
888.651	9308.87
888.967	9274.06
889.284	9232.03
889.6	9130.79
889.917	9161.07
890.233	9187.74
890.55	9070.45
890.866	9104.35
891.182	9046.73
891.498	9126.05
891.815	9003.11
892.131	8962.66
892.447	8952.26
892.763	8958.82
893.079	8913.4
893.395	8921.3
893.71	8856
894.026	8854.64
894.342	8816
894.657	8785.94
894.973	8748.2
895.289	8721.08
895.604	8732.61
895.92	8620.97
896.235	8595.44
896.55	8626.4
896.865	8564.93
897.181	8526.06
897.496	8588.66
897.811	8531.71
898.126	8451.03
898.441	8467.31
898.756	8458.72
899.071	8432.05
899.386	8348.21
899.7	8289.23
900.015	8285.16
900.33	8273.64
900.644	8258.27
900.959	8237.26
901.273	8192.06
901.588	8179.4
901.902	8136.69
902.216	8108.44
902.531	8073.19
902.845	8081.55
903.159	7916.81
903.473	7941.67
903.787	7965.62
904.101	7879.07
904.415	7896.25
904.729	7863.71
905.042	7778.51
905.356	7789.58
905.67	7775.57
905.984	7724.73
906.297	7752.97
906.611	7640.21
906.924	7646.54
907.237	7660.55
907.551	7606.09
907.864	7480.66
908.177	7554.11
908.491	7521.12
908.804	7492.19
909.117	7451.29
909.43	7384.85
909.743	7417.39
910.056	7356.83
910.368	7305.75
910.681	7279.77
910.994	7257.17
911.307	7190.28
911.619	7244.51
911.932	7177.17
912.244	7182.37
912.557	7101.92
912.869	7091.07
913.181	7044.07
913.494	7061.92
913.806	6985.31
914.118	6961.13
914.43	6915.48
914.742	6911.19
915.054	6919.1
915.366	6847.46
915.678	6784.86
915.99	6759.1
916.302	6760.01
916.613	6745.09
916.925	6728.14
917.236	6729.5
917.548	6658.31
917.859	6625.77
918.171	6629.84
918.482	6577.64
918.794	6548.26
919.105	6519.11
919.416	6474.82
919.727	6497.41
920.038	6490.86
920.349	6362.73
920.66	6358.43
920.971	6430.97
921.282	6357.08
921.593	6306.46
921.903	6321.37
922.214	6241.6
922.525	6245.67
922.835	6197.99
923.146	6209.06
923.456	6152.34
923.767	6128.61
924.077	6127.25
924.387	6088.61
924.697	6048.16
925.008	6006.58
925.318	6011.55
925.628	6010.65
925.938	5948.05
926.248	5974.94
926.558	5884.1
926.867	5889.07
927.177	5841.39
927.487	5823.99
927.796	5800.03
928.106	5764.78
928.416	5731.11
928.725	5772.91
929.034	5678.45
929.344	5730.43
929.653	5718
929.962	5618.11
930.271	5599.36
930.581	5595.29
930.89	5567.95
931.199	5535.41
931.508	5567.95
931.817	5468.97
932.125	5465.58
932.434	5463.09
932.743	5428.06
933.051	5395.75
933.36	5361.4
933.669	5343.09
933.977	5327.73
934.286	5308.52
934.594	5216.32
934.902	5258.58
935.21	5224.68
935.519	5201.85
935.827	5225.36
936.135	5174.96
936.443	5089.54
936.751	5127.05
937.059	5102.42
937.367	5109.43
937.674	5037.79
937.982	5081.41
938.29	5036.66
938.597	5016.1
938.905	4975.65
939.213	4954.18
939.52	4932.26
939.827	4987.85
940.135	4910.79
940.442	4901.75
940.749	4880.73
941.056	4889.09
941.363	4830.11
941.67	4808.19
941.977	4764.58
942.284	4744.47
942.591	4736.1
942.898	4677.57
943.205	4718.48
943.511	4632.6
943.818	4632.6
944.125	4640.97
944.431	4595.99
944.738	4551.7
945.044	4624.69
945.35	4554.19
945.657	4537.01
945.963	4527.75
946.269	4472.16
946.575	4475.55
946.881	4458.82
947.187	4460.41
947.493	4393.74
947.799	4424.02
948.105	4361.42
948.41	4329.34
948.716	4366.85
949.022	4325.72
949.327	4340.63
949.633	4257.02
949.938	4267.42
950.244	4291.14
950.549	4212.73
950.854	4234.42
951.16	4185.84
951.465	4168.66
951.77	4170.92
952.075	4157.59
952.38	4152.16
952.685	4134.09
952.99	4045.5
953.294	4092.28
953.599	4070.81
953.904	4015.9
954.209	4007.31
954.513	3982.45
954.818	3993.75
955.122	3996.69
955.426	3951.94
955.731	3949.91
956.035	3883.02
956.339	3902.91
956.643	3890.25
956.948	3886.41
957.252	3867.65
957.556	3850.48
957.86	3837.82
958.163	3796.47
958.467	3791.04
958.771	3781.1
959.075	3763.93
959.378	3696.13
959.682	3715.34
959.985	3677.15
960.289	3712.63
960.592	3694.78
960.896	3652.97
961.199	3629.24
961.502	3618.17
961.805	3598.06
962.108	3569.58
962.411	3586.08
962.714	3608
963.017	3527.55
963.32	3533.65
963.623	3509.47
963.926	3524.16
964.228	3469.47
964.531	3504.05
964.833	3438.96
965.136	3420.88
965.438	3395.57
965.741	3388.12
966.043	3390.38
966.345	3343.6
966.648	3374.56
966.95	3338.17
967.252	3314.22
967.554	3337.27
967.856	3309.25
968.158	3286.2
968.46	3318.74
968.761	3257.5
969.063	3258.4
969.365	3243.94
969.666	3232.64
969.968	3205.98
970.269	3171.63
970.571	3177.28
970.872	3187.9
971.174	3150.84
971.475	3143.38
971.776	3126.2
972.077	3139.99
972.378	3095.92
972.679	3093.66
972.98	3053.21
973.281	3071.74
973.582	3050.27
973.883	3039.2
974.183	3012.31
974.484	3016.15
974.785	2995.81
975.085	2987.22
975.386	2990.16
975.686	2951.29
975.986	2939.54
976.287	2933.44
976.587	2928.92
976.887	2893.67
977.187	2878.07
977.487	2856.61
977.787	2840.33
978.087	2850.73
978.387	2832.88
978.687	2798.75
978.987	2787.91
979.286	2806.44
979.586	2849.37
979.885	2779.55
980.185	2763.05
980.484	2730.96
980.784	2709.49
981.083	2750.62
981.382	2715.14
981.682	2727.57
981.981	2691.41
982.28	2685.54
982.579	2668.36
982.878	2681.92
983.177	2673.79
983.475	2628.14
983.774	2601.02
984.073	2613
984.372	2608.93
984.67	2585.65
984.969	2586.56
985.267	2580.45
985.566	2594.47
985.864	2536.84
986.162	2561.47
986.461	2515.6
986.759	2532.55
987.057	2523.96
987.355	2467.01
987.653	2488.03
987.951	2460.68
988.249	2453.45
988.547	2466.56
988.844	2403.06
989.142	2463.85
989.44	2391.08
989.737	2394.7
990.035	2381.14
990.332	2373
990.63	2425.66
990.927	2360.57
991.224	2326.45
991.521	2337.07
991.819	2328.71
992.116	2328.94
992.413	2286.68
992.71	2295.26
993.006	2296.39
993.303	2312.21
993.6	2267.24
993.897	2253.46
994.193	2267.92
994.49	2222.5
994.787	2240.58
995.083	2198.77
995.379	2231.31
995.676	2194.02
995.972	2184.08
996.268	2171.65
996.565	2120.35
996.861	2142.05
997.157	2147.7
997.453	2104.76
997.749	2136.62
998.044	2110.86
998.34	2108.38
998.636	2068.15
998.932	2060.47
999.227	2065.67
999.523	2081.03
999.818	2058.66
1000.114	2025.89
1000.409	2015.95
1000.704	2009.17
1001	1956.74
1001.295	1974.59
1001.59	2018.21
1001.885	1990.41
1002.18	1951.32
1002.475	1949.28
1002.77	1959
1003.065	1915.61
1003.359	1912.9
1003.654	1938.21
1003.949	1913.13
1004.243	1902.51
1004.538	1872
1004.832	1851.89
1005.127	1891.89
1005.421	1848.04
1005.715	1797.88
1006.009	1795.62
1006.304	1825.67
1006.598	1781.83
1006.892	1810.76
1007.186	1770.31
1007.48	1792.68
1007.773	1763.98
1008.067	1797.65
1008.361	1738.67
1008.655	1721.04
1008.948	1727.82
1009.242	1723.75
1009.535	1705
1009.829	1658.67
1010.122	1706.35
1010.415	1695.73
1010.708	1639.01
1011.001	1670.87
1011.295	1653.25
1011.588	1638.33
1011.881	1628.62
1012.173	1618.9
1012.466	1597.43
1012.759	1621.16
1013.052	1619.35
1013.344	1610.31
1013.637	1585.45
1013.93	1587.03
1014.222	1527.15
1014.514	1548.84
1014.807	1545.23
1015.099	1551.78
1015.391	1529.86
1015.683	1499.81
1015.976	1482.86
1016.268	1498
1016.56	1502.74
1016.851	1475.17
1017.143	1481.5
1017.435	1458
1017.727	1474.5
1018.018	1427.26
1018.31	1435.4
1018.602	1418
1018.893	1420.49
1019.185	1406.47
1019.476	1399.92
1019.767	1393.37
1020.058	1377.32
1020.35	1384.33
1020.641	1363.31
1020.932	1347.04
1021.223	1334.61
1021.514	1354.95
1021.804	1314.95
1022.095	1306.59
1022.386	1340.04
1022.677	1298.45
1022.967	1312.01
1023.258	1286.48
1023.548	1290.77
1023.839	1274.27
1024.129	1275.4
1024.419	1263.88
1024.709	1264.78
1025	1243.54
1025.29	1241.28
1025.58	1227.72
1025.87	1238.12
1026.16	1211.9
1026.449	1244.22
1026.739	1207.16
1027.029	1219.81
1027.319	1171.23
1027.608	1173.94
1027.898	1169.64
1028.187	1175.75
1028.477	1149.53
1028.766	1140.94
1029.055	1129.87
1029.344	1108.86
1029.634	1131.68
1029.923	1106.6
1030.212	1103.21
1030.501	1076.99
1030.79	1087.84
1031.078	1074.51
1031.367	1052.13
1031.656	1047.39
1031.945	1052.36
1032.233	1049.65
1032.522	1042.42
1032.81	1024.11
1033.099	1069.76
1033.387	1037.67
1033.675	1033.6
1033.963	1013.26
1034.251	1022.53
1034.54	1007.61
1034.828	1006.71
1035.116	1015.98
1035.403	1000.61
1035.691	1004.45
1035.979	995.64
1036.267	972.59
1036.554	965.36
1036.842	969.65
1037.129	971.23
1037.417	926.49
1037.704	920.84
1037.992	936.43
1038.279	897.34
1038.566	910.22
1038.853	910.22
1039.14	910.22
