Data from hue_22_FLMS001491_00036.txt Node
Date: Tue Feb 07 17:10:01 GMT 2017
User: dcchb
Spectrometer: FLMS00149
Trigger mode: 0
Integration Time (sec): 2.000000E-2
Scans to average: 10
Electric dark correction enabled: true
Nonlinearity correction enabled: false
Boxcar width: 0
XAxis mode: Wavelengths
Number of Pixels in Spectrum: 2048
>>>>>Begin Spectral Data<<<<<
341.393	-23.39
341.776	-23.39
342.16	-23.39
342.543	-59.09
342.927	-64.97
343.31	-68.13
343.693	-69.04
344.077	-71.3
344.46	-52.09
344.843	-66.78
345.226	-31.52
345.61	-32.2
345.993	-29.72
346.376	-8.93
346.759	20
347.142	15.48
347.525	47.34
347.908	44.41
348.291	90.96
348.674	101.58
349.057	109.94
349.44	140.22
349.823	146.1
350.206	189.94
350.588	203.5
350.971	223.84
351.354	262.03
351.737	232.42
352.119	261.8
352.502	261.8
352.884	284.63
353.267	284.4
353.65	297.51
354.032	298.41
354.414	306.55
354.797	321.91
355.179	339.77
355.562	336.83
355.944	321.69
356.326	351.74
356.709	340.89
357.091	339.09
357.473	352.19
357.855	348.13
358.238	346.09
358.62	360.33
359.002	333.66
359.384	340.44
359.766	339.31
360.148	367.11
360.53	343.15
360.912	336.6
361.294	341.57
361.676	339.54
362.057	342.25
362.439	330.27
362.821	343.15
363.203	334.57
363.584	334.34
363.966	330.05
364.348	306.32
364.729	344.28
365.111	336.38
365.493	328.01
365.874	349.03
366.256	294.79
366.637	329.82
367.019	314.68
367.4	316.49
367.781	318.07
368.163	323.49
368.544	334.57
368.925	326.43
369.306	319.2
369.688	315.36
370.069	335.47
370.45	332.08
370.831	291.63
371.212	335.47
371.593	322.36
371.974	312.42
372.355	309.71
372.736	329.37
373.117	308.81
373.498	347.22
373.879	335.47
374.26	330.27
374.641	307.45
375.021	326.43
375.402	317.39
375.783	321.91
376.163	339.54
376.544	336.6
376.925	349.93
377.305	332.08
377.686	319.43
378.066	328.47
378.447	351.29
378.827	336.15
379.208	346.54
379.588	326.43
379.968	329.82
380.349	340.44
380.729	341.35
381.109	341.57
381.489	336.38
381.87	329.14
382.25	341.12
382.63	341.12
383.01	335.02
383.39	339.99
383.77	359.2
384.15	358.52
384.53	356.26
384.91	356.04
385.29	377.5
385.67	364.62
386.049	373.89
386.429	348.8
386.809	352.42
387.189	375.7
387.568	370.72
387.948	363.04
388.328	370.72
388.707	380.44
389.087	380.67
389.466	362.59
389.846	369.82
390.225	377.96
390.605	368.92
390.984	392.65
391.363	378.86
391.743	364.17
392.122	383.83
392.501	382.48
392.881	389.26
393.26	396.49
393.639	365.75
394.018	370.05
394.397	378.63
394.776	388.58
395.155	394.23
395.534	387.9
395.913	401.68
396.292	397.16
396.671	401.46
397.05	374.57
397.429	382.48
397.808	390.61
398.186	397.62
398.565	404.62
398.944	387
399.323	404.4
399.701	401.46
400.08	415.7
400.458	396.71
400.837	408.69
401.215	417.5
401.594	417.28
401.972	416.37
402.351	421.12
402.729	431.51
403.107	402.59
403.486	395.81
403.864	424.28
404.242	423.6
404.62	417.05
404.999	444.85
405.377	431.29
405.755	440.55
406.133	412.31
406.511	441.68
406.889	441.23
407.267	419.99
407.645	434.9
408.023	432.19
408.401	446.43
408.779	438.97
409.156	440.78
409.534	448.46
409.912	464.96
410.29	470.61
410.667	473.32
411.045	480.33
411.422	494.34
411.8	464.28
412.178	449.82
412.555	490.72
412.933	473.77
413.31	495.69
413.687	472.42
414.065	485.52
414.442	497.28
414.819	486.43
415.197	508.8
415.574	514
415.951	511.29
416.328	513.55
416.705	505.64
417.082	514.9
417.46	528.46
417.837	521.46
418.214	518.74
418.591	509.93
418.967	512.19
419.344	533.43
419.721	543.15
420.098	537.05
420.475	542.25
420.852	518.97
421.228	553.77
421.605	538.18
421.982	551.74
422.358	541.12
422.735	574.34
423.111	572.75
423.488	572.08
423.864	552.41
424.241	598.97
424.617	568.01
424.994	563.04
425.37	582.7
425.746	586.31
426.123	588.12
426.499	611.4
426.875	578.63
427.251	581.57
427.627	619.98
428.003	603.71
428.379	628.8
428.756	621.79
429.132	617.27
429.507	637.84
429.883	640.1
430.259	650.27
430.635	640.1
431.011	644.62
431.387	665.63
431.763	661.56
432.138	666.08
432.514	658.63
432.89	666.76
433.265	665.18
433.641	677.61
434.016	696.82
434.392	709.02
434.767	711.28
435.143	716.48
435.518	722.58
435.894	719.64
436.269	738.4
436.644	744.27
437.02	735.46
437.395	742.69
437.77	726.87
438.145	754.67
438.52	763.03
438.895	761.22
439.271	756.25
439.646	791.96
440.021	789.47
440.395	812.52
440.77	775.01
441.145	779.53
441.52	800.09
441.895	798.28
442.27	811.17
442.645	797.83
443.019	799.87
443.394	816.14
443.769	802.35
444.143	849.58
444.518	828.34
444.892	836.25
445.267	816.81
445.641	860.43
446.016	857.27
446.39	854.1
446.764	865.63
447.139	876.02
447.513	850.49
447.887	850.71
448.262	864.5
448.636	891.16
449.01	851.39
449.384	889.58
449.758	905.17
450.132	910.15
450.506	915.34
450.88	909.47
451.254	911.5
451.628	943.82
452.002	939.3
452.376	928.45
452.75	946.98
453.123	957.38
453.497	985.17
453.871	952.4
454.244	987.88
454.618	1025.85
454.992	1000.54
455.365	976.58
455.739	1041.44
456.112	1048.22
456.486	1043.48
456.859	1025.62
457.232	1058.84
457.606	1068.33
457.979	1075.79
458.352	1090.25
458.725	1092.06
459.099	1096.81
459.472	1113.76
459.845	1154.43
460.218	1167.09
460.591	1163.25
460.964	1186.97
461.337	1227.65
461.71	1212.51
462.083	1198.73
462.456	1186.3
462.829	1249.35
463.201	1238.27
463.574	1245.73
463.947	1271.72
464.32	1295.67
464.692	1298.16
465.065	1311.72
465.438	1333.64
465.81	1345.61
466.183	1376.35
466.555	1382
466.928	1372.51
467.3	1414.09
467.672	1404.82
468.045	1459.51
468.417	1437.59
468.789	1464.26
469.161	1485.72
469.534	1502.45
469.906	1546.74
470.278	1557.13
470.65	1547.42
471.022	1570.47
471.394	1615.66
471.766	1625.61
472.138	1663.12
472.51	1674.65
472.882	1685.49
473.253	1697.02
473.625	1708.54
473.997	1792.61
474.369	1782.21
474.74	1809.33
475.112	1856.11
475.484	1896.33
475.855	1897.24
476.227	1932.94
476.598	1981.08
476.97	2038.7
477.341	2053.39
477.713	2055.88
478.084	2126.38
478.455	2118.93
478.827	2186.95
479.198	2233.05
479.569	2239.38
479.94	2301.07
480.311	2353.5
480.682	2385.81
481.053	2428.75
481.424	2480.95
481.795	2501.29
482.166	2563.66
482.537	2610.44
482.908	2671.23
483.279	2686.37
483.65	2731.57
484.021	2778.57
484.391	2883.65
484.762	2862.64
485.133	2932.47
485.503	2942.18
485.874	2992.8
486.244	3023.76
486.615	3087.49
486.985	3131.78
487.356	3180.14
487.726	3219.24
488.097	3282.51
488.467	3327.71
488.837	3401.15
489.207	3449.29
489.578	3506.01
489.948	3531.55
490.318	3612.45
490.688	3611.54
491.058	3698.09
491.428	3733.12
491.798	3801.14
492.168	3863.74
492.538	3852.89
492.908	3902.38
493.278	3996.62
493.648	3931.08
494.017	4045.2
494.387	4072.32
494.757	4140.8
495.126	4165.65
495.496	4218.31
495.866	4208.14
496.235	4295.37
496.605	4290.85
496.974	4374.91
497.344	4410.39
497.713	4416.95
498.082	4474.35
498.452	4488.13
498.821	4533.55
499.19	4589.6
499.559	4577.17
499.928	4585.08
500.298	4655.13
500.667	4681.57
501.036	4732.64
501.405	4758.86
501.774	4764.73
502.143	4776.03
502.512	4792.53
502.88	4850.15
503.249	4884.28
503.618	4939.19
503.987	4945.52
504.356	4954.56
504.724	4976.93
505.093	4957.72
505.462	5031.62
505.83	5040.88
506.199	5152.97
506.567	5155.23
506.936	5169.24
507.304	5229.81
507.672	5237.94
508.041	5251.95
508.409	5286.75
508.777	5341.89
509.145	5412.63
509.514	5302.8
509.882	5437.26
510.25	5458.5
510.618	5466.86
510.986	5434.55
511.354	5477.71
511.722	5608.78
512.09	5590.47
512.458	5536.01
512.826	5618.72
513.193	5626.18
513.561	5651.72
513.929	5690.13
514.297	5724.71
514.664	5718.15
515.032	5786.63
515.4	5815.1
515.767	5846.74
516.135	5899.17
516.502	5823.24
516.869	5874.76
517.237	5966.28
517.604	5931.93
517.972	6011.71
518.339	6025.04
518.706	5994.98
519.073	6051.93
519.44	6121.76
519.808	6131.93
520.175	6078.6
520.542	6146.39
520.909	6210.12
521.276	6206.5
521.643	6281.53
522.009	6308.65
522.376	6349.32
522.743	6336.22
523.11	6422.77
523.477	6474.52
523.843	6485.14
524.21	6502.09
524.577	6537.34
524.943	6567.17
525.31	6642.88
525.676	6688.52
526.043	6736.66
526.409	6755.64
526.776	6761.74
527.142	6819.37
527.508	6891.23
527.874	6844.23
528.241	6898.01
528.607	6977.33
528.973	7016.88
529.339	7020.95
529.705	7076.54
530.071	7154.28
530.437	7157.44
530.803	7210.32
531.169	7312.24
531.535	7180.94
531.901	7245.35
532.267	7273.37
532.632	7365.34
532.998	7349.75
533.364	7450.99
533.73	7411.22
534.095	7524.89
534.461	7489.41
534.826	7617.09
535.192	7587.71
535.557	7597.2
535.923	7645.79
536.288	7639.69
536.653	7689.63
537.019	7649.18
537.384	7720.59
537.749	7746.58
538.114	7767.14
538.479	7788.83
538.845	7828.16
539.21	7833.35
539.575	7854.37
539.94	7957.19
540.305	7980.02
540.67	8027.02
541.034	8064.08
541.399	8066.79
541.764	8127.13
542.129	8149.28
542.494	8131.42
542.858	8192.21
543.223	8211.87
543.587	8250.97
543.952	8256.85
544.316	8285.09
544.681	8378.88
545.045	8396.95
545.41	8376.84
545.774	8431.98
546.138	8494.35
546.503	8498.42
546.867	8505.88
547.231	8650.06
547.595	8509.27
547.959	8659.55
548.324	8669.04
548.688	8653.9
549.052	8711.07
549.416	8623.16
549.779	8770.28
550.143	8763.5
550.507	8809.37
550.871	8837.39
551.235	8836.26
551.599	8930.27
551.962	8905.64
552.326	8947.22
552.689	9015.92
553.053	8959.88
553.417	9036.71
553.78	9128.23
554.143	9108.8
554.507	9137.5
554.87	9162.58
555.234	9216.37
555.597	9226.99
555.96	9215.24
556.323	9234.22
556.686	9272.19
557.05	9359.87
557.413	9337.49
557.776	9405.74
558.139	9399.64
558.502	9434.44
558.865	9522.8
559.228	9526.64
559.59	9592.86
559.953	9606.64
560.316	9702.23
560.679	9697.71
561.041	9720.08
561.404	9796.92
561.767	9883.47
562.129	9817.03
562.492	9904.49
562.854	9860.64
563.217	9879.18
563.579	9892.73
563.941	9982
564.304	10054.76
564.666	10045.95
565.028	10069.9
565.39	10095.44
565.753	10157.81
566.115	10118.27
566.477	10214.76
566.839	10324.36
567.201	10383.12
567.563	10386.51
567.925	10417.69
568.287	10412.72
568.648	10414.3
569.01	10464.92
569.372	10627.4
569.734	10525.94
570.095	10632.38
570.457	10707.18
570.819	10696.55
571.18	10758.47
571.542	10855.42
571.903	10838.02
572.265	10887.74
572.626	10953.5
572.987	10954.18
573.349	11054.74
573.71	11085.7
574.071	11148.75
574.432	11254.96
574.794	11340.61
575.155	11405.91
575.516	11364.33
575.877	11426.48
576.238	11466.25
576.599	11518.23
576.96	11596.42
577.32	11660.82
577.681	11831.21
578.042	11784.44
578.403	11937.65
578.763	12014.49
579.124	12099.23
579.485	12209.51
579.845	12313.91
580.206	12380.35
580.566	12502.38
580.927	12597.75
581.287	12748.03
581.648	12778.76
582.008	13002.93
582.368	13133.33
582.728	13278.86
583.089	13362.93
583.449	13503.03
583.809	13651.73
584.169	13871.61
584.529	14002.68
584.889	14309.79
585.249	14322.67
585.609	14476.79
585.969	14718.37
586.329	14839.27
586.688	15072.94
587.048	15310.22
587.408	15530.78
587.768	15681.73
588.127	15916.98
588.487	16099.58
588.846	16406.46
589.206	16565.78
589.565	16850.97
589.925	17171.86
590.284	17460.22
590.643	17702.02
591.003	17924.84
591.362	18366.64
591.721	18490.47
592.08	18730.69
592.44	19245.93
592.799	19470.34
593.158	19644.79
593.517	19954.84
593.876	20226.47
594.235	20607.93
594.593	20939.68
594.952	21135.6
595.311	21375.82
595.67	21772.65
596.029	22187.33
596.387	22480.65
596.746	22764.49
597.104	22966.51
597.463	23196.11
597.822	23548.65
598.18	23874.29
598.538	24103.89
598.897	24625.45
599.255	24706.58
599.613	25311.31
599.972	25377.52
600.33	25811.19
600.688	26024.29
601.046	26447.1
601.404	26817.71
601.762	27134.31
602.12	27384.25
602.478	27629.22
602.836	27977.46
603.194	28113.72
603.552	28454.05
603.91	28669.19
604.268	29187.37
604.625	29359.12
604.983	29700.12
605.341	29896.28
605.698	30190.96
606.056	30539.2
606.413	30709.59
606.771	31106.41
607.128	31388.44
607.485	31496.91
607.843	31874.08
608.2	32253.28
608.557	32482.65
608.914	32626.83
609.272	33055.52
609.629	33295.96
609.986	33594.03
610.343	33640.13
610.7	34116.5
611.057	34196.73
611.414	34411.41
611.771	34646.66
612.127	34946.31
612.484	35024.5
612.841	35374.55
613.198	35511.27
613.554	35667.65
613.911	36001.2
614.267	36170.69
614.624	36341.98
614.98	36493.16
615.337	36866.04
615.693	37020.83
616.05	37149.64
616.406	37570.65
616.762	37466.47
617.118	37645.68
617.475	37823.07
617.831	38022.16
618.187	38333.79
618.543	38418.31
618.899	38671.41
619.255	38675.48
619.611	38886.32
619.967	39011.74
620.323	39253.54
620.678	39365.18
621.034	39411.05
621.39	39451.28
621.746	39515.23
622.101	40061.88
622.457	39878.39
622.812	39992.06
623.168	40309.79
623.523	40403.57
623.879	40589.55
624.234	40357.02
624.589	40625.03
624.945	40738.7
625.3	40813.73
625.655	40906.83
626.01	41057.34
626.365	41132.59
626.72	41101.63
627.075	41088.75
627.43	41263.89
627.785	41280.84
628.14	41410.55
628.495	41528.74
628.85	41639.02
629.205	41388.63
629.559	41821.84
629.914	41645.12
630.269	41828.62
630.623	41693.48
630.978	41620.94
631.332	41942.51
631.687	42081.27
632.041	41873.14
632.396	42080.36
632.75	41980.93
633.104	41925.56
633.459	41909.29
633.813	41999.01
634.167	41991.55
634.521	41980.03
634.875	42025
635.229	42000.59
635.583	41900.25
635.937	41972.34
636.291	41983.64
636.645	42142.96
636.999	42104.99
637.352	42084.66
637.706	41946.35
638.06	42049.4
638.413	42039.69
638.767	41906.58
639.121	42060.48
639.474	42039.69
639.828	41989.07
640.181	42027.48
640.534	42005.34
640.888	42057.31
641.241	41852.8
641.594	41986.81
641.947	42013.02
642.301	42044.88
642.654	41989.29
643.007	41954.26
643.36	42021.83
643.713	41935.96
644.066	42036.3
644.419	41900.48
644.771	41756.98
645.124	41267.05
645.477	41230.22
645.83	41081.52
646.182	40777.57
646.535	40812.15
646.888	40914.52
647.24	40653.51
647.593	40997.68
647.945	40978.02
648.298	40589.33
648.65	40761.53
649.002	40684.92
649.355	40691.92
649.707	40700.51
650.059	40949.09
650.411	41238.12
650.763	41229.76
651.115	41710.65
651.467	41636.08
651.819	41601.96
652.171	41453.71
652.523	41373.49
652.875	41491.9
653.227	41175.98
653.578	41563.99
653.93	41561.05
654.282	41370.78
654.633	41328.97
654.985	41427.05
655.337	41507.04
655.688	41392.24
656.039	41586.36
656.391	41275.64
656.742	41330.33
657.094	41251.01
657.445	41445.35
657.796	41273.83
658.147	41268.86
658.498	41337.33
658.849	41453.03
659.2	41375.97
659.551	41179.37
659.902	41386.82
660.253	41335.52
660.604	41410.78
660.955	41088.52
661.306	41437.44
661.656	41243.77
662.007	41269.54
662.358	41344.11
662.708	41337.56
663.059	41144.12
663.409	41035.42
663.76	41440.61
664.11	41208.07
664.461	41318.8
664.811	41244.23
665.161	41215.53
665.511	41129.88
665.862	41163.55
666.212	41252.36
666.562	41242.64
666.912	41238.35
667.262	41145.47
667.612	41197
667.962	41278.8
668.312	41039.03
668.662	41335.07
669.011	41247.62
669.361	41006.27
669.711	41051.01
670.06	41115.19
670.41	41055.98
670.76	41024.8
671.109	41039.94
671.459	40974.85
671.808	40998.58
672.157	41039.94
672.507	40889.66
672.856	40973.72
673.205	40973.05
673.554	41012.14
673.904	40925.82
674.253	41053.27
674.602	40908.19
674.951	40390.24
675.3	40381.42
675.649	40843.56
675.998	40786.16
676.346	40843.56
676.695	40894.86
677.044	40608.54
677.393	40787.52
677.741	40823.9
678.09	40648.54
678.438	40562.66
678.787	40646.05
679.135	40504.58
679.484	40495.77
679.832	40601.98
680.181	40382.55
680.529	40426.62
680.877	40293.74
681.225	40217.36
681.573	40525.15
681.922	40290.35
682.27	40085.39
682.618	40048.33
682.966	40057.14
683.314	40098.04
683.661	40056.46
684.009	39747.99
684.357	39825.73
684.705	39774.43
685.053	39873.41
685.4	39670.93
685.748	39555.01
686.095	39590.71
686.443	39407.21
686.79	39343.94
687.138	39496.02
687.485	39466.42
687.832	39289.48
688.18	39361.79
688.527	39056.71
688.874	39059.65
689.221	38984.4
689.568	38926.77
689.915	38862.37
690.262	38806.78
690.609	38662.15
690.956	38572.21
691.303	38481.36
691.65	38431.64
691.997	38448.14
692.344	38174.48
692.69	38230.75
693.037	38190.07
693.383	37954.6
693.73	38137.19
694.077	37844.32
694.423	37828.27
694.769	37753.92
695.116	37649.74
695.462	37475.96
695.808	37457.66
696.155	37655.85
696.501	37329.53
696.847	37155.29
697.193	37010.89
697.539	36993.26
697.885	36734.51
698.231	36798.47
698.577	36833.04
698.923	36682.54
699.269	36431.7
699.614	36280.51
699.96	36309.67
700.306	36470.34
700.651	36240.52
700.997	36048.2
701.342	36009.56
701.688	36011.82
702.033	35792.84
702.379	35710.81
702.724	35513.98
703.069	35746.29
703.415	35311.05
703.76	35307.43
704.105	35423.81
704.45	35348.34
704.795	35151.73
705.14	35000.77
705.485	35046.42
705.83	35064.5
706.175	35033.09
706.52	34696.15
706.865	34795.81
707.209	34683.27
707.554	34553.33
707.899	34635.81
708.243	34435.59
708.588	34345.2
708.932	34125.54
709.277	34175.94
709.621	34204.41
709.966	33946.79
710.31	34031.08
710.654	33700.47
710.998	33957.41
711.342	33708.61
711.687	33701.15
712.031	33617.99
712.375	33432.68
712.719	33518.78
713.063	33521.94
713.407	33483.07
713.75	33290.76
714.094	33352.46
714.438	33066.14
714.782	33288.28
715.125	33057.77
715.469	33078.57
715.812	32894.62
716.156	32693.72
716.499	32899.59
716.843	32750.21
717.186	32673.38
717.53	32792.7
717.873	32603.32
718.216	32576.88
718.559	32478.13
718.902	32271.13
719.246	32384.57
719.589	32232.94
719.932	32079.95
720.275	32198.81
720.617	32006.28
720.96	32084.02
721.303	32126.05
721.646	31985.71
721.989	31820.97
722.331	31886.51
722.674	31813.51
723.016	31868.43
723.359	31736.23
723.701	31705.27
724.044	31460.98
724.386	31402
724.729	31608.77
725.071	31364.49
725.413	31366.97
725.755	31431.38
726.097	31257.6
726.439	31171.72
726.782	31115.45
727.124	31282.23
727.465	31017.6
727.807	31115.68
728.149	30871.84
728.491	30875.69
728.833	30937.6
729.175	30838.4
729.516	30868
729.858	30791.62
730.199	30752.75
730.541	30699.42
730.882	30607.44
731.224	30742.13
731.565	30386.88
731.906	30549.14
732.248	30514.79
732.589	30390.05
732.93	30433.89
733.271	30309.15
733.612	30285.64
733.953	30251.97
734.294	30204.06
734.635	30139.66
734.976	30159.32
735.317	30015.37
735.658	30007.46
735.999	29964.97
736.339	29960
736.68	30013.34
737.021	29890.85
737.361	29654.47
737.702	29875.71
738.042	29815.37
738.383	29699.9
738.723	29816.5
739.063	29702.16
739.404	29728.14
739.744	29575.38
740.084	29477.3
740.424	29591.65
740.764	29438.43
741.104	29586.68
741.444	29398.44
741.784	29329.29
742.124	29465.55
742.464	29428.94
742.804	29342.84
743.143	29301.72
743.483	29221.49
743.823	29076.18
744.162	29046.13
744.502	29176.75
744.841	28942.18
745.181	29063.08
745.52	28928.62
745.86	29023.3
746.199	28981.95
746.538	28910.31
746.877	28868.73
747.216	28967.26
747.556	28775.63
747.895	28795.74
748.234	28660.15
748.573	28606.82
748.911	28629.64
749.25	28534.28
749.589	28500.61
749.928	28586.71
750.267	28537.67
750.605	28396.43
750.944	28398.91
751.283	28288.18
751.621	28225.59
751.96	28152.14
752.298	28159.15
752.636	28258.58
752.975	28059.04
753.313	28031.24
753.651	28158.69
753.989	27841.41
754.327	27782.43
754.666	27761.42
755.004	27759.38
755.342	27800.29
755.679	27752.83
756.017	27512.84
756.355	27584.7
756.693	27463.12
757.031	27533.85
757.368	27463.35
757.706	27347.42
758.044	27250.24
758.381	27237.59
758.719	27213.86
759.056	27261.77
759.394	27084.6
759.731	26905.39
760.068	26905.62
760.405	26864.94
760.743	26877.15
761.08	26779.97
761.417	26637.38
761.754	26660.88
762.091	26616.36
762.428	26495.91
762.765	26327.33
763.102	26341.57
763.438	26208.92
763.775	26107
764.112	26080.33
764.449	26151.97
764.785	26004.63
765.122	25809.15
765.458	25676.95
765.795	25723.96
766.131	25669.27
766.467	25587.91
766.804	25454.58
767.14	25346.57
767.476	25307.02
767.812	25374.81
768.148	25231.77
768.485	25139.34
768.821	24915.39
769.157	24909.06
769.492	24845.11
769.828	24810.76
770.164	24592.01
770.5	24718.11
770.836	24643.53
771.171	24443.99
771.507	24465.46
771.842	24184.79
772.178	24156.09
772.513	24171.68
772.849	24098.91
773.184	24054.17
773.519	23942.76
773.855	23901.41
774.19	23789.32
774.525	23781.63
774.86	23731.24
775.195	23624.12
775.53	23528.08
775.865	23346.84
776.2	23186.62
776.535	23066.63
776.87	22959.51
777.205	22976.46
777.539	22891.49
777.874	22927.87
778.209	22710.02
778.543	22724.71
778.878	22521.1
779.212	22560.42
779.547	22405.4
779.881	22417.15
780.215	22204.73
780.55	22300.32
780.884	22182.35
781.218	22026.2
781.552	22090.38
781.886	21970.38
782.22	21854.23
782.554	21815.36
782.888	21576.49
783.222	21612.88
783.556	21504.63
783.889	21344.64
784.223	21187.35
784.557	21175.6
784.89	21247.24
785.224	21096.06
785.557	20948.49
785.891	20956.85
786.224	20883.18
786.558	20855.61
786.891	20587.82
787.224	20550.99
787.557	20420.37
787.891	20501.95
788.224	20416.53
788.557	20444.77
788.89	20412.91
789.223	20295.62
789.556	20226.25
789.888	20141.73
790.221	20124.56
790.554	19925.01
790.887	19991.68
791.219	19844.11
791.552	19838.01
791.884	19646.6
792.217	19637.79
792.549	19631.24
792.882	19467.85
793.214	19319.15
793.546	19399.38
793.879	19255.88
794.211	19088.65
794.543	19226.27
794.875	19113.73
795.207	19143.56
795.539	18935.43
795.871	19060.85
796.203	18871.93
796.535	18803.46
796.867	18674.65
797.198	18653.63
797.53	18578.83
797.862	18604.6
798.193	18531.15
798.525	18451.83
798.856	18483.02
799.188	18219.52
799.519	18244.38
799.85	18167.09
800.182	18094.33
800.513	18096.36
800.844	17841.9
801.175	18066.98
801.506	17973.43
801.837	17859.53
802.168	17838.97
802.499	17723.26
802.83	17679.87
803.161	17615.92
803.491	17643.94
803.822	17648.01
804.153	17574.57
804.483	17386.77
804.814	17343.39
805.145	17394.01
805.475	17252.99
805.805	17302.71
806.136	17191.53
806.466	17121.24
806.796	17154.46
807.126	17027.91
807.457	16929.39
807.787	17022.26
808.117	16944.07
808.447	16800.35
808.777	16841.25
809.107	16777.98
809.436	16712.67
809.766	16720.35
810.096	16643.52
810.426	16514.71
810.755	16564.42
811.085	16530.07
811.414	16472.22
811.744	16297.09
812.073	16386.12
812.403	16380.93
812.732	16138.9
813.061	16210.76
813.39	16113.14
813.719	16062.29
814.049	16164.66
814.378	16113.14
814.707	16007.15
815.036	16029.3
815.365	15853.48
815.693	15738.68
816.022	15820.94
816.351	15723.32
816.68	15667.5
817.008	15767.61
817.337	15589.53
817.665	15479.48
817.994	15551.79
818.322	15522.42
818.651	15432.93
818.979	15422.76
819.307	15474.73
819.636	15322.65
819.964	15278.81
820.292	15426.15
820.62	15361.29
820.948	15291.24
821.276	15344.79
821.604	15311.35
821.932	15313.16
822.259	15251.46
822.587	15241.07
822.915	15164.46
823.243	15280.16
823.57	15250.79
823.898	15204.46
824.225	15159.49
824.553	15194.74
824.88	15176.66
825.207	15265.47
825.535	15161.07
825.862	15244.46
826.189	15153.39
826.516	15217.57
826.843	15301.86
827.17	15304.8
827.497	15214.85
827.824	15208.07
828.151	15216.21
828.478	15218.7
828.805	15144.35
829.131	15084.69
829.458	15195.42
829.785	15026.84
830.111	15152.26
830.438	15273.16
830.764	15149.32
831.09	15204.46
831.417	15086.27
831.743	15255.76
832.069	15175.08
832.395	15061.64
832.722	15085.14
833.048	15027.06
833.374	15007.18
833.7	14932.15
834.026	14955.65
834.351	14949.78
834.677	15010.34
835.003	14992.49
835.329	15052.82
835.654	14954.52
835.98	14919.04
836.306	14990.91
836.631	14860.06
836.956	14903.68
837.282	14894.41
837.607	14788.88
837.932	14729.67
838.258	14813.96
838.583	14780.52
838.908	14705.04
839.233	14630.69
839.558	14659.39
839.883	14671.14
840.208	14584.36
840.533	14506.17
840.858	14599.28
841.182	14566.51
841.507	14549.79
841.832	14478.38
842.156	14450.58
842.481	14461.2
842.805	14390.92
843.13	14413.97
843.454	14297.59
843.778	14244.26
844.103	14161.1
844.427	14072.29
844.751	14262.56
845.075	14175.11
845.399	14058.5
845.723	14028.44
846.047	14046.07
846.371	13893.76
846.695	13824.38
847.019	13804.95
847.343	13750.49
847.666	13709.13
847.99	13602.02
848.313	13645.63
848.637	13538.06
848.96	13477.5
849.284	13491.96
849.607	13383.26
849.931	13355.02
850.254	13261.69
850.577	13152.31
850.9	13126.32
851.223	13159.32
851.546	13069.83
851.869	12948.25
852.192	13014.91
852.515	12876.84
852.838	12797.06
853.161	12918.87
853.483	12750.29
853.806	12682.94
854.129	12769.72
854.451	12619.89
854.774	12621.7
855.096	12599.56
855.419	12554.81
855.741	12481.37
856.063	12315.5
856.385	12341.94
856.708	12429.84
857.03	12270.07
857.352	12326.79
857.674	12293.58
857.996	12211.77
858.318	12198.89
858.64	12157.31
858.961	12161.6
859.283	12061.94
859.605	12010.19
859.926	11989.18
860.248	12005.45
860.57	11921.61
860.891	11979.23
861.212	11905.34
861.534	11859.01
861.855	11849.52
862.176	11758.67
862.498	11701.5
862.819	11804.77
863.14	11755.51
863.461	11723.65
863.782	11607.49
864.103	11692.69
864.424	11645.68
864.745	11686.36
865.065	11617.89
865.386	11530.21
865.707	11572.01
866.027	11536.98
866.348	11532.01
866.668	11520.94
866.989	11512.8
867.309	11464.67
867.63	11480.94
867.95	11424.45
868.27	11398.46
868.59	11419.25
868.91	11287.5
869.23	11284.56
869.55	11217.22
869.87	11325.01
870.19	11306.48
870.51	11251.34
870.83	11213.15
871.15	11199.82
871.469	11208.63
871.789	11181.97
872.109	11176.54
872.428	11096.09
872.748	11129.76
873.067	11031.24
873.386	11107.62
873.706	11002.31
874.025	11000.28
874.344	10928.19
874.663	10948.75
874.982	10896.78
875.301	10951.92
875.62	10945.14
875.939	10904.23
876.258	10892.48
876.577	10850.9
876.896	10826.95
877.214	10868.3
877.533	10851.13
877.852	10791.47
878.17	10818.81
878.489	10804.57
878.807	10774.97
879.125	10814.52
879.444	10706.27
879.762	10715.09
880.08	10726.84
880.398	10667.63
880.716	10723.45
881.034	10644.13
881.352	10640.29
881.67	10613.39
881.988	10578.37
882.306	10551.47
882.624	10530.01
882.941	10443.45
883.259	10490.01
883.577	10428.99
883.894	10444.13
884.212	10353.51
884.529	10409.56
884.846	10347.19
885.164	10398.71
885.481	10228.09
885.798	10303.34
886.115	10265.38
886.432	10274.42
886.75	10201.65
887.067	10234.87
887.383	10073.75
887.7	10169.11
888.017	10091.15
888.334	10099.06
888.651	10092.28
888.967	10009.57
889.284	9962.11
889.6	10027.65
889.917	9962.11
890.233	9947.42
890.55	9867.2
890.866	9836.46
891.182	9838.5
891.498	9854.32
891.815	9795.79
892.131	9731.38
892.447	9705.39
892.763	9709.24
893.079	9612.52
893.395	9625.4
893.71	9615.68
894.026	9657.49
894.342	9561.9
894.657	9457.49
894.973	9517.15
895.289	9485.06
895.604	9457.49
895.92	9331.17
896.235	9353.09
896.55	9349.02
896.865	9364.84
897.181	9311.28
897.496	9305.18
897.811	9234.67
898.126	9232.41
898.441	9170.27
898.756	9169.59
899.071	9080.55
899.386	9087.56
899.7	9034.68
900.015	8988.35
900.33	8877.17
900.644	8901.57
900.959	8873.78
901.273	8859.77
901.588	8787.23
901.902	8767.11
902.216	8812.08
902.531	8718.08
902.845	8733.67
903.159	8689.15
903.473	8643.5
903.787	8602.6
904.101	8530.28
904.415	8560.34
904.729	8453.22
905.042	8488.25
905.356	8501.36
905.67	8480.79
905.984	8408.48
906.297	8405.32
906.611	8343.62
906.924	8352.44
907.237	8310.18
907.551	8266.34
907.864	8220.24
908.177	8208.94
908.491	8152.22
908.804	8074.93
909.117	8076.96
909.43	7989.51
909.743	8023.4
910.056	8008.04
910.368	7956.06
910.681	7915.84
910.994	7902.5
911.307	7872
911.619	7756.52
911.932	7817.76
912.244	7768.72
912.557	7720.14
912.869	7613.7
913.181	7610.53
913.494	7633.58
913.806	7557.43
914.118	7530.99
914.43	7526.69
914.742	7534.15
915.054	7509.07
915.366	7439.69
915.678	7441.95
915.99	7342.74
916.302	7349.52
916.613	7343.65
916.925	7264.33
917.236	7187.27
917.548	7247.38
917.859	7220.94
918.171	7142.07
918.482	7181.17
918.794	7084.9
919.105	7125.58
919.416	7047.84
919.727	7004.45
920.038	6976.65
920.349	6980.49
920.66	6930.78
920.971	6968.07
921.282	6928.97
921.593	6846.71
921.903	6826.37
922.214	6801.06
922.525	6740.73
922.835	6719.94
923.146	6630.67
923.456	6637
923.767	6616.66
924.077	6612.37
924.387	6614.18
924.697	6537.79
925.008	6423.45
925.318	6429.1
925.628	6489.89
925.938	6419.61
926.248	6353.39
926.558	6405.82
926.867	6335.09
927.177	6333.96
927.487	6298.25
927.796	6250.8
928.106	6287.41
928.416	6192.94
928.725	6263.68
929.034	6174.41
929.344	6193.62
929.653	6108.2
929.962	6077.24
930.271	6089.22
930.581	6011.93
930.89	5970.35
931.199	5977.13
931.508	5937.81
931.817	5929.9
932.125	5956.79
932.434	5890.58
932.743	5898.49
933.051	5827.53
933.36	5823.69
933.669	5809.23
933.977	5788.89
934.286	5781.66
934.594	5716.8
934.902	5717.02
935.21	5651.94
935.519	5663.01
935.827	5585.05
936.135	5597.48
936.443	5549.8
936.751	5557.03
937.059	5531.27
937.367	5494.66
937.674	5518.39
937.982	5450.82
938.29	5453.98
938.597	5412.63
938.905	5316.13
939.213	5324.04
939.52	5332.18
939.827	5362.23
940.135	5341.44
940.442	5246.3
940.749	5254.44
941.056	5270.93
941.363	5169.02
941.67	5155.23
941.977	5105.97
942.284	5103.26
942.591	5103.71
942.898	5067.78
943.205	5069.58
943.511	5042.24
943.818	5005.41
944.125	5024.16
944.431	4961.56
944.738	4968.12
945.044	4946.88
945.35	4899.87
945.657	4941.45
945.963	4869.36
946.269	4870.95
946.575	4849.7
946.881	4823.71
947.187	4774.22
947.493	4778.97
947.799	4718.63
948.105	4685.19
948.41	4691.74
948.716	4706.88
949.022	4694
949.327	4668.46
949.633	4606.77
949.938	4580.56
950.244	4581.24
950.549	4623.27
950.854	4530.39
951.16	4544.4
951.465	4524.06
951.77	4494.46
952.075	4475.7
952.38	4456.94
952.685	4476.61
952.99	4379.66
953.294	4376.5
953.599	4362.48
953.904	4325.42
954.209	4305.31
954.513	4325.2
954.818	4283.84
955.122	4298.76
955.426	4284.75
955.731	4245.2
956.035	4220.34
956.339	4210.4
956.643	4168.14
956.948	4136.5
957.252	4124.52
957.556	4141.02
957.86	4145.77
958.163	4099.21
958.467	4084.3
958.771	4067.35
959.075	4035.49
959.378	4028.71
959.682	3988.03
959.985	3990.52
960.289	3953.68
960.592	3947.58
960.896	3945.09
961.199	3938.77
961.502	3938.09
961.805	3920.69
962.108	3898.54
962.411	3890.86
962.714	3847.47
963.017	3828.49
963.32	3807.24
963.623	3791.88
963.926	3798.43
964.228	3769.05
964.531	3727.7
964.833	3697.19
965.136	3726.79
965.438	3706
965.741	3665.1
966.043	3686.34
966.345	3629.62
966.648	3593.92
966.95	3646.12
967.252	3557.76
967.554	3513.92
967.856	3611.32
968.158	3528.16
968.46	3555.73
968.761	3529.51
969.063	3500.81
969.365	3487.03
969.666	3473.47
969.968	3430.98
970.269	3418.33
970.571	3431.66
970.872	3422.62
971.174	3379.46
971.475	3334.26
971.776	3376.52
972.077	3320.7
972.378	3327.94
972.679	3353.02
972.98	3335.17
973.281	3276.64
973.582	3266.02
973.883	3255.62
974.183	3231.67
974.484	3231.67
974.785	3192.57
975.085	3204.32
975.386	3227.6
975.686	3219.24
975.986	3183.31
976.287	3178.79
976.587	3127.49
976.887	3153.48
977.187	3125.68
977.487	3097.21
977.787	3096.98
978.087	3080.03
978.387	3048.17
978.687	3014.27
978.987	2995.74
979.286	2985.8
979.586	3008.85
979.885	2991.9
980.185	2994.61
980.484	2947.38
980.784	2932.24
981.083	2941.05
981.382	2977.89
981.682	2905.12
981.981	2875.52
982.28	2898.12
982.579	2859.02
982.878	2890.88
983.177	2852.92
983.475	2846.59
983.774	2797.55
984.073	2828.06
984.372	2774.73
984.67	2829.42
984.969	2781.28
985.267	2739.48
985.566	2745.13
985.864	2710.1
986.162	2757.1
986.461	2701.74
986.759	2700.83
987.057	2673.94
987.355	2684.79
987.653	2628.97
987.951	2666.48
988.249	2627.84
988.547	2638.69
988.844	2607.28
989.142	2608.86
989.44	2590.78
989.737	2606.15
990.035	2563.89
990.332	2529.54
990.63	2582.64
990.927	2518.92
991.224	2519.14
991.521	2499.26
991.819	2480.5
992.116	2512.82
992.413	2480.27
992.71	2477.79
993.006	2469.65
993.303	2435.53
993.6	2442.53
993.897	2421.07
994.193	2415.87
994.49	2411.58
994.787	2376.1
995.083	2383.55
995.379	2365.25
995.676	2353.95
995.972	2320.05
996.268	2300.84
996.565	2292.26
996.861	2296.32
997.157	2270.79
997.453	2280.51
997.749	2291.58
998.044	2247.96
998.34	2267.62
998.636	2229.66
998.932	2250.9
999.227	2220.17
999.523	2206.38
999.818	2217.91
1000.114	2178.13
1000.409	2173.39
1000.704	2173.39
1001	2135.42
1001.295	2156.21
1001.59	2105.14
1001.885	2089.32
1002.18	2094.52
1002.475	2106.95
1002.77	2073.05
1003.065	2061.3
1003.359	2055.43
1003.654	2032.38
1003.949	2033.51
1004.243	2040.96
1004.538	1999.38
1004.832	1995.31
1005.127	1977.91
1005.421	1966.39
1005.715	1986.95
1006.009	1949.21
1006.304	1925.49
1006.598	1923.68
1006.892	1942.66
1007.186	1930.68
1007.48	1891.81
1007.773	1908.31
1008.067	1877.13
1008.361	1879.84
1008.655	1856.56
1008.948	1858.6
1009.242	1834.19
1009.535	1852.49
1009.829	1839.16
1010.122	1813.85
1010.415	1805.49
1010.708	1798.94
1011.001	1786.28
1011.295	1780.63
1011.588	1772.5
1011.881	1741.08
1012.173	1739.5
1012.466	1706.96
1012.759	1716.45
1013.052	1713.97
1013.344	1692.5
1013.637	1716
1013.93	1681.2
1014.222	1686.4
1014.514	1629.67
1014.807	1646.4
1015.099	1615.66
1015.391	1622.22
1015.683	1610.47
1015.976	1635.32
1016.268	1618.15
1016.56	1585.61
1016.851	1583.8
1017.143	1604.59
1017.435	1567.98
1017.727	1514.2
1018.018	1592.61
1018.31	1534.54
1018.602	1509.23
1018.893	1502.45
1019.185	1491.37
1019.476	1512.16
1019.767	1455.44
1020.058	1452.73
1020.35	1456.12
1020.641	1464.71
1020.932	1423.8
1021.223	1447.76
1021.514	1424.48
1021.804	1430.81
1022.095	1402.79
1022.386	1409.57
1022.677	1384.94
1022.967	1390.81
1023.258	1390.36
1023.548	1343.35
1023.839	1356.01
1024.129	1366.86
1024.419	1343.13
1024.709	1334.32
1025	1318.5
1025.29	1309.68
1025.58	1299.29
1025.87	1293.41
1026.16	1262.9
1026.449	1283.47
1026.739	1283.24
1027.029	1254.09
1027.319	1285.95
1027.608	1231.04
1027.898	1229.46
1028.187	1209.35
1028.477	1236.46
1028.766	1186.97
1029.055	1220.19
1029.344	1220.19
1029.634	1185.84
1029.923	1160.76
1030.212	1177.48
1030.501	1196.01
1030.79	1158.27
1031.078	1158.95
1031.367	1144.49
1031.656	1141.33
1031.945	1135.22
1032.233	1140.2
1032.522	1127.09
1032.81	1109.24
1033.099	1102.23
1033.387	1117.15
1033.675	1113.08
1033.963	1089.58
1034.251	1070.59
1034.54	1066.98
1034.828	1069.46
1035.116	1048.67
1035.403	1062.68
1035.691	1050.48
1035.979	1049.35
1036.267	1026.75
1036.554	1017.26
1036.842	1020.88
1037.129	1007.77
1037.417	970.93
1037.704	1005.74
1037.992	982.91
1038.279	996.92
1038.566	977.94
1038.853	977.94
1039.14	977.94
