Data from hue_22_FLMS001491_00068.txt Node
Date: Tue Feb 07 17:10:29 GMT 2017
User: dcchb
Spectrometer: FLMS00149
Trigger mode: 0
Integration Time (sec): 2.000000E-2
Scans to average: 10
Electric dark correction enabled: true
Nonlinearity correction enabled: false
Boxcar width: 0
XAxis mode: Wavelengths
Number of Pixels in Spectrum: 2048
>>>>>Begin Spectral Data<<<<<
341.393	-10.49
341.776	-10.49
342.16	-10.49
342.543	-73.77
342.927	-46.2
343.31	-77.84
343.693	-70.83
344.077	-66.99
344.46	-59.53
344.843	-62.24
345.226	-39.65
345.61	-19.31
345.993	-40.32
346.376	12.78
346.759	12.78
347.142	18.66
347.525	43.74
347.908	55.27
348.291	74.25
348.674	111.54
349.057	107.69
349.44	116.06
349.823	125.1
350.206	160.57
350.588	190.4
350.971	205.09
351.354	234.92
351.737	234.47
352.119	247.35
352.502	267.92
352.884	287.13
353.267	299.55
353.65	307.92
354.032	323.51
354.414	301.59
354.797	333.9
355.179	313.57
355.562	337.75
355.944	343.62
356.326	348.37
356.709	341.14
357.091	323.96
357.473	335.26
357.855	329.61
358.238	340.23
358.62	330.29
359.002	330.51
359.384	350.63
359.766	344.07
360.148	339.1
360.53	342.72
360.912	319.44
361.294	341.36
361.676	309.27
362.057	339.1
362.439	340.01
362.821	335.49
363.203	340.91
363.584	334.81
363.966	337.52
364.348	312.44
364.729	324.41
365.111	319.21
365.493	306.56
365.874	307.69
366.256	302.94
366.637	312.21
367.019	310.85
367.4	318.08
367.781	313.11
368.163	323.28
368.544	320.8
368.925	301.59
369.306	335.94
369.688	315.83
370.069	312.66
370.45	318.76
370.831	319.44
371.212	331.64
371.593	324.86
371.974	298.42
372.355	304.3
372.736	350.17
373.117	339.33
373.498	324.19
373.879	313.57
374.26	328.48
374.641	315.83
375.021	340.46
375.402	338.88
375.783	315.6
376.163	313.57
376.544	329.16
376.925	314.92
377.305	332.77
377.686	339.33
378.066	331.64
378.447	345.43
378.827	339.33
379.208	321.25
379.588	326.22
379.968	343.62
380.349	307.92
380.729	350.4
381.109	333.45
381.489	337.29
381.87	353.79
382.25	353.34
382.63	348.82
383.01	335.49
383.39	330.06
383.77	352.89
384.15	384.75
384.53	361.7
384.91	347.69
385.29	363.51
385.67	361.25
386.049	355.82
386.429	356.05
386.809	350.63
387.189	361.02
387.568	357.41
387.948	359.44
388.328	378.42
388.707	365.77
389.087	372.55
389.466	379.78
389.846	379.55
390.225	364.86
390.605	367.8
390.984	373.45
391.363	385.2
391.743	375.71
392.122	374.58
392.501	364.64
392.881	383.17
393.26	384.75
393.639	381.81
394.018	401.25
394.397	385.43
394.776	394.69
395.155	375.26
395.534	383.85
395.913	409.38
396.292	397.86
396.671	387.91
397.05	405.09
397.429	403.96
397.808	425.65
398.186	404.18
398.565	401.7
398.944	402.38
399.323	407.35
399.701	409.38
400.08	401.47
400.458	409.61
400.837	432.21
401.215	422.71
401.594	414.58
401.972	387.24
402.351	433.34
402.729	435.82
403.107	420.91
403.486	423.17
403.864	415.94
404.242	446.22
404.62	424.75
404.999	441.92
405.377	438.53
405.755	443.05
406.133	473.79
406.511	433.34
406.889	445.09
407.267	446.67
407.645	459.1
408.023	456.39
408.401	470.4
408.779	491.19
409.156	453
409.534	455.93
409.912	466.78
410.29	471.53
410.667	468.82
411.045	470.4
411.422	485.99
411.8	490.96
412.178	477.18
412.555	493.9
412.933	525.31
413.31	484.18
413.687	482.15
414.065	504.07
414.442	509.04
414.819	518.53
415.197	526.67
415.574	529.15
415.951	516.95
416.328	530.96
416.705	507.68
417.082	533.67
417.46	555.59
417.837	544.07
418.214	546.78
418.591	525.54
418.967	535.71
419.344	579.32
419.721	560.34
420.098	551.75
420.475	541.81
420.852	571.86
421.228	558.98
421.605	561.47
421.982	564.86
422.358	564.86
422.735	584.29
423.111	567.34
423.488	586.1
423.864	594.46
424.241	583.16
424.617	583.61
424.994	607.12
425.37	602.37
425.746	629.72
426.123	605.31
426.499	629.04
426.875	617.96
427.251	603.95
427.627	627.68
428.003	624.07
428.379	634.69
428.756	650.73
429.132	644.18
429.507	635.82
429.883	675.36
430.259	671.3
430.635	662.93
431.011	663.61
431.387	677.62
431.763	696.83
432.138	696.61
432.514	680.11
432.89	710.16
433.265	710.39
433.641	730.05
434.016	720.33
434.392	745.19
434.767	734.8
435.143	764.17
435.518	762.82
435.894	746.1
436.269	773.89
436.644	783.61
437.02	782.25
437.395	772.99
437.77	789.71
438.145	796.94
438.52	798.07
438.895	791.29
439.271	818.41
439.646	808.02
440.021	816.15
440.395	810.28
440.77	819.54
441.145	836.26
441.52	851.63
441.895	857.05
442.27	870.61
442.645	878.52
443.019	856.15
443.394	852.31
443.769	860.9
444.143	876.71
444.518	887.34
444.892	878.07
445.267	900.67
445.641	869.48
446.016	899.99
446.39	956.03
446.764	929.37
447.139	935.7
447.513	945.19
447.887	920.1
448.262	933.21
448.636	927.79
449.01	947.9
449.384	948.35
449.758	941.57
450.132	971.63
450.506	965.3
450.88	973.66
451.254	978.86
451.628	1008.46
452.002	1009.14
452.376	989.48
452.75	1011.63
453.123	1009.14
453.497	1022.7
453.871	1050.04
454.244	1044.62
454.618	1059.08
454.992	1071.29
455.365	1100.44
455.739	1109.02
456.112	1087.56
456.486	1132.3
456.859	1144.5
457.232	1170.27
457.606	1135.01
457.979	1181.56
458.352	1168.46
458.725	1198.29
459.099	1206.2
459.472	1222.92
459.845	1235.35
460.218	1236.7
460.591	1221.34
460.964	1283.03
461.337	1291.17
461.71	1281.45
462.083	1292.97
462.456	1310.38
462.829	1351.05
463.201	1344.5
463.574	1344.72
463.947	1351.96
464.32	1396.47
464.692	1411.62
465.065	1409.81
465.438	1438.96
465.81	1456.13
466.183	1448.45
466.555	1504.49
466.928	1501.78
467.3	1513.76
467.672	1535.45
468.045	1549.24
468.417	1556.7
468.789	1607.77
469.161	1600.99
469.534	1601.44
469.906	1687.99
470.278	1663.59
470.65	1696.81
471.022	1727.77
471.394	1755.34
471.766	1758.05
472.138	1790.14
472.51	1821.77
472.882	1831.27
473.253	1891.83
473.625	1923.01
473.997	1953.97
474.369	1956.23
474.74	1982.22
475.112	1989
475.484	2036.68
475.855	2111.71
476.227	2155.78
476.598	2155.78
476.97	2207.75
477.341	2245.94
477.713	2277.36
478.084	2295.21
478.455	2398.71
478.827	2403.45
479.198	2492.04
479.569	2491.59
479.94	2561.42
480.311	2584.24
480.682	2634.41
481.053	2661.53
481.424	2760.51
481.795	2781.3
482.166	2798.7
482.537	2843.44
482.908	2931.8
483.279	2962.31
483.65	2996.43
484.021	3086.15
484.391	3153.72
484.762	3157.56
485.133	3264.67
485.503	3254.73
485.874	3325.92
486.244	3357.78
486.615	3442.52
486.985	3499.47
487.356	3576.08
487.726	3574.27
488.097	3655.62
488.467	3685.23
488.837	3754.83
489.207	3842.29
489.578	3884.09
489.948	3947.82
490.318	3993.24
490.688	4011.77
491.058	4072.56
491.428	4141.26
491.798	4184.42
492.168	4242.28
492.538	4309.17
492.908	4316.4
493.278	4417.86
493.648	4471.87
494.017	4526.56
494.387	4561.59
494.757	4552.78
495.126	4615.82
495.496	4731.08
495.866	4710.06
496.235	4790.96
496.605	4815.82
496.974	4834.8
497.344	4863.5
497.713	4901.92
498.082	4982.37
498.452	5027.11
498.821	5037.73
499.19	5077.28
499.559	5129.03
499.928	5119.77
500.298	5207.22
500.667	5304.85
501.036	5244.96
501.405	5347.33
501.774	5300.55
502.143	5364.28
502.512	5402.24
502.88	5453.32
503.249	5493.32
503.618	5451.51
503.987	5497.16
504.356	5546.65
504.724	5543.48
505.093	5602.47
505.462	5590.04
505.83	5644.72
506.199	5728.34
506.567	5769.69
506.936	5755.46
507.304	5831.61
507.672	5867.54
508.041	5866.64
508.409	5905.06
508.777	5938.73
509.145	5982.57
509.514	5990.7
509.882	6028.44
510.25	6051.27
510.618	6058.72
510.986	6068.44
511.354	6160.42
511.722	6201.77
512.09	6221.21
512.458	6204.03
512.826	6233.18
513.193	6309.79
513.561	6341.88
513.929	6362.67
514.297	6405.38
514.664	6447.42
515.032	6434.99
515.4	6469.56
515.767	6550.01
516.135	6520.41
516.502	6546.4
516.869	6619.16
517.237	6610.57
517.604	6646.73
517.972	6700.52
518.339	6768.54
518.706	6713.17
519.073	6715.43
519.44	6788.65
519.808	6857.8
520.175	6810.57
520.542	6888.53
520.909	6931.02
521.276	6959.72
521.643	6981.86
522.009	7100.05
522.376	7093.73
522.743	7150.22
523.11	7149.09
523.477	7207.85
523.843	7267.51
524.21	7366.49
524.577	7348.86
524.943	7365.13
525.31	7431.34
525.676	7455.52
526.043	7497.11
526.409	7526.71
526.776	7624.11
527.142	7663.43
527.508	7686.7
527.874	7737.55
528.241	7695.29
528.607	7799.47
528.973	7869.52
529.339	7855.06
529.705	7962.86
530.071	8013.25
530.437	8041.95
530.803	8063.64
531.169	8146.81
531.535	8067.26
531.901	8142.74
532.267	8192.23
532.632	8246.01
532.998	8253.7
533.364	8242.17
533.73	8307.48
534.095	8417.31
534.461	8473.8
534.826	8450.75
535.192	8502.73
535.557	8561.48
535.923	8599.9
536.288	8572.11
536.653	8620.01
537.019	8585.89
537.384	8644.87
537.749	8757.86
538.114	8822.27
538.479	8808.03
538.845	8840.35
539.21	8756.06
539.575	8868.82
539.94	8950.63
540.305	8980.68
540.67	8991.53
541.034	9034.01
541.399	9023.62
541.764	9012.55
542.129	9040.57
542.494	9141.13
542.858	9234.91
543.223	9189.72
543.587	9225.87
543.952	9266.1
544.316	9304.29
544.681	9298.41
545.045	9399.88
545.41	9482.59
545.774	9438.3
546.138	9473.1
546.503	9544.96
546.867	9546.09
547.231	9606.65
547.595	9600.78
547.959	9670.16
548.324	9684.17
548.688	9704.28
549.052	9711.51
549.416	9713.54
549.779	9845.74
550.143	9823.6
550.507	9863.14
550.871	9939.53
551.235	9892.97
551.599	9951.5
551.962	10045.74
552.326	10045.06
552.689	10123.25
553.053	10049.81
553.417	10071.27
553.78	10249.8
554.143	10198.05
554.507	10254.55
554.87	10241.67
555.234	10399.4
555.597	10279.63
555.96	10354.66
556.323	10399.4
556.686	10389.23
557.05	10501.55
557.413	10497.25
557.776	10547.42
558.139	10593.07
558.502	10603.46
558.865	10666.97
559.228	10683.69
559.59	10758.71
559.953	10756.68
560.316	10856.34
560.679	10833.51
561.041	10862.44
561.404	10981.76
561.767	10960.06
562.129	10965.94
562.492	11115.77
562.854	11092.49
563.217	11093.17
563.579	11168.65
563.941	11238.48
564.304	11252.94
564.666	11353.5
565.028	11330.68
565.39	11383.33
565.753	11431.46
566.115	11463.33
566.477	11499.26
566.839	11535.19
567.201	11588.52
567.563	11590.33
567.925	11668.52
568.287	11647.5
568.648	11684.79
569.01	11800.72
569.372	11879.59
569.734	11799.36
570.095	11889.76
570.457	11943.32
570.819	11987.38
571.18	12049.08
571.542	12139.69
571.903	12092.24
572.265	12258.79
572.626	12225.12
572.987	12266.7
573.349	12391.21
573.71	12432.34
574.071	12482.06
574.432	12597.31
574.794	12629.4
575.155	12637.76
575.516	12757.31
575.877	12847.92
576.238	12921.37
576.599	13043.63
576.96	13059.67
577.32	13112.55
577.681	13234.58
578.042	13319.78
578.403	13347.35
578.763	13473.45
579.124	13574.01
579.485	13692.87
579.845	13797.96
580.206	13846.77
580.566	14049.25
580.927	14037.05
581.287	14340.77
581.648	14421.89
582.008	14616.24
582.368	14704.15
582.728	14907.08
583.089	15126.06
583.449	15231.59
583.809	15383.68
584.169	15574.86
584.529	15681.97
584.889	16051.68
585.249	16098.01
585.609	16247.84
585.969	16552.91
586.329	16777.09
586.688	16980.47
587.048	17163.07
587.408	17465.43
587.768	17647.35
588.127	17924.18
588.487	18065.19
588.846	18478.06
589.206	18576.59
589.565	18972.28
589.925	19196.46
590.284	19489.11
590.643	19757.8
591.003	20102.42
591.362	20341.51
591.721	20598.46
592.08	20953.02
592.44	21343.75
592.799	21614.25
593.158	21883.85
593.517	22167.45
593.876	22486.99
594.235	22736.7
594.593	23188.44
594.952	23526.51
595.311	23679.28
595.67	24134.18
596.029	24605.36
596.387	24870.66
596.746	25258.9
597.104	25380.25
597.463	25799
597.822	26210.06
598.18	26453.89
598.538	26743.6
598.897	27176.36
599.255	27295.91
599.613	28000.97
599.972	28066.51
600.33	28464.01
600.688	28780.84
601.046	29072.81
601.404	29446.13
601.762	29745.11
602.12	30361.59
602.478	30527.46
602.836	30735.36
603.194	30877.06
603.552	31238.63
603.91	31499.19
604.268	31899.63
604.625	32094.65
604.983	32544.36
605.341	32658.93
605.698	33088.52
606.056	33374.16
606.413	33615.29
606.771	33991.32
607.128	34379.11
607.485	34444.65
607.843	34706.11
608.2	35193.33
608.557	35460.44
608.914	35624.05
609.272	35965.51
609.629	36244.6
609.986	36482.78
610.343	36643.23
610.7	37038.48
611.057	37134.52
611.414	37369.54
611.771	37521.17
612.127	37946.7
612.484	38045.91
612.841	38344.88
613.198	38496.52
613.554	38678.21
613.911	39074.13
614.267	39145.54
614.624	39349.6
614.98	39503.72
615.337	39953.2
615.693	39964.27
616.05	40039.75
616.406	40556.35
616.762	40541.21
617.118	40635.44
617.475	40890.58
617.831	41124.7
618.187	41266.39
618.543	41467.96
618.899	41880.83
619.255	41796.32
619.611	41964
619.967	42185.01
620.323	42435.17
620.678	42290.09
621.034	42320.37
621.39	42579.57
621.746	42724.88
622.101	43080.8
622.457	42973.01
622.812	43064.76
623.168	43286.9
623.523	43400.79
623.879	43549.49
624.234	43488.25
624.589	43718.3
624.945	43789.48
625.3	43909.48
625.655	43913.77
626.01	44049.36
626.365	44139.98
626.72	44103.6
627.075	44248.46
627.43	44236.25
627.785	44289.36
628.14	44416.13
628.495	44549.01
628.85	44464.49
629.205	44247.55
629.559	44735.9
629.914	44536.81
630.269	44720.76
630.623	44676.69
630.978	44721.44
631.332	45025.38
631.687	44892.05
632.041	44804.82
632.396	45050.69
632.75	44740.42
633.104	44989.9
633.459	44743.36
633.813	44954.2
634.167	44975.44
634.521	44989.9
634.875	44982.9
635.229	44983.58
635.583	44998.94
635.937	44985.84
636.291	44984.93
636.645	45087.76
636.999	44999.85
637.352	45104.48
637.706	44750.81
638.06	45052.73
638.413	44924.82
638.767	44832.39
639.121	44969.11
639.474	44819.29
639.828	44849.57
640.181	44865.16
640.534	44952.17
640.888	44934.54
641.241	44771.61
641.594	44950.13
641.947	44965.5
642.301	44969.79
642.654	44791.27
643.007	44987.64
643.36	44937.93
643.713	44858.16
644.066	45064.93
644.419	44615.9
644.771	44609.35
645.124	44332.07
645.477	44147.67
645.83	43913.77
646.182	43838.52
646.535	43766.66
646.888	43687.34
647.24	43557.4
647.593	43752.87
647.945	43728.92
648.298	43602.37
648.65	43514.24
649.002	43436.95
649.355	43577.29
649.707	43608.47
650.059	43748.13
650.411	44219.53
650.763	44305.18
651.115	44861.32
651.467	44532.06
651.819	44502.23
652.171	44386.3
652.523	44528.22
652.875	44325.29
653.227	44210.26
653.578	44563.7
653.93	44462.46
654.282	44324.16
654.633	44128.46
654.985	44300.66
655.337	44336.14
655.688	44316.48
656.039	44489.8
656.391	44090.04
656.742	44201.68
657.094	44209.59
657.445	44381.79
657.796	44316.7
658.147	44081
658.498	44175.24
658.849	44238.74
659.2	44219.98
659.551	44085.52
659.902	44320.54
660.253	44299.08
660.604	44281.45
660.955	43990.38
661.306	44243.03
661.656	44210.04
662.007	44180.43
662.358	44207.55
662.708	44208.46
663.059	44084.84
663.409	43831.97
663.76	44217.27
664.11	44174.33
664.461	44076.93
664.811	43983.38
665.161	43952.87
665.511	43929.82
665.862	44061.79
666.212	44114.45
666.562	44097.05
666.912	44114.67
667.262	44061.79
667.612	44052.98
667.962	44158.74
668.312	43977.28
668.662	44121.45
669.011	44134.33
669.361	43948.12
669.711	43912.19
670.06	43979.08
670.41	43746.77
670.76	43836.71
671.109	44028.12
671.459	43807.79
671.808	43789.48
672.157	43946.77
672.507	43728.24
672.856	43704.97
673.205	43842.14
673.554	43951.51
673.904	43648.7
674.253	43872.19
674.602	43790.39
674.951	43278.09
675.3	42976.62
675.649	43850.27
675.998	43629.94
676.346	43527.12
676.695	43578.87
677.044	43428.59
677.393	43513.33
677.741	43653.67
678.09	43649.15
678.438	43417.97
678.787	43466.1
679.135	43495.71
679.484	43306.11
679.832	43370.06
680.181	43105.21
680.529	43270.18
680.877	43259.55
681.225	43222.27
681.573	43504.52
681.922	43027.24
682.27	42933.69
682.618	43004.87
682.966	42912.9
683.314	42923.29
683.661	42740.7
684.009	42565.11
684.357	42608.27
684.705	42563.98
685.053	42567.14
685.4	42580.7
685.748	42342.74
686.095	42443.53
686.443	42089.19
686.79	42173.93
687.138	42287.38
687.485	42225.46
687.832	42210.77
688.18	42029.3
688.527	41993.15
688.874	41926.93
689.221	41793.38
689.568	41791.34
689.915	41734.62
690.262	41601.29
690.609	41502.99
690.956	41439.26
691.303	41364.46
691.65	41194.07
691.997	41358.36
692.344	40917.24
692.69	40848.32
693.037	40935.77
693.383	40521.55
693.73	40744.82
694.077	40494.88
694.423	40517.03
694.769	40441.1
695.116	40308.67
695.462	40239.52
695.808	40104.16
696.155	40182.35
696.501	39901.22
696.847	39947.33
697.193	39781.68
697.539	39894.22
697.885	39599.76
698.231	39432.99
698.577	39495.59
698.923	39425.76
699.269	39322.03
699.614	39093.11
699.96	39071.64
700.306	38974.7
700.651	38800.69
700.997	38742.16
701.342	38752.78
701.688	38414.48
702.033	38332.45
702.379	38371.32
702.724	38172.91
703.069	38324.32
703.415	37972.91
703.76	38028.51
704.105	38014.95
704.45	37821.28
704.795	37660.15
705.14	37637.1
705.485	37678.46
705.83	37573.38
706.175	37597.56
706.52	37308.75
706.865	37309.43
707.209	37271.92
707.554	37028.76
707.899	37211.35
708.243	36920.96
708.588	36875.32
708.932	36704.92
709.277	36643.68
709.621	36764.81
709.966	36483.46
710.31	36471.03
710.654	36186.07
710.998	36378.38
711.342	36274.88
711.687	36160.08
712.031	36045.73
712.375	35953.76
712.719	36120.99
713.063	35896.36
713.407	36032.4
713.75	35734.78
714.094	35830.82
714.438	35611.62
714.782	35512.87
715.125	35436.03
715.469	35605.29
715.812	35400.78
716.156	35211.4
716.499	35234.45
716.843	35141.8
717.186	35023.39
717.53	35177.28
717.873	35136.6
718.216	34994.01
718.559	34942.03
718.902	34587.47
719.246	34801.92
719.589	34584.3
719.932	34622.95
720.275	34413.23
720.617	34443.06
720.96	34483.97
721.303	34362.61
721.646	34443.74
721.989	34082.17
722.331	34191.54
722.674	34133.47
723.016	34258.44
723.359	34139.57
723.701	34146.35
724.044	33889.41
724.386	33697.09
724.729	33959.23
725.071	33718.56
725.413	33803.08
725.755	33687.15
726.097	33465.46
726.439	33479.25
726.782	33445.8
727.124	33606.48
727.465	33328.06
727.807	33316.99
728.149	33346.59
728.491	33272.02
728.833	33378.01
729.175	33155.87
729.516	33122.65
729.858	33182.53
730.199	33097.56
730.541	32948.19
730.882	32926.04
731.224	32990.45
731.565	32649.66
731.906	32886.27
732.248	32806.72
732.589	32629.55
732.93	32556.56
733.271	32588.42
733.612	32467.75
733.953	32570.12
734.294	32374.64
734.635	32262.56
734.976	32391.14
735.317	32257.58
735.658	32336.23
735.999	32318.15
736.339	32094.88
736.68	32319.05
737.021	32283.57
737.361	31994.77
737.702	32276.11
738.042	32051.04
738.383	32085.61
738.723	32016.69
739.063	31831.61
739.404	31966.07
739.744	31908.44
740.084	31795.45
740.424	31845.62
740.764	31699.86
741.104	31736.92
741.444	31573.31
741.784	31573.76
742.124	31621.67
742.464	31524.95
742.804	31439.98
743.143	31358.62
743.483	31393.65
743.823	31202.24
744.162	31157.95
744.502	31244.5
744.841	31061.01
745.181	31270.49
745.52	31091.29
745.86	31078.41
746.199	31038.18
746.538	30933.1
746.877	30964.28
747.216	30967
747.556	30958.18
747.895	30939.43
748.234	30785.76
748.573	30764.52
748.911	30652.43
749.25	30691.98
749.589	30557.29
749.928	30738.08
750.267	30589.83
750.605	30548.25
750.944	30595.93
751.283	30305.54
751.621	30459.67
751.96	30240.46
752.298	30301.7
752.636	30247.24
752.975	30078.66
753.313	30054.03
753.651	30223.29
753.989	29980.58
754.327	29833.02
754.666	29868.27
755.004	29761.6
755.342	29785.33
755.679	29735.62
756.017	29603.87
756.355	29624.43
756.693	29450.65
757.031	29447.94
757.368	29365.23
757.706	29359.58
758.044	29247.49
758.381	29261.73
758.719	29024.22
759.056	29114.62
759.394	29075.52
759.731	28951.68
760.068	28910.33
760.405	28867.84
760.743	28769.31
761.08	28808.18
761.417	28562.77
761.754	28567.29
762.091	28485.71
762.428	28337.91
762.765	28247.52
763.102	28252.49
763.438	28016.34
763.775	28082.33
764.112	27934.31
764.449	28144.7
764.785	27850.69
765.122	27589.46
765.458	27508.56
765.795	27596.46
766.131	27558.5
766.467	27563.92
766.804	27258.39
767.14	27186.76
767.476	27265.62
767.812	27133.42
768.148	27052.52
768.485	26801.91
768.821	26822.25
769.157	26766.65
769.492	26788.12
769.828	26605.08
770.164	26427.91
770.5	26325.54
770.836	26286.89
771.171	26160.34
771.507	26149.27
771.842	25923.74
772.178	25915.38
772.513	25918.77
772.849	25809.17
773.184	25559.23
773.519	25715.16
773.855	25482.39
774.19	25429.74
774.525	25393.36
774.86	25290.99
775.195	25360.82
775.53	25104.78
775.865	25028.4
776.2	24812.13
776.535	24722.64
776.87	24601.06
777.205	24620.04
777.539	24540.95
777.874	24543.21
778.209	24343.22
778.543	24275.87
778.878	24120.4
779.212	24176.21
779.547	23925.15
779.881	24067.52
780.215	23867.07
780.55	23817.13
780.884	23654.19
781.218	23592.5
781.552	23659.62
781.886	23520.19
782.22	23361.77
782.554	23301.66
782.888	23096.47
783.222	23116.58
783.556	22863.48
783.889	22932.86
784.223	22790.49
784.557	22624.84
784.89	22696.71
785.224	22603.15
785.557	22413.1
785.891	22327.22
786.224	22287.9
786.558	22299.65
786.891	22101.92
787.224	22020.57
787.557	22014.69
787.891	22017.4
788.224	22015.82
788.557	21863.06
788.89	21867.57
789.223	21822.83
789.556	21611.31
789.888	21701.93
790.221	21482.05
790.554	21270.08
790.887	21302.17
791.219	21225.56
791.552	21167.03
791.884	21083.19
792.217	21009.74
792.549	20988.5
792.882	20754.84
793.214	20760.71
793.546	20814.95
793.879	20588.29
794.211	20495.86
794.543	20621.96
794.875	20451.11
795.207	20563.88
795.539	20357.56
795.871	20420.83
796.203	20196.21
796.535	20048.19
796.867	20055.42
797.198	20104.46
797.53	20097
797.862	19823.11
798.193	19878.47
798.525	19725.26
798.856	19849.32
799.188	19533.62
799.519	19484.81
799.85	19278.94
800.182	19456.34
800.513	19439.39
800.844	19210.7
801.175	19346.06
801.506	19263.58
801.837	19197.14
802.168	19029.23
802.499	19105.16
802.83	18908.78
803.161	18918.27
803.491	18815.9
803.822	18907.2
804.153	18874.66
804.483	18656.13
804.814	18523.26
805.145	18503.37
805.475	18594.67
805.805	18412.75
806.136	18528.68
806.466	18558.51
806.796	18377.27
807.126	18259.31
807.457	18202.36
807.787	18241.91
808.117	18075.81
808.447	18106.54
808.777	18085.3
809.107	17878.3
809.436	17999.88
809.766	17926.89
810.096	17847.12
810.426	17711.3
810.755	17697.97
811.085	17716.27
811.414	17681.92
811.744	17491.19
812.073	17517.86
812.403	17524.64
812.732	17325.55
813.061	17328.03
813.39	17368.94
813.719	17198.09
814.049	17287.81
814.378	17161.94
814.707	17148.38
815.036	17099.34
815.365	17005.1
815.693	16912.9
816.022	16956.52
816.351	16932.79
816.68	16781.83
817.008	16841.27
817.337	16669.75
817.665	16598.11
817.994	16631.1
818.322	16632.01
818.651	16583.42
818.979	16559.24
819.307	16650.31
819.636	16513.37
819.964	16437.66
820.292	16441.5
820.62	16463.42
820.948	16401.73
821.276	16450.54
821.604	16351.56
821.932	16382.75
822.259	16392.24
822.587	16346.14
822.915	16284.22
823.243	16342.52
823.57	16270.66
823.898	16269.3
824.225	16328.06
824.553	16262.52
824.88	16293.03
825.207	16310.43
825.535	16309.75
825.862	16289.42
826.189	16222.3
826.516	16259.59
826.843	16394.05
827.17	16410.32
827.497	16338.91
827.824	16283.99
828.151	16218.01
828.478	16269.76
828.805	16316.53
829.131	16347.04
829.458	16209.19
829.785	16253.03
830.111	16229.08
830.438	16330.32
830.764	16243.99
831.09	16314.95
831.417	16068.63
831.743	16266.14
832.069	16226.14
832.395	16057.33
832.722	16257.78
833.048	16182.53
833.374	16055.52
833.7	16124.67
834.026	16034.51
834.351	16091.23
834.677	15988.86
835.003	16167.84
835.329	16066.15
835.654	16002.19
835.98	16031.12
836.306	15932.82
836.631	15942.08
836.956	15967.16
837.282	15972.81
837.607	15883.33
837.932	15785.25
838.258	15809.65
838.583	15850.33
838.908	15749.54
839.233	15739.83
839.558	15673.16
839.883	15624.12
840.208	15627.74
840.533	15584.58
840.858	15655.31
841.182	15667.51
841.507	15576.89
841.832	15514.75
842.156	15507.29
842.481	15476.78
842.805	15426.61
843.13	15413.06
843.454	15321.53
843.778	15281.31
844.103	15317.24
844.427	15149.56
844.751	15225.26
845.075	15155.43
845.399	15057.13
845.723	15062.1
846.047	15040.86
846.371	14936.23
846.695	14886.74
847.019	14832.73
847.343	14697.37
847.666	14681.55
847.99	14577.6
848.313	14635.45
848.637	14446.98
848.96	14471.39
849.284	14466.64
849.607	14311.62
849.931	14343.48
850.254	14232.52
850.577	14181.9
850.9	14037.27
851.223	13991.4
851.546	14003.37
851.869	13875.69
852.192	13877.5
852.515	13874.11
852.838	13788.92
853.161	13750.27
853.483	13639.54
853.806	13671.41
854.129	13637.28
854.451	13534.69
854.774	13540.34
855.096	13481.81
855.419	13402.03
855.741	13342.83
856.063	13266.9
856.385	13330.85
856.708	13188.03
857.03	13181.02
857.352	13176.96
857.674	13089.73
857.996	13075.94
858.318	13038.88
858.64	13056.73
858.961	12954.81
859.283	12952.78
859.605	12822.16
859.926	12922.95
860.248	12822.39
860.57	12813.58
860.891	12896.74
861.212	12753.01
861.534	12746.23
861.855	12632.79
862.176	12680.7
862.498	12679.57
862.819	12637.31
863.14	12527.26
863.461	12546.24
863.782	12507.82
864.103	12550.98
864.424	12464.43
864.745	12602.73
865.065	12484.32
865.386	12424.66
865.707	12379.24
866.027	12261.27
866.348	12317.09
866.668	12297.88
866.989	12336.07
867.309	12228.96
867.63	12306.92
867.95	12259.47
868.27	12123.2
868.59	12179.92
868.91	12088.62
869.23	12073.71
869.55	12099.7
869.87	12102.63
870.19	12097.89
870.51	12000.49
870.83	12048.62
871.15	11940.6
871.469	11975.63
871.789	11937.67
872.109	11981.28
872.428	11933.6
872.748	11919.36
873.067	11898.12
873.386	11951.23
873.706	11866.71
874.025	11794.62
874.344	11812.92
874.663	11736.09
874.982	11698.8
875.301	11774.96
875.62	11704
875.939	11741.51
876.258	11696.54
876.577	11705.58
876.896	11649.31
877.214	11605.25
877.533	11604.79
877.852	11571.8
878.17	11546.72
878.489	11665.58
878.807	11601.63
879.125	11622.65
879.444	11559.82
879.762	11554.17
880.08	11435.98
880.398	11364.57
880.716	11475.98
881.034	11410.22
881.352	11415.19
881.67	11350.11
881.988	11411.13
882.306	11323.9
882.624	11296.33
882.941	11221.98
883.259	11157.8
883.577	11141.53
883.894	11142.21
884.212	11228.53
884.529	11103.79
884.846	11063.34
885.164	11061.08
885.481	11038.93
885.798	11071.7
886.115	10923.46
886.432	10965.49
886.75	10979.95
887.067	10899.95
887.383	10874.19
887.7	10885.49
888.017	10832.61
888.334	10857.02
888.651	10796.23
888.967	10779.73
889.284	10659.51
889.6	10685.27
889.917	10662.9
890.233	10565.73
890.55	10636.23
890.866	10602.33
891.182	10551.26
891.498	10480.76
891.815	10460.87
892.131	10502.45
892.447	10425.16
892.763	10348.33
893.079	10321.66
893.395	10217.26
893.71	10335.9
894.026	10256.81
894.342	10219.29
894.657	10229.69
894.973	10170.93
895.289	10184.49
895.604	10111.95
895.92	10102.23
896.235	10019.07
896.55	10054.55
896.865	10040.54
897.181	9917.15
897.496	9908.12
897.811	9894.33
898.126	9871.73
898.441	9838.74
898.756	9779.08
899.071	9691.85
899.386	9722.58
899.7	9573.89
900.015	9637.61
900.33	9565.75
900.644	9547.9
900.959	9524.85
901.273	9532.53
901.588	9446.43
901.902	9408.92
902.216	9381.8
902.531	9372.54
902.845	9403.95
903.159	9288.24
903.473	9238.98
903.787	9195.37
904.101	9160.11
904.415	9181.13
904.729	9170.06
905.042	9045.31
905.356	9073.33
905.67	9049.15
905.984	9078.08
906.297	9024.3
906.611	8889.16
906.924	8951.08
907.237	8931.19
907.551	8837.86
907.864	8852.78
908.177	8791.31
908.491	8753.34
908.804	8717.19
909.117	8620.47
909.43	8637.19
909.743	8513.12
910.056	8513.58
910.368	8512.9
910.681	8477.64
910.994	8486.23
911.307	8417.76
911.619	8380.25
911.932	8304.77
912.244	8295.95
912.557	8262.51
912.869	8240.36
913.181	8244.43
913.494	8154.71
913.806	8178.22
914.118	8093.25
914.43	8030.2
914.742	8066.36
915.054	8018.9
915.366	7962.18
915.678	7948.62
915.99	7935.06
916.302	7847.83
916.613	7825.01
916.925	7793.37
917.236	7788.17
917.548	7780.26
917.859	7744.56
918.171	7664.11
918.482	7643.32
918.794	7683.54
919.105	7584.11
919.416	7509.99
919.727	7526.26
920.038	7491.68
920.349	7456.2
920.66	7418.69
920.971	7437.67
921.282	7386.6
921.593	7312.03
921.903	7256.89
922.214	7268.18
922.525	7191.35
922.835	7166.94
923.146	7138.24
923.456	7157.45
923.767	7098.25
924.077	7084.01
924.387	7018.93
924.697	7022.09
925.008	6971.24
925.318	6928.08
925.628	6936.22
925.938	6929.89
926.248	6812.83
926.558	6788.88
926.867	6800.4
927.177	6764.02
927.487	6806.05
927.796	6663.91
928.106	6706.62
928.416	6638.82
928.725	6635.66
929.034	6614.42
929.344	6575.1
929.653	6563.8
929.962	6507.07
930.271	6472.95
930.581	6465.72
930.89	6373.52
931.199	6352.05
931.508	6341.66
931.817	6345.72
932.125	6335.55
932.434	6304.37
932.743	6281.09
933.051	6284.03
933.36	6208.55
933.669	6193.41
933.977	6128.55
934.286	6127.65
934.594	6175.56
934.902	6081.55
935.21	6098.27
935.519	6019.4
935.827	6052.17
936.135	5972.17
936.443	5984.83
936.751	5923.59
937.059	5928.33
937.367	5897.15
937.674	5868
937.982	5857.15
938.29	5806.98
938.597	5810.14
938.905	5704.84
939.213	5698.06
939.52	5709.13
939.827	5725.85
940.135	5638.17
940.442	5625.52
940.749	5607.89
941.056	5636.36
941.363	5532.64
941.67	5500.77
941.977	5522.47
942.284	5465.75
942.591	5443.37
942.898	5432.98
943.205	5467.55
943.511	5422.36
943.818	5372.87
944.125	5352.53
944.431	5283.83
944.738	5315.69
945.044	5264.62
945.35	5206.54
945.657	5226.43
945.963	5169.03
946.269	5180.56
946.575	5193.66
946.881	5114.57
947.187	5142.36
947.493	5068.69
947.799	5035.7
948.105	5059.88
948.41	4996.38
948.716	5029.83
949.022	4995.02
949.327	5009.03
949.633	4924.07
949.938	4925.42
950.244	4964.52
950.549	4858.53
950.854	4842.49
951.16	4843.84
951.465	4796.84
951.77	4774.24
952.075	4766.78
952.38	4763.84
952.685	4743.96
952.99	4724.97
953.294	4705.54
953.599	4643.17
953.904	4696.05
954.209	4617.41
954.513	4617.86
954.818	4576.28
955.122	4591.87
955.426	4537.63
955.731	4461.48
956.035	4453.57
956.339	4486.11
956.643	4490.63
956.948	4417.19
957.252	4397.98
957.556	4405.89
957.86	4357.3
958.163	4367.92
958.467	4343.29
958.771	4304.19
959.075	4288.15
959.378	4275.04
959.682	4266.68
959.985	4280.92
960.289	4254.7
960.592	4210.41
960.896	4196.85
961.199	4191.88
961.502	4169.28
961.805	4116.18
962.108	4096.74
962.411	4058.1
962.714	4083.86
963.017	4084.31
963.32	4061.04
963.623	4021.26
963.926	4078.44
964.228	4021.72
964.531	3955.28
964.833	3981.04
965.136	3940.81
965.438	3893.81
965.741	3912.79
966.043	3914.37
966.345	3861.49
966.648	3865.56
966.95	3878.67
967.252	3812.91
967.554	3784.21
967.856	3782.4
968.158	3767.94
968.46	3742.85
968.761	3769.52
969.063	3721.84
969.365	3750.09
969.666	3687.26
969.968	3675.51
970.269	3636.19
970.571	3638.68
970.872	3616.53
971.174	3593.48
971.475	3576.98
971.776	3587.15
972.077	3560.94
972.378	3552.35
972.679	3534.95
972.98	3530.88
973.281	3530.43
973.582	3511.67
973.883	3431.45
974.183	3495.4
974.484	3470.54
974.785	3399.81
975.085	3427.83
975.386	3421.96
975.686	3379.7
975.986	3367.04
976.287	3363.88
976.587	3347.38
976.887	3346.25
977.187	3334.28
977.487	3333.82
977.787	3294.96
978.087	3233.04
978.387	3220.16
978.687	3264.45
978.987	3238.01
979.286	3246.14
979.586	3165.24
979.885	3159.82
980.185	3132.7
980.484	3133.83
980.784	3151.68
981.083	3147.39
981.382	3130.67
981.682	3106.94
981.981	3092.93
982.28	3109.65
982.579	3056.32
982.878	3050.89
983.177	3052.7
983.475	2985.59
983.774	2990.33
984.073	2986.04
984.372	2961.86
984.67	2958.92
984.969	2990.33
985.267	2964.12
985.566	2913.72
985.864	2901.29
986.162	2920.73
986.461	2874.85
986.759	2871.69
987.057	2824.01
987.355	2859.49
987.653	2805.48
987.951	2817
988.249	2807.96
988.547	2802.31
988.844	2770.22
989.142	2749.66
989.44	2742.43
989.737	2738.36
990.035	2725.03
990.332	2726.16
990.63	2682.99
990.927	2680.73
991.224	2697.91
991.521	2668.98
991.819	2660.62
992.116	2630.79
992.413	2631.7
992.71	2597.8
993.006	2604.13
993.303	2588.08
993.6	2579.72
993.897	2562.09
994.193	2548.31
994.49	2540.63
994.787	2508.31
995.083	2483.45
995.379	2524.35
995.676	2506.05
995.972	2481.42
996.268	2466.5
996.565	2472.38
996.861	2470.34
997.157	2466.05
997.453	2442.77
997.749	2398.26
998.044	2400.74
998.34	2387.41
998.636	2342.21
998.932	2383.34
999.227	2351.93
999.523	2332.5
999.818	2303.8
1000.114	2317.58
1000.409	2261.99
1000.704	2284.13
1001	2278.49
1001.295	2289.11
1001.59	2262.67
1001.885	2266.51
1002.18	2245.27
1002.475	2197.58
1002.77	2227.19
1003.065	2185.38
1003.359	2185.83
1003.654	2188.77
1003.949	2168.66
1004.243	2153.29
1004.538	2108.55
1004.832	2123.01
1005.127	2130.92
1005.421	2089.56
1005.715	2091.82
1006.009	2076.91
1006.304	2065.38
1006.598	2058.6
1006.892	2015.67
1007.186	2019.96
1007.48	2047.98
1007.773	2017.93
1008.067	2010.47
1008.361	1980.64
1008.655	1976.35
1008.948	1953.75
1009.242	1949.23
1009.535	1944.03
1009.829	1917.14
1010.122	1897.7
1010.415	1912.62
1010.708	1862.45
1011.001	1888.89
1011.295	1881.89
1011.588	1856.35
1011.881	1844.37
1012.173	1832.17
1012.466	1821.55
1012.759	1818.38
1013.052	1821.55
1013.344	1798.5
1013.637	1766.86
1013.93	1791.72
1014.222	1753.98
1014.514	1744.94
1014.807	1755.34
1015.099	1715.11
1015.391	1728.9
1015.683	1699.07
1015.976	1720.31
1016.268	1672.63
1016.56	1697.94
1016.851	1671.5
1017.143	1652.29
1017.435	1638.95
1017.727	1626.07
1018.018	1647.54
1018.31	1605.06
1018.602	1606.64
1018.893	1599.41
1019.185	1578.84
1019.476	1575.23
1019.767	1589.92
1020.058	1551.05
1020.35	1539.3
1020.641	1543.59
1020.932	1516.47
1021.223	1488.9
1021.514	1506.75
1021.804	1473.99
1022.095	1465.4
1022.386	1463.59
1022.677	1466.76
1022.967	1450.48
1023.258	1443.48
1023.548	1453.87
1023.839	1426.98
1024.129	1424.27
1024.419	1410.26
1024.709	1429.47
1025	1387.44
1025.29	1397.15
1025.58	1344.5
1025.87	1375.91
1026.16	1334.56
1026.449	1333.88
1026.739	1359.64
1027.029	1333.43
1027.319	1314.44
1027.608	1316.25
1027.898	1332.97
1028.187	1303.37
1028.477	1293.43
1028.766	1255.24
1029.055	1283.48
1029.344	1261.79
1029.634	1262.01
1029.923	1237.16
1030.212	1260.88
1030.501	1235.35
1030.79	1233.09
1031.078	1198.74
1031.367	1195.12
1031.656	1217.5
1031.945	1196.25
1032.233	1158.06
1032.522	1182.92
1032.81	1177.5
1033.099	1154.67
1033.387	1163.49
1033.675	1143.37
1033.963	1131.17
1034.251	1115.8
1034.54	1104.28
1034.828	1130.49
1035.116	1113.54
1035.403	1087.78
1035.691	1061.12
1035.979	1067.44
1036.267	1070.83
1036.554	1071.51
1036.842	1069.7
1037.129	1068.35
1037.417	1051.85
1037.704	1038.07
1037.992	1020.67
1038.279	1032.42
1038.566	1036.26
1038.853	1036.26
1039.14	1036.26
