Data from hue_28_FLMS001491_00063.txt Node
Date: Tue Feb 07 17:17:36 GMT 2017
User: dcchb
Spectrometer: FLMS00149
Trigger mode: 0
Integration Time (sec): 2.000000E-2
Scans to average: 10
Electric dark correction enabled: true
Nonlinearity correction enabled: false
Boxcar width: 0
XAxis mode: Wavelengths
Number of Pixels in Spectrum: 2048
>>>>>Begin Spectral Data<<<<<
341.393	-36.74
341.776	-36.74
342.16	-36.74
342.543	-62.27
342.927	-64.76
343.31	-56.4
343.693	-75.61
344.077	-65.44
344.46	-46.45
344.843	-50.3
345.226	-60.69
345.61	-44.87
345.993	-29.05
346.376	-20.69
346.759	39.65
347.142	19.99
347.525	59.76
347.908	46.2
348.291	68.35
348.674	99.31
349.057	116.25
349.44	120.55
349.823	157.38
350.206	149.02
350.588	182.92
350.971	197.83
351.354	204.61
351.737	218.17
352.119	259.3
352.502	255.23
352.884	288.9
353.267	257.27
353.65	314.44
354.032	294.55
354.414	320.09
354.797	286.42
355.179	321.45
355.562	310.83
355.944	352.18
356.326	349.69
356.709	343.14
357.091	341.11
357.473	339.07
357.855	330.26
358.238	341.11
358.62	337.49
359.002	327.77
359.384	329.81
359.766	322.35
360.148	354.89
360.53	338.62
360.912	331.39
361.294	334.78
361.676	356.93
362.057	331.84
362.439	322.12
362.821	316.93
363.203	337.27
363.584	313.99
363.966	333.42
364.348	323.48
364.729	334.78
365.111	315.8
365.493	306.76
365.874	320.32
366.256	328
366.637	334.1
367.019	317.15
367.4	320.77
367.781	329.13
368.163	324.84
368.544	319.19
368.925	316.25
369.306	307.89
369.688	332.07
370.069	318.51
370.45	336.81
370.831	327.32
371.212	311.73
371.593	306.98
371.974	333.2
372.355	320.77
372.736	303.59
373.117	318.73
373.498	320.54
373.879	326.42
374.26	318.28
374.641	303.37
375.021	307.66
375.402	343.14
375.783	329.58
376.163	327.32
376.544	334.1
376.925	319.86
377.305	322.12
377.686	315.8
378.066	311.73
378.447	320.99
378.827	333.65
379.208	325.74
379.588	338.17
379.968	334.55
380.349	322.8
380.729	340.43
381.109	335.68
381.489	333.65
381.87	344.27
382.25	347.43
382.63	322.35
383.01	325.06
383.39	340.2
383.77	356.7
384.15	345.4
384.53	333.88
384.91	338.17
385.29	338.85
385.67	351.05
386.049	345.63
386.429	346.3
386.809	351.95
387.189	353.76
387.568	361.22
387.948	335.01
388.328	347.66
388.707	347.89
389.087	363.48
389.466	339.75
389.846	355.8
390.225	352.41
390.605	376.13
390.984	348.56
391.363	360.54
391.743	349.47
392.122	393.76
392.501	357.15
392.881	387.43
393.26	364.38
393.639	360.09
394.018	376.13
394.397	383.59
394.776	371.84
395.155	376.59
395.534	384.72
395.913	368.45
396.292	371.84
396.671	373.2
397.05	402.12
397.429	380.65
397.808	387.21
398.186	368.68
398.565	384.04
398.944	392.63
399.323	386.98
399.701	368
400.08	377.04
400.458	391.05
400.837	392.63
401.215	410.48
401.594	389.69
401.972	393.99
402.351	388.79
402.729	398.96
403.107	403.25
403.486	396.47
403.864	406.64
404.242	372.29
404.62	408.9
404.999	411.16
405.377	416.59
405.755	406.19
406.133	401.44
406.511	407.77
406.889	445.96
407.267	416.81
407.645	441.9
408.023	408
408.401	452.74
408.779	451.16
409.156	445.51
409.534	429.01
409.912	439.86
410.29	433.08
410.667	441.67
411.045	453.19
411.422	457.71
411.8	466.98
412.178	443.03
412.555	457.26
412.933	440.09
413.31	449.8
413.687	466.98
414.065	468.79
414.442	477.15
414.819	473.53
415.197	467.88
415.574	470.59
415.951	496.13
416.328	462.91
416.705	480.76
417.082	499.29
417.46	502.68
417.837	477.6
418.214	524.38
418.591	494.78
418.967	499.07
419.344	486.64
419.721	485.74
420.098	492.29
420.475	497.94
420.852	501.78
421.228	496.58
421.605	521.67
421.982	505.62
422.358	517.83
422.735	537.26
423.111	521.89
423.488	538.39
423.864	523.7
424.241	525.28
424.617	539.75
424.994	543.59
425.37	545.17
425.746	539.75
426.123	544.27
426.499	553.98
426.875	544.49
427.251	568.9
427.627	556.24
428.003	578.61
428.379	577.26
428.756	556.02
429.132	578.84
429.507	586.98
429.883	596.92
430.259	599.18
430.635	598.5
431.011	593.3
431.387	599.86
431.763	597.37
432.138	633.75
432.514	605.51
432.89	609.35
433.265	624.26
433.641	629.23
434.016	634.66
434.392	651.61
434.767	653.42
435.143	662.45
435.518	653.42
435.894	685.73
436.269	674.21
436.644	690.02
437.02	700.87
437.395	668.78
437.77	698.61
438.145	660.65
438.52	699.74
438.895	705.84
439.271	713.75
439.646	713.98
440.021	718.95
440.395	731.15
440.77	709.91
441.145	718.05
441.52	740.87
441.895	706.29
442.27	729.12
442.645	727.99
443.019	746.97
443.394	733.86
443.769	753.07
444.143	746.52
444.518	757.59
444.892	754.43
445.267	763.69
445.641	782.9
446.016	784.26
446.39	782.9
446.764	772.73
447.139	780.19
447.513	813.41
447.887	814.77
448.262	804.6
448.636	801.21
449.01	795.11
449.384	793.75
449.758	817.03
450.132	833.07
450.506	818.83
450.88	836.91
451.254	813.64
451.628	845.05
452.002	859.51
452.376	860.19
452.75	860.87
453.123	867.42
453.497	874.65
453.871	869.68
454.244	858.83
454.618	884.82
454.992	903.35
455.365	909.45
455.739	911.94
456.112	904.03
456.486	942.45
456.859	931.6
457.232	960.3
457.606	950.58
457.979	965.05
458.352	968.66
458.725	1004.14
459.099	1020.19
459.472	1004.82
459.845	1021.54
460.218	1017.93
460.591	1031.48
460.964	1048.21
461.337	1037.59
461.71	1095.66
462.083	1083.23
462.456	1089.34
462.829	1101.76
463.201	1111.26
463.574	1109.22
463.947	1141.76
464.32	1152.84
464.692	1167.98
465.065	1166.85
465.438	1148.77
465.81	1178.37
466.183	1208.65
466.555	1234.64
466.928	1240.07
467.3	1250.69
467.672	1250.69
468.045	1276.22
468.417	1291.36
468.789	1305.38
469.161	1326.17
469.534	1335.43
469.906	1375.43
470.278	1382.89
470.65	1369.78
471.022	1401.87
471.394	1466.28
471.766	1484.81
472.138	1464.24
472.51	1508.31
472.882	1524.58
473.253	1510.79
473.625	1547.63
473.997	1566.16
474.369	1608.87
474.74	1603.22
475.112	1648.64
475.484	1676.89
475.855	1724.12
476.227	1730.67
476.598	1776.32
476.97	1821.52
477.341	1845.25
477.713	1901.74
478.084	1897
478.455	1960.95
478.827	1916.88
479.198	2033.27
479.569	2073.49
479.94	2110.1
480.311	2165.01
480.682	2186.26
481.053	2253.15
481.424	2296.99
481.795	2324.11
482.166	2366.59
482.537	2428.51
482.908	2442.52
483.279	2495.63
483.65	2525.46
484.021	2617.66
484.391	2657.43
484.762	2688.39
485.133	2754.15
485.503	2758.67
485.874	2854.94
486.244	2878.22
486.615	2973.13
486.985	2966.57
487.356	3032.11
487.726	3102.39
488.097	3166.34
488.467	3192.56
488.837	3254.02
489.207	3334.47
489.578	3367.24
489.948	3454.92
490.318	3465.32
490.688	3482.95
491.058	3600
491.428	3631.87
491.798	3667.57
492.168	3785.08
492.538	3826.89
492.908	3842.94
493.278	3938.98
493.648	3950.73
494.017	4028.69
494.387	4033.67
494.757	4084.29
495.126	4172.64
495.496	4128.13
495.866	4231.85
496.235	4284.73
496.605	4326.31
496.974	4335.13
497.344	4383.71
497.713	4442.69
498.082	4482.92
498.452	4572.41
498.821	4529.25
499.19	4582.13
499.559	4639.75
499.928	4704.83
500.298	4745.51
500.667	4758.62
501.036	4708.68
501.405	4850.37
501.774	4801.78
502.143	4930.14
502.512	4898.73
502.88	4980.53
503.249	5019.85
503.618	4988.44
503.987	5012.62
504.356	5039.97
504.724	5103.92
505.093	5127.87
505.462	5162
505.83	5206.97
506.199	5256.01
506.567	5274.31
506.936	5295.1
507.304	5309.56
507.672	5398.83
508.041	5414.87
508.409	5423.46
508.777	5476.57
509.145	5502.55
509.514	5515.89
509.882	5585.26
510.25	5563.34
510.618	5516.34
510.986	5587.07
511.354	5643.11
511.722	5751.13
512.09	5753.17
512.458	5710.91
512.826	5771.47
513.193	5809.21
513.561	5830.91
513.929	5842.66
514.297	5898.93
514.664	5933.28
515.032	5972.82
515.4	5940.96
515.767	6047.17
516.135	6064.12
516.502	6015.76
516.869	6094.85
517.237	6116.1
517.604	6077.45
517.972	6169.2
518.339	6256.88
518.706	6231.8
519.073	6246.26
519.44	6241.97
519.808	6350.44
520.175	6270.44
520.542	6385.92
520.909	6364.23
521.276	6391.34
521.643	6431.34
522.009	6498.23
522.376	6488.29
522.743	6532.13
523.11	6560.83
523.477	6596.99
523.843	6643.09
524.21	6705.46
524.577	6722.86
524.943	6727.38
525.31	6763.76
525.676	6829.98
526.043	6862.97
526.409	6902.74
526.776	6955.17
527.142	6960.14
527.508	7023.64
527.874	7070.42
528.241	7083.98
528.607	7109.74
528.973	7216.41
529.339	7110.19
529.705	7197.88
530.071	7328.04
530.437	7266.12
530.803	7345.89
531.169	7392.67
531.535	7388.61
531.901	7324.88
532.267	7477.87
532.632	7537.75
532.998	7560.8
533.364	7662.27
533.73	7641.93
534.095	7612.55
534.461	7709.05
534.826	7748.6
535.192	7761.7
535.557	7789.5
535.923	7816.39
536.288	7879.21
536.653	7898.42
537.019	7813.23
537.384	7943.39
537.749	7954.24
538.114	7933
538.479	7918.99
538.845	7999.66
539.21	8040.57
539.575	8102.48
539.94	8093.22
540.305	8142.03
540.67	8170.28
541.034	8199.21
541.399	8289.15
541.764	8297.51
542.129	8283.5
542.494	8326.89
542.858	8412.08
543.223	8433.32
543.587	8472.19
543.952	8428.8
544.316	8507.9
544.681	8482.14
545.045	8557.16
545.41	8563.04
545.774	8627.89
546.138	8646.65
546.503	8690.49
546.867	8694.79
547.231	8722.13
547.595	8804.39
547.959	8802.58
548.324	8829.02
548.688	8807.55
549.052	8890.94
549.416	8950.6
549.779	8970.94
550.143	8937.94
550.507	9059.52
550.871	9039.18
551.235	9056.36
551.599	9099.75
551.962	9184.49
552.326	9203.92
552.689	9212.51
553.053	9208.9
553.417	9251.83
553.78	9333.86
554.143	9331.38
554.507	9374.77
554.87	9364.37
555.234	9432.17
555.597	9438.95
555.96	9461.77
556.323	9529.57
556.686	9497.25
557.05	9576.57
557.413	9589
557.776	9613.18
558.139	9677.58
558.502	9717.36
558.865	9720.97
559.228	9759.84
559.59	9813.17
559.953	9845.94
560.316	9927.75
560.679	9885.71
561.041	9939.27
561.404	10053.62
561.767	10015.88
562.129	9959.61
562.492	10068.53
562.854	10082.77
563.217	10087.07
563.579	10120.51
563.941	10140.17
564.304	10283.9
564.666	10336.55
565.028	10342.43
565.39	10383.78
565.753	10372.03
566.115	10436.66
566.477	10469.43
566.839	10482.31
567.201	10518.24
567.563	10535.42
567.925	10645.02
568.287	10639.59
568.648	10655.41
569.01	10720.95
569.372	10769.31
569.734	10827.38
570.095	10949.42
570.457	10916.87
570.819	10999.13
571.18	10953.48
571.542	11041.16
571.903	11044.78
572.265	11136.3
572.626	11162.74
572.987	11207.71
573.349	11311.44
573.71	11277.32
574.071	11369.52
574.432	11426.92
574.794	11628.27
575.155	11652
575.516	11598.89
575.877	11802.27
576.238	11763.18
576.599	11912.78
576.96	11998.43
577.32	11999.33
577.681	12167.24
578.042	12236.84
578.403	12293.79
578.763	12421.47
579.124	12552.09
579.485	12660.1
579.845	12815.58
580.206	12921.12
580.566	13002.69
580.927	13118.62
581.287	13322.91
581.648	13316.58
582.008	13604.71
582.368	13792.96
582.728	13887.87
583.089	14017.81
583.449	14179.39
583.809	14415.99
584.169	14436.33
584.529	14716.77
584.889	14899.59
585.249	15032.25
585.609	15164.45
585.969	15558.33
586.329	15686.69
586.688	15927.14
587.048	16169.84
587.408	16323.96
587.768	16647.8
588.127	16798.53
588.487	17097.05
588.846	17351.28
589.206	17574.78
589.565	17894.54
589.925	18243.01
590.284	18389.67
590.643	18675.31
591.003	18937
591.362	19340.16
591.721	19506.7
592.08	19775.4
592.44	20118.89
592.799	20353.01
593.158	20553.91
593.517	20860.79
593.876	21217.85
594.235	21482.02
594.593	21753.43
594.952	22070.03
595.311	22266.63
595.67	22610.35
596.029	23058.93
596.387	23357.45
596.746	23632.7
597.104	23882.18
597.463	24181.84
597.822	24520.13
598.18	24816.62
598.538	25053.68
598.897	25477.17
599.255	25537.05
599.613	26160.09
599.972	26399.4
600.33	26615.44
600.688	26831.71
601.046	27125.94
601.404	27460.85
601.762	27668.3
602.12	28088.63
602.478	28368.62
602.836	28641.83
603.194	28714.37
603.552	29009.05
603.91	29254.47
604.268	29628.92
604.625	29691.97
604.983	30095.8
605.341	30186.88
605.698	30645.39
606.056	30857.37
606.413	31021.2
606.771	31316.11
607.128	31625.48
607.485	31732.6
607.843	31894.18
608.2	32254.62
608.557	32578.23
608.914	32587.49
609.272	33079.68
609.629	33160.81
609.986	33606.9
610.343	33565.54
610.7	33892.09
611.057	34058.19
611.414	34323.26
611.771	34528.68
612.127	34717.15
612.484	34839.41
612.841	35167.31
613.198	35216.57
613.554	35348.1
613.911	35604.59
614.267	35874.41
614.624	35953.96
614.98	36111.92
615.337	36383.32
615.693	36561.85
616.05	36591.68
616.406	37057.2
616.762	36964.55
617.118	37155.96
617.475	37243.41
617.831	37439.79
618.187	37582.39
618.543	37714.81
618.899	37920.68
619.255	38068.48
619.611	38064.86
619.967	38384.17
620.323	38587.11
620.678	38511.63
621.034	38456.49
621.39	38555.7
621.746	38663.26
622.101	39181.22
622.457	38894.22
622.812	39115.23
623.168	39236.58
623.523	39423.24
623.879	39478.61
624.234	39345.51
624.589	39562.9
624.945	39627.31
625.3	39786.17
625.655	39837.47
626.01	39936.45
626.365	39928.09
626.72	40026.17
627.075	39942.78
627.43	40034.53
627.785	39968.09
628.14	40280.85
628.495	40298.47
628.85	40429.32
629.205	40204.92
629.559	40607.17
629.914	40325.14
630.269	40450.11
630.623	40573.04
630.978	40524.01
631.332	40752.7
631.687	40693.27
632.041	40575.3
632.396	40799.93
632.75	40582.53
633.104	40718.12
633.459	40619.82
633.813	40620.5
634.167	40680.16
634.521	40551.57
634.875	40680.61
635.229	40651.46
635.583	40588.18
635.937	40606.49
636.291	40656.66
636.645	40664.57
636.999	40530.11
637.352	40819.82
637.706	40699.37
638.06	40757.22
638.413	40640.61
638.767	40715.41
639.121	40738.69
639.474	40516.1
639.828	40590.44
640.181	40641.52
640.534	40509.32
640.888	40466.83
641.241	40344.12
641.594	40521.97
641.947	40635.87
642.301	40514.29
642.654	40565.81
643.007	40486.04
643.36	40544.12
643.713	40571.24
644.066	40642.87
644.419	40392.26
644.771	40175.77
645.124	39867.98
645.477	39834.98
645.83	39493.52
646.182	39400.87
646.535	39201.1
646.888	39341.89
647.24	39248.56
647.593	39477.25
647.945	39368.1
648.298	39227.99
648.65	39225.51
649.002	39206.75
649.355	39256.02
649.707	39220.31
650.059	39465.95
650.411	39834.53
650.763	39904.81
651.115	40197.01
651.467	40108.42
651.819	40101.19
652.171	40105.26
652.523	39946.62
652.875	40008.31
653.227	39781.65
653.578	40044.02
653.93	39844.7
654.282	39874.53
654.633	39880.86
654.985	39870.69
655.337	39930.35
655.688	40037.01
656.039	40076.56
656.391	39802.89
656.742	39822.78
657.094	39957.01
657.445	40006.05
657.796	40036.33
658.147	39924.47
658.498	39824.36
658.849	40029.1
659.2	39775.32
659.551	39739.84
659.902	39768.54
660.253	39878.37
660.604	39857.81
660.955	39709.34
661.306	39834.31
661.656	39732.84
662.007	39757.02
662.358	39786.62
662.708	39802.22
663.059	39771.03
663.409	39602.45
663.76	39867.3
664.11	39768.54
664.461	39863.91
664.811	39731.26
665.161	39822.1
665.511	39610.58
665.862	39811.48
666.212	39685.38
666.562	39773.52
666.912	39641.09
667.262	39477.03
667.612	39658.49
667.962	39630.24
668.312	39497.37
668.662	39773.97
669.011	39630.02
669.361	39596.12
669.711	39597.93
670.06	39713.63
670.41	39490.36
670.76	39355.45
671.109	39526.07
671.459	39529.45
671.808	39390.48
672.157	39654.88
672.507	39278.16
672.856	39305.51
673.205	39337.14
673.554	39537.36
673.904	39353.41
674.253	39559.51
674.602	39419.18
674.951	38928.34
675.3	38657.39
675.649	39444.94
675.998	39377.14
676.346	39300.53
676.695	39522.9
677.044	39223.7
677.393	39263.02
677.741	39429.12
678.09	39271.83
678.438	38924.95
678.787	39083.37
679.135	39191.61
679.484	38854.9
679.832	39048.56
680.181	38835.69
680.529	39002.46
680.877	38789.14
681.225	38849.92
681.573	39150.71
681.922	38771.51
682.27	38607.67
682.618	38632.08
682.966	38510.27
683.314	38664.39
683.661	38391.41
684.009	38329.49
684.357	38280.45
684.705	38239.77
685.053	38301.46
685.4	38228.47
685.748	38049.04
686.095	38084.97
686.443	38015.82
686.79	37939.21
687.138	37936.73
687.485	37894.7
687.832	37787.35
688.18	38042.26
688.527	37750.07
688.874	37799.56
689.221	37628.49
689.568	37549.39
689.915	37460.36
690.262	37511.65
690.609	37316.63
690.956	37061.05
691.303	37121.16
691.65	36917.55
691.997	36907.83
692.344	36674.16
692.69	36673.48
693.037	36662.64
693.383	36452.93
693.73	36496.77
694.077	36352.82
694.423	36382.42
694.769	36276.66
695.116	36159.15
695.462	36053.84
695.808	36128.64
696.155	36022.2
696.501	35874.86
696.847	35828.54
697.193	35572.95
697.539	35712.83
697.885	35534.76
698.231	35372.28
698.577	35280.75
698.923	35428.77
699.269	35278.72
699.614	35116.46
699.96	35003.47
700.306	34956.47
700.651	34870.82
700.997	34716.25
701.342	34770.71
701.688	34734.78
702.033	34453.88
702.379	34443.94
702.724	34386.77
703.069	34421.34
703.415	34062.71
703.76	34146.55
704.105	33895.7
704.45	34016.83
704.795	33859.1
705.14	33629.72
705.485	33657.52
705.83	33596.96
706.175	33551.31
706.52	33462.5
706.865	33338.43
707.209	33285.33
707.554	33082.17
707.899	33233.58
708.243	33120.36
708.588	32970.31
708.932	32879.69
709.277	32862.51
709.621	32948.61
709.966	32610.31
710.31	32798.78
710.654	32425.46
710.998	32586.13
711.342	32574.38
711.687	32479.7
712.031	32277.44
712.375	32132.14
712.719	32341.62
713.063	32190.44
713.407	32105.92
713.75	32144.56
714.094	32093.49
714.438	31873.61
714.782	31838.13
715.125	31752.71
715.469	31858.7
715.812	31579.38
716.156	31499.61
716.499	31546.39
716.843	31490.57
717.186	31369.67
717.53	31541.87
717.873	31373.29
718.216	31336
718.559	31071.15
718.902	31011.49
719.246	31037.02
719.589	31093.52
719.932	30950.92
720.275	30900.76
720.617	30930.59
720.96	30835.9
721.303	30777.59
721.646	30772.85
721.989	30642.01
722.331	30569.24
722.674	30514.1
723.016	30606.3
723.359	30599.29
723.701	30675
724.044	30238.85
724.386	30330.37
724.729	30408.11
725.071	30248.8
725.413	30221.45
725.755	30277.95
726.097	30089.03
726.439	29940.33
726.782	30089.48
727.124	30091.74
727.465	29946.88
727.807	29990.04
728.149	29798.86
728.491	29747.34
728.833	29804.29
729.175	29667.12
729.516	29640.45
729.858	29716.83
730.199	29691.3
730.541	29608.36
730.882	29561.58
731.224	29665.76
731.565	29197.98
731.906	29444.3
732.248	29458.99
732.589	29302.83
732.93	29136.51
733.271	29261.7
733.612	29178.31
733.953	29251.76
734.294	29061.48
734.635	29126.11
734.976	29060.8
735.317	28841.83
735.658	28889.73
735.999	28897.64
736.339	28747.37
736.68	28982.61
737.021	28758.44
737.361	28650.42
737.702	28775.16
738.042	28666.92
738.383	28589.4
738.723	28645.9
739.063	28587.37
739.404	28565
739.744	28461.05
740.084	28342.86
740.424	28403.87
740.764	28279.36
741.104	28490.42
741.444	28165.23
741.784	28247.94
742.124	28291.11
742.464	28231.45
742.804	28174.27
743.143	28045.46
743.483	28124.56
743.823	28000.27
744.162	28000.49
744.502	27974.05
744.841	28050.21
745.181	27969.53
745.52	27830.55
745.86	27941.51
746.199	27772.02
746.538	27777.9
746.877	27900.38
747.216	27813.6
747.556	27659.48
747.895	27714.4
748.234	27554.63
748.573	27562.09
748.911	27485.93
749.25	27471.24
749.589	27379.72
749.928	27459.04
750.267	27475.99
750.605	27436.89
750.944	27381.3
751.283	27249.1
751.621	27212.26
751.96	27132.04
752.298	27150.35
752.636	27106.96
752.975	26987.64
753.313	26968.66
753.651	26981.99
753.989	26840.75
754.327	26974.3
754.666	26676.01
755.004	26635.78
755.342	26777.93
755.679	26497.48
756.017	26490.02
756.355	26572.28
756.693	26445.28
757.031	26333.64
757.368	26316.92
757.706	26179.52
758.044	26166.42
758.381	26186.98
758.719	26068.11
759.056	26024.27
759.394	25970.72
759.731	25891.62
760.068	25824.05
760.405	25672.42
760.743	25630.16
761.08	25724.39
761.417	25384.29
761.754	25536.38
762.091	25509.94
762.428	25324.4
762.765	25349.26
763.102	25398.75
763.438	25213.67
763.775	25090.96
764.112	25136.39
764.449	25059.78
764.785	24943.17
765.122	24799.45
765.458	24702.27
765.795	24795.61
766.131	24692.1
766.467	24608.04
766.804	24473.81
767.14	24266.81
767.476	24438.33
767.812	24218.22
768.148	24195.85
768.485	24037.21
768.821	24004.67
769.157	23865.46
769.492	23878.57
769.828	23814.84
770.164	23617.11
770.5	23580.04
770.836	23504.57
771.171	23401.29
771.507	23354.29
771.842	23231.35
772.178	23261.41
772.513	23155.42
772.849	23028.19
773.184	22971.02
773.519	22947.97
773.855	22901.42
774.19	22796.79
774.525	22717.24
774.86	22554.31
775.195	22627.98
775.53	22473.18
775.865	22397.48
776.2	22196.35
776.535	22100.76
776.87	22125.17
777.205	22002.68
777.539	21870.94
777.874	21910.71
778.209	21700.55
778.543	21616.48
778.878	21553.2
779.212	21587.1
779.547	21449.7
779.881	21473.88
780.215	21188.47
780.55	21261.69
780.884	21266.88
781.218	21192.54
781.552	21175.36
781.886	20942.15
782.22	20872.77
782.554	20845.88
782.888	20687.46
783.222	20621.48
783.556	20480.01
783.889	20513.01
784.223	20364.08
784.557	20302.16
784.89	20415.61
785.224	20217.65
785.557	20139.91
785.891	20078.22
786.224	20000.02
786.558	19942.17
786.891	19833.25
787.224	19742.63
787.557	19718.45
787.891	19726.59
788.224	19620.37
788.557	19593.26
788.89	19479.81
789.223	19473.71
789.556	19259.48
789.888	19241.63
790.221	19260.38
790.554	19088.41
790.887	19077.34
791.219	18926.61
791.552	18955.31
791.884	18765.93
792.217	18737.91
792.549	18801.41
792.882	18649.1
793.214	18530.01
793.546	18596.9
793.879	18478.94
794.211	18326.85
794.543	18391.25
794.875	18307.41
795.207	18329.56
795.539	18150.36
795.871	18236.46
796.203	18087.31
796.535	17996.69
796.867	17949.68
797.198	17981.1
797.53	17922.34
797.862	17769.8
798.193	17857.48
798.525	17678.05
798.856	17733.64
799.188	17520.09
799.519	17414.1
799.85	17419.08
800.182	17332.75
800.513	17417.95
800.844	17288.91
801.175	17284.84
801.506	17170.95
801.837	17213.66
802.168	17118.52
802.499	17034.68
802.83	16877.85
803.161	16933.44
803.491	16926.21
803.822	16895.93
804.153	16778.64
804.483	16623.39
804.814	16610.96
805.145	16569.15
805.475	16482.15
805.805	16521.92
806.136	16492.77
806.466	16487.12
806.796	16410.51
807.126	16361.7
807.457	16192.89
807.787	16244.87
808.117	16177.75
808.447	16126.68
808.777	16111.99
809.107	16081.71
809.436	16058.89
809.766	15946.12
810.096	15852.34
810.426	15855.28
810.755	15834.71
811.085	15764.2
811.414	15837.65
811.744	15663.87
812.073	15635.62
812.403	15636.98
812.732	15563.76
813.061	15621.38
813.39	15497.09
813.719	15490.31
814.049	15554.72
814.378	15344.78
814.707	15320.83
815.036	15291.67
815.365	15254.84
815.693	15127.16
816.022	15115.63
816.351	15184.56
816.68	15081.74
817.008	15052.81
817.337	14982.08
817.665	14856.43
817.994	14968.52
818.322	14896.43
818.651	14806.49
818.979	14741.41
819.307	14935.07
819.636	14693.5
819.964	14657.11
820.292	14782.76
820.62	14714.97
820.948	14693.72
821.276	14698.7
821.604	14641.07
821.932	14641.97
822.259	14619.83
822.587	14619.83
822.915	14560.85
823.243	14665.7
823.57	14603.33
823.898	14618.25
824.225	14538.02
824.553	14491.47
824.88	14582.54
825.207	14609.66
825.535	14492.15
825.862	14557.68
826.189	14520.17
826.516	14512.94
826.843	14642.88
827.17	14597
827.497	14606.27
827.824	14597.91
828.151	14663.22
828.478	14662.76
828.805	14645.36
829.131	14570.79
829.458	14634.06
829.785	14428.65
830.111	14458.25
830.438	14551.35
830.764	14498.47
831.09	14613.5
831.417	14429.78
831.743	14520.62
832.069	14528.98
832.395	14456.44
832.722	14497.12
833.048	14438.59
833.374	14473.84
833.7	14379.38
834.026	14335.32
834.351	14351.81
834.677	14343.9
835.003	14389.1
835.329	14391.81
835.654	14311.14
835.98	14249.22
836.306	14302.77
836.631	14289.21
836.956	14304.58
837.282	14305.71
837.607	14238.82
837.932	14190.23
838.258	14112.04
838.583	14116.79
838.908	14106.39
839.233	14083.34
839.558	14020.07
839.883	14045.83
840.208	13947.75
840.533	13998.15
840.858	13923.57
841.182	13926.74
841.507	13896.68
841.832	13862.11
842.156	13851.03
842.481	13853.97
842.805	13777.14
843.13	13730.59
843.454	13762.9
843.778	13689.46
844.103	13662.34
844.427	13658.72
844.751	13645.16
845.075	13594.77
845.399	13569.69
845.723	13404.49
846.047	13488.78
846.371	13392.52
846.695	13313.2
847.019	13275.68
847.343	13239.07
847.666	13187.32
847.99	13074.78
848.313	13052.64
848.637	13029.59
848.96	12934
849.284	12902.58
849.607	12794.56
849.931	12736.49
850.254	12675.7
850.577	12652.2
850.9	12488.81
851.223	12537.62
851.546	12546.44
851.869	12463.5
852.192	12520.67
852.515	12418.76
852.838	12330.85
853.161	12288.36
853.483	12209.5
853.806	12221.7
854.129	12159.55
854.451	12039.78
854.774	12124.75
855.096	12015.83
855.419	11935.83
855.741	11992.55
856.063	11922.72
856.385	11837.08
856.708	11895.83
857.03	11832.1
857.352	11763.41
857.674	11775.61
857.996	11720.92
858.318	11703.52
858.64	11687.02
858.961	11619.68
859.283	11557.08
859.605	11543.07
859.926	11591.88
860.248	11484.99
860.57	11473.7
860.891	11468.5
861.212	11377.88
861.534	11355.05
861.855	11361.83
862.176	11404.54
862.498	11369.29
862.819	11281.38
863.14	11266.7
863.461	11176.98
863.782	11261.27
864.103	11223.98
864.424	11209.3
864.745	11158.22
865.065	11101.28
865.386	11063.54
865.707	11070.09
866.027	11072.35
866.348	11062.41
866.668	11025.57
866.989	11027.38
867.309	10919.36
867.63	10973.6
867.95	10980.6
868.27	10868.51
868.59	10907.16
868.91	10912.35
869.23	10809.31
869.55	10728.18
869.87	10817.44
870.19	10771.79
870.51	10735.41
870.83	10838.46
871.15	10715.52
871.469	10745.35
871.789	10791.23
872.109	10727.73
872.428	10647.28
872.748	10653.83
873.067	10642.98
873.386	10575.41
873.706	10637.79
874.025	10573.61
874.344	10568.63
874.663	10522.76
874.982	10558.69
875.301	10570.44
875.62	10485.7
875.939	10466.72
876.258	10453.61
876.577	10431.91
876.896	10417
877.214	10354.18
877.533	10357.79
877.852	10362.09
878.17	10409.09
878.489	10335.19
878.807	10365.7
879.125	10298.13
879.444	10245.25
879.762	10259.26
880.08	10241.86
880.398	10214.52
880.716	10306.95
881.034	10252.71
881.352	10179.27
881.67	10156.89
881.988	10185.59
882.306	10101.53
882.624	10096.56
882.941	10035.77
883.259	10027.63
883.577	9965.03
883.894	10025.15
884.212	9961.42
884.529	9955.09
884.846	9965.26
885.164	9933.17
885.481	9904.02
885.798	9930.23
886.115	9779.95
886.432	9796.45
886.75	9817.47
887.067	9774.53
887.383	9731.82
887.7	9735.21
888.017	9697.47
888.334	9630.13
888.651	9655.44
888.967	9638.49
889.284	9559.17
889.6	9613.63
889.917	9539.06
890.233	9493.41
890.55	9430.81
890.866	9434.65
891.182	9376.8
891.498	9330.93
891.815	9280.98
892.131	9322.11
892.447	9316.01
892.763	9257.93
893.079	9248.67
893.395	9211.61
893.71	9235.79
894.026	9180.87
894.342	9133.42
894.657	9077.83
894.973	9123.7
895.289	9068.79
895.604	9099.29
895.92	9012.97
896.235	9009.13
896.55	8921.67
896.865	8912.86
897.181	8935.23
897.496	8892.29
897.811	8930.94
898.126	8865.4
898.441	8813.43
898.756	8747.44
899.071	8714.9
899.386	8689.59
899.7	8660.21
900.015	8676.71
900.33	8577.05
900.644	8513.77
900.959	8532.76
901.273	8518.29
901.588	8424.96
901.902	8455.24
902.216	8448.69
902.531	8376.6
902.845	8446.88
903.159	8301.35
903.473	8310.39
903.787	8311.52
904.101	8196.72
904.415	8196.49
904.729	8206.44
905.042	8094.58
905.356	8066.1
905.67	8080.34
905.984	8107.91
906.297	8010.74
906.611	7985.43
906.924	7965.77
907.237	7948.36
907.551	7886.45
907.864	7893.9
908.177	7871.53
908.491	7871.3
908.804	7751.53
909.117	7782.95
909.43	7729.61
909.743	7677.86
910.056	7697.07
910.368	7626.34
910.681	7579.33
910.994	7517.87
911.307	7540.24
911.619	7461.82
911.932	7493.24
912.244	7413.46
912.557	7383.41
912.869	7396.74
913.181	7343.41
913.494	7361.71
913.806	7265.67
914.118	7218.89
914.43	7241.04
914.742	7229.29
915.054	7140.7
915.366	7104.77
915.678	7111.78
915.99	7086.92
916.302	6995.85
916.613	7039.91
916.925	6953.59
917.236	6939.8
917.548	6882.63
917.859	6977.77
918.171	6864.78
918.482	6852.35
918.794	6806.93
919.105	6826.36
919.416	6709.75
919.727	6750.43
920.038	6705.91
920.349	6634.95
920.66	6656.2
920.971	6603.09
921.282	6604.67
921.593	6557.44
921.903	6557.67
922.214	6465.24
922.525	6428.86
922.835	6416.2
923.146	6365.58
923.456	6341.18
923.767	6342.98
924.077	6351.57
924.387	6279.71
924.697	6253.27
925.008	6239.48
925.318	6236.77
925.628	6268.41
925.938	6132.37
926.248	6131.69
926.558	6060.96
926.867	6080.62
927.177	6099.6
927.487	6035.42
927.796	5987.51
928.106	5977.34
928.416	6014.18
928.725	5922.43
929.034	5922.88
929.344	5908.42
929.653	5874.29
929.962	5827.52
930.271	5806.95
930.581	5767.18
930.89	5739.61
931.199	5729.67
931.508	5744.81
931.817	5709.33
932.125	5686.28
932.434	5667.07
932.743	5571.93
933.051	5567.64
933.36	5588.2
933.669	5545.94
933.977	5508.2
934.286	5548.2
934.594	5492.38
934.902	5450.13
935.21	5444.93
935.519	5443.12
935.827	5404.93
936.135	5372.61
936.443	5367.87
936.751	5325.16
937.059	5337.13
937.367	5289
937.674	5259.85
937.982	5223.46
938.29	5225.5
938.597	5214.88
938.905	5139.4
939.213	5105.95
939.52	5158.38
939.827	5132.39
940.135	5131.49
940.442	5017.59
940.749	5018.05
941.056	5041.1
941.363	5005.39
941.67	5033.86
941.977	4979.63
942.284	4861.44
942.591	4934.66
942.898	4908.44
943.205	4823.7
943.511	4819.18
943.818	4820.09
944.125	4754.1
944.431	4792.52
944.738	4792.52
945.044	4747.32
945.35	4719.75
945.657	4685.17
945.963	4684.04
946.269	4639.52
946.575	4626.19
946.881	4631.16
947.187	4586.42
947.493	4616.93
947.799	4568.11
948.105	4531.51
948.41	4462.35
948.716	4492.18
949.022	4449.47
949.327	4466.65
949.633	4432.75
949.938	4425.52
950.244	4412.41
950.549	4349.14
950.854	4341.23
951.16	4345.3
951.465	4302.81
951.77	4290.16
952.075	4273.43
952.38	4288.57
952.685	4252.64
952.99	4179.65
953.294	4183.72
953.599	4163.61
953.904	4153.89
954.209	4162.02
954.513	4151.18
954.818	4088.8
955.122	4121.57
955.426	4064.17
955.731	4051.74
956.035	4031.41
956.339	4069.82
956.643	4028.47
956.948	3966.55
957.252	3974.23
957.556	3984.85
957.86	3925.65
958.163	3928.36
958.467	3919.54
958.771	3895.59
959.075	3898.98
959.378	3885.19
959.682	3896.27
959.985	3851.3
960.289	3816.04
960.592	3785.31
960.896	3807.91
961.199	3766.1
961.502	3758.19
961.805	3757.51
962.108	3674.35
962.411	3718.42
962.714	3639.1
963.017	3666.22
963.32	3637.74
963.623	3624.64
963.926	3615.15
964.228	3617.4
964.531	3551.87
964.833	3584.41
965.136	3541.93
965.438	3522.49
965.741	3542.15
966.043	3502.83
966.345	3493.11
966.648	3553.23
966.95	3487.92
967.252	3456.96
967.554	3449.5
967.856	3423.96
968.158	3400.24
968.46	3367.47
968.761	3397.52
969.063	3384.87
969.365	3352.33
969.666	3329.73
969.968	3307.81
970.269	3259.22
970.571	3256.06
970.872	3288.6
971.174	3253.35
971.475	3249.28
971.776	3244.31
972.077	3221.71
972.378	3212.9
972.679	3204.76
972.98	3163.41
973.281	3154.59
973.582	3148.04
973.883	3120.92
974.183	3121.15
974.484	3096.74
974.785	3108.04
975.085	3064.2
975.386	3052
975.686	3049.96
975.986	3049.74
976.287	3019.23
976.587	3022.62
976.887	3014.26
977.187	2977.65
977.487	3009.51
977.787	2972.22
978.087	2954.6
978.387	2934.26
978.687	2936.97
978.987	2883.41
979.286	2900.14
979.586	2897.65
979.885	2835.73
980.185	2851.78
980.484	2860.59
980.784	2821.72
981.083	2840.02
981.382	2810.65
981.682	2814.94
981.981	2793.7
982.28	2788.5
982.579	2748.5
982.878	2750.08
983.177	2749.63
983.475	2733.81
983.774	2708.73
984.073	2682.06
984.372	2656.3
984.67	2689.75
984.969	2699.91
985.267	2686.13
985.566	2650.65
985.864	2636.19
986.162	2645
986.461	2619.92
986.759	2570.43
987.057	2570.43
987.355	2591.67
987.653	2590.77
987.951	2558
988.249	2520.26
988.547	2497.89
988.844	2518.9
989.142	2486.81
989.44	2507.83
989.737	2469.19
990.035	2456.31
990.332	2457.66
990.63	2438.68
990.927	2433.71
991.224	2409.98
991.521	2412.46
991.819	2389.64
992.116	2387.15
992.413	2379.7
992.71	2374.73
993.006	2372.01
993.303	2367.72
993.6	2335.86
993.897	2354.16
994.193	2330.43
994.49	2313.94
994.787	2290.21
995.083	2281.39
995.379	2251.57
995.676	2287.04
995.972	2268.06
996.268	2231.45
996.565	2240.27
996.861	2207.05
997.157	2207.72
997.453	2193.94
997.749	2173.83
998.044	2138.8
998.34	2166.14
998.636	2161.62
998.932	2153.49
999.227	2121.63
999.523	2100.16
999.818	2109.2
1000.114	2080.95
1000.409	2100.61
1000.704	2102.42
1001	2063.1
1001.295	2064
1001.59	2051.34
1001.885	2039.37
1002.18	2003.66
1002.475	2000.27
1002.77	1999.37
1003.065	1983.55
1003.359	1984.68
1003.654	1967.73
1003.949	1963.66
1004.243	1971.35
1004.538	1950.56
1004.832	1956.88
1005.127	1913.27
1005.421	1900.84
1005.715	1895.42
1006.009	1873.95
1006.304	1882.54
1006.598	1839.6
1006.892	1856.32
1007.186	1810.67
1007.48	1861.07
1007.773	1800.28
1008.067	1869.88
1008.361	1785.59
1008.655	1795.53
1008.948	1778.13
1009.242	1766.15
1009.535	1783.78
1009.829	1730.9
1010.122	1741.07
1010.415	1756.44
1010.708	1740.39
1011.001	1726.16
1011.295	1704.01
1011.588	1688.87
1011.881	1698.59
1012.173	1707.62
1012.466	1661.52
1012.759	1652.26
1013.052	1652.71
1013.344	1619.49
1013.637	1617.23
1013.93	1621.53
1014.222	1621.75
1014.514	1611.36
1014.807	1611.36
1015.099	1555.09
1015.391	1566.61
1015.683	1558.02
1015.976	1551.7
1016.268	1533.39
1016.56	1528.42
1016.851	1494.52
1017.143	1540.85
1017.435	1495.65
1017.727	1496.1
1018.018	1500.17
1018.31	1475.31
1018.602	1481.19
1018.893	1453.39
1019.185	1441.19
1019.476	1424.47
1019.767	1446.84
1020.058	1398.71
1020.35	1391.25
1020.641	1391.25
1020.932	1401.19
1021.223	1358.48
1021.514	1356.67
1021.804	1361.87
1022.095	1377.24
1022.386	1345.37
1022.677	1356.22
1022.967	1342.66
1023.258	1309.67
1023.548	1332.72
1023.839	1305.6
1024.129	1284.81
1024.419	1292.72
1024.709	1272.83
1025	1288.2
1025.29	1241.42
1025.58	1257.24
1025.87	1243.68
1026.16	1256.34
1026.449	1238.94
1026.739	1226.06
1027.029	1222.21
1027.319	1201.65
1027.608	1215.21
1027.898	1167.75
1028.187	1180.63
1028.477	1156.45
1028.766	1161.2
1029.055	1168.2
1029.344	1156.9
1029.634	1137.24
1029.923	1123.69
1030.212	1130.01
1030.501	1139.5
1030.79	1145.15
1031.078	1110.35
1031.367	1117.13
1031.656	1097.25
1031.945	1085.49
1032.233	1102.22
1032.522	1106.51
1032.81	1080.07
1033.099	1097.92
1033.387	1060.18
1033.675	1049.34
1033.963	1044.59
1034.251	1039.39
1034.54	1027.19
1034.828	1019.28
1035.116	1012.73
1035.403	1026.29
1035.691	1011.6
1035.979	1007.08
1036.267	988.32
1036.554	981.09
1036.842	1003.46
1037.129	986.51
1037.417	954.88
1037.704	976.12
1037.992	946.51
1038.279	938.83
1038.566	950.58
1038.853	950.58
1039.14	950.58
