Data from hue_150_FLMS001491_00044.txt Node
Date: Tue Feb 07 16:54:05 GMT 2017
User: dcchb
Spectrometer: FLMS00149
Trigger mode: 0
Integration Time (sec): 2.000000E-2
Scans to average: 10
Electric dark correction enabled: true
Nonlinearity correction enabled: false
Boxcar width: 0
XAxis mode: Wavelengths
Number of Pixels in Spectrum: 2048
>>>>>Begin Spectral Data<<<<<
341.393	1.47
341.776	1.47
342.16	1.47
342.543	-74.91
342.927	-66.33
343.31	-62.94
343.693	-67.91
344.077	-59.32
344.46	-61.13
344.843	-71.07
345.226	-38.53
345.61	-32.88
345.993	-21.36
346.376	6.67
346.759	3.28
347.142	39.89
347.525	42.15
347.908	49.6
348.291	64.29
348.674	101.13
349.057	108.13
349.44	123.73
349.823	148.81
350.206	146.1
350.588	177.74
350.971	215.93
351.354	222.71
351.737	251.41
352.119	227.9
352.502	254.12
352.884	275.59
353.267	267.45
353.65	294.12
354.032	316.49
354.414	312.65
354.797	316.71
355.179	301.35
355.562	311.07
355.944	325.53
356.326	319.65
356.709	319.43
357.091	353.55
357.473	360.78
357.855	329.6
358.238	327.34
358.62	337.96
359.002	354
359.384	303.83
359.766	315.13
360.148	339.31
360.53	339.99
360.912	314.68
361.294	332.31
361.676	331.4
362.057	332.31
362.439	345.41
362.821	321.23
363.203	332.53
363.584	321.91
363.966	313.78
364.348	302.93
364.729	319.65
365.111	307.45
365.493	316.26
365.874	299.09
366.256	306.55
366.637	296.38
367.019	339.99
367.4	321.23
367.781	323.95
368.163	327.34
368.544	309.26
368.925	296.83
369.306	325.3
369.688	302.03
370.069	310.39
370.45	304.96
370.831	324.4
371.212	303.83
371.593	304.29
371.974	313.1
372.355	309.71
372.736	326.43
373.117	323.04
373.498	301.8
373.879	320.56
374.26	320.56
374.641	299.99
375.021	296.38
375.402	304.29
375.783	312.42
376.163	318.52
376.544	319.88
376.925	306.55
377.305	302.25
377.686	314.68
378.066	323.04
378.447	332.08
378.827	343.38
379.208	327.79
379.588	333.66
379.968	330.5
380.349	320.33
380.729	317.62
381.109	318.07
381.489	335.25
381.87	338.64
382.25	340.67
382.63	329.14
383.01	352.87
383.39	345.87
383.77	352.87
384.15	356.71
384.53	348.8
384.91	338.18
385.29	328.92
385.67	356.94
386.049	360.33
386.429	366.21
386.809	355.13
387.189	355.36
387.568	348.58
387.948	335.02
388.328	352.65
388.707	341.35
389.087	368.46
389.466	353.55
389.846	360.1
390.225	360.78
390.605	347.45
390.984	367.11
391.363	358.97
391.743	361.23
392.122	384.28
392.501	372.98
392.881	383.83
393.26	372.53
393.639	351.29
394.018	370.5
394.397	363.27
394.776	373.89
395.155	373.66
395.534	387.22
395.913	366.88
396.292	383.38
396.671	382.25
397.05	383.61
397.429	390.39
397.808	390.84
398.186	386.09
398.565	382.7
398.944	374.79
399.323	373.89
399.701	373.66
400.08	400.1
400.458	392.19
400.837	397.16
401.215	405.3
401.594	413.89
401.972	393.1
402.351	410.5
402.729	415.02
403.107	393.55
403.486	418.41
403.864	414.79
404.242	419.54
404.62	410.05
404.999	400.78
405.377	449.14
405.755	429.93
406.133	431.51
406.511	424.96
406.889	426.99
407.267	453.89
407.645	439.2
408.023	440.55
408.401	458.63
408.779	430.38
409.156	431.97
409.534	458.41
409.912	462.7
410.29	452.3
410.667	469.25
411.045	454.79
411.422	465.86
411.8	463.38
412.178	444.4
412.555	452.08
412.933	468.35
413.31	472.19
413.687	476.03
414.065	486.2
414.442	472.64
414.819	495.92
415.197	510.38
415.574	499.08
415.951	511.74
416.328	483.04
416.705	492.76
417.082	498.18
417.46	499.76
417.837	521.23
418.214	514.9
418.591	522.81
418.967	523.26
419.344	532.98
419.721	539.53
420.098	549.48
420.475	525.07
420.852	496.37
421.228	558.52
421.605	537.05
421.982	550.38
422.358	543.83
422.735	570.72
423.111	568.46
423.488	560.1
423.864	565.07
424.241	568.01
424.617	594.45
424.994	582.02
425.37	587.89
425.746	608.68
426.123	586.54
426.499	601.45
426.875	590.61
427.251	617.95
427.627	611.85
428.003	623.15
428.379	643.94
428.756	626.09
429.132	622.47
429.507	637.16
429.883	637.84
430.259	632.41
430.635	654.11
431.011	637.84
431.387	681.9
431.763	666.54
432.138	691.17
432.514	698.63
432.89	708.57
433.265	724.16
433.641	704.05
434.016	736.82
434.392	700.89
434.767	726.2
435.143	737.04
435.518	717.83
435.894	750.15
436.269	759.19
436.644	743.6
437.02	770.26
437.395	769.36
437.77	797.15
438.145	780.43
438.52	796.25
438.895	815.91
439.271	810.26
439.646	810.04
440.021	821.79
440.395	809.36
440.77	813.88
441.145	812.52
441.52	836.48
441.895	833.76
442.27	854.78
442.645	860.2
443.019	853.65
443.394	850.26
443.769	861.56
444.143	867.66
444.518	888
444.892	878.06
445.267	874.21
445.641	911.73
446.016	889.58
446.39	906.76
446.764	896.36
447.139	913.54
447.513	928.22
447.887	935.23
448.262	929.13
448.636	926.42
449.01	952.4
449.384	961.9
449.758	955.34
450.132	965.74
450.506	964.16
450.88	972.29
451.254	985.62
451.628	1003.7
452.002	1008.67
452.376	1013.65
452.75	1020.65
453.123	1018.84
453.497	1061.33
453.871	1038.28
454.244	1069.92
454.618	1068.33
454.992	1079.18
455.365	1100.88
455.739	1115.56
456.112	1109.91
456.486	1151.27
456.859	1148.78
457.232	1178.16
457.606	1157.14
457.979	1197.6
458.352	1219.06
458.725	1202.57
459.099	1239.85
459.472	1252.28
459.845	1251.15
460.218	1257.03
460.591	1298.38
460.964	1300.87
461.337	1322.11
461.71	1331.6
462.083	1369.34
462.456	1358.95
462.829	1356.01
463.201	1398.04
463.574	1403.47
463.947	1433.3
464.32	1447.53
464.692	1440.08
465.065	1502.45
465.438	1490.47
465.81	1556.91
466.183	1536.12
466.555	1589.22
466.928	1590.13
467.3	1613.63
467.672	1666.51
468.045	1665.61
468.417	1698.83
468.789	1696.57
469.161	1704.25
469.534	1764.81
469.906	1829.22
470.278	1818.82
470.65	1854.08
471.022	1899.95
471.394	1920.97
471.766	1956.22
472.138	2017.46
472.51	2040.29
472.882	2094.75
473.253	2118.25
473.625	2152.15
473.997	2225.14
474.369	2264.01
474.74	2280.28
475.112	2351.69
475.484	2415.42
475.855	2448.18
476.227	2499.71
476.598	2588.52
476.97	2651.34
477.341	2676.2
477.713	2758.23
478.084	2808.17
478.455	2913.48
478.827	2927.95
479.198	3086.13
479.569	3096.3
479.94	3199.8
480.311	3253.59
480.682	3417.65
481.053	3465.33
481.424	3559.12
481.795	3657.87
482.166	3746.91
482.537	3820.58
482.908	3924.08
483.279	3985.32
483.65	4107.35
484.021	4283.39
484.391	4345.76
484.762	4396.16
485.133	4474.12
485.503	4631.4
485.874	4760.21
486.244	4879.76
486.615	5017.16
486.985	5124.05
487.356	5241.78
487.726	5346.87
488.097	5533.53
488.467	5530.36
488.837	5762.45
489.207	5899.62
489.578	5990.69
489.948	6141.87
490.318	6260.06
490.688	6384.58
491.058	6513.61
491.428	6667.06
491.798	6791.35
492.168	6946.6
492.538	7068.4
492.908	7192.47
493.278	7323.54
493.648	7438.79
494.017	7523.08
494.387	7644.66
494.757	7833.58
495.126	7956.74
495.496	8104.98
495.866	8149.5
496.235	8314.24
496.605	8443.73
496.974	8520.11
497.344	8614.35
497.713	8792.2
498.082	8854.12
498.452	8950.84
498.821	9070.16
499.19	9178.18
499.559	9280.77
499.928	9398.51
500.298	9498.39
500.667	9548.56
501.036	9557.83
501.405	9688.67
501.774	9798.27
502.143	9871.94
502.512	9956.46
502.88	10087.08
503.249	10203.69
503.618	10257.47
503.987	10274.87
504.356	10393.29
504.724	10489.78
505.093	10542.89
505.462	10610.68
505.83	10703.79
506.199	10721.41
506.567	10911.01
506.936	10977.23
507.304	11139.48
507.672	11063.55
508.041	11151.01
508.409	11194.85
508.777	11260.83
509.145	11494.05
509.514	11452.69
509.882	11477.78
510.25	11458.57
510.618	11566.81
510.986	11586.02
511.354	11704.89
511.722	11721.61
512.09	11862.85
512.458	11842.97
512.826	11976.97
513.193	11969.74
513.561	11988.72
513.929	12109.17
514.297	12190.75
514.664	12214.03
515.032	12265.33
515.4	12320.92
515.767	12337.87
516.135	12382.16
516.502	12332.44
516.869	12510.52
517.237	12477.75
517.604	12494.25
517.972	12558.65
518.339	12544.42
518.706	12576.51
519.073	12524.98
519.44	12582.16
519.808	12705.77
520.175	12774.01
520.542	12859.89
520.909	12900.79
521.276	12882.03
521.643	12914.58
522.009	12908.25
522.376	13041.8
522.743	13038.87
523.11	13123.38
523.477	13167
523.843	13196.38
524.21	13268.01
524.577	13331.29
524.943	13286.32
525.31	13352.53
525.676	13458.97
526.043	13421.68
526.409	13425.3
526.776	13432.75
527.142	13489.02
527.508	13471.4
527.874	13533.99
528.241	13533.09
528.607	13589.36
528.973	13610.6
529.339	13596.37
529.705	13625.74
530.071	13765.63
530.437	13600.66
530.803	13726.08
531.169	13753.65
531.535	13680.88
531.901	13713.2
532.267	13705.29
532.632	13713.2
532.998	13661.9
533.364	13650.15
533.73	13637.27
534.095	13706.42
534.461	13647.44
534.826	13594.11
535.192	13668.23
535.557	13714.33
535.923	13687.21
536.288	13641.34
536.653	13590.49
537.019	13561.34
537.384	13562.02
537.749	13564.05
538.114	13497.84
538.479	13484.05
538.845	13518.18
539.21	13465.07
539.575	13363.38
539.94	13362.47
540.305	13363.6
540.67	13233.21
541.034	13279.31
541.399	13275.47
541.764	13242.02
542.129	13277.5
542.494	13259.2
542.858	13258.52
543.223	13175.36
543.587	13138.07
543.952	13146.66
544.316	13041.13
544.681	13125.87
545.045	13061.92
545.41	13134.23
545.774	13023.5
546.138	13012.2
546.503	12978.3
546.867	12877.51
547.231	12961.58
547.595	12930.17
547.959	12840
548.324	12764.07
548.688	12804.97
549.052	12766.11
549.416	12809.04
549.779	12666.45
550.143	12659.44
550.507	12694.24
550.871	12752.32
551.235	12630.52
551.599	12695.15
551.962	12655.15
552.326	12552.78
552.689	12622.38
553.053	12528.6
553.417	12569.05
553.78	12623.06
554.143	12513
554.507	12508.48
554.87	12504.87
555.234	12532.89
555.597	12397.53
555.96	12477.3
556.323	12521.14
556.686	12443.4
557.05	12472.1
557.413	12440.01
557.776	12383.06
558.139	12416.28
558.502	12418.09
558.865	12328.6
559.228	12482.72
559.59	12376.51
559.953	12465.1
560.316	12499.45
560.679	12507.58
561.041	12420.35
561.404	12468.26
561.767	12482.95
562.129	12453.57
562.492	12519.33
562.854	12461.25
563.217	12445.21
563.579	12464.42
563.941	12547.35
564.304	12505.32
564.666	12574.7
565.028	12511.42
565.39	12564.75
565.753	12612.66
566.115	12525.43
566.477	12553.91
566.839	12609.5
567.201	12595.26
567.563	12649.5
567.925	12660.35
568.287	12621.02
568.648	12649.05
569.01	12646.33
569.372	12738.54
569.734	12654.7
570.095	12680.91
570.457	12702.83
570.819	12771.08
571.18	12713
571.542	12783.05
571.903	12823.28
572.265	12831.64
572.626	12813.11
572.987	12689.5
573.349	12811.08
573.71	12829.83
574.071	12839.78
574.432	12844.3
574.794	12863.73
575.155	12832.77
575.516	12830.96
575.877	12894.69
576.238	12890.4
576.599	12952.77
576.96	12917.06
577.32	12899.89
577.681	12908.25
578.042	12977.85
578.403	12938.3
578.763	12956.16
579.124	12901.69
579.485	12941.69
579.845	12910.06
580.206	12965.2
580.566	12924.97
580.927	12901.69
581.287	12996.83
581.648	12951.41
582.008	13014.01
582.368	12967.91
582.728	12965.42
583.089	12961.13
583.449	12929.49
583.809	12949.38
584.169	13023.05
584.529	12941.69
584.889	12911.86
585.249	12908.47
585.609	12823.28
585.969	12971.98
586.329	12872.32
586.688	12916.16
587.048	12919.55
587.408	12846.78
587.768	12894.92
588.127	12761.81
588.487	12867.35
588.846	12908.25
589.206	12814.47
589.565	12826.89
589.925	12916.84
590.284	12853.79
590.643	12861.92
591.003	12874.12
591.362	12819.89
591.721	12834.58
592.08	12845.2
592.44	12864.18
592.799	12853.33
593.158	12835.93
593.517	12754.81
593.876	12814.47
594.235	12787.35
594.593	12764.07
594.952	12786.44
595.311	12691.3
595.67	12706.45
596.029	12791.42
596.387	12782.6
596.746	12826.44
597.104	12770.4
597.463	12661.02
597.822	12752.55
598.18	12684.3
598.538	12626.22
598.897	12763.17
599.255	12688.37
599.613	12809.72
599.972	12715.03
600.33	12738.08
600.688	12733.34
601.046	12782.15
601.404	12690.17
601.762	12800
602.12	12815.14
602.478	12817.4
602.836	12779.21
603.194	12778.99
603.552	12736.05
603.91	12664.86
604.268	12814.01
604.625	12707.12
604.983	12717.07
605.341	12617.86
605.698	12701.7
606.056	12713.9
606.413	12652.66
606.771	12752.32
607.128	12762.04
607.485	12672.1
607.843	12649.27
608.2	12737.18
608.557	12785.54
608.914	12776.27
609.272	12807.23
609.629	12895.14
609.986	12778.76
610.343	12764.07
610.7	12889.94
611.057	12865.54
611.414	12825.76
611.771	12897.63
612.127	12948.47
612.484	12879.55
612.841	12961.58
613.198	12959.09
613.554	12885.42
613.911	12957.29
614.267	12955.48
614.624	12940.56
614.98	12930.39
615.337	13019.21
615.693	12950.51
616.05	12930.17
616.406	12990.28
616.762	12973.56
617.118	12990.73
617.475	12928.13
617.831	13005.42
618.187	13041.13
618.543	13100.79
618.899	13125.87
619.255	13127
619.611	13148.02
619.967	13136.04
620.323	13129.03
620.678	13115.25
621.034	13087.68
621.39	13131.29
621.746	13063.72
622.101	13202.25
622.457	13122.71
622.812	13101.24
623.168	13228.92
623.523	13166.55
623.879	13151.86
624.234	13039.54
624.589	13172.87
624.945	13088.81
625.3	13122.48
625.655	13112.54
626.01	13072.31
626.365	13114.12
626.72	13077.74
627.075	13098.75
627.43	13075.93
627.785	13070.5
628.14	13079.09
628.495	13113.89
628.85	13095.14
629.205	12999.32
629.559	13128.58
629.914	13035.7
630.269	13085.64
630.623	12999.32
630.978	12976.27
631.332	13006.55
631.687	13008.81
632.041	13028.7
632.396	12937.85
632.75	12962.94
633.104	12959.32
633.459	12891.53
633.813	12923.16
634.167	12905.54
634.521	12903.05
634.875	12884.75
635.229	12925.42
635.583	12933.78
635.937	12823.73
636.291	12803.17
636.645	12827.8
636.999	12763.62
637.352	12759.55
637.706	12676.84
638.06	12800.91
638.413	12696.05
638.767	12752.32
639.121	12692.89
639.474	12640.91
639.828	12696.95
640.181	12687.91
640.534	12647.01
640.888	12588.26
641.241	12634.81
641.594	12630.06
641.947	12665.32
642.301	12609.5
642.654	12619.67
643.007	12646.79
643.36	12565.43
643.713	12488.15
644.066	12567.01
644.419	12556.62
644.771	12342.16
645.124	12341.03
645.477	12243.18
645.83	12164.31
646.182	12240.24
646.535	12094.48
646.888	12156.4
647.24	12012.23
647.593	12168.38
647.945	12099.91
648.298	11968.61
648.65	12061.26
649.002	12014.26
649.355	12173.35
649.707	12046.8
650.059	12233.69
650.411	12310.52
650.763	12310.52
651.115	12433.68
651.467	12449.73
651.819	12331.99
652.171	12396.62
652.523	12380.58
652.875	12352.1
653.227	12347.81
653.578	12413.8
653.93	12413.57
654.282	12306.91
654.633	12313.46
654.985	12313.01
655.337	12350.07
655.688	12358.43
656.039	12359.56
656.391	12262.62
656.742	12320.24
657.094	12320.47
657.445	12385.1
657.796	12357.75
658.147	12335.16
658.498	12318.43
658.849	12293.58
659.2	12341.26
659.551	12321.6
659.902	12324.08
660.253	12326.34
660.604	12400.69
660.955	12334.48
661.306	12351.88
661.656	12365.21
662.007	12339.22
662.358	12412.22
662.708	12401.59
663.059	12429.16
663.409	12249.73
663.76	12415.83
664.11	12393.46
664.461	12381.26
664.811	12402.95
665.161	12400.01
665.511	12414.02
665.862	12304.42
666.212	12416.51
666.562	12384.19
666.912	12413.8
667.262	12382.39
667.612	12371.77
667.962	12404.08
668.312	12321.37
668.662	12395.95
669.011	12374.93
669.361	12365.89
669.711	12309.39
670.06	12283.18
670.41	12350.52
670.76	12296.06
671.109	12377.64
671.459	12396.62
671.808	12288.38
672.157	12345.33
672.507	12207.7
672.856	12300.35
673.205	12240.7
673.554	12279.34
673.904	12214.48
674.253	12341.26
674.602	12306
674.951	12173.35
675.3	12016.52
675.649	12246.57
675.998	12228.72
676.346	12219.9
676.695	12281.82
677.044	12148.95
677.393	12235.72
677.741	12228.72
678.09	12204.76
678.438	12172.9
678.787	12120.25
679.135	12175.39
679.484	12075.05
679.832	12065.33
680.181	11993.24
680.529	12083.41
680.877	12000.25
681.225	11918.44
681.573	11971.55
681.922	11890.87
682.27	11880.25
682.618	11884.32
682.966	11866.02
683.314	11909.86
683.661	11765.68
684.009	11711.67
684.357	11718.9
684.705	11696.53
685.053	11649.3
685.4	11762.06
685.748	11651.33
686.095	11630.77
686.443	11633.03
686.79	11581.96
687.138	11555.97
687.485	11583.09
687.832	11527.72
688.18	11569.53
688.527	11538.57
688.874	11403.65
689.221	11433.94
689.568	11336.54
689.915	11294.28
690.262	11280.95
690.609	11323.43
690.956	11219.25
691.303	11286.6
691.65	11168.63
691.997	11187.16
692.344	11175.19
692.69	11020.61
693.037	11137.45
693.383	10951.01
693.73	11058.58
694.077	10984.23
694.423	10973.38
694.769	10889.77
695.116	10804.35
695.462	10903.1
695.808	10806.38
696.155	10802.54
696.501	10757.34
696.847	10700.62
697.193	10611.13
697.539	10670.34
697.885	10564.81
698.231	10478.71
698.577	10566.84
698.923	10506.5
699.269	10445.04
699.614	10406.39
699.96	10348.77
700.306	10305.83
700.651	10278.94
700.997	10229.67
701.342	10214.76
701.688	10129.34
702.033	10157.59
702.379	10149
702.724	10113.07
703.069	10109.68
703.415	9999.85
703.76	9967.08
704.105	9990.36
704.45	9954.88
704.795	9922.11
705.14	9806.86
705.485	9857.93
705.83	9802.12
706.175	9838.72
706.52	9732.06
706.865	9743.59
707.209	9720.76
707.554	9684.6
707.899	9679.63
708.243	9595.57
708.588	9587.21
708.932	9592.18
709.277	9479.41
709.621	9570.03
709.966	9481.45
710.31	9474.44
710.654	9386.31
710.998	9459.53
711.342	9367.78
711.687	9367.32
712.031	9315.12
712.375	9328.23
712.719	9347.89
713.063	9375.23
713.407	9365.74
713.75	9299.76
714.094	9254.11
714.438	9208.46
714.782	9243.94
715.125	9219.98
715.469	9278.97
715.812	9086.65
716.156	9102.7
716.499	9096.37
716.843	9109.25
717.186	9085.75
717.53	9144.96
717.873	9134.56
718.216	9006.88
718.559	9018.63
718.902	8951.06
719.246	9004.4
719.589	8955.36
719.932	8929.6
720.275	8926.66
720.617	8931.63
720.96	8951.97
721.303	8963.95
721.646	8899.99
721.989	8884.17
722.331	8918.75
722.674	8813.89
723.016	8839.88
723.359	8744.06
723.701	8854.12
724.044	8790.16
724.386	8708.36
724.729	8859.54
725.071	8798.07
725.413	8773.44
725.755	8789.03
726.097	8709.94
726.439	8737.74
726.782	8774.57
727.124	8808.69
727.465	8703.16
727.807	8730.05
728.149	8747.45
728.491	8656.16
728.833	8767.34
729.175	8690.28
729.516	8716.04
729.858	8613.45
730.199	8732.54
730.541	8661.81
730.882	8663.84
731.224	8659.55
731.565	8712.43
731.906	8674.46
732.248	8683.95
732.589	8632.2
732.93	8593.56
733.271	8683.05
733.612	8603.05
733.953	8588.14
734.294	8624.74
734.635	8602.37
734.976	8660.22
735.317	8603.73
735.658	8656.61
735.999	8610.28
736.339	8608.25
736.68	8668.36
737.021	8650.73
737.361	8630.39
737.702	8658.42
738.042	8641.02
738.383	8653.9
738.723	8623.16
739.063	8638.3
739.404	8667
739.744	8613.9
740.084	8647.12
740.424	8644.18
740.764	8686.66
741.104	8750.62
741.444	8667.68
741.784	8662.26
742.124	8783.61
742.464	8837.85
742.804	8748.36
743.143	8788.36
743.483	8822.03
743.823	8818.19
744.162	8846.66
744.502	8888.92
744.841	8872.87
745.181	8937.05
745.52	8901.12
745.86	8949.71
746.199	8996.26
746.538	9030.61
746.877	9084.85
747.216	9123.49
747.556	9131.62
747.895	9185.86
748.234	9259.3
748.573	9313.99
748.911	9276.93
749.25	9339.75
749.589	9386.76
749.928	9471.95
750.267	9590.37
750.605	9564.16
750.944	9600.09
751.283	9710.59
751.621	9834.66
751.96	9904.71
752.298	10009.12
752.636	10057.93
752.975	10107.64
753.313	10155.55
753.651	10296.11
753.989	10360.07
754.327	10480.06
754.666	10523.68
755.004	10696.78
755.342	10755.08
755.679	10891.13
756.017	11005.93
756.355	11166.37
756.693	11292.7
757.031	11413.82
757.368	11496.76
757.706	11597.55
758.044	11789.18
758.381	11927.48
758.719	12084.09
759.056	12283.18
759.394	12348.94
759.731	12506
760.068	12677.07
760.405	12789.16
760.743	12869.61
761.08	13048.58
761.417	13171.74
761.754	13441.34
762.091	13544.62
762.428	13649.25
762.765	13841.1
763.102	14046.98
763.438	14071.83
763.775	14226.41
764.112	14350.47
764.449	14603.12
764.785	14743.45
765.122	14853.51
765.458	14967.86
765.795	15061.19
766.131	15246.27
766.467	15275.87
766.804	15385.47
767.14	15593.83
767.476	15659.81
767.812	15904.1
768.148	16027.71
768.485	15999.92
768.821	16204.43
769.157	16288.27
769.492	16424.09
769.828	16512.67
770.164	16594.48
770.5	16677.19
770.836	16827.92
771.171	16807.81
771.507	16959.22
771.842	16939.78
772.178	17163.73
772.513	17191.75
772.849	17230.62
773.184	17304.74
773.519	17444.4
773.855	17461.35
774.19	17538.18
774.525	17535.7
774.86	17690.95
775.195	17715.81
775.53	17771.62
775.865	17768.23
776.2	17730.72
776.535	17798.52
776.87	17952.18
777.205	17881.45
777.539	17801.23
777.874	17967.78
778.209	17895.69
778.543	18034.22
778.878	17990.37
779.212	17962.58
779.547	17968.91
779.881	18179.97
780.215	17985.63
780.55	18118.73
780.884	18025.63
781.218	18010.49
781.552	18145.17
781.886	18156.7
782.22	18008.91
782.554	18104.72
782.888	17979.98
783.222	17896.82
783.556	17921.68
783.889	17939.53
784.223	17869.25
784.557	17933.65
784.89	18056.81
785.224	17892.98
785.557	17837.84
785.891	17862.69
786.224	17807.78
786.558	18008.45
786.891	17813.88
787.224	17749.7
787.557	17762.58
787.891	17737.5
788.224	17753.77
788.557	17772.53
788.89	17643.49
789.223	17767.1
789.556	17597.39
789.888	17678.74
790.221	17652.3
790.554	17478.3
790.887	17482.37
791.219	17457.73
791.552	17438.52
791.884	17408.92
792.217	17340.67
792.549	17333.89
792.882	17264.07
793.214	17185.2
793.546	17274.24
793.879	17167.57
794.211	17102.71
794.543	17205.54
794.875	17077.86
795.207	17099.1
795.539	17057.07
795.871	17068.36
796.203	16913.79
796.535	16779.78
796.867	16752.21
797.198	16831.99
797.53	16846.45
797.862	16727.81
798.193	16743.63
798.525	16600.35
798.856	16749.73
799.188	16507.25
799.519	16523.75
799.85	16382.51
800.182	16416.86
800.513	16477.19
800.844	16332.56
801.175	16420.47
801.506	16405.56
801.837	16299.12
802.168	16223.87
802.499	16319.91
802.83	16136.19
803.161	16159.91
803.491	16142.29
803.822	16141.61
804.153	16078.79
804.483	15919.47
804.814	16001.95
805.145	15853.48
805.475	15903.42
805.805	15818.45
806.136	15755.63
806.466	15794.27
806.796	15800.83
807.126	15708.17
807.457	15597.67
807.787	15653.71
808.117	15428.86
808.447	15445.81
808.777	15595.18
809.107	15466.6
809.436	15472.02
809.766	15402.19
810.096	15402.19
810.426	15305.47
810.755	15327.85
811.085	15298.47
811.414	15257.11
811.744	15163.33
812.073	15180.05
812.403	15141.86
812.732	15077.68
813.061	15051.69
813.39	15011.24
813.719	15017.57
814.049	15072.49
814.378	14997.46
814.707	15007.4
815.036	14931.25
815.365	14846.05
815.693	14720.86
816.022	14742.32
816.351	14726.96
816.68	14639.5
817.008	14728.99
817.337	14616.68
817.665	14574.65
817.994	14602.67
818.322	14589.56
818.651	14574.42
818.979	14461.43
819.307	14527.41
819.636	14538.26
819.964	14410.13
820.292	14556.34
820.62	14354.31
820.948	14400.41
821.276	14516.57
821.604	14420.07
821.932	14427.3
822.259	14453.97
822.587	14507.98
822.915	14401.32
823.243	14498.04
823.57	14339.62
823.898	14391.82
824.225	14375.78
824.553	14390.02
824.88	14280.42
825.207	14422.33
825.535	14346.63
825.862	14443.12
826.189	14352.28
826.516	14465.72
826.843	14452.39
827.17	14434.54
827.497	14386.85
827.824	14404.03
828.151	14466.17
828.478	14460.52
828.805	14565.15
829.131	14390.24
829.458	14448.55
829.785	14367.19
830.111	14322.45
830.438	14406.06
830.764	14399.73
831.09	14438.38
831.417	14338.72
831.743	14421.43
832.069	14360.87
832.395	14272.96
832.722	14374.65
833.048	14315.89
833.374	14323.13
833.7	14301.66
834.026	14232.06
834.351	14273.41
834.677	14285.39
835.003	14210.13
835.329	14228.21
835.654	14254.43
835.98	14192.28
836.306	14250.36
836.631	14089.23
836.956	14314.54
837.282	14175.79
837.607	14189.8
837.932	14130.59
838.258	14094.21
838.583	14103.92
838.908	13984.15
839.233	14009.24
839.558	14051.72
839.883	13926.07
840.208	13912.06
840.533	13879.75
840.858	13955
841.182	13867.32
841.507	13912.29
841.832	13806.08
842.156	13868.67
842.481	13697.61
842.805	13769.24
843.13	13670.26
843.454	13817.83
843.778	13579.42
844.103	13586.2
844.427	13609.92
844.751	13611.96
845.075	13525.86
845.399	13519.76
845.723	13359.99
846.047	13492.87
846.371	13305.3
846.695	13285.64
847.019	13242.7
847.343	13250.16
847.666	13090.84
847.99	13090.62
848.313	13123.16
848.637	12920.68
848.96	12874.35
849.284	12963.61
849.607	12878.19
849.931	12866.22
850.254	12760.68
850.577	12647.69
850.9	12567.24
851.223	12592.1
851.546	12454.7
851.869	12438.43
852.192	12517.3
852.515	12364.99
852.838	12326.12
853.161	12287.93
853.483	12265.1
853.806	12174.26
854.129	12120.47
854.451	12112.56
854.774	12108.04
855.096	11935.62
855.419	12042.51
855.741	11968.16
856.063	11857.88
856.385	11927.26
856.708	11794.38
857.03	11807.03
857.352	11758.22
857.674	11740.6
857.996	11662.18
858.318	11614.04
858.64	11649.3
858.961	11621.73
859.283	11602.52
859.605	11546.48
859.926	11510.77
860.248	11516.19
860.57	11463.09
860.891	11449.98
861.212	11369.76
861.534	11438.91
861.855	11364.79
862.176	11339.7
862.498	11306.26
862.819	11294.73
863.14	11242.53
863.461	11276.43
863.782	11268.97
864.103	11260.38
864.424	11121.85
864.745	11176.54
865.065	11179.48
865.386	11046.83
865.707	11036.43
866.027	11122.53
866.348	11007.28
866.668	11069.65
866.989	11075.98
867.309	11020.16
867.63	10959.37
867.95	10953.5
868.27	10902.65
868.59	10906.04
868.91	10870.34
869.23	10954.4
869.55	10805.7
869.87	10824.91
870.19	10809.55
870.51	10841.18
870.83	10822.65
871.15	10764.12
871.469	10764.35
871.789	10758.7
872.109	10762.99
872.428	10706.5
872.748	10675.31
873.067	10698.81
873.386	10669.66
873.706	10719.38
874.025	10640.06
874.344	10624.92
874.663	10619.27
874.982	10602.55
875.301	10548.76
875.62	10598.48
875.939	10511.25
876.258	10550.8
876.577	10494.07
876.896	10526.39
877.214	10432.38
877.533	10429.22
877.852	10476.9
878.17	10466.28
878.489	10445.71
878.807	10364.59
879.125	10367.75
879.444	10363.46
879.762	10374.08
880.08	10386.51
880.398	10287.3
880.716	10337.47
881.034	10292.05
881.352	10240.52
881.67	10245.27
881.988	10196.23
882.306	10182.44
882.624	10127.98
882.941	10080.98
883.259	10053.18
883.577	10033.07
883.894	10083.46
884.212	10006.86
884.529	10017.48
884.846	9907.2
885.164	9904.71
885.481	10002.56
885.798	9884.15
886.115	9885.28
886.432	9926.86
886.75	9807.99
887.067	9879.18
887.383	9760.76
887.7	9739.29
888.017	9793.98
888.334	9697.03
888.651	9682.8
888.967	9727.09
889.284	9639.18
889.6	9578.17
889.917	9517.38
890.233	9598.28
890.55	9521.44
890.866	9536.13
891.182	9444.84
891.498	9423.14
891.815	9396.7
892.131	9400.77
892.447	9375.01
892.763	9317.61
893.079	9339.3
893.395	9293.88
893.71	9290.72
894.026	9305.18
894.342	9156.93
894.657	9157.61
894.973	9154.22
895.289	9159.87
895.604	9102.02
895.92	8993.55
896.235	9036.49
896.55	9017.73
896.865	9055.47
897.181	8951.74
897.496	8929.6
897.811	8870.84
898.126	8889.82
898.441	8785.42
898.756	8834.23
899.071	8810.73
899.386	8723.95
899.7	8692.99
900.015	8633.78
900.33	8601.47
900.644	8533.22
900.959	8516.95
901.273	8542.94
901.588	8516.05
901.902	8495.03
902.216	8430.17
902.531	8397.86
902.845	8378.65
903.159	8277.64
903.473	8267.92
903.787	8201.25
904.101	8176.17
904.415	8172.78
904.729	8146.79
905.042	8121.26
905.356	8072.9
905.67	8089.17
905.984	8035.38
906.297	8027.25
906.611	7951.99
906.924	7943.86
907.237	7896.18
907.551	7934.37
907.864	7872
908.177	7838.55
908.491	7804.43
908.804	7754.94
909.117	7696.18
909.43	7697.09
909.743	7633.81
910.056	7643.75
910.368	7641.49
910.681	7558.33
910.994	7568.73
911.307	7482.4
911.619	7491.44
911.932	7461.16
912.244	7416.19
912.557	7339.58
912.869	7341.61
913.181	7334.38
913.494	7315.63
913.806	7226.14
914.118	7215.06
914.43	7149.08
914.742	7204.67
915.054	7187.27
915.366	7074.73
915.678	7092.58
915.99	7089.87
916.302	7077.89
916.613	6946.15
916.925	6944.34
917.236	6989.08
917.548	6900.04
917.859	6975.97
918.171	6809.2
918.482	6805.13
918.794	6831.35
919.105	6778.24
919.416	6647.4
919.727	6781.4
920.038	6766.71
920.349	6669.54
920.66	6672.93
920.971	6638.81
921.282	6682.42
921.593	6557.23
921.903	6541.86
922.214	6519.72
922.525	6477
922.835	6429.77
923.146	6372.6
923.456	6411.02
923.767	6384.8
924.077	6434.29
924.387	6342.32
924.697	6310.68
925.008	6298.03
925.318	6230.23
925.628	6244.24
925.938	6164.47
926.248	6146.62
926.558	6154.53
926.867	6156.34
927.177	6110.46
927.487	6053.97
927.796	6015.55
928.106	5997.24
928.416	6007.41
928.725	6004.02
929.034	5954.98
929.344	5958.83
929.653	5953.63
929.962	5913.18
930.271	5812.62
930.581	5814.2
930.89	5800.19
931.199	5769.68
931.508	5810.36
931.817	5776.23
932.125	5724.03
932.434	5709.57
932.743	5670.02
933.051	5630.02
933.36	5621.21
933.669	5602.9
933.977	5564.94
934.286	5580.98
934.594	5559.29
934.902	5525.84
935.21	5458.27
935.519	5482.91
935.827	5418.73
936.135	5405.17
936.443	5381.67
936.751	5387.54
937.059	5358.16
937.367	5359.52
937.674	5294.66
937.982	5284.72
938.29	5251.05
938.597	5252.18
938.905	5172.18
939.213	5153.2
939.52	5145.51
939.827	5169.92
940.135	5097.38
940.442	5084.73
940.749	5064.61
941.056	5058.74
941.363	5020.55
941.67	5043.14
941.977	5018.74
942.284	4970.6
942.591	4945.29
942.898	4950.49
943.205	4887.89
943.511	4911.4
943.818	4901.91
944.125	4839.99
944.431	4835.69
944.738	4819.42
945.044	4805.64
945.35	4782.59
945.657	4737.39
945.963	4697.84
946.269	4667.79
946.575	4686.32
946.881	4640.44
947.187	4628.24
947.493	4623.95
947.799	4596.6
948.105	4596.38
948.41	4550.05
948.716	4592.08
949.022	4523.38
949.327	4517.96
949.633	4469.83
949.938	4477.96
950.244	4470.28
950.549	4414.01
950.854	4423.27
951.16	4391.41
951.465	4366.55
951.77	4343.28
952.075	4354.8
952.38	4291.07
952.685	4350.28
952.99	4298.53
953.294	4320.23
953.599	4240.68
953.904	4254.46
954.209	4219.44
954.513	4195.93
954.818	4197.06
955.122	4191.64
955.426	4130.85
955.731	4140.57
956.035	4049.5
956.339	4081.81
956.643	4091.3
956.948	4059.22
957.252	4043.85
957.556	3983.51
957.86	3980.57
958.163	3997.97
958.467	3970.86
958.771	3957.3
959.075	3926.11
959.378	3883.4
959.682	3896.06
959.985	3897.86
960.289	3833.23
960.592	3857.64
960.896	3848.83
961.199	3819
961.502	3809.5
961.805	3800.69
962.108	3748.94
962.411	3757.53
962.714	3718.43
963.017	3699.45
963.32	3710.98
963.623	3721.6
963.926	3663.52
964.228	3614.93
964.531	3621.03
964.833	3606.8
965.136	3589.85
965.438	3631.66
965.741	3589.85
966.043	3581.04
966.345	3524.09
966.648	3534.94
966.95	3509.4
967.252	3464.65
967.554	3487.93
967.856	3463.98
968.158	3425.11
968.46	3406.13
968.761	3405
969.063	3394.15
969.365	3370.19
969.666	3428.72
969.968	3378.33
970.269	3367.03
970.571	3362.74
970.872	3333.81
971.174	3310.76
971.475	3268.28
971.776	3288.16
972.077	3297.2
972.378	3261.95
972.679	3232.12
972.98	3222.85
973.281	3219.46
973.582	3189.63
973.883	3174.72
974.183	3158.22
974.484	3171.1
974.785	3110.99
975.085	3166.36
975.386	3155.28
975.686	3120.93
975.986	3107.38
976.287	3082.07
976.587	3044.33
976.887	3028.06
977.187	3037.55
977.487	3019.69
977.787	2994.38
978.087	2998.68
978.387	3004.1
978.687	2982.41
978.987	2941.28
979.286	2948.96
979.586	2913.93
979.885	2938.57
980.185	2896.08
980.484	2890.43
980.784	2880.04
981.083	2873.48
981.382	2834.16
981.682	2882.98
981.981	2821.06
982.28	2848.63
982.579	2769.31
982.878	2802.98
983.177	2770.66
983.475	2794.16
983.774	2744.9
984.073	2701.06
984.372	2743.54
984.67	2710.78
984.969	2722.75
985.267	2700.15
985.566	2696.77
985.864	2671.46
986.162	2651.79
986.461	2630.33
986.759	2619.93
987.057	2641.63
987.355	2621.06
987.653	2612.25
987.951	2607.05
988.249	2598.01
988.547	2556.66
988.844	2523.21
989.142	2565.92
989.44	2473.95
989.737	2513.04
990.035	2469.88
990.332	2475.08
990.63	2455.42
990.927	2480.27
991.224	2449.31
991.521	2442.76
991.819	2440.95
992.116	2435.53
992.413	2438.92
992.71	2365.47
993.006	2383.55
993.303	2375.87
993.6	2344.91
993.897	2374.29
994.193	2353.72
994.49	2338.58
994.787	2329.77
995.083	2317.57
995.379	2300.17
995.676	2275.53
995.972	2294.97
996.268	2267.17
996.565	2267.62
996.861	2237.34
997.157	2221.07
997.453	2218.59
997.749	2221.3
998.044	2226.72
998.34	2181.52
998.636	2221.98
998.932	2162.32
999.227	2156.21
999.523	2139.04
999.818	2114.86
1000.114	2108.53
1000.409	2125.71
1000.704	2078.48
1001	2093.84
1001.295	2086.84
1001.59	2097.01
1001.885	2075.76
1002.18	2042.77
1002.475	2048.19
1002.77	2031.92
1003.065	2050.23
1003.359	2020.4
1003.654	2000.74
1003.949	1990.57
1004.243	1951.25
1004.538	1948.54
1004.832	1955.09
1005.127	1927.75
1005.421	1953.96
1005.715	1916.22
1006.009	1900.63
1006.304	1887.3
1006.598	1918.25
1006.892	1916.45
1007.186	1869.89
1007.48	1888.88
1007.773	1837.13
1008.067	1844.36
1008.361	1819.05
1008.655	1817.01
1008.948	1791.48
1009.242	1802.33
1009.535	1762.78
1009.829	1767.3
1010.122	1751.25
1010.415	1756.23
1010.708	1709.67
1011.001	1727.98
1011.295	1733.85
1011.588	1701.99
1011.881	1705.6
1012.173	1683.46
1012.466	1673.97
1012.759	1655.21
1013.052	1637.13
1013.344	1647.75
1013.637	1633.52
1013.93	1627.87
1014.222	1618.15
1014.514	1624.03
1014.807	1606.4
1015.099	1585.61
1015.391	1583.12
1015.683	1575.44
1015.976	1576.79
1016.268	1566.63
1016.56	1525.72
1016.851	1509.68
1017.143	1542.22
1017.435	1503.8
1017.727	1541.32
1018.018	1475.55
1018.31	1485.72
1018.602	1487.08
1018.893	1468.77
1019.185	1441.43
1019.476	1463.13
1019.767	1432.17
1020.058	1447.08
1020.35	1417.02
1020.641	1413.86
1020.932	1396.46
1021.223	1410.7
1021.514	1376.57
1021.804	1381.77
1022.095	1402.56
1022.386	1350.13
1022.677	1358.72
1022.967	1359.4
1023.258	1336.12
1023.548	1339.96
1023.839	1321.66
1024.129	1319.17
1024.419	1296.8
1024.709	1282.11
1025	1299.74
1025.29	1261.32
1025.58	1258.61
1025.87	1250.93
1026.16	1256.35
1026.449	1251.15
1026.739	1228.33
1027.029	1256.58
1027.319	1216.58
1027.608	1196.24
1027.898	1191.04
1028.187	1196.01
1028.477	1217.03
1028.766	1178.39
1029.055	1159.63
1029.344	1170.7
1029.634	1151.95
1029.923	1147.65
1030.212	1136.35
1030.501	1156.69
1030.79	1107.88
1031.078	1113.3
1031.367	1128.9
1031.656	1093.42
1031.945	1082.8
1032.233	1077.82
1032.522	1085.96
1032.81	1079.41
1033.099	1101.78
1033.387	1056.36
1033.675	1028.79
1033.963	1050.71
1034.251	1033.98
1034.54	1006.19
1034.828	1020.43
1035.116	1004.15
1035.403	1022.01
1035.691	999.41
1035.979	1028.79
1036.267	988.56
1036.554	979.3
1036.842	976.81
1037.129	976.13
1037.417	977.94
1037.704	966.87
1037.992	949.01
1038.279	956.47
1038.566	951.73
1038.853	951.73
1039.14	951.73
