Data from hue_170_FLMS001491_00049.txt Node
Date: Tue Feb 07 16:48:45 GMT 2017
User: dcchb
Spectrometer: FLMS00149
Trigger mode: 0
Integration Time (sec): 2.000000E-2
Scans to average: 10
Electric dark correction enabled: true
Nonlinearity correction enabled: false
Boxcar width: 0
XAxis mode: Wavelengths
Number of Pixels in Spectrum: 2048
>>>>>Begin Spectral Data<<<<<
341.393	-11.04
341.776	-11.04
342.16	-11.04
342.543	-62.79
342.927	-86.3
343.31	-55.79
343.693	-63.92
344.077	-62.34
344.46	-54.66
344.843	-55.56
345.226	-31.16
345.61	-29.12
345.993	-20.54
346.376	-18.5
346.759	4.77
347.142	24.43
347.525	29.63
347.908	61.95
348.291	68.05
348.674	92
349.057	110.76
349.44	125.67
349.823	162.74
350.206	153.24
350.588	200.7
350.971	222.85
351.354	233.47
351.737	233.92
352.119	243.19
352.502	247.03
352.884	275.28
353.267	280.7
353.65	280.47
354.032	298.78
354.414	320.02
354.797	311.21
355.179	319.79
355.562	326.8
355.944	325.44
356.326	334.93
356.709	329.51
357.091	341.04
357.473	338.78
357.855	331.32
358.238	346.69
358.62	354.14
359.002	339.68
359.384	359.11
359.766	315.95
360.148	327.7
360.53	341.04
360.912	320.7
361.294	317.76
361.676	315.73
362.057	314.82
362.439	343.3
362.821	312.56
363.203	339.23
363.584	327.7
363.966	321.6
364.348	305.56
364.729	331.32
365.111	319.34
365.493	287.48
365.874	310.08
366.256	317.53
366.637	334.03
367.019	323.86
367.4	312.34
367.781	324.54
368.163	299.23
368.544	282.96
368.925	299.91
369.306	319.57
369.688	324.77
370.069	310.75
370.45	316.18
370.831	319.12
371.212	314.37
371.593	320.7
371.974	294.71
372.355	306.69
372.736	330.42
373.117	340.58
373.498	315.73
373.879	331.09
374.26	301.26
374.641	313.92
375.021	303.52
375.402	307.36
375.783	321.38
376.163	323.86
376.544	326.35
376.925	336.06
377.305	323.18
377.686	322.96
378.066	323.64
378.447	316.18
378.827	320.47
379.208	309.62
379.588	335.61
379.968	334.71
380.349	323.86
380.729	334.71
381.109	338.1
381.489	345.78
381.87	342.39
382.25	339.91
382.63	341.04
383.01	341.04
383.39	330.19
383.77	360.24
384.15	346.69
384.53	342.84
384.91	357.31
385.29	345.33
385.67	329.06
386.049	352.11
386.429	366.57
386.809	345.33
387.189	347.14
387.568	354.14
387.948	347.36
388.328	358.44
388.707	359.34
389.087	376.74
389.466	369.28
389.846	355.27
390.225	387.14
390.605	384.42
390.984	349.4
391.363	343.3
391.743	364.76
392.122	365.67
392.501	372
392.881	390.3
393.26	368.38
393.639	402.5
394.018	400.47
394.397	386.01
394.776	379.45
395.155	369.96
395.534	398.44
395.913	372
396.292	407.25
396.671	411.54
397.05	416.29
397.429	397.08
397.808	407.93
398.186	404.76
398.565	388.94
398.944	403.18
399.323	407.93
399.701	395.72
400.08	418.1
400.458	425.55
400.837	428.04
401.215	400.92
401.594	415.61
401.972	427.14
402.351	405.44
402.729	416.06
403.107	415.16
403.486	425.78
403.864	450.19
404.242	437.08
404.62	431.66
404.999	444.54
405.377	433.24
405.755	433.46
406.133	445.44
406.511	443.41
406.889	442.73
407.267	466.91
407.645	460.36
408.023	457.64
408.401	456.74
408.779	480.69
409.156	482.73
409.534	480.24
409.912	483.86
410.29	493.35
410.667	489.28
411.045	507.36
411.422	516.62
411.8	510.52
412.178	487.7
412.555	529.28
412.933	530.86
413.31	540.13
413.687	547.36
414.065	528.6
414.442	565.66
414.819	529.28
415.197	548.71
415.574	553.69
415.951	572.67
416.328	566.12
416.705	564.53
417.082	586.45
417.46	577.19
417.837	592.33
418.214	597.3
418.591	584.42
418.967	591.43
419.344	579.67
419.721	593.01
420.098	627.13
420.475	616.51
420.852	637.53
421.228	615.83
421.605	620.8
421.982	634.36
422.358	677.3
422.735	654.93
423.111	680.91
423.488	671.2
423.864	692.44
424.241	676.85
424.617	710.52
424.994	684.98
425.37	705.55
425.746	711.42
426.123	706.9
426.499	720.69
426.875	750.52
427.251	767.24
427.627	758.65
428.003	773.12
428.379	761.82
428.756	775.15
429.132	774.25
429.507	784.41
429.883	782.83
430.259	797.52
430.635	808.82
431.011	825.32
431.387	830.97
431.763	833.45
432.138	828.26
432.514	877.97
432.89	877.52
433.265	889.95
433.641	899.89
434.016	892.43
434.392	940.57
434.767	924.3
435.143	910.29
435.518	957.29
435.894	954.35
436.269	985.54
436.644	973.79
437.02	973.11
437.395	999.32
437.77	1013.11
438.145	1017.18
438.52	1021.47
438.895	1037.97
439.271	1075.48
439.646	1058.31
440.021	1090.62
440.395	1096.95
440.77	1078.19
441.145	1086.1
441.52	1137.63
441.895	1136.27
442.27	1122.48
442.645	1142.82
443.019	1149.15
443.394	1161.13
443.769	1188.92
444.143	1165.65
444.518	1204.06
444.892	1179.21
445.267	1209.49
445.641	1236.61
446.016	1221.01
446.39	1231.18
446.764	1237.28
447.139	1263.5
447.513	1277.96
447.887	1254.68
448.262	1243.39
448.636	1302.59
449.01	1309.15
449.384	1317.28
449.758	1315.02
450.132	1334.68
450.506	1364.96
450.88	1366.32
451.254	1355.47
451.628	1373.1
452.002	1385.98
452.376	1421.46
452.75	1425.75
453.123	1449.48
453.497	1471.85
453.871	1475.47
454.244	1499.2
454.618	1494.9
454.992	1529.03
455.365	1532.87
455.739	1547.11
456.112	1571.96
456.486	1577.84
456.859	1609.93
457.232	1629.36
457.606	1644.28
457.979	1653.32
458.352	1693.54
458.725	1759.98
459.099	1761.34
459.472	1765.18
459.845	1790.04
460.218	1811.96
460.591	1828.45
460.964	1830.04
461.337	1877.04
461.71	1890.6
462.083	1944.16
462.456	1925.63
462.829	1957.72
463.201	2017.6
463.574	1989.58
463.947	2068.22
464.32	2073.87
464.692	2102.12
465.065	2112.29
465.438	2153.42
465.81	2196.81
466.183	2225.28
466.555	2301.66
466.928	2264.6
467.3	2284.49
467.672	2346.18
468.045	2403.13
468.417	2450.36
468.789	2459.85
469.161	2526.97
469.534	2560.19
469.906	2599.28
470.278	2617.81
470.65	2670.24
471.022	2742.56
471.394	2787.75
471.766	2822.1
472.138	2846.06
472.51	2973.06
472.882	2994.98
473.253	3075.2
473.625	3082.21
473.997	3185.93
474.369	3193.84
474.74	3265.71
475.112	3338.47
475.484	3421.63
475.855	3492.37
476.227	3545.7
476.598	3640.84
476.97	3650.1
477.341	3785.92
477.713	3874.5
478.084	3943.43
478.455	4039.02
478.827	4097.55
479.198	4278.11
479.569	4290.76
479.94	4437.65
480.311	4495.05
480.682	4602.62
481.053	4728.94
481.424	4845.32
481.795	4952.21
482.166	5028.6
482.537	5110.85
482.908	5303.17
483.279	5336.84
483.65	5492.99
484.021	5626.55
484.391	5702.03
484.762	5826.99
485.133	5922.81
485.503	6021.56
485.874	6189.47
486.244	6260.43
486.615	6494.55
486.985	6540.42
487.356	6717.59
487.726	6796.46
488.097	6987.87
488.467	6993.06
488.837	7229.44
489.207	7343.11
489.578	7514.63
489.948	7631.01
490.318	7737.45
490.688	7823.55
491.058	7979.48
491.428	8171.34
491.798	8239.81
492.168	8426.47
492.538	8490.88
492.908	8647.26
493.278	8815.62
493.648	8761.15
494.017	9041.82
494.387	9125.89
494.757	9261.25
495.126	9349.39
495.496	9431.19
495.866	9526.78
496.235	9633.9
496.605	9710.51
496.974	9833.22
497.344	9967
497.713	10014
498.082	10082.48
498.452	10206.31
498.821	10262.81
499.19	10258.52
499.559	10459.19
499.928	10581.67
500.298	10646.3
500.667	10671.16
501.036	10784.83
501.405	10828.9
501.774	10850.59
502.143	10986.63
502.512	11064.14
502.88	11178.94
503.249	11232.73
503.618	11283.8
503.987	11306.4
504.356	11337.58
504.724	11463.91
505.093	11455.32
505.462	11449.9
505.83	11615.54
506.199	11683.34
506.567	11785.03
506.936	11786.84
507.304	11889.89
507.672	11959.49
508.041	11989.77
508.409	12030.67
508.777	12132.36
509.145	12218.01
509.514	12232.25
509.882	12302.76
510.25	12295.3
510.618	12384.34
510.986	12366.26
511.354	12405.58
511.722	12574.39
512.09	12608.74
512.458	12508.85
512.826	12722.41
513.193	12691.67
513.561	12679.92
513.929	12690.32
514.297	12923.53
514.664	12906.36
515.032	12968.95
515.4	12996.52
515.767	12962.63
516.135	13026.8
516.502	12949.74
516.869	13184.31
517.237	13155.61
517.604	13024.54
517.972	13123.98
518.339	13235.61
518.706	13115.62
519.073	13169.85
519.44	13237.42
519.808	13317.64
520.175	13328.94
520.542	13413.46
520.909	13432.9
521.276	13455.95
521.643	13510.18
522.009	13524.87
522.376	13570.97
522.743	13549.73
523.11	13782.26
523.477	13765.09
523.843	13758.76
524.21	13838.99
524.577	13893.45
524.943	13825.65
525.31	13939.32
525.676	13895.71
526.043	13952.66
526.409	14000.34
526.776	14052.99
527.142	13983.84
527.508	14091.64
527.874	14035.14
528.241	14023.84
528.607	13962.15
528.973	14088.47
529.339	14035.14
529.705	14084.4
530.071	14224.29
530.437	14212.08
530.803	14156.94
531.169	14236.04
531.535	14090.05
531.901	14038.98
532.267	14093.22
532.632	14124.63
532.998	14153.55
533.364	14111.52
533.73	14039.21
534.095	14154.91
534.461	14038.3
534.826	14069.94
535.192	13986.33
535.557	14072.2
535.923	14057.51
536.288	13975.71
536.653	13896.61
537.019	13900.45
537.384	13850.29
537.749	13963.05
538.114	13881.7
538.479	13769.61
538.845	13860.45
539.21	13721.93
539.575	13782.04
539.94	13683.51
540.305	13752.66
540.67	13638.09
541.034	13654.36
541.399	13591.99
541.764	13566.9
542.129	13570.07
542.494	13483.29
542.858	13482.39
543.223	13386.12
543.587	13486.91
543.952	13349.73
544.316	13284.2
544.681	13234.48
545.045	13246.23
545.41	13286.91
545.774	13267.7
546.138	13159.91
546.503	13143.64
546.867	13114.94
547.231	13085.79
547.595	13122.4
547.959	13106.58
548.324	13027.71
548.688	12970.99
549.052	12999.01
549.416	12923.98
549.779	12812.35
550.143	12862.06
550.507	12836.75
550.871	12850.54
551.235	12715.85
551.599	12758.34
551.962	12792.01
552.326	12640.15
552.689	12698.9
553.053	12580.26
553.417	12539.13
553.78	12646.02
554.143	12504.33
554.507	12594.27
554.87	12470.43
555.234	12605.57
555.597	12518.34
555.96	12516.76
556.323	12445.8
556.686	12497.1
557.05	12482.64
557.413	12472.02
557.776	12512.92
558.139	12415.75
558.502	12423.43
558.865	12437.22
559.228	12464.33
559.59	12353.6
559.953	12398.35
560.316	12487.84
560.679	12367.16
561.041	12440.38
561.404	12454.39
561.767	12431.57
562.129	12393.15
562.492	12458.68
562.854	12387.5
563.217	12408.97
563.579	12376.88
563.941	12519.93
564.304	12489.19
564.666	12516.99
565.028	12447.61
565.39	12482.64
565.753	12483.54
566.115	12559.47
566.477	12472.47
566.839	12519.02
567.201	12561.51
567.563	12534.39
567.925	12571.68
568.287	12552.69
568.648	12603.76
569.01	12536.87
569.372	12566.25
569.734	12523.99
570.095	12674.95
570.457	12585.01
570.819	12627.04
571.18	12591.56
571.542	12649.87
571.903	12663.88
572.265	12683.54
572.626	12749.3
572.987	12672.46
573.349	12701.16
573.71	12634.95
574.071	12738.22
574.432	12733.7
574.794	12799.69
575.155	12762.63
575.516	12641.28
575.877	12800.14
576.238	12757.21
576.599	12889.18
576.96	12826.13
577.32	12809.41
577.681	12827.26
578.042	12778.45
578.403	12738.68
578.763	12865
579.124	12785.23
579.485	12829.07
579.845	12813.7
580.206	12810.99
580.566	12709.98
580.927	12834.72
581.287	12838.33
581.648	12769.64
582.008	12896.41
582.368	12819.35
582.728	12865.23
583.089	12774.61
583.449	12799.24
583.809	12776.42
584.169	12799.92
584.529	12793.36
584.889	12849.86
585.249	12770.31
585.609	12667.04
585.969	12770.31
586.329	12740.94
586.688	12743.65
587.048	12727.6
587.408	12641.73
587.768	12676.76
588.127	12601.96
588.487	12608.06
588.846	12720.6
589.206	12601.73
589.565	12653.03
589.925	12682.63
590.284	12590.21
590.643	12586.36
591.003	12622.07
591.362	12526.7
591.721	12585.46
592.08	12551.34
592.44	12596.99
592.799	12612.13
593.158	12554.27
593.517	12550.66
593.876	12543.2
594.235	12498
594.593	12476.54
594.952	12552.47
595.311	12478.34
595.67	12483.54
596.029	12545.46
596.387	12482.86
596.746	12525.57
597.104	12544.78
597.463	12476.08
597.822	12530.09
598.18	12400.61
598.538	12482.41
598.897	12466.37
599.255	12420.94
599.613	12589.3
599.972	12485.58
600.33	12511.79
600.688	12502.98
601.046	12537.55
601.404	12486.93
601.762	12548.4
602.12	12543.88
602.478	12547.72
602.836	12532.13
603.194	12464.79
603.552	12535.74
603.91	12365.35
604.268	12482.19
604.625	12437.89
604.983	12496.42
605.341	12402.64
605.698	12520.15
606.056	12545.01
606.413	12488.51
606.771	12546.82
607.128	12589.75
607.485	12388.4
607.843	12475.18
608.2	12507.95
608.557	12560.83
608.914	12521.96
609.272	12541.85
609.629	12546.59
609.986	12685.57
610.343	12621.62
610.7	12617.32
611.057	12681.5
611.414	12661.39
611.771	12561.73
612.127	12702.97
612.484	12564.67
612.841	12668.85
613.198	12688.73
613.554	12624.1
613.911	12698.9
614.267	12599.24
614.624	12648.96
614.98	12695.97
615.337	12689.86
615.693	12736.42
616.05	12753.37
616.406	12765.34
616.762	12673.59
617.118	12743.42
617.475	12761.27
617.831	12743.42
618.187	12737.77
618.543	12788.39
618.899	12830.65
619.255	12821.16
619.611	12766.02
619.967	12824.1
620.323	12869.07
620.678	12740.26
621.034	12771.22
621.39	12859.8
621.746	12756.75
622.101	12869.07
622.457	12827.04
622.812	12814.15
623.168	12872.01
623.523	12871.55
623.879	12814.83
624.234	12695.51
624.589	12811.67
624.945	12886.7
625.3	12824.32
625.655	12811.44
626.01	12807.38
626.365	12886.7
626.72	12790.88
627.075	12725.57
627.43	12843.53
627.785	12802.86
628.14	12805.79
628.495	12769.64
628.85	12753.37
629.205	12717.89
629.559	12813.25
629.914	12723.76
630.269	12768.96
630.623	12715.85
630.978	12625.23
631.332	12749.07
631.687	12732.8
632.041	12674.5
632.396	12672.24
632.75	12642.18
633.104	12660.26
633.459	12532.58
633.813	12622.97
634.167	12591.11
634.521	12568.29
634.875	12554.95
635.229	12509.08
635.583	12439.02
635.937	12574.61
636.291	12472.92
636.645	12449.87
636.999	12419.59
637.352	12482.86
637.706	12371.23
638.06	12494.39
638.413	12319.25
638.767	12371.91
639.121	12424.79
639.474	12286.71
639.828	12316.77
640.181	12348.4
640.534	12333.26
640.888	12342.3
641.241	12276.99
641.594	12299.37
641.947	12312.25
642.301	12333.04
642.654	12268.63
643.007	12248.29
643.36	12361.06
643.713	12285.81
644.066	12319.93
644.419	12211.46
644.771	12151.35
645.124	11990
645.477	12009.88
645.83	11982.99
646.182	11840.39
646.535	11848.3
646.888	11894.18
647.24	11876.1
647.593	11853.95
647.945	11790.23
648.298	11828.19
648.65	11793.62
649.002	11707.52
649.355	11839.94
649.707	11840.62
650.059	11893.73
650.411	12017.11
650.763	12034.06
651.115	12135.08
651.467	12091.69
651.819	12094.63
652.171	12169.88
652.523	12108.18
652.875	12079.48
653.227	12001.75
653.578	12037.23
653.93	12089.43
654.282	11992.93
654.633	11998.81
654.985	12008.07
655.337	12032.25
655.688	12048.3
656.039	12126.04
656.391	12000.62
656.742	12099.82
657.094	12029.32
657.445	12084
657.796	11992.26
658.147	12010.33
658.498	12068.19
658.849	12019.83
659.2	12084.91
659.551	12081.74
659.902	12000.84
660.253	11992.48
660.604	12088.3
660.955	11991.8
661.306	12104.79
661.656	12120.16
662.007	12067.51
662.358	11998.13
662.708	12029.77
663.059	12039.71
663.409	12104.12
663.76	12145.02
664.11	12087.62
664.461	12116.55
664.811	12105.7
665.161	12036.77
665.511	12035.19
665.862	12065.93
666.212	12144.12
666.562	12168.07
666.912	12081.29
667.262	12108.41
667.612	12060.95
667.962	12153.38
668.312	12185.02
668.662	12168.52
669.011	12186.83
669.361	12087.85
669.711	12084.23
670.06	11977.34
670.41	11975.53
670.76	12026.38
671.109	12139.37
671.459	12046.04
671.808	12007.62
672.157	12083.78
672.507	12013.5
672.856	12020.05
673.205	12073.16
673.554	12083.1
673.904	12008.3
674.253	12108.41
674.602	12004.01
674.951	11882.88
675.3	11793.84
675.649	11926.04
675.998	11943.22
676.346	11934.4
676.695	11929.88
677.044	11856.67
677.393	11955.87
677.741	11876.78
678.09	11910.22
678.438	11876.55
678.787	11894.86
679.135	11853.5
679.484	11756.56
679.832	11841.3
680.181	11758.14
680.529	11835.65
680.877	11705.48
681.225	11700.74
681.573	11786.61
681.922	11674.07
682.27	11643.79
682.618	11641.3
682.966	11581.87
683.314	11661.19
683.661	11583.45
684.009	11552.94
684.357	11498.93
684.705	11475.88
685.053	11517.47
685.4	11493.06
685.748	11324.48
686.095	11408.99
686.443	11333.74
686.79	11348.88
687.138	11343.46
687.485	11328.54
687.832	11223.01
688.18	11306.62
688.527	11222.78
688.874	11211.26
689.221	11117.48
689.568	11133.75
689.915	11091.04
690.262	11089.45
690.609	11013.75
690.956	11090.36
691.303	11039.06
691.65	10930.14
691.997	10959.06
692.344	10901.21
692.69	10864.38
693.037	10848.33
693.383	10687.43
693.73	10751.16
694.077	10676.81
694.423	10606.98
694.769	10640.88
695.116	10593.65
695.462	10626.64
695.808	10504.16
696.155	10592.97
696.501	10431.17
696.847	10461.67
697.193	10379.19
697.539	10413.99
697.885	10341.68
698.231	10312.98
698.577	10273.66
698.923	10256.48
699.269	10187.56
699.614	10110.5
699.96	10134.68
700.306	10096.94
700.651	10034.34
700.997	10043.83
701.342	9931.97
701.688	9947.79
702.033	9908.69
702.379	9864.85
702.724	9851.29
703.069	9851.52
703.415	9736.72
703.76	9729.49
704.105	9719.09
704.45	9717.06
704.795	9606.78
705.14	9583.28
705.485	9578.08
705.83	9475.94
706.175	9509.83
706.52	9511.19
706.865	9390.52
707.209	9403.4
707.554	9419.89
707.899	9414.02
708.243	9345.32
708.588	9349.16
708.932	9282.72
709.277	9249.95
709.621	9315.72
709.966	9206.11
710.31	9233.68
710.654	9160.01
710.998	9128.83
711.342	9196.17
711.687	9125.44
712.031	9152.33
712.375	9061.48
712.719	9028.04
713.063	9051.99
713.407	9028.94
713.75	8979.23
714.094	8982.16
714.438	8918.89
714.782	8963.41
715.125	8911.66
715.469	8941.49
715.812	8876.63
716.156	8807.03
716.499	8826.46
716.843	8871.43
717.186	8795.5
717.53	8829.17
717.873	8852
718.216	8740.14
718.559	8795.05
718.902	8711.44
719.246	8721.15
719.589	8720.93
719.932	8679.35
720.275	8667.82
720.617	8752.57
720.96	8665.79
721.303	8671.66
721.646	8616.3
721.989	8590.99
722.331	8659.91
722.674	8587.6
723.016	8594.38
723.359	8578.11
723.701	8642.51
724.044	8529.97
724.386	8578.79
724.729	8623.98
725.071	8590.76
725.413	8552.8
725.755	8557.54
726.097	8501.05
726.439	8516.19
726.782	8506.7
727.124	8566.36
727.465	8532.46
727.807	8499.92
728.149	8475.96
728.491	8435.29
728.833	8515.96
729.175	8518.67
729.516	8473.93
729.858	8460.6
730.199	8558
730.541	8469.86
730.882	8465.57
731.224	8536.3
731.565	8421.95
731.906	8464.89
732.248	8446.13
732.589	8421.95
732.93	8434.61
733.271	8462.86
733.612	8464.44
733.953	8478.22
734.294	8378.57
734.635	8400.26
734.976	8469.64
735.317	8422.63
735.658	8422.18
735.999	8449.3
736.339	8458.56
736.68	8515.06
737.021	8377.21
737.361	8412.01
737.702	8505.79
738.042	8515.74
738.383	8447.49
738.723	8561.84
739.063	8495.85
739.404	8480.26
739.744	8467.6
740.084	8457.88
740.424	8484.55
740.764	8528.39
741.104	8526.13
741.444	8486.13
741.784	8525.45
742.124	8581.72
742.464	8549.63
742.804	8611.78
743.143	8614.94
743.483	8655.85
743.823	8632.57
744.162	8715.28
744.502	8666.92
744.841	8693.81
745.181	8751.89
745.52	8808.84
745.86	8872.11
746.199	8852
746.538	8879.12
746.877	8930.41
747.216	8996.4
747.556	8999.34
747.895	9116.17
748.234	9056.51
748.573	9136.29
748.911	9243.63
749.25	9279.78
749.589	9322.04
749.928	9413.11
750.267	9468.93
750.605	9552.32
750.944	9579.66
751.283	9690.39
751.621	9738.76
751.96	9810.84
752.298	9887.68
752.636	9987.34
752.975	10109.82
753.313	10162.02
753.651	10246.54
753.989	10344.62
754.327	10451.05
754.666	10524.5
755.004	10745.73
755.342	10793.19
755.679	10951.83
756.017	11072.51
756.355	11286.29
756.693	11309.79
757.031	11484.25
757.368	11546.62
757.706	11663.9
758.044	11821.19
758.381	12049.88
758.719	12164.91
759.056	12310.67
759.394	12420.49
759.731	12592.24
760.068	12718.56
760.405	12912.68
760.743	13033.13
761.08	13354.25
761.417	13372.33
761.754	13553.12
762.091	13710.18
762.428	13832.88
762.765	14043.27
763.102	14222.03
763.438	14355.13
763.775	14441.46
764.112	14758.28
764.449	14892.07
764.785	15083.7
765.122	15042.34
765.458	15193.75
765.795	15424.71
766.131	15534.08
766.467	15674.87
766.804	15892.72
767.14	15889.33
767.476	16132.03
767.812	16208.64
768.148	16395.53
768.485	16414.51
768.821	16511.91
769.157	16679.82
769.492	16807.72
769.828	17021.28
770.164	16979.92
770.5	17092.91
770.836	17304.43
771.171	17194.38
771.507	17384.43
771.842	17435.28
772.178	17647.25
772.513	17633.46
772.849	17689.96
773.184	17750.07
773.519	17951.42
773.855	17899.67
774.19	17967.92
774.525	18072.55
774.86	18145.54
775.195	18227.12
775.53	18205.43
775.865	18353.22
776.2	18222.15
776.535	18161.58
776.87	18320.22
777.205	18371.3
777.539	18426.89
777.874	18463.05
778.209	18429.37
778.543	18494.01
778.878	18503.72
779.212	18523.83
779.547	18514.57
779.881	18605.41
780.215	18529.26
780.55	18673.44
780.884	18635.02
781.218	18585.98
781.552	18737.84
781.886	18657.39
782.22	18609.48
782.554	18672.98
782.888	18553.89
783.222	18470.96
783.556	18557.51
783.889	18560.22
784.223	18571.52
784.557	18562.48
784.89	18563.38
785.224	18525.42
785.557	18376.95
785.891	18477.28
786.224	18520.9
786.558	18448.13
786.891	18342.6
787.224	18298.53
787.557	18334.69
787.891	18385.08
788.224	18416.27
788.557	18318.64
788.89	18309.6
789.223	18310.96
789.556	18307.57
789.888	18195.26
790.221	18265.99
790.554	18056.95
790.887	18091.3
791.219	18105.09
791.552	18076.39
791.884	18107.35
792.217	17927.47
792.549	17909.39
792.882	17935.38
793.214	17814.7
793.546	17858.32
793.879	17783.97
794.211	17753.91
794.543	17763.4
794.875	17670.3
795.207	17825.32
795.539	17702.61
795.871	17735.61
796.203	17559.11
796.535	17500.81
796.867	17385.33
797.198	17460.59
797.53	17370.42
797.862	17280.93
798.193	17375.16
798.525	17304.66
798.856	17391.44
799.188	17083.42
799.519	17141.95
799.85	17017.43
800.182	17080.26
800.513	17081.61
800.844	16912.35
801.175	16943.54
801.506	16910.32
801.837	16868.51
802.168	16912.13
802.499	16818.34
802.83	16718.23
803.161	16691.11
803.491	16684.56
803.822	16648.63
804.153	16579.25
804.483	16486.15
804.814	16456.09
805.145	16395.3
805.475	16429.2
805.805	16459.71
806.136	16374.29
806.466	16331.8
806.796	16416.09
807.126	16255.42
807.457	16127.74
807.787	16199.38
808.117	16069.66
808.447	16077.35
808.777	16185.59
809.107	16078.02
809.436	15976.11
809.766	16029.44
810.096	15939.95
810.426	15910.8
810.755	15890.46
811.085	15838.93
811.414	15835.54
811.744	15751.25
812.073	15746.28
812.403	15677.58
812.732	15599.39
813.061	15723.23
813.39	15573.4
813.719	15535.44
814.049	15623.12
814.378	15603.91
814.707	15511.03
815.036	15525.95
815.365	15452.5
815.693	15361.43
816.022	15337.93
816.351	15277.37
816.68	15157.37
817.008	15235.79
817.337	15215.45
817.665	15178.39
817.994	15144.94
818.322	15162.57
818.651	15023.36
818.979	15071.95
819.307	15094.55
819.636	15005.28
819.964	14930.03
820.292	15006.87
820.62	14986.3
820.948	14972.29
821.276	15038.28
821.604	14909.01
821.932	14982.91
822.259	14899.75
822.587	14979.3
822.915	14851.84
823.243	14990.14
823.57	14912.63
823.898	14873.76
824.225	14853.2
824.553	14852.29
824.88	15016.13
825.207	15032.63
825.535	14857.72
825.862	14998.73
826.189	14935.68
826.516	14968.22
826.843	14995.57
827.17	14969.8
827.497	15015.9
827.824	15018.62
828.151	14971.39
828.478	14929.81
828.805	15068.78
829.131	14969.58
829.458	14964.15
829.785	14927.55
830.111	14932.29
830.438	15043.47
830.764	14904.5
831.09	14926.64
831.417	14876.25
831.743	15042.34
832.069	14988.79
832.395	14938.17
832.722	14971.61
833.048	14869.69
833.374	14824.5
833.7	14852.07
834.026	14854.1
834.351	14917.6
834.677	14975.45
835.003	14898.85
835.329	14832.18
835.654	14824.95
835.98	14777.27
836.306	14757.38
836.631	14775.91
836.956	14812.75
837.282	14830.37
837.607	14686.65
837.932	14618.63
838.258	14704.73
838.583	14666.99
838.908	14509.25
839.233	14575.46
839.558	14647.55
839.883	14509.48
840.208	14442.13
840.533	14462.02
840.858	14496.37
841.182	14461.12
841.507	14410.27
841.832	14354.23
842.156	14364.17
842.481	14378.18
842.805	14284.17
843.13	14218.64
843.454	14227.9
843.778	14208.47
844.103	14172.76
844.427	14095.93
844.751	14165.08
845.075	14066.55
845.399	14016.16
845.723	13946.33
846.047	13999.43
846.371	13878.31
846.695	13850.29
847.019	13730.74
847.343	13667.69
847.666	13546.34
847.99	13609.84
848.313	13597.18
848.637	13473.57
848.96	13420.69
849.284	13451.88
849.607	13379.34
849.931	13251.88
850.254	13207.59
850.577	13114.26
850.9	13046.01
851.223	13051.89
851.546	13105.9
851.869	12929.18
852.192	12948.61
852.515	12821.39
852.838	12828.84
853.161	12787.94
853.483	12728.06
853.806	12721.95
854.129	12679.92
854.451	12652.58
854.774	12567.38
855.096	12528.51
855.419	12435.63
855.741	12462.3
856.063	12384.79
856.385	12335.98
856.708	12397.89
857.03	12223.44
857.352	12271.34
857.674	12094.63
857.996	12218.46
858.318	12101.4
858.64	12179.14
858.961	12121.29
859.283	12039.94
859.605	11956.32
859.926	12042.42
860.248	11955.87
860.57	11891.24
860.891	11995.65
861.212	11827.74
861.534	11823.67
861.855	11768.98
862.176	11708.42
862.498	11790.23
862.819	11749.78
863.14	11626.62
863.461	11692.38
863.782	11652.15
864.103	11643.34
864.424	11627.07
864.745	11651.93
865.065	11586.84
865.386	11567.41
865.707	11512.72
866.027	11571.48
866.348	11510.01
866.668	11478.37
866.989	11445.15
867.309	11441.76
867.63	11416.9
867.95	11402.67
868.27	11277.02
868.59	11441.08
868.91	11335.78
869.23	11308.88
869.55	11260.98
869.87	11331.71
870.19	11251.94
870.51	11269.79
870.83	11285.83
871.15	11191.37
871.469	11216.91
871.789	11222.33
872.109	11223.91
872.428	11090.58
872.748	11182.33
873.067	11162.45
873.386	11136.68
873.706	11119.06
874.025	11057.36
874.344	11041.77
874.663	11028.66
874.982	11023.24
875.301	10983.69
875.62	10958.38
875.939	10987.99
876.258	10952.51
876.577	10986.41
876.896	10970.81
877.214	10946.41
877.533	10895.56
877.852	10877.93
878.17	10841.1
878.489	10829.35
878.807	10897.82
879.125	10780.99
879.444	10739.18
879.762	10755
880.08	10815.79
880.398	10782.34
880.716	10681.56
881.034	10655.12
881.352	10697.83
881.67	10625.06
881.988	10633.87
882.306	10585.06
882.624	10574.67
882.941	10488.11
883.259	10465.52
883.577	10435.23
883.894	10449.25
884.212	10424.16
884.529	10388.68
884.846	10406.99
885.164	10392.75
885.481	10341.45
885.798	10335.8
886.115	10209.25
886.432	10298.06
886.75	10215.13
887.067	10168.12
887.383	10152.53
887.7	10186.43
888.017	10151.17
888.334	10109.37
888.651	10089.93
888.967	10076.37
889.284	10022.82
889.6	9972.2
889.917	9944.17
890.233	9940.56
890.55	9875.02
890.866	9946.66
891.182	9869.6
891.498	9837.74
891.815	9781.01
892.131	9724.52
892.447	9739.89
892.763	9686.1
893.079	9674.58
893.395	9684.07
893.71	9685.88
894.026	9619.44
894.342	9587.8
894.657	9479.55
894.973	9486.33
895.289	9470.51
895.604	9376.96
895.92	9392.78
896.235	9253.57
896.55	9385.54
896.865	9349.39
897.181	9301.25
897.496	9298.99
897.811	9175.38
898.126	9181.03
898.441	9165.89
898.756	9113.91
899.071	9092.9
899.386	9028.94
899.7	9007.48
900.015	9006.8
900.33	8963.41
900.644	8877.99
900.959	8848.84
901.273	8850.19
901.588	8832.79
901.902	8779.46
902.216	8730.19
902.531	8725
902.845	8714.6
903.159	8641.38
903.473	8637.77
903.787	8598.9
904.101	8499.69
904.415	8623.98
904.729	8466.47
905.042	8475.51
905.356	8478.45
905.67	8376.53
905.984	8382.86
906.297	8350.77
906.611	8277.32
906.924	8283.65
907.237	8246.37
907.551	8210.89
907.864	8167.5
908.177	8165.24
908.491	8131.57
908.804	8113.26
909.117	8032.81
909.43	7959.59
909.743	7936.99
910.056	7909.88
910.368	7929.09
910.681	7867.62
910.994	7818.13
911.307	7820.84
911.619	7826.04
911.932	7791.91
912.244	7653.84
912.557	7740.16
912.869	7626.72
913.181	7671.69
913.494	7591.69
913.806	7528.87
914.118	7556.67
914.43	7505.59
914.742	7487.97
915.054	7444.8
915.366	7395.99
915.678	7374.07
915.99	7337.91
916.302	7302.89
916.613	7245.71
916.925	7315.77
917.236	7247.75
917.548	7170.46
917.859	7176.56
918.171	7137.92
918.482	7125.04
918.794	7075.32
919.105	7097.69
919.416	7007.08
919.727	6971.14
920.038	6965.72
920.349	6939.05
920.66	6910.13
920.971	6926.4
921.282	6842.79
921.593	6850.02
921.903	6804.82
922.214	6788.1
922.525	6747.65
922.835	6752.39
923.146	6711.94
923.456	6676.69
923.767	6634.2
924.077	6618.84
924.387	6591.95
924.697	6570.93
925.008	6472.4
925.318	6482.57
925.628	6471.95
925.938	6438.5
926.248	6453.87
926.558	6384.04
926.867	6373.87
927.177	6343.82
927.487	6288.9
927.796	6241.45
928.106	6301.56
928.416	6251.84
928.725	6237.83
929.034	6157.83
929.344	6196.02
929.653	6123.48
929.962	6072.64
930.271	6043.03
930.581	6029.7
930.89	6014.56
931.199	5957.39
931.508	5991.51
931.817	6011.4
932.125	5956.71
932.434	5935.01
932.743	5859.54
933.051	5842.13
933.36	5849.37
933.669	5828.35
933.977	5749.03
934.286	5732.76
934.594	5751.52
934.902	5744.51
935.21	5714.45
935.519	5716.26
935.827	5623.61
936.135	5590.39
936.443	5610.95
936.751	5554.23
937.059	5597.17
937.367	5522.14
937.674	5479.21
937.982	5471.52
938.29	5487.34
938.597	5457.74
938.905	5373.9
939.213	5386.33
939.52	5334.35
939.827	5370.28
940.135	5316.5
940.442	5281.02
940.749	5335.71
941.056	5244.41
941.363	5187.46
941.67	5228.59
941.977	5175.94
942.284	5149.05
942.591	5164.19
942.898	5131.64
943.205	5086.22
943.511	5059.33
943.818	5075.38
944.125	5042.16
944.431	5061.36
944.738	5017.07
945.044	4966
945.35	5009.16
945.657	4919.45
945.963	4858.66
946.269	4840.8
946.575	4849.39
946.881	4894.81
947.187	4838.55
947.493	4809.85
947.799	4783.63
948.105	4748.6
948.41	4744.99
948.716	4763.74
949.022	4725.1
949.327	4738.43
949.633	4679
949.938	4661.37
950.244	4638.32
950.549	4563.52
950.854	4547.71
951.16	4575.28
951.465	4537.54
951.77	4492.57
952.075	4465.45
952.38	4467.93
952.685	4466.35
952.99	4435.62
953.294	4395.17
953.599	4381.16
953.904	4359.01
954.209	4353.81
954.513	4358.56
954.818	4365.79
955.122	4297.32
955.426	4302.06
955.731	4238.33
956.035	4232.23
956.339	4215.51
956.643	4232.01
956.948	4209.18
957.252	4141.39
957.556	4191.1
957.86	4180.71
958.163	4178.9
958.467	4135.74
958.771	4087.83
959.075	4073.82
959.378	4028.17
959.682	4086.93
959.985	4019.13
960.289	3968.29
960.592	3978.68
960.896	4017.1
961.199	3944.56
961.502	3954.05
961.805	3909.76
962.108	3871.34
962.411	3876.76
962.714	3865.01
963.017	3857.55
963.32	3853.71
963.623	3851.45
963.926	3807.61
964.228	3794.73
964.531	3767.39
964.833	3774.62
965.136	3716.09
965.438	3691.68
965.741	3674.51
966.043	3704.56
966.345	3642.19
966.648	3668.41
966.95	3646.03
967.252	3603.1
967.554	3652.36
967.856	3625.7
968.158	3540.73
968.46	3551.12
968.761	3549.54
969.063	3531.46
969.365	3540.05
969.666	3479.26
969.968	3503.89
970.269	3522.42
970.571	3505.47
970.872	3477
971.174	3445.59
971.475	3436.1
971.776	3404.46
972.077	3402.42
972.378	3392.03
972.679	3359.94
972.98	3349.09
973.281	3309.32
973.582	3294.4
973.883	3318.36
974.183	3290.79
974.484	3259.83
974.785	3241.3
975.085	3235.42
975.386	3261.41
975.686	3230.68
975.986	3194.52
976.287	3228.87
976.587	3166.72
976.887	3157.69
977.187	3149.1
977.487	3140.28
977.787	3126.05
978.087	3085.14
978.387	3072.94
978.687	3083.79
978.987	3058.03
979.286	3071.59
979.586	3027.52
979.885	3037.46
980.185	3001.31
980.484	3025.71
980.784	2979.61
981.083	2986.62
981.382	2985.26
981.682	2909.33
981.981	2922.44
982.28	2978.48
982.579	2907.97
982.878	2846.28
983.177	2869.56
983.475	2873.17
983.774	2846.51
984.073	2827.52
984.372	2835.89
984.67	2839.73
984.969	2819.62
985.267	2761.09
985.566	2807.41
985.864	2736.91
986.162	2722.67
986.461	2760.18
986.759	2733.52
987.057	2712.05
987.355	2687.19
987.653	2675.21
987.951	2655.33
988.249	2671.14
988.547	2668.21
988.844	2605.38
989.142	2616.23
989.44	2631.37
989.737	2567.42
990.035	2580.98
990.332	2582.56
990.63	2551.6
990.927	2515.67
991.224	2536.23
991.521	2511.6
991.819	2538.27
992.116	2498.04
992.413	2505.5
992.71	2474.77
993.006	2454.65
993.303	2432.51
993.6	2493.07
993.897	2429.79
994.193	2477.48
994.49	2435.22
994.787	2391.38
995.083	2395.9
995.379	2417.14
995.676	2361.1
995.972	2356.12
996.268	2358.16
996.565	2316.58
996.861	2301.66
997.157	2296.24
997.453	2320.42
997.749	2299.18
998.044	2265.28
998.34	2268.67
998.636	2249.01
998.932	2240.87
999.227	2215.56
999.523	2171.5
999.818	2214.21
1000.114	2178.05
1000.409	2136.7
1000.704	2192.51
1001	2146.19
1001.295	2153.42
1001.59	2132.85
1001.885	2126.75
1002.18	2096.47
1002.475	2107.32
1002.77	2070.48
1003.065	2052.86
1003.359	2058.73
1003.654	2045.4
1003.949	2032.52
1004.243	2036.58
1004.538	2014.44
1004.832	2000.43
1005.127	1982.12
1005.421	1979.41
1005.715	1981.9
1006.009	1981.9
1006.304	1950.03
1006.598	1939.64
1006.892	1943.71
1007.186	1943.25
1007.48	1907.32
1007.773	1876.36
1008.067	1850.15
1008.361	1860.54
1008.655	1866.87
1008.948	1886.08
1009.242	1893.76
1009.535	1814.67
1009.829	1807.89
1010.122	1804.73
1010.415	1789.59
1010.708	1811.73
1011.001	1777.16
1011.295	1764.28
1011.588	1718.85
1011.881	1725.18
1012.173	1707.33
1012.466	1707.1
1012.759	1726.76
1013.052	1730.6
1013.344	1685.86
1013.637	1681.57
1013.93	1668.68
1014.222	1689.25
1014.514	1654.45
1014.807	1637.05
1015.099	1629.14
1015.391	1661
1015.683	1631.62
1015.976	1617.16
1016.268	1608.35
1016.56	1583.49
1016.851	1586.88
1017.143	1579.65
1017.435	1579.87
1017.727	1569.03
1018.018	1558.86
1018.31	1543.72
1018.602	1531.06
1018.893	1511.17
1019.185	1501.01
1019.476	1523.6
1019.767	1488.12
1020.058	1458.29
1020.35	1469.14
1020.641	1453.1
1020.932	1463.27
1021.223	1447.9
1021.514	1440.67
1021.804	1414.68
1022.095	1417.62
1022.386	1369.94
1022.677	1394.34
1022.967	1355.92
1023.258	1359.31
1023.548	1334.68
1023.839	1367.45
1024.129	1357.28
1024.419	1341.69
1024.709	1338.98
1025	1335.81
1025.29	1305.3
1025.58	1308.47
1025.87	1272.76
1026.16	1292.42
1026.449	1273.22
1026.739	1262.37
1027.029	1255.59
1027.319	1271.18
1027.608	1235.93
1027.898	1210.39
1028.187	1220.79
1028.477	1227.79
1028.766	1201.8
1029.055	1208.36
1029.344	1210.84
1029.634	1194.57
1029.923	1207.91
1030.212	1184.63
1030.501	1185.08
1030.79	1138.53
1031.078	1138.76
1031.367	1125.42
1031.656	1133.56
1031.945	1108.25
1032.233	1119.55
1032.522	1111.41
1032.81	1084.97
1033.099	1090.4
1033.387	1110.06
1033.675	1102.82
1033.963	1077.06
1034.251	1070.51
1034.54	1054.46
1034.828	1060.11
1035.116	1037.52
1035.403	1062.15
1035.691	1052.2
1035.979	1029.38
1036.267	1013.11
1036.554	1034.8
1036.842	1022.15
1037.129	992.09
1037.417	1024.18
1037.704	1018.08
1037.992	970.62
1038.279	984.86
1038.566	956.16
1038.853	956.16
1039.14	956.16
