Data from hue_300_FLMS001491_00006.txt Node
Date: Tue Feb 07 15:49:38 GMT 2017
User: dcchb
Spectrometer: FLMS00149
Trigger mode: 0
Integration Time (sec): 2.000000E-2
Scans to average: 10
Electric dark correction enabled: true
Nonlinearity correction enabled: false
Boxcar width: 0
XAxis mode: Wavelengths
Number of Pixels in Spectrum: 2048
>>>>>Begin Spectral Data<<<<<
341.393	-14.49
341.776	-14.49
342.16	-14.49
342.543	-82.29
342.927	-63.98
343.31	-61.04
343.693	-76.18
344.077	-46.35
344.46	-49.52
344.843	-50.65
345.226	-39.35
345.61	-52.68
345.993	-7.94
346.376	0.65
346.759	10.37
347.142	45.39
347.525	34.77
347.908	41.78
348.291	62.57
348.674	88.56
349.057	99.63
349.44	109.8
349.823	119.06
350.206	156.8
350.588	187.99
350.971	209.68
351.354	231.83
351.737	232.06
352.119	239.74
352.502	259.4
352.884	281.32
353.267	282.22
353.65	285.84
354.032	306.4
354.414	303.47
354.797	288.1
355.179	296.24
355.562	320.42
355.944	309.34
356.326	312.96
356.709	330.36
357.091	328.55
357.473	317.25
357.855	314.31
358.238	328.78
358.62	324.26
359.002	351.6
359.384	325.61
359.766	319.06
360.148	336.91
360.53	319.74
360.912	336.23
361.294	342.56
361.676	319.06
362.057	336.46
362.439	327.87
362.821	311.83
363.203	326.74
363.584	304.82
363.966	317.48
364.348	324.03
364.729	316.35
365.111	311.38
365.493	317.93
365.874	317.03
366.256	320.64
366.637	324.71
367.019	317.93
367.4	322.45
367.781	308.66
368.163	306.18
368.544	314.31
368.925	309.12
369.306	307.31
369.688	292.17
370.069	319.29
370.45	299.4
370.831	306.63
371.212	309.57
371.593	300.3
371.974	326.29
372.355	315.22
372.736	302.34
373.117	289
373.498	309.34
373.879	331.94
374.26	303.01
374.641	305.73
375.021	314.09
375.402	316.8
375.783	320.42
376.163	338.27
376.544	330.81
376.925	310.47
377.305	333.97
377.686	326.97
378.066	316.35
378.447	341.43
378.827	326.97
379.208	312.28
379.588	321.55
379.968	329.91
380.349	332.39
380.729	311.6
381.109	340.98
381.489	324.71
381.87	323.58
382.25	340.98
382.63	371.04
383.01	341.66
383.39	340.98
383.77	352.73
384.15	332.84
384.53	355.44
384.91	333.97
385.29	352.96
385.67	339.62
386.049	338.72
386.429	348.44
386.809	337.36
387.189	361.54
387.568	365.16
387.948	363.8
388.328	351.83
388.707	336.01
389.087	353.41
389.466	362.22
389.846	364.71
390.225	361.77
390.605	355.22
390.984	350.47
391.363	350.7
391.743	354.31
392.122	361.77
392.501	364.03
392.881	362
393.26	381.66
393.639	348.21
394.018	382.33
394.397	380.75
394.776	366.52
395.155	385.95
395.534	395.22
395.913	386.85
396.292	370.36
396.671	375.78
397.05	387.08
397.429	400.87
397.808	412.16
398.186	382.56
398.565	393.86
398.944	399.28
399.323	401.09
399.701	394.31
400.08	406.74
400.458	420.75
400.837	400.64
401.215	410.36
401.594	424.82
401.972	418.94
402.351	401.32
402.729	409.9
403.107	425.5
403.486	429.34
403.864	435.21
404.242	434.76
404.62	437.7
404.999	433.41
405.377	444.93
405.755	427.76
406.133	425.05
406.511	442.9
406.889	468.43
407.267	453.07
407.645	453.75
408.023	464.14
408.401	469.34
408.779	467.08
409.156	476.34
409.534	476.34
409.912	485.83
410.29	496.91
410.667	502.11
411.045	511.6
411.422	535.78
411.8	502.56
412.178	541.43
412.555	536.68
412.933	552.5
413.31	573.06
413.687	566.51
414.065	580.75
414.442	575.55
414.819	560.63
415.197	593.4
415.574	631.37
415.951	611.93
416.328	604.93
416.705	615.55
417.082	648.77
417.46	643.12
417.837	669.11
418.214	654.19
418.591	676.34
418.967	667.52
419.344	670.69
419.721	678.82
420.098	683.8
420.475	730.8
420.852	715.89
421.228	722.89
421.605	725.83
421.982	750.23
422.358	765.83
422.735	773.96
423.111	788.65
423.488	793.17
423.864	764.02
424.241	805.6
424.617	786.62
424.994	800.4
425.37	813.28
425.746	831.81
426.123	837.24
426.499	850.12
426.875	852.6
427.251	866.62
427.627	887.86
428.003	879.72
428.379	884.92
428.756	915.2
429.132	902.55
429.507	935.77
429.883	928.76
430.259	958.59
430.635	938.7
431.011	962.43
431.387	983
431.763	1010.34
432.138	1000.62
432.514	1012.15
432.89	1002.66
433.265	1031.58
433.641	1033.62
434.016	1032.71
434.392	1074.97
434.767	1109.77
435.143	1091.47
435.518	1105.48
435.894	1119.72
436.269	1129.89
436.644	1130.11
437.02	1163.56
437.395	1172.6
437.77	1182.09
438.145	1195.87
438.52	1213.5
438.895	1201.52
439.271	1207.85
439.646	1217.11
440.021	1241.75
440.395	1236.78
440.77	1197.45
441.145	1238.36
441.52	1281.97
441.895	1274.74
442.27	1260.73
442.645	1262.31
443.019	1288.75
443.394	1302.99
443.769	1312.71
444.143	1302.54
444.518	1295.3
444.892	1309.09
445.267	1312.93
445.641	1321.74
446.016	1310.67
446.39	1303.67
446.764	1295.53
447.139	1340.5
447.513	1335.76
447.887	1336.89
448.262	1341.86
448.636	1348.18
449.01	1355.64
449.384	1366.94
449.758	1387.05
450.132	1385.25
450.506	1395.42
450.88	1392.7
451.254	1394.29
451.628	1407.62
452.002	1427.05
452.376	1439.26
452.75	1425.47
453.123	1436.32
453.497	1476.54
453.871	1467.73
454.244	1472.7
454.618	1484.9
454.992	1477.45
455.365	1500.5
455.739	1503.21
456.112	1507.05
456.486	1511.8
456.859	1559.03
457.232	1556.32
457.606	1571.23
457.979	1569.2
458.352	1601.51
458.725	1619.36
459.099	1607.84
459.472	1634.28
459.845	1659.59
460.218	1647.84
460.591	1629.08
460.964	1644.45
461.337	1699.14
461.71	1699.14
462.083	1713.6
462.456	1701.85
462.829	1700.49
463.201	1745.69
463.574	1723.99
463.947	1764.67
464.32	1760.6
464.692	1796.99
465.065	1780.49
465.438	1839.92
465.81	1848.74
466.183	1834.27
466.555	1875.18
466.928	1890.32
467.3	1868.62
467.672	1913.82
468.045	1914.05
468.417	1901.16
468.789	1917.89
469.161	1964.89
469.534	1971.67
469.906	1979.13
470.278	2017.55
470.65	2009.41
471.022	2065
471.394	2037.43
471.766	2065.45
472.138	2055.51
472.51	2118.79
472.882	2136.19
473.253	2166.24
473.625	2174.6
473.997	2222.51
474.369	2196.52
474.74	2215.05
475.112	2254.83
475.484	2253.92
475.855	2318.33
476.227	2301.15
476.598	2364.66
476.97	2380.47
477.341	2416.41
477.713	2436.97
478.084	2443.98
478.455	2457.99
478.827	2476.06
479.198	2548.15
479.569	2546.8
479.94	2580.24
480.311	2615.5
480.682	2662.95
481.053	2682.16
481.424	2715.38
481.795	2727.36
482.166	2759.67
482.537	2761.93
482.908	2824.53
483.279	2815.04
483.65	2897.52
484.021	2931.19
484.391	2932.55
484.762	2917.86
485.133	2942.49
485.503	2980.23
485.874	3010.97
486.244	3031.08
486.615	3054.35
486.985	3088.93
487.356	3127.35
487.726	3157.18
488.097	3183.84
488.467	3174.58
488.837	3242.37
489.207	3308.59
489.578	3296.61
489.948	3332.09
490.318	3304.97
490.688	3351.3
491.058	3416.38
491.428	3430.16
491.798	3457.96
492.168	3492.76
492.538	3532.99
492.908	3569.6
493.278	3562.36
493.648	3532.31
494.017	3589.03
494.387	3645.53
494.757	3600.33
495.126	3676.94
495.496	3705.19
495.866	3662.02
496.235	3680.33
496.605	3705.86
496.974	3761.45
497.344	3804.62
497.713	3784.73
498.082	3806.2
498.452	3848.01
498.821	3821.34
499.19	3859.53
499.559	3873.32
499.928	3895.91
500.298	3898.63
500.667	3955.8
501.036	3917.61
501.405	3958.74
501.774	3947.66
502.143	3979.08
502.512	3948.79
502.88	3984.27
503.249	4017.72
503.618	4032.86
503.987	4071.05
504.356	4027.21
504.724	4100.43
505.093	4064.05
505.462	4080.32
505.83	4106.76
506.199	4156.7
506.567	4189.69
506.936	4093.42
507.304	4154.89
507.672	4153.53
508.041	4219.07
508.409	4220.2
508.777	4248.22
509.145	4224.95
509.514	4247.54
509.882	4263.81
510.25	4253.87
510.618	4308.11
510.986	4278.73
511.354	4295.68
511.722	4327.99
512.09	4387.65
512.458	4365.96
512.826	4377.03
513.193	4384.72
513.561	4416.35
513.929	4394.43
514.297	4455
514.664	4498.38
515.032	4435.79
515.4	4440.98
515.767	4426.07
516.135	4472.17
516.502	4491.38
516.869	4542
517.237	4502.9
517.604	4482.34
517.972	4586.29
518.339	4582.45
518.706	4567.08
519.073	4567.54
519.44	4592.62
519.808	4630.36
520.175	4643.92
520.542	4634.2
520.909	4660.41
521.276	4647.76
521.643	4673.97
522.009	4741.32
522.376	4725.95
522.743	4755.78
523.11	4762.56
523.477	4800.3
523.843	4837.36
524.21	4831.26
524.577	4853.86
524.943	4907.64
525.31	4875.32
525.676	4942.67
526.043	4938.15
526.409	4951.71
526.776	4995.77
527.142	5052.27
527.508	5006.62
527.874	5061.53
528.241	5123
528.607	5114.41
528.973	5138.14
529.339	5123.68
529.705	5165.03
530.071	5166.39
530.437	5203.45
530.803	5237.8
531.169	5235.99
531.535	5247.97
531.901	5290.91
532.267	5312.83
532.632	5295.88
532.998	5368.19
533.364	5332.03
533.73	5360.51
534.095	5428.3
534.461	5401.86
534.826	5445.03
535.192	5514.63
535.557	5501.07
535.923	5547.62
536.288	5563.89
536.653	5561.18
537.019	5605.93
537.384	5556.21
537.749	5584.01
538.114	5604.57
538.479	5638.02
538.845	5694.74
539.21	5680.73
539.575	5710.78
539.94	5737
540.305	5744.45
540.67	5747.62
541.034	5773.38
541.399	5791.68
541.764	5836.65
542.129	5831.23
542.494	5865.35
542.858	5871.91
543.223	5910.78
543.587	5973.83
543.952	5912.58
544.316	6022.41
544.681	6004.33
545.045	6051.34
545.41	6073.03
545.774	6100.83
546.138	6102.41
546.503	6123.2
546.867	6127.27
547.231	6207.49
547.595	6096.08
547.959	6195.29
548.324	6231.67
548.688	6250.43
549.052	6281.61
549.416	6283.42
549.779	6326.13
550.143	6322.52
550.507	6387.15
550.871	6449.97
551.235	6367.26
551.599	6394.83
551.962	6437.32
552.326	6470.31
552.689	6470.08
553.053	6514.6
553.417	6517.77
553.78	6520.7
554.143	6505.56
554.507	6518.22
554.87	6570.87
555.234	6618.33
555.597	6570.65
555.96	6648.16
556.323	6608.39
556.686	6721.38
557.05	6642.96
557.413	6729.96
557.776	6766.12
558.139	6772
558.502	6776.06
558.865	6755.05
559.228	6778.1
559.59	6786.69
559.953	6780.81
560.316	6937.64
560.679	6871.43
561.041	6895.16
561.404	6964.76
561.767	6980.58
562.129	6956.17
562.492	7036.17
562.854	6986.91
563.217	6976.74
563.579	7094.47
563.941	7056.06
564.304	7126.11
564.666	7159.78
565.028	7222.61
565.39	7156.85
565.753	7217.41
566.115	7203.62
566.477	7254.02
566.839	7285.88
567.201	7369.95
567.563	7277.29
567.925	7398.2
568.287	7385.09
568.648	7440
569.01	7459.66
569.372	7461.47
569.734	7487.91
570.095	7592.09
570.457	7584.41
570.819	7593.9
571.18	7575.59
571.542	7720.45
571.903	7740.33
572.265	7753.21
572.626	7805.19
572.987	7831.86
573.349	7839.77
573.71	7841.35
574.071	7910.72
574.432	8058.52
574.794	8136.03
575.155	8119.98
575.516	8111.17
575.877	8204.28
576.238	8236.82
576.599	8359.98
576.96	8367.21
577.32	8502.35
577.681	8584.6
578.042	8590.03
578.403	8715.67
578.763	8811.27
579.124	8875.44
579.485	8981.43
579.845	9149.56
580.206	9227.3
580.566	9293.51
580.927	9412.38
581.287	9561.53
581.648	9633.16
582.008	9787.06
582.368	9901.18
582.728	10076.99
583.089	10232.47
583.449	10329.87
583.809	10548.39
584.169	10694.15
584.529	10902.96
584.889	11190.86
585.249	11258.21
585.609	11456.39
585.969	11741.13
586.329	11946.78
586.688	12096.15
587.048	12318.97
587.408	12528.91
587.768	12791.73
588.127	12990.59
588.487	13202.11
588.846	13630.57
589.206	13740.4
589.565	13971.81
589.925	14262.2
590.284	14467.16
590.643	14812.69
591.003	15081.84
591.362	15435.27
591.721	15614.02
592.08	16031.87
592.44	16303.27
592.799	16583.72
593.158	16846.99
593.517	17096.25
593.876	17382.79
594.235	17625.95
594.593	17979.84
594.952	18267.29
595.311	18472.25
595.67	18906.59
596.029	19241.5
596.387	19601.94
596.746	19834.48
597.104	20101.14
597.463	20280.57
597.822	20727.34
598.18	20911.96
598.538	21171.17
598.897	21768.21
599.255	21687.09
599.613	22330.23
599.972	22429.21
600.33	22785.59
600.688	23001.63
601.046	23432.35
601.404	23736.97
601.762	23975.84
602.12	24412.21
602.478	24621.25
602.836	24793.9
603.194	25075.7
603.552	25349.14
603.91	25548.9
604.268	25847.2
604.625	26041.32
604.983	26387.53
605.341	26550.01
605.698	26930.56
606.056	27154.51
606.413	27364.45
606.771	27686.48
607.128	27918.33
607.485	28117.42
607.843	28224.99
608.2	28688.71
608.557	28942.26
608.914	29066.55
609.272	29419.76
609.629	29531.17
609.986	29823.37
610.343	29916.7
610.7	30292.51
611.057	30427.65
611.414	30531.82
611.771	30790.35
612.127	31171.13
612.484	31296.55
612.841	31510.33
613.198	31642.53
613.554	31759.36
613.911	32143.76
614.267	32168.17
614.624	32287.71
614.98	32573.58
615.337	32770.18
615.693	32886.11
616.05	33107.12
616.406	33413.33
616.762	33256.95
617.118	33527
617.475	33653.78
617.831	33927.44
618.187	33842.02
618.543	34108.23
618.899	34486.75
619.255	34413.53
619.611	34477.48
619.967	34666.18
620.323	34880.41
620.678	34850.58
621.034	34825.72
621.39	34978.94
621.746	35130.57
622.101	35552.48
622.457	35430
622.812	35563.78
623.168	35791.57
623.523	35726.49
623.879	36007.39
624.234	35785.7
624.589	36056.65
624.945	36055.97
625.3	36232.24
625.655	36345.46
626.01	36403.53
626.365	36509.97
626.72	36434.04
627.075	36528.05
627.43	36629.97
627.785	36580.25
628.14	36714.49
628.495	36916.29
628.85	36758.78
629.205	36735.73
629.559	36926.23
629.914	36907.02
630.269	36855.05
630.623	36830.87
630.978	36943.18
631.332	37017.76
631.687	37140.92
632.041	37112.22
632.396	37244.42
632.75	37032.9
633.104	37319.22
633.459	36973.46
633.813	37118.09
634.167	37278.77
634.521	37208.94
634.875	37305.88
635.229	37300.46
635.583	37150.41
635.937	37221.37
636.291	37211.42
636.645	37302.95
636.999	37127.58
637.352	37497.29
637.706	37210.29
638.06	37383.4
638.413	37310.18
638.767	37209.39
639.121	37170.97
639.474	37001.48
639.828	37174.59
640.181	37017.53
640.534	37210.29
640.888	37060.24
641.241	36945.22
641.594	37086.23
641.947	37194.7
642.301	37017.3
642.654	37130.97
643.007	37210.29
643.36	36990.86
643.713	37060.24
644.066	37151.99
644.419	37004.42
644.771	36825.44
645.124	36539.8
645.477	36465
645.83	36324.89
646.182	36105.69
646.535	36164.9
646.888	36165.8
647.24	35873.83
647.593	36261.17
647.945	36097.78
648.298	35964.22
648.65	35976.43
649.002	35850.78
649.355	35983.43
649.707	35926.48
650.059	36183.65
650.411	36469.52
650.763	36530.31
651.115	36918.1
651.467	36781.6
651.819	36815.27
652.171	36718.1
652.523	36693.92
652.875	36669.06
653.227	36639.23
653.578	36900.47
653.93	36744.09
654.282	36535.96
654.633	36599.24
654.985	36687.37
655.337	36634.94
655.688	36792.45
656.039	36847.82
656.391	36613.25
656.742	36590.87
657.094	36710.19
657.445	36766.24
657.796	36652.79
658.147	36519.01
658.498	36530.54
658.849	36720.81
659.2	36522.18
659.551	36489.18
659.902	36668.61
660.253	36510.2
660.604	36589.97
660.955	36570.08
661.306	36634.94
661.656	36709.97
662.007	36604.88
662.358	36596.75
662.708	36729.18
663.059	36505.23
663.409	36372.12
663.76	36577.99
664.11	36595.17
664.461	36575.28
664.811	36559.69
665.161	36511.33
665.511	36408.51
665.862	36409.86
666.212	36472.01
666.562	36595.85
666.912	36349.3
667.262	36455.28
667.612	36520.82
667.962	36462.52
668.312	36414.83
668.662	36653.02
669.011	36498
669.361	36438.56
669.711	36471.33
670.06	36441.73
670.41	36357.21
670.76	36276.76
671.109	36380.48
671.459	36328.28
671.808	36310.43
672.157	36425.45
672.507	36153.82
672.856	36105.01
673.205	36222.3
673.554	36330.54
673.904	36216.42
674.253	36336.87
674.602	36411.22
674.951	35865.24
675.3	35669.54
675.649	36181.39
675.998	36114.05
676.346	36181.85
676.695	36089.19
677.044	35787.28
677.393	36038.8
677.741	36232.47
678.09	35979.59
678.438	35845.58
678.787	35840.16
679.135	36010.78
679.484	35771.91
679.832	35844.68
680.181	35625.25
680.529	35798.13
680.877	35753.83
681.225	35692.59
681.573	35806.26
681.922	35585.7
682.27	35359.27
682.618	35554.29
682.966	35438.81
683.314	35464.58
683.661	35419.38
684.009	35242.66
684.357	35207.63
684.705	35034.53
685.053	35212.38
685.4	35139.39
685.748	34839.51
686.095	34863.91
686.443	34869.11
686.79	34692.39
687.138	34853.74
687.485	34834.76
687.832	34605.62
688.18	34711.83
688.527	34575.79
688.874	34594.77
689.221	34429.8
689.568	34364.72
689.915	34234.33
690.262	34185.06
690.609	34130.6
690.956	34048.34
691.303	33967.21
691.65	33854.45
691.997	33803.6
692.344	33678.86
692.69	33808.8
693.037	33639.77
693.383	33430.28
693.73	33432.31
694.077	33338.3
694.423	33361.58
694.769	33215.6
695.116	33077.52
695.462	33017.41
695.808	32919.78
696.155	33040.46
696.501	32750.75
696.847	32673.46
697.193	32549.62
697.539	32675.5
697.885	32523.64
698.231	32395.96
698.577	32428.72
698.923	32341.72
699.269	32245
699.614	31999.81
699.96	32030.32
700.306	31927.72
700.651	31898.12
700.997	31674.17
701.342	31621.29
701.688	31680.95
702.033	31576.09
702.379	31627.84
702.724	31388.98
703.069	31522.98
703.415	31097.69
703.76	31269.21
704.105	31259.26
704.45	31175.65
704.795	30879.61
705.14	30955.32
705.485	30836
705.83	30691.14
706.175	30921.19
706.52	30665.61
706.865	30454.31
707.209	30414.09
707.554	30378.83
707.899	30457.48
708.243	30253.19
708.588	30176.35
708.932	30030.82
709.277	30060.88
709.621	30094.1
709.966	29891.39
710.31	30007.77
710.654	29648.23
710.998	29739.3
711.342	29772.75
711.687	29624.73
712.031	29515.35
712.375	29368.69
712.719	29509.48
713.063	29462.93
713.407	29424.28
713.75	29316.94
714.094	29197.4
714.438	29128.7
714.782	29161.69
715.125	28958.98
715.469	29031.07
715.812	28957.85
716.156	28798.31
716.499	28744.53
716.843	28771.42
717.186	28584.08
717.53	28810.29
717.873	28698.2
718.216	28647.58
718.559	28416.63
718.902	28221.15
719.246	28482.39
719.589	28208.72
719.932	28175.95
720.275	28257.76
720.617	28225.67
720.96	28296.63
721.303	28170.98
721.646	28158.1
721.989	27956.3
722.331	28056.41
722.674	27913.14
723.016	27926.92
723.359	27864.55
723.701	28005.34
724.044	27723.54
724.386	27513.15
724.729	27769.19
725.071	27637.44
725.413	27575.74
725.755	27607.16
726.097	27535.07
726.439	27333.26
726.782	27338.24
727.124	27489.42
727.465	27389.08
727.807	27350.67
728.149	27217.11
728.491	27259.37
728.833	27106.15
729.175	27108.19
729.516	27121.07
729.858	27097.79
730.199	27028.87
730.541	27001.3
730.882	27012.82
731.224	26973.73
731.565	26884.24
731.906	26929.21
732.248	26917.46
732.589	26755.65
732.93	26743.9
733.271	26680.63
733.612	26665.71
733.953	26655.32
734.294	26573.28
734.635	26625.26
734.976	26597.92
735.317	26460.97
735.658	26466.85
735.999	26397.92
736.339	26356.79
736.68	26495.09
737.021	26297.13
737.361	26220.98
737.702	26490.8
738.042	26209.9
738.383	26218.94
738.723	26343.69
739.063	26139.4
739.404	26167.87
739.744	26213.75
740.084	26018.5
740.424	26018.72
740.764	26032.28
741.104	26215.33
741.444	25875
741.784	25798.39
742.124	25902.34
742.464	25769.24
742.804	25778.95
743.143	25781.67
743.483	25782.57
743.823	25611.28
744.162	25551.62
744.502	25667.55
744.841	25638.39
745.181	25589.13
745.52	25522.92
745.86	25505.06
746.199	25549.36
746.538	25478.62
746.877	25540.54
747.216	25563.82
747.556	25532.18
747.895	25371.96
748.234	25368.12
748.573	25307.1
748.911	25299.19
749.25	25277.73
749.589	25259.65
749.928	25179.87
750.267	25272.98
750.605	25183.49
750.944	25136.26
751.283	25026.21
751.621	25175.81
751.96	25009.26
752.298	25012.65
752.636	24936.27
752.975	24868.47
753.313	24828.25
753.651	25056.04
753.989	24829.6
754.327	24852.88
754.666	24710.73
755.004	24779.66
755.342	24797.51
755.679	24735.14
756.017	24529.04
756.355	24571.53
756.693	24466.22
757.031	24670.51
757.368	24469.84
757.706	24355.26
758.044	24284.3
758.381	24345.77
758.719	24345.55
759.056	24318.88
759.394	24250.63
759.731	24090.19
760.068	24076.17
760.405	24044.31
760.743	24075.27
761.08	23942.39
761.417	23771.55
761.754	23902.39
762.091	23829.4
762.428	23715.28
762.765	23598.67
763.102	23751.66
763.438	23616.3
763.775	23466.93
764.112	23553.7
764.449	23534.72
764.785	23353.03
765.122	23286.37
765.458	23192.36
765.795	23132.24
766.131	23111
766.467	23075.75
766.804	22919.82
767.14	22919.14
767.476	22771.35
767.812	22733.16
768.148	22764.57
768.485	22528.19
768.821	22481.87
769.157	22422.21
769.492	22434.64
769.828	22461.53
770.164	22223.57
770.5	22279.61
770.836	22219.5
771.171	22152.38
771.507	21975.89
771.842	21847.31
772.178	21833.97
772.513	21840.98
772.849	21826.97
773.184	21625.84
773.519	21659.06
773.855	21573.64
774.19	21316.93
774.525	21383.14
774.86	21413.42
775.195	21350.37
775.53	21186.31
775.865	21112.64
776.2	21001
776.535	20836.26
776.87	20801.23
777.205	20722.14
777.539	20588.13
777.874	20725.3
778.209	20396.05
778.543	20548.36
778.878	20244.41
779.212	20469.26
779.547	20252.32
779.881	20416.84
780.215	20105.21
780.55	20236.5
780.884	19930.97
781.218	19932.33
781.552	19855.04
781.886	19809.39
782.22	19778.66
782.554	19599.46
782.888	19443.75
783.222	19469.97
783.556	19335.51
783.889	19294.61
784.223	19184.1
784.557	19207.6
784.89	19213.93
785.224	18973.03
785.557	19035.63
785.891	18909.31
786.224	18901.17
786.558	18836.09
786.891	18672.93
787.224	18654.17
787.557	18660.95
787.891	18535.08
788.224	18559.94
788.557	18531.24
788.89	18468.19
789.223	18464.57
789.556	18216.89
789.888	18242.88
790.221	18088.08
790.554	17955.66
790.887	18023.45
791.219	17888.31
791.552	17859.16
791.884	17823.68
792.217	17777.81
792.549	17670.92
792.882	17554.99
793.214	17510.02
793.546	17544.37
793.879	17456.46
794.211	17238.39
794.543	17332.62
794.875	17287.43
795.207	17400.64
795.539	17256.69
795.871	17209.01
796.203	17113.65
796.535	17034.55
796.867	16922.24
797.198	16889.25
797.53	16916.14
797.862	16753.43
798.193	16710.72
798.525	16605.64
798.856	16689.93
799.188	16465.53
799.519	16452.65
799.85	16324.29
800.182	16369.94
800.513	16430.95
800.844	16223.73
801.175	16297.85
801.506	16225.53
801.837	16167
802.168	16062.83
802.499	16080
802.83	15934.92
803.161	15966.33
803.491	15848.59
803.822	15915.26
804.153	15815.38
804.483	15754.36
804.814	15686.79
805.145	15657.64
805.475	15633.01
805.805	15547.59
806.136	15553.69
806.466	15552.33
806.796	15427.59
807.126	15294.94
807.457	15287.48
807.787	15435.95
808.117	15221.49
808.447	15260.36
808.777	15230.08
809.107	15207.48
809.436	15065.79
809.766	15069.41
810.096	15006.81
810.426	14959.35
810.755	14934.72
811.085	14905.57
811.414	14955.96
811.744	14830.99
812.073	14835.97
812.403	14734.5
812.732	14747.83
813.061	14732.24
813.39	14664.44
813.719	14534.96
814.049	14680.49
814.378	14483.43
814.707	14461.96
815.036	14453.6
815.365	14310.33
815.693	14287.05
816.022	14261.07
816.351	14305.58
816.68	14191.46
817.008	14169.77
817.337	14082.31
817.665	14006.16
817.994	14142.42
818.322	14096.32
818.651	13934.29
818.979	14006.61
819.307	13989.21
819.636	13956.21
819.964	13880.74
820.292	13955.54
820.62	13884.35
820.948	13798.93
821.276	13903.56
821.604	13870.57
821.932	13803.22
822.259	13897.01
822.587	13776.33
822.915	13797.12
823.243	13769.1
823.57	13767.52
823.898	13744.92
824.225	13755.54
824.553	13685.94
824.88	13720.74
825.207	13768.88
825.535	13734.3
825.862	13804.81
826.189	13783.79
826.516	13785.37
826.843	13862.88
827.17	13739.05
827.497	13767.52
827.824	13758.25
828.151	13846.84
828.478	13849.55
828.805	13763
829.131	13709.67
829.458	13730.01
829.785	13636
830.111	13700.18
830.438	13712.15
830.764	13782.89
831.09	13702.89
831.417	13754.19
831.743	13748.08
832.069	13634.64
832.395	13679.84
832.722	13730.23
833.048	13626.28
833.374	13639.39
833.7	13553.51
834.026	13639.16
834.351	13601.42
834.677	13604.36
835.003	13654.98
835.329	13597.58
835.654	13577.24
835.98	13471.93
836.306	13477.81
836.631	13457.02
836.956	13523.23
837.282	13481.65
837.607	13445.27
837.932	13408.88
838.258	13337.93
838.583	13393.07
838.908	13317.59
839.233	13301.32
839.558	13292.5
839.883	13284.37
840.208	13158.27
840.533	13160.53
840.858	13147.2
841.182	13154.2
841.507	13120.08
841.832	13069.23
842.156	12998.05
842.481	13076.46
842.805	12969.12
843.13	12979.97
843.454	12923.93
843.778	12919.86
844.103	12890.25
844.427	12888.9
844.751	12797.83
845.075	12800.09
845.399	12698.39
845.723	12611.84
846.047	12630.6
846.371	12560.55
846.695	12543.14
847.019	12469.47
847.343	12441.45
847.666	12374.79
847.99	12307.22
848.313	12323.26
848.637	12245.75
848.96	12177.96
849.284	12178.41
849.607	12080.78
849.931	12092.54
850.254	11968.47
850.577	11852.09
850.9	11871.75
851.223	11895.93
851.546	11721.92
851.869	11822.49
852.192	11778.42
852.515	11700.68
852.838	11590.85
853.161	11651.64
853.483	11534.58
853.806	11480.8
854.129	11456.62
854.451	11483.74
854.774	11330.97
855.096	11329.84
855.419	11318.77
855.741	11333.23
856.063	11219.56
856.385	11175.95
856.708	11139.57
857.03	11155.84
857.352	11253.69
857.674	11119.23
857.996	11046.23
858.318	10954.03
858.64	11021.15
858.961	10904.09
859.283	10958.78
859.605	10919.01
859.926	10945.45
860.248	10834.26
860.57	10801.72
860.891	10819.35
861.212	10772.8
861.534	10685.11
861.855	10700.93
862.176	10686.92
862.498	10743.19
862.819	10660.93
863.14	10683.98
863.461	10613.03
863.782	10606.92
864.103	10622.52
864.424	10521.73
864.745	10557.89
865.065	10495.74
865.386	10509.07
865.707	10443.99
866.027	10478.57
866.348	10403.09
866.668	10496.87
866.989	10375.07
867.309	10386.37
867.63	10350.66
867.95	10318.8
868.27	10281.74
868.59	10294.84
868.91	10280.83
869.23	10276.31
869.55	10241.28
869.87	10305.46
870.19	10234.5
870.51	10282.64
870.83	10226.37
871.15	10182.75
871.469	10102.3
871.789	10136.43
872.109	10104.79
872.428	10041.29
872.748	10123.55
873.067	10062.53
873.386	10111.12
873.706	10091.01
874.025	9973.95
874.344	10014.62
874.663	10064.57
874.982	10037.9
875.301	9956.09
875.62	9895.08
875.939	9949.54
876.258	9905.7
876.577	9895.08
876.896	9836.78
877.214	9774.4
877.533	9903.67
877.852	9775.53
878.17	9804.23
878.489	9867.73
878.807	9799.04
879.125	9759.49
879.444	9764.69
879.762	9710.68
880.08	9709.32
880.398	9654.18
880.716	9653.96
881.034	9633.16
881.352	9585.48
881.67	9593.17
881.988	9617.57
882.306	9566.05
882.624	9566.73
882.941	9506.39
883.259	9461.64
883.577	9468.2
883.894	9447.63
884.212	9443.57
884.529	9378.71
884.846	9412.83
885.164	9393.62
885.481	9295.77
885.798	9293.74
886.115	9275.21
886.432	9300.52
886.75	9282.21
887.067	9254.42
887.383	9241.54
887.7	9225.27
888.017	9139.84
888.334	9193.85
888.651	9112.73
888.967	9074.31
889.284	9071.37
889.6	9002.9
889.917	8979.62
890.233	9004.93
890.55	8994.54
890.866	8971.04
891.182	8883.35
891.498	8884.71
891.815	8854.43
892.131	8807.65
892.447	8803.13
892.763	8778.72
893.079	8818.27
893.395	8727.2
893.71	8689.69
894.026	8646.07
894.342	8638.61
894.657	8598.62
894.973	8602.91
895.289	8586.19
895.604	8521.78
895.92	8458.05
896.235	8503.25
896.55	8432.29
896.865	8371.96
897.181	8362.24
897.496	8405.4
897.811	8379.41
898.126	8292.18
898.441	8288.12
898.756	8270.94
899.071	8258.51
899.386	8226.87
899.7	8114.33
900.015	8148.23
900.33	8026.88
900.644	8017.39
900.959	8097.39
901.273	8006.99
901.588	7991.4
901.902	7945.75
902.216	7908.46
902.531	7907.11
902.845	7905.98
903.159	7871.18
903.473	7799.54
903.787	7835.47
904.101	7715.48
904.415	7765.42
904.729	7666.89
905.042	7639.54
905.356	7670.5
905.67	7706.44
905.984	7623.5
906.297	7578.3
906.611	7553.45
906.924	7507.12
907.237	7474.8
907.551	7530.4
907.864	7404.3
908.177	7437.97
908.491	7337.86
908.804	7336.5
909.117	7291.08
909.43	7264.19
909.743	7249.05
910.056	7216.28
910.368	7162.27
910.681	7156.85
910.994	7127.69
911.307	7073.91
911.619	7050.18
911.932	7078.2
912.244	7000.47
912.557	7016.06
912.869	6911.65
913.181	6960.24
913.494	6903.52
913.806	6820.81
914.118	6868.04
914.43	6788.04
914.742	6812.22
915.054	6690.64
915.366	6755.95
915.678	6656.52
915.99	6693.13
916.302	6631.21
916.613	6617.88
916.925	6583.08
917.236	6614.71
917.548	6550.31
917.859	6544.43
918.171	6484.1
918.482	6427.37
918.794	6446.13
919.105	6423.53
919.416	6364.32
919.727	6401.39
920.038	6353.7
920.349	6278.22
920.66	6287.72
920.971	6251.56
921.282	6190.77
921.593	6182.41
921.903	6133.82
922.214	6121.39
922.525	6134.73
922.835	6105.35
923.146	6078
923.456	6011.34
923.767	6006.82
924.077	5991.9
924.387	6001.4
924.697	5945.35
925.008	5961.4
925.318	5866.03
925.628	5881.63
925.938	5861.06
926.248	5765.47
926.558	5781.06
926.867	5729.31
927.177	5733.83
927.487	5667.85
927.796	5615.19
928.106	5615.87
928.416	5580.39
928.725	5598.24
929.034	5600.95
929.344	5577
929.653	5515.31
929.962	5513.95
930.271	5508.53
930.581	5442.99
930.89	5439.15
931.199	5395.99
931.508	5403.22
931.817	5391.24
932.125	5373.62
932.434	5338.59
932.743	5312.37
933.051	5259.72
933.36	5243
933.669	5200.96
933.977	5206.16
934.286	5190.12
934.594	5185.6
934.902	5107.63
935.21	5114.19
935.519	5144.47
935.827	5078.26
936.135	5074.41
936.443	5046.84
936.751	5019.27
937.059	5018.82
937.367	4996
937.674	4959.16
937.982	4961.65
938.29	4894.31
938.597	4907.87
938.905	4878.71
939.213	4794.42
939.52	4869.22
939.827	4854.53
940.135	4799.62
940.442	4802.78
940.749	4773.41
941.056	4802.11
941.363	4731.6
941.67	4677.81
941.977	4682.79
942.284	4606.4
942.591	4652.5
942.898	4605.05
943.205	4588.78
943.511	4592.62
943.818	4514.66
944.125	4542.9
944.431	4509.68
944.738	4513.07
945.044	4490.7
945.35	4392.4
945.657	4418.16
945.963	4359.18
946.269	4431.72
946.575	4387.43
946.881	4345.39
947.187	4339.29
947.493	4305.62
947.799	4288.45
948.105	4297.94
948.41	4228.34
948.716	4251.61
949.022	4233.08
949.327	4211.84
949.633	4197.83
949.938	4179.3
950.244	4140.2
950.549	4096.59
950.854	4087.32
951.16	4065.63
951.465	4069.7
951.77	4027.21
952.075	4002.8
952.38	3994.89
952.685	4014.78
952.99	3969.58
953.294	3952.86
953.599	3968
953.904	3955.35
954.209	3904.95
954.513	3919.42
954.818	3886.2
955.122	3884.62
955.426	3860.44
955.731	3826.09
956.035	3876.71
956.339	3796.48
956.643	3777.5
956.948	3775.92
957.252	3711.96
957.556	3761.91
957.86	3720.1
958.163	3697.28
958.467	3734.56
958.771	3692.98
959.075	3671.06
959.378	3649.82
959.682	3628.58
959.985	3619.31
960.289	3596.04
960.592	3606.43
960.896	3568.24
961.199	3537.73
961.502	3510.84
961.805	3534.79
962.108	3507
962.411	3517.62
962.714	3476.72
963.017	3458.19
963.32	3427
963.623	3404.18
963.926	3408.24
964.228	3406.66
964.531	3369.6
964.833	3358.3
965.136	3341.13
965.438	3356.72
965.741	3319.21
966.043	3312.65
966.345	3290.05
966.648	3295.48
966.95	3257.29
967.252	3219.77
967.554	3308.36
967.856	3192.66
968.158	3197.85
968.46	3175.03
968.761	3183.16
969.063	3158.31
969.365	3160.34
969.666	3177.29
969.968	3104.3
970.269	3088.03
970.571	3093
970.872	3061.59
971.174	3082.15
971.475	3051.87
971.776	3049.84
972.077	3003.96
972.378	3009.38
972.679	3028.14
972.98	3036.5
973.281	2984.07
973.582	2994.02
973.883	2931.65
974.183	2963.74
974.484	2948.14
974.785	2918.54
975.085	2883.06
975.386	2947.24
975.686	2879.22
975.986	2857.52
976.287	2858.2
976.587	2850.29
976.887	2857.75
977.187	2816.39
977.487	2814.59
977.787	2808.94
978.087	2771.88
978.387	2762.38
978.687	2779.56
978.987	2742.95
979.286	2710.41
979.586	2696.4
979.885	2695.95
980.185	2689.39
980.484	2710.41
980.784	2667.92
981.083	2641.03
981.382	2667.02
981.682	2615.72
981.981	2616.85
982.28	2621.82
982.579	2590.41
982.878	2594.71
983.177	2577.08
983.475	2573.24
983.774	2534.37
984.073	2521.04
984.372	2523.3
984.67	2496.86
984.969	2488.72
985.267	2492.11
985.566	2460.47
985.864	2463.18
986.162	2461.38
986.461	2468.16
986.759	2467.03
987.057	2406.24
987.355	2422.05
987.653	2421.6
987.951	2366.46
988.249	2370.3
988.547	2359.01
988.844	2389.97
989.142	2330.76
989.44	2351.55
989.737	2310.87
990.035	2300.93
990.332	2296.18
990.63	2226.35
990.927	2332.79
991.224	2291.44
991.521	2256.41
991.819	2252.57
992.116	2223.87
992.413	2240.14
992.71	2233.59
993.006	2221.83
993.303	2201.27
993.6	2187.94
993.897	2186.13
994.193	2178.67
994.49	2192.91
994.787	2140.25
995.083	2144.77
995.379	2143.19
995.676	2109.97
995.972	2150.2
996.268	2133.25
996.565	2080.37
996.861	2107.26
997.157	2072.69
997.453	2073.36
997.749	2043.53
998.044	2010.54
998.34	2025.46
998.636	1995.17
998.932	2034.27
999.227	1954.72
999.523	1982.07
999.818	1994.95
1000.114	1978.22
1000.409	1966.02
1000.704	1935.29
1001	1918.57
1001.295	1898
1001.59	1895.97
1001.885	1923.99
1002.18	1907.27
1002.475	1880.15
1002.77	1861.62
1003.065	1831.56
1003.359	1867.49
1003.654	1819.13
1003.949	1836.99
1004.243	1832.24
1004.538	1815.29
1004.832	1838.12
1005.127	1774.39
1005.421	1813.94
1005.715	1774.16
1006.009	1809.64
1006.304	1773.94
1006.598	1735.52
1006.892	1743.43
1007.186	1739.59
1007.48	1732.81
1007.773	1699.59
1008.067	1710.21
1008.361	1657.33
1008.655	1662.98
1008.948	1679.02
1009.242	1664.56
1009.535	1634.96
1009.829	1655.52
1010.122	1619.82
1010.415	1625.69
1010.708	1635.63
1011.001	1599.25
1011.295	1592.92
1011.588	1604.9
1011.881	1571.91
1012.173	1558.57
1012.466	1566.94
1012.759	1575.75
1013.052	1540.95
1013.344	1512.93
1013.637	1521.74
1013.93	1529.88
1014.222	1510.44
1014.514	1493.72
1014.807	1499.14
1015.099	1480.61
1015.391	1454.4
1015.683	1467.96
1015.976	1449.88
1016.268	1431.8
1016.56	1431.35
1016.851	1437
1017.143	1401.97
1017.435	1415.3
1017.727	1414.4
1018.018	1430.89
1018.31	1389.09
1018.602	1393.38
1018.893	1385.25
1019.185	1349.31
1019.476	1351.35
1019.767	1351.12
1020.058	1328.98
1020.35	1318.13
1020.641	1312.71
1020.932	1299.82
1021.223	1277.68
1021.514	1310.67
1021.804	1289.43
1022.095	1277.23
1022.386	1264.57
1022.677	1252.82
1022.967	1268.64
1023.258	1269.77
1023.548	1245.59
1023.839	1253.95
1024.129	1270.9
1024.419	1210.34
1024.709	1194.06
1025	1195.19
1025.29	1195.42
1025.58	1196.78
1025.87	1148.42
1026.16	1182.09
1026.449	1195.87
1026.739	1164.46
1027.029	1161.98
1027.319	1112.94
1027.608	1147.74
1027.898	1127.85
1028.187	1140.73
1028.477	1112.71
1028.766	1102.77
1029.055	1093.73
1029.344	1114.97
1029.634	1086.27
1029.923	1095.08
1030.212	1064.12
1030.501	1062.77
1030.79	1065.25
1031.078	1079.04
1031.367	1047.85
1031.656	1060.73
1031.945	1034.07
1032.233	1029.32
1032.522	1019.38
1032.81	1014.63
1033.099	1010.79
1033.387	1010.79
1033.675	982.32
1033.963	980.28
1034.251	988.65
1034.54	958.36
1034.828	952.04
1035.116	940.74
1035.403	979.38
1035.691	935.54
1035.979	935.31
1036.267	960.4
1036.554	928.53
1036.842	910.23
1037.129	901.19
1037.417	908.42
1037.704	923.79
1037.992	913.85
1038.279	908.2
1038.566	881.3
1038.853	881.3
1039.14	881.3
