Data from hue_50_FLMS001491_15.txt Node
Date: Mon Feb 06 15:09:40 GMT 2017
User: dcchb
Spectrometer: FLMS00149
Trigger mode: 0
Integration Time (sec): 2.000000E-2
Scans to average: 10
Electric dark correction enabled: true
Nonlinearity correction enabled: false
Boxcar width: 0
XAxis mode: Wavelengths
Number of Pixels in Spectrum: 2048
>>>>>Begin Spectral Data<<<<<
341.393	-11.95
341.776	-11.95
342.16	-11.95
342.543	-64.83
342.927	-77.71
343.31	-44.72
343.693	-60.08
344.077	-67.77
344.46	-59.41
344.843	-64.6
345.226	-46.3
345.61	-33.19
345.993	-13.98
346.376	-17.6
346.759	12.23
347.142	14.27
347.525	51.55
347.908	49.07
348.291	85.45
348.674	83.64
349.057	111.44
349.44	139.01
349.823	144.88
350.206	157.99
350.588	183.75
350.971	215.62
351.354	249.06
351.737	254.26
352.119	260.13
352.502	257.2
352.884	261.04
353.267	284.77
353.65	291.77
354.032	296.97
354.414	311.43
354.797	298.55
355.179	325.67
355.562	334.71
355.944	319.57
356.326	341.49
356.709	333.8
357.091	338.55
357.473	347.59
357.855	339.68
358.238	346.46
358.62	363.41
359.002	354.82
359.384	339.68
359.766	333.8
360.148	353.01
360.53	349.17
360.912	335.84
361.294	353.01
361.676	319.79
362.057	342.39
362.439	325.67
362.821	335.84
363.203	326.8
363.584	323.41
363.966	326.57
364.348	313.01
364.729	332.67
365.111	322.73
365.493	315.5
365.874	317.53
366.256	324.09
366.637	326.57
367.019	332.22
367.4	315.27
367.781	327.25
368.163	307.59
368.544	321.83
368.925	314.14
369.306	336.52
369.688	297.42
370.069	299.23
370.45	321.15
370.831	326.12
371.212	321.6
371.593	311.66
371.974	317.76
372.355	324.31
372.736	324.77
373.117	332
373.498	327.48
373.879	323.86
374.26	325.22
374.641	309.17
375.021	332.45
375.402	313.01
375.783	311.66
376.163	313.92
376.544	346.01
376.925	327.93
377.305	329.96
377.686	326.35
378.066	324.99
378.447	323.18
378.827	316.4
379.208	313.47
379.588	311.66
379.968	316.4
380.349	353.24
380.729	307.36
381.109	323.18
381.489	339.23
381.87	343.07
382.25	342.62
382.63	338.55
383.01	341.94
383.39	339.45
383.77	343.52
384.15	356.86
384.53	347.59
384.91	359.79
385.29	340.81
385.67	352.79
386.049	366.35
386.429	348.72
386.809	357.98
387.189	341.26
387.568	358.66
387.948	336.97
388.328	371.54
388.707	354.37
389.087	341.04
389.466	353.01
389.846	342.62
390.225	352.11
390.605	374.26
390.984	353.24
391.363	363.63
391.743	361.6
392.122	399.11
392.501	350.75
392.881	364.76
393.26	360.7
393.639	357.76
394.018	344.2
394.397	368.61
394.776	388.94
395.155	364.54
395.534	370.87
395.913	382.39
396.292	385.33
396.671	376.06
397.05	388.94
397.429	372
397.808	368.83
398.186	395.95
398.565	387.14
398.944	388.72
399.323	378.1
399.701	397.98
400.08	394.59
400.458	374.93
400.837	375.84
401.215	392.79
401.594	385.1
401.972	396.63
402.351	391.66
402.729	398.89
403.107	397.76
403.486	376.97
403.864	388.27
404.242	401.15
404.62	397.31
404.999	403.41
405.377	411.09
405.755	398.89
406.133	405.89
406.511	424.65
406.889	406.57
407.267	415.84
407.645	396.18
408.023	414.93
408.401	429.4
408.779	401.83
409.156	420.81
409.534	415.38
409.912	430.53
410.29	439.34
410.667	423.29
411.045	451.77
411.422	418.32
411.8	414.25
412.178	416.06
412.555	422.84
412.933	450.64
413.31	454.93
413.687	446.57
414.065	462.16
414.442	466.68
414.819	451.09
415.197	465.1
415.574	451.99
415.951	452.9
416.328	466.23
416.705	458.32
417.082	469.39
417.46	444.31
417.837	502.61
418.214	471.65
418.591	475.95
418.967	460.36
419.344	468.26
419.721	491.09
420.098	491.31
420.475	481.37
420.852	529.73
421.228	487.93
421.605	503.07
421.982	490.64
422.358	515.49
422.735	506.68
423.111	506.68
423.488	516.4
423.864	508.26
424.241	517.98
424.617	514.59
424.994	507.13
425.37	516.4
425.746	494.25
426.123	531.99
426.499	512.56
426.875	538.77
427.251	523.63
427.627	523.18
428.003	544.87
428.379	546.68
428.756	538.77
429.132	557.98
429.507	553.46
429.883	560.01
430.259	554.36
430.635	568.15
431.011	575.83
431.387	553.91
431.763	573.12
432.138	594.14
432.514	554.59
432.89	602.95
433.265	595.04
433.641	622.16
434.016	588.94
434.392	601.14
434.767	629.84
435.143	605.44
435.518	621.71
435.894	601.82
436.269	633.46
436.644	601.59
437.02	622.16
437.395	667.58
437.77	639.11
438.145	645.89
438.52	648.6
438.895	650.18
439.271	662.61
439.646	663.51
440.021	678.88
440.395	675.49
440.77	649.28
441.145	670.29
441.52	685.21
441.895	702.16
442.27	671.2
442.645	686.79
443.019	699.22
443.394	659.22
443.769	686.34
444.143	676.17
444.518	683.4
444.892	706.22
445.267	727.69
445.641	734.7
446.016	711.42
446.39	715.26
446.764	745.77
447.139	729.73
447.513	755.71
447.887	719.56
448.262	737.86
448.636	752.78
449.01	730.63
449.384	762.49
449.758	773.12
450.132	763.4
450.506	788.71
450.88	787.13
451.254	744.19
451.628	751.87
452.002	781.48
452.376	786
452.75	805.66
453.123	767.92
453.497	805.88
453.871	797.52
454.244	834.13
454.618	826.45
454.992	850.85
455.365	832.77
455.739	860.34
456.112	855.6
456.486	861.93
456.859	891.08
457.232	894.69
457.606	868.03
457.979	903.06
458.352	891.98
458.725	905.77
459.099	905.77
459.472	936.27
459.845	928.14
460.218	945.31
460.591	939.44
460.964	962.26
461.337	980.34
461.71	1007.46
462.083	991.64
462.456	1014.92
462.829	985.09
463.201	1026.89
463.574	1054.46
463.947	1043.62
464.32	1057.85
464.692	1082.71
465.065	1083.84
465.438	1101.24
465.81	1126.1
466.183	1115.25
466.555	1135.82
466.928	1138.76
467.3	1191.41
467.672	1202.71
468.045	1196.15
468.417	1212.88
468.789	1245.65
469.161	1246.78
469.534	1282.93
469.906	1320.9
470.278	1329.26
470.65	1317.28
471.022	1372.42
471.394	1389.82
471.766	1429.37
472.138	1453.78
472.51	1465.98
472.882	1461.91
473.253	1551.17
473.625	1566.54
473.997	1589.59
474.369	1624.62
474.74	1657.61
475.112	1671.85
475.484	1736.71
475.855	1809.25
476.227	1798.4
476.598	1839.3
476.97	1886.08
477.341	1964.72
477.713	2003.14
478.084	2039.52
478.455	2139.41
478.827	2142.8
479.198	2261.21
479.569	2286.97
479.94	2366.07
480.311	2388.67
480.682	2521.77
481.053	2566.74
481.424	2646.51
481.795	2707.53
482.166	2763.12
482.537	2863.46
482.908	2941.19
483.279	2979.38
483.65	3104.58
484.021	3164.92
484.391	3286.72
484.762	3359.94
485.133	3424.12
485.503	3533.04
485.874	3670.21
486.244	3735.75
486.615	3871.79
486.985	3965.57
487.356	4107.26
487.726	4136.64
488.097	4273.36
488.467	4363.76
488.837	4561.94
489.207	4659.34
489.578	4785.21
489.948	4898.88
490.318	5003.51
490.688	5112.21
491.058	5266.33
491.428	5395.37
491.798	5466.33
492.168	5702.03
492.538	5783.83
492.908	5891.85
493.278	6039.42
493.648	6094.78
494.017	6256.81
494.387	6408.22
494.757	6495
495.126	6678.95
495.496	6747.87
495.866	6851.83
496.235	6998.71
496.605	7142.67
496.974	7238.26
497.344	7395.54
497.713	7507.85
498.082	7630.34
498.452	7785.36
498.821	7867.17
499.19	7984.45
499.559	8111.91
499.928	8263.99
500.298	8404.78
500.667	8433.03
501.036	8588.95
501.405	8727.71
501.774	8776.29
502.143	8979
502.512	9024.42
502.88	9066.23
503.249	9257.19
503.618	9341.03
503.987	9445.88
504.356	9522.26
504.724	9695.82
505.093	9746.21
505.462	9856.94
505.83	9999.77
506.199	10100.78
506.567	10211.06
506.936	10317.95
507.304	10507.1
507.672	10571.28
508.041	10604.95
508.409	10825.51
508.777	10871.83
509.145	10995.9
509.514	10955.9
509.882	11144.37
510.25	11338.49
510.618	11464.36
510.986	11409.22
511.354	11569.67
511.722	11683.56
512.09	11800.4
512.458	11811.47
512.826	12018.7
513.193	12072.71
513.561	12083.1
513.929	12281.97
514.297	12386.37
514.664	12446.48
515.032	12586.82
515.4	12633.37
515.767	12796.08
516.135	12869.75
516.502	12873.59
516.869	13070.42
517.237	13171.66
517.604	13116.75
517.972	13315.84
518.339	13398.09
518.706	13454.14
519.073	13505.66
519.44	13653.23
519.808	13820.68
520.175	13871.98
520.542	14067.45
520.909	14116.49
521.276	14147.68
521.643	14255.47
522.009	14322.14
522.376	14533.43
522.743	14500.89
523.11	14787.21
523.477	14891.61
523.843	14927.77
524.21	15167.54
524.577	15168.67
524.943	15274.2
525.31	15369.12
525.676	15511.48
526.043	15633.06
526.409	15724.36
526.776	15816.34
527.142	15906.05
527.508	16088.87
527.874	16154.18
528.241	16230.34
528.607	16350.11
528.973	16498.35
529.339	16507.62
529.705	16741.28
530.071	16722.75
530.437	16928.62
530.803	16918.91
531.169	17136.75
531.535	17102.18
531.901	17240.03
532.267	17233.7
532.632	17407.48
532.998	17466.91
533.364	17580.58
533.73	17499.91
534.095	17800.69
534.461	17826
534.826	17926.11
535.192	17941.25
535.557	18089.72
535.923	17970.86
536.288	18189.15
536.653	18277.51
537.019	18323.39
537.384	18360
537.749	18422.82
538.114	18466.66
538.479	18537.17
538.845	18673.89
539.21	18634.11
539.575	18705.07
539.94	18783.94
540.305	18925.86
540.67	18837.73
541.034	19021
541.399	19196.13
541.764	19206.53
542.129	19294.21
542.494	19338.28
542.858	19362.23
543.223	19450.82
543.587	19620.98
543.952	19525.39
544.316	19569.46
544.681	19738.04
545.045	19757.7
545.41	19809.68
545.774	19910.69
546.138	19937.58
546.503	19957.92
546.867	20042.67
547.231	20228.42
547.595	20241.08
547.959	20300.74
548.324	20359.04
548.688	20357.23
549.052	20463.44
549.416	20479.49
549.779	20550.45
550.143	20530.34
550.507	20745.02
550.871	20831.34
551.235	20805.58
551.599	20955.18
551.962	20917.9
552.326	21083.09
552.689	21166.03
553.053	21097.78
553.417	21291.9
553.78	21565.11
554.143	21497.32
554.507	21574.15
554.87	21574.15
555.234	21895.27
555.597	21677.42
555.96	21792.45
556.323	21834.93
556.686	21947.47
557.05	22066.34
557.413	22088.71
557.776	22194.47
558.139	22274.24
558.502	22364.86
558.865	22488.25
559.228	22641.69
559.59	22560.34
559.953	22654.57
560.316	22925.53
560.679	23100.21
561.041	23124.39
561.404	23214.33
561.767	23327.32
562.129	23250.04
562.492	23505.17
562.854	23465.63
563.217	23477.6
563.579	23608.22
563.941	23729.57
564.304	23766.41
564.666	23973.41
565.028	24022.45
565.39	24100.86
565.753	24287.07
566.115	24305.38
566.477	24421.08
566.839	24484.81
567.201	24645.71
567.563	24726.84
567.925	25002.31
568.287	24923.21
568.648	25041.86
569.01	25121.85
569.372	25275.3
569.734	25171.57
570.095	25418.57
570.457	25497.44
570.819	25532.92
571.18	25654.27
571.542	25801.84
571.903	25770.65
572.265	25880.03
572.626	26017.88
572.987	26110.98
573.349	26153.46
573.71	26261.94
574.071	26249.28
574.432	26450.63
574.794	26567.69
575.155	26646.11
575.516	26609.72
575.877	26755.48
576.238	26869.83
576.599	27041.13
576.96	27035.48
577.32	27111.18
577.681	27200.22
578.042	27286.32
578.403	27396.6
578.763	27430.49
579.124	27583.71
579.485	27656.48
579.845	27743.48
580.206	27811.05
580.566	27825.74
580.927	27992.96
581.287	28236.12
581.648	28164.26
582.008	28369.9
582.368	28445.61
582.728	28535.55
583.089	28623.91
583.449	28714.75
583.809	28846.5
584.169	28882.43
584.529	28964.92
584.889	29142.99
585.249	29052.82
585.609	29109.32
585.969	29423.89
586.329	29277.68
586.688	29432.25
587.048	29603.77
587.408	29518.8
587.768	29761.28
588.127	29668.85
588.487	29823.2
588.846	29961.73
589.206	29812.35
589.565	30170.99
589.925	30332.79
590.284	30256.18
590.643	30494.37
591.003	30556.96
591.362	30752.89
591.721	30715.6
592.08	30901.36
592.44	30957.18
592.799	31174.8
593.158	31112.43
593.517	31128.48
593.876	31320.56
594.235	31343.61
594.593	31392.88
594.952	31595.13
595.311	31513.1
595.67	31713.54
596.029	31935.91
596.387	32055.46
596.746	32122.8
597.104	31974.55
597.463	32202.35
597.822	32289.35
598.18	32297.94
598.538	32355.56
598.897	32617.02
599.255	32516.24
599.613	32968.88
599.972	32710.58
600.33	32902.21
600.688	32782.9
601.046	33064.47
601.404	33194.64
601.762	33313.73
602.12	33418.13
602.478	33478.02
602.836	33462.88
603.194	33300.85
603.552	33635.98
603.91	33511.01
604.268	33763.21
604.625	33660.84
604.983	33817.67
605.341	33665.58
605.698	33967.72
606.056	34149.86
606.413	34176.3
606.771	34156.87
607.128	34389.63
607.485	34240.03
607.843	34279.35
608.2	34522.96
608.557	34783.97
608.914	34656.74
609.272	34753.92
609.629	34787.14
609.986	35080.91
610.343	34966.79
610.7	35169.27
611.057	35144.19
611.414	35149.16
611.771	35160.46
612.127	35426.89
612.484	35454.46
612.841	35518.87
613.198	35509.6
613.554	35590.96
613.911	35750.5
614.267	35862.14
614.624	35709.15
614.98	35696.94
615.337	36063.26
615.693	35985.07
616.05	35892.42
616.406	36187.33
616.762	36204.73
617.118	36201.11
617.475	36295.57
617.831	36302.58
618.187	36397.26
618.543	36472.97
618.899	36691.49
619.255	36634.77
619.611	36706.18
619.967	36733.75
620.323	36923.58
620.678	36703.24
621.034	36731.27
621.39	36846.07
621.746	36716.12
622.101	37210.35
622.457	37074.53
622.812	36963.8
623.168	37199.05
623.523	37099.39
623.879	37264.81
624.234	37034.31
624.589	37280.86
624.945	37358.14
625.3	37339.39
625.655	37338.48
626.01	37339.16
626.365	37442.43
626.72	37428.87
627.075	37333.96
627.43	37331.02
627.785	37348.88
628.14	37463.45
628.495	37537.35
628.85	37437.91
629.205	37281.08
629.559	37598.81
629.914	37298.93
630.269	37431.13
630.623	37331.93
630.978	37330.12
631.332	37470.23
631.687	37497.8
632.041	37450.12
632.396	37526.05
632.75	37234.53
633.104	37277.24
633.459	37284.25
633.813	37220.74
634.167	37252.83
634.521	37156.11
634.875	37283.79
635.229	37282.89
635.583	37206.28
635.937	37118.83
636.291	37069.56
636.645	37114.98
636.999	37075.89
637.352	37193.17
637.706	37081.31
638.06	37203.12
638.413	36985.5
638.767	37045.38
639.121	37037.47
639.474	36786.86
639.828	36889.68
640.181	36975.55
640.534	36963.35
640.888	36793.86
641.241	36671.61
641.594	36712.06
641.947	37052.61
642.301	36839.06
642.654	36768.1
643.007	36840.87
643.36	36811.72
643.713	36679.29
644.066	36767.88
644.419	36617.82
644.771	36391.39
645.124	35948.69
645.477	36009.25
645.83	35871.4
646.182	35649.03
646.535	35621.46
646.888	35701.91
647.24	35581.69
647.593	35684.29
647.945	35627.57
648.298	35437.97
648.65	35452.66
649.002	35377.4
649.355	35455.37
649.707	35437.97
650.059	35575.82
650.411	35938.97
650.763	35944.62
651.115	36273.65
651.467	36186.42
651.819	36110.49
652.171	36206.99
652.523	36089.02
652.875	36025.97
653.227	35814.45
653.578	36137.61
653.93	36221
654.282	36017.16
654.633	35816.94
654.985	36032.08
655.337	35956.14
655.688	35884.96
656.039	36075.46
656.391	35803.61
656.742	35837.05
657.094	35868.69
657.445	35960.89
657.796	35935.35
658.147	35953.89
658.498	35891.51
658.849	35985.07
659.2	35872.76
659.551	35613.56
659.902	35819.43
660.253	35815.81
660.604	35831.4
660.955	35668.47
661.306	35892.64
661.656	35647.68
662.007	35682.03
662.358	35739.43
662.708	35707.56
663.059	35808.35
663.409	35520.22
663.76	35755.47
664.11	35739.43
664.461	35730.61
664.811	35756.6
665.161	35616.72
665.511	35670.73
665.862	35608.81
666.212	35807.67
666.562	35810.16
666.912	35668.47
667.262	35633.44
667.612	35619.66
667.962	35701.69
668.312	35543.05
668.662	35661.46
669.011	35662.37
669.361	35492.2
669.711	35464.86
670.06	35491.98
670.41	35509.83
670.76	35292.43
671.109	35421.92
671.459	35435.03
671.808	35358.87
672.157	35629.15
672.507	35148.26
672.856	35227.8
673.205	35286.56
673.554	35510.96
673.904	35328.59
674.253	35628.24
674.602	35374.47
674.951	34896.96
675.3	34779.9
675.649	35211.08
675.998	35225.32
676.346	35257.63
676.695	35423.73
677.044	35037.07
677.393	35234.36
677.741	35269.16
678.09	35111.87
678.438	35072.33
678.787	35139.9
679.135	35063.74
679.484	34828.49
679.832	34890.64
680.181	34721.15
680.529	34954.59
680.877	34870.07
681.225	34678.66
681.573	34837.98
681.922	34620.59
682.27	34568.16
682.618	34705.56
682.966	34591.66
683.314	34698.55
683.661	34574.71
684.009	34300.14
684.357	34178.34
684.705	34197.77
685.053	34224.89
685.4	34321.84
685.748	34051.34
686.095	34092.47
686.443	34086.36
686.79	33920.27
687.138	33907.61
687.485	34055.4
687.832	33797.11
688.18	33854.51
688.527	33611.12
688.874	33630.33
689.221	33575.64
689.568	33429.66
689.915	33416.78
690.262	33341.52
690.609	33202.77
690.956	33188.99
691.303	33067.41
691.65	32933.85
691.997	33088.88
692.344	32906.73
692.69	32851.82
693.037	32883.01
693.383	32688.89
693.73	32770.69
694.077	32616.57
694.423	32509.91
694.769	32377.93
695.116	32363.7
695.462	32353.75
695.808	32202.8
696.155	32239.63
696.501	32067.43
696.847	31995.12
697.193	31805.97
697.539	31898.17
697.885	31677.39
698.231	31544.96
698.577	31624.06
698.923	31519.88
699.269	31328.02
699.614	31250.51
699.96	31191.3
700.306	31198.08
700.651	30991.08
700.997	30989.95
701.342	30907.46
701.688	30930.06
702.033	30775.72
702.379	30838.54
702.724	30569.39
703.069	30781.82
703.415	30281.94
703.76	30425.67
704.105	30370.98
704.45	30283.75
704.795	30136.41
705.14	30133.25
705.485	30058.45
705.83	29971.44
706.175	30050.09
706.52	29861.16
706.865	29802.18
707.209	29790.66
707.554	29628.18
707.899	29652.36
708.243	29606.48
708.588	29571.91
708.932	29426.6
709.277	29352.48
709.621	29355.64
709.966	29190.45
710.31	29323.1
710.654	28960.4
710.998	29057.57
711.342	29032.94
711.687	28914.52
712.031	28719.73
712.375	28632.04
712.719	28725.6
713.063	28662.55
713.407	28771.7
713.75	28482.9
714.094	28528.77
714.438	28451.48
714.782	28416.46
715.125	28238.16
715.469	28240.87
715.812	28100.76
716.156	28044.26
716.499	28062.79
716.843	28149.34
717.186	28045.62
717.53	28070.02
717.873	27971.72
718.216	27895.11
718.559	27790.03
718.902	27571.28
719.246	27632.97
719.589	27661
719.932	27517.5
720.275	27536.48
720.617	27537.16
720.96	27370.16
721.303	27528.8
721.646	27445.18
721.989	27233.89
722.331	27283.83
722.674	27211.97
723.016	27362.02
723.359	27195.02
723.701	27188.47
724.044	27008.58
724.386	26972.2
724.729	27038.41
725.071	27056.04
725.413	26981.01
725.755	26927.23
726.097	26845.65
726.439	26672.77
726.782	26718.42
727.124	26791.41
727.465	26517.3
727.807	26548.71
728.149	26525.43
728.491	26384.87
728.833	26583.74
729.175	26382.39
729.516	26256.29
729.858	26369.5
730.199	26350.07
730.541	26251.32
730.882	26150.08
731.224	26395.72
731.565	26102.39
731.906	26183.75
732.248	26059.46
732.589	26115.95
732.93	25965.22
733.271	25845.68
733.612	25800.71
733.953	26004.77
734.294	25816.3
734.635	25717.32
734.976	25796.86
735.317	25616.3
735.658	25719.35
735.999	25735.85
736.339	25685.45
736.68	25646.13
737.021	25607.72
737.361	25540.15
737.702	25645.68
738.042	25438
738.383	25473.48
738.723	25484.56
739.063	25383.99
739.404	25455.86
739.744	25345.35
740.084	25268.06
740.424	25245.69
740.764	25209.31
741.104	25257.9
741.444	25040.5
741.784	25028.97
742.124	25103.32
742.464	25001.4
742.804	24966.83
743.143	24924.8
743.483	24929.09
743.823	24861.75
744.162	24798.47
744.502	24894.06
744.841	24748.53
745.181	24892.03
745.52	24620.17
745.86	24643.22
746.199	24623.34
746.538	24487.75
746.877	24643
747.216	24685.03
747.556	24438.03
747.895	24534.52
748.234	24384.47
748.573	24371.14
748.911	24285.94
749.25	24227.19
749.589	24162.56
749.928	24137.92
750.267	24134.31
750.605	24144.93
750.944	23970.47
751.283	23912.39
751.621	24000.53
751.96	23890.25
752.298	23784.94
752.636	23825.84
752.975	23748.56
753.313	23757.6
753.651	23815.67
753.989	23693.42
754.327	23584.27
754.666	23500.2
755.004	23613.42
755.342	23542.91
755.679	23513.08
756.017	23312.86
756.355	23343.14
756.693	23331.39
757.031	23256.59
757.368	23221.34
757.706	23244.39
758.044	23006.88
758.381	23120.1
758.719	22858.64
759.056	22975.47
759.394	22970.05
759.731	22796.27
760.068	22657.74
760.405	22730.96
760.743	22625.2
761.08	22601.24
761.417	22445.09
761.754	22467.91
762.091	22370.51
762.428	22389.5
762.765	22227.92
763.102	22152.89
763.438	22019.79
763.775	22134.14
764.112	21954.71
764.449	22074.7
764.785	21874.03
765.122	21792.22
765.458	21735.73
765.795	21702.06
766.131	21693.24
766.467	21581.61
766.804	21425
767.14	21339.13
767.476	21448.96
767.812	21245.57
768.148	21276.53
768.485	21097.33
768.821	21023.88
769.157	20940.04
769.492	20952.02
769.828	20896.2
770.164	20734.85
770.5	20647.39
770.836	20674.74
771.171	20607.62
771.507	20486.95
771.842	20431.36
772.178	20397.01
772.513	20347.74
772.849	20251.7
773.184	20197.24
773.519	20173.06
773.855	20062.78
774.19	20004.93
774.525	19951.82
774.86	19911.14
775.195	19866.17
775.53	19771.03
775.865	19640.64
776.2	19531.04
776.535	19423.47
776.87	19329.46
777.205	19337.15
777.539	19198.17
777.874	19321.1
778.209	19114.1
778.543	19115.68
778.878	18969.47
779.212	18903.71
779.547	18830.27
779.881	18796.82
780.215	18642.93
780.55	18817.16
780.884	18584.17
781.218	18506.21
781.552	18534.91
781.886	18458.98
782.22	18315.25
782.554	18249.94
782.888	18160
783.222	18073
783.556	18016.05
783.889	17967.47
784.223	17824.87
784.557	17717.98
784.89	17785.55
785.224	17754.36
785.557	17577.65
785.891	17639.56
786.224	17548.04
786.558	17496.29
786.891	17336.3
787.224	17319.8
787.557	17275.51
787.891	17215.85
788.224	17182.63
788.557	17202.06
788.89	17036.64
789.223	17063.53
789.556	16894.73
789.888	16837.78
790.221	16802.52
790.554	16739.48
790.887	16725.24
791.219	16640.04
791.552	16508.52
791.884	16534.96
792.217	16384.46
792.549	16377.9
792.882	16254.74
793.214	16240.51
793.546	16272.37
793.879	16159.15
794.211	16075.09
794.543	16045.71
794.875	16016.1
795.207	16028.76
795.539	15927.97
795.871	15976.33
796.203	15730.46
796.535	15713.29
796.867	15730.24
797.198	15759.61
797.53	15666.28
797.862	15510.35
798.193	15554.42
798.525	15415.89
798.856	15499.73
799.188	15263.36
799.519	15287.54
799.85	15174.32
800.182	15197.82
800.513	15237.82
800.844	15027.2
801.175	15125.73
801.506	15041.89
801.837	14937.26
802.168	14864.5
802.499	14951.27
802.83	14824.27
803.161	14772.07
803.491	14763.48
803.822	14723.26
804.153	14568.46
804.483	14589.7
804.814	14525.75
805.145	14556.26
805.475	14512.64
805.805	14452.98
806.136	14447.78
806.466	14431.29
806.796	14350.39
807.126	14259.54
807.457	14244.17
807.787	14145.65
808.117	14130.5
808.447	14113.78
808.777	14087.57
809.107	14101.35
809.436	13980.23
809.766	13960.11
810.096	13923.28
810.426	13909.49
810.755	13855.71
811.085	13809.16
811.414	13828.59
811.744	13649.16
812.073	13667.01
812.403	13697.3
812.732	13575.04
813.061	13575.26
813.39	13480.8
813.719	13456.85
814.049	13498.43
814.378	13505.89
814.707	13415.72
815.036	13415.27
815.365	13358.1
815.693	13233.35
816.022	13292.56
816.351	13152.9
816.68	13142.06
817.008	13197.42
817.337	13020.7
817.665	13010.53
817.994	13103.86
818.322	13072.45
818.651	12990.87
818.979	12945.68
819.307	13037.65
819.636	12971.66
819.964	12813.7
820.292	12916.3
820.62	12959.24
820.948	12823.87
821.276	12823.65
821.604	12784.55
821.932	12807.83
822.259	12863.87
822.587	12824.55
822.915	12725.34
823.243	12832.46
823.57	12749.98
823.898	12792.01
824.225	12725.8
824.553	12734.83
824.88	12717.43
825.207	12799.69
825.535	12697.32
825.862	12687.38
826.189	12679.47
826.516	12784.78
826.843	12827.94
827.17	12707.94
827.497	12723.54
827.824	12709.98
828.151	12736.19
828.478	12716.08
828.805	12742.07
829.131	12690.99
829.458	12674.95
829.785	12552.69
830.111	12607.83
830.438	12748.85
830.764	12716.53
831.09	12640.37
831.417	12677.66
831.743	12718.56
832.069	12700.71
832.395	12623.2
832.722	12660.49
833.048	12657.1
833.374	12668.17
833.7	12612.8
834.026	12547.95
834.351	12651.9
834.677	12493.03
835.003	12603.54
835.329	12537.33
835.654	12554.5
835.98	12470.66
836.306	12459.36
836.631	12457.1
836.956	12492.81
837.282	12441.74
837.607	12339.36
837.932	12337.1
838.258	12343.66
838.583	12394.96
838.908	12321.29
839.233	12400.38
839.558	12267.5
839.883	12192.93
840.208	12177.11
840.533	12189.76
840.858	12232.25
841.182	12250.78
841.507	12147.05
841.832	12103.66
842.156	12022.31
842.481	12061.41
842.805	12044.01
843.13	12007.85
843.454	11988.19
843.778	11928.98
844.103	11974.85
844.427	11813.95
844.751	11948.87
845.075	11921.75
845.399	11816.21
845.723	11840.17
846.047	11765.14
846.371	11682.66
846.695	11741.19
847.019	11504.81
847.343	11510.69
847.666	11475.43
847.99	11419.84
848.313	11398.15
848.637	11385.72
848.96	11340.52
849.284	11284.93
849.607	11243.35
849.931	11137.36
850.254	11087.19
850.577	11005.84
850.9	11024.15
851.223	11002.68
851.546	10923.36
851.869	10865.28
852.192	10893.53
852.515	10752.74
852.838	10785.51
853.161	10732.18
853.483	10698.73
853.806	10642.46
854.129	10634.32
854.451	10548.23
854.774	10516.36
855.096	10504.61
855.419	10511.39
855.741	10460.54
856.063	10404.05
856.385	10343.94
856.708	10339.19
857.03	10306.88
857.352	10334.45
857.674	10304.62
857.996	10219.19
858.318	10095.13
858.64	10202.02
858.961	10178.07
859.283	10133.32
859.605	10076.37
859.926	10066.43
860.248	10030.05
860.57	9980.56
860.891	10046.09
861.212	9901.91
861.534	9914.34
861.855	9888.13
862.176	9962.25
862.498	9877.51
862.819	9848.13
863.14	9849.49
863.461	9871.63
863.782	9789.38
864.103	9743.05
864.424	9789.6
864.745	9791.18
865.065	9710.96
865.386	9610.4
865.707	9666.21
866.027	9694.69
866.348	9642.94
866.668	9603.84
866.989	9624.18
867.309	9557.52
867.63	9549.61
867.95	9567.23
868.27	9545.31
868.59	9541.25
868.91	9518.65
869.23	9488.82
869.55	9463.51
869.87	9483.39
870.19	9476.62
870.51	9431.19
870.83	9444.75
871.15	9353.23
871.469	9452.66
871.789	9404.07
872.109	9336.28
872.428	9348.71
872.748	9399.78
873.067	9400.46
873.386	9334.47
873.706	9293.34
874.025	9241.82
874.344	9226
874.663	9255.38
874.982	9201.14
875.301	9242.72
875.62	9188.26
875.939	9236.62
876.258	9136.51
876.577	9116.62
876.896	9085.44
877.214	9127.47
877.533	9150.3
877.852	9088.83
878.17	9081.37
878.489	9028.27
878.807	9044.31
879.125	9023.29
879.444	8968.83
879.762	9028.27
880.08	8995.05
880.398	8962.28
880.716	8883.18
881.034	8914.6
881.352	8901.04
881.67	8896.07
881.988	8921.83
882.306	8849.51
882.624	8859.68
882.941	8749.4
883.259	8782.62
883.577	8766.13
883.894	8852
884.212	8765.45
884.529	8739.91
884.846	8677.54
885.164	8638.9
885.481	8652.91
885.798	8660.82
886.115	8615.62
886.432	8553.25
886.75	8573.59
887.067	8569.97
887.383	8544.21
887.7	8506.92
888.017	8496.98
888.334	8482.74
888.651	8433.93
888.967	8430.54
889.284	8371.33
889.6	8394.16
889.917	8321.39
890.233	8338.34
890.55	8256.99
890.866	8263.31
891.182	8253.37
891.498	8203.2
891.815	8255.63
892.131	8234.39
892.447	8124.79
892.763	8078.46
893.079	8132.92
893.395	8094.5
893.71	8012.92
894.026	8098.8
894.342	8059.93
894.657	7930.44
894.973	7975.19
895.289	7962.76
895.604	7978.8
895.92	7874.62
896.235	7860.84
896.55	7870.56
896.865	7787.17
897.181	7802.76
897.496	7749.2
897.811	7731.58
898.126	7736.32
898.441	7713.72
898.756	7710.56
899.071	7611.58
899.386	7628.53
899.7	7555.08
900.015	7503.79
900.33	7499.04
900.644	7448.87
900.959	7503.33
901.273	7492.03
901.588	7432.38
901.902	7407.07
902.216	7316.9
902.531	7362.55
902.845	7308.99
903.159	7295.43
903.473	7241.19
903.787	7243.91
904.101	7160.74
904.415	7167.98
904.729	7156.9
905.042	7127.98
905.356	7133.63
905.67	7096.11
905.984	7096.79
906.297	7015.66
906.611	7045.27
906.924	6979.05
907.237	6944.25
907.551	6977.92
907.864	6920.52
908.177	6843.01
908.491	6877.36
908.804	6823.35
909.117	6817.7
909.43	6766.18
909.743	6772.28
910.056	6725.05
910.368	6687.99
910.681	6666.07
910.994	6615
911.307	6598.27
911.619	6569.12
911.932	6571.83
912.244	6499.29
912.557	6528.44
912.869	6488.45
913.181	6407.09
913.494	6433.08
913.806	6406.41
914.118	6403.02
914.43	6303.59
914.742	6251.39
915.054	6265.17
915.366	6208
915.678	6231.28
915.99	6169.81
916.302	6190.6
916.613	6157.61
916.925	6120.09
917.236	6074.44
917.548	6093.43
917.859	6086.87
918.171	6079.64
918.482	6004.62
918.794	6026.76
919.105	6024.73
919.416	5963.26
919.727	5916.48
920.038	5886.88
920.349	5852.53
920.66	5837.84
920.971	5834.9
921.282	5777.28
921.593	5721.46
921.903	5750.39
922.214	5708.58
922.525	5668.81
922.835	5670.84
923.146	5631.74
923.456	5626.55
923.767	5599.43
924.077	5589.03
924.387	5548.81
924.697	5517.85
925.008	5467.23
925.318	5487.57
925.628	5456.16
925.938	5452.31
926.248	5412.54
926.558	5344.52
926.867	5424.97
927.177	5327.35
927.487	5296.61
927.796	5278.08
928.106	5270.62
928.416	5233.56
928.725	5236.95
929.034	5161.93
929.344	5204.64
929.653	5217.07
929.962	5135.26
930.271	5129.16
930.581	5103.17
930.89	5053.68
931.199	5046.22
931.508	5064.08
931.817	5006.68
932.125	4981.37
932.434	4976.85
932.743	4930.52
933.051	4923.74
933.36	4894.81
933.669	4884.19
933.977	4855.27
934.286	4867.7
934.594	4818.88
934.902	4800.58
935.21	4771.2
935.519	4782.73
935.827	4808.26
936.135	4719.9
936.443	4709.51
936.751	4695.5
937.059	4658.44
937.367	4602.85
937.674	4639.68
937.982	4599.91
938.29	4591.32
938.597	4623.64
938.905	4539.34
939.213	4537.31
939.52	4492.34
939.827	4519.01
940.135	4469.29
940.442	4441.27
940.749	4441.27
941.056	4427.48
941.363	4362.17
941.67	4364.21
941.977	4331.89
942.284	4335.73
942.591	4298.67
942.898	4342.74
943.205	4267.49
943.511	4298.45
943.818	4302.29
944.125	4250.31
944.431	4248.28
944.738	4210.76
945.044	4193.59
945.35	4157.43
945.657	4143.65
945.963	4166.47
946.269	4095.51
946.575	4110.65
946.881	4080.15
947.187	4073.59
947.493	4047.38
947.799	4041.28
948.105	4020.71
948.41	3986.14
948.716	4005.12
949.022	3957.66
949.327	3980.49
949.633	3939.81
949.938	3916.31
950.244	3920.6
950.549	3909.3
950.854	3838.12
951.16	3830.44
951.465	3829.76
951.77	3826.14
952.075	3802.87
952.38	3786.37
952.685	3802.41
952.99	3718.35
953.294	3744.11
953.599	3749.99
953.904	3712.7
954.209	3658.24
954.513	3671.8
954.818	3625.7
955.122	3597.9
955.426	3610.33
955.731	3656.2
956.035	3608.29
956.339	3596.09
956.643	3583.44
956.948	3590.22
957.252	3545.47
957.556	3553.83
957.86	3518.81
958.163	3510.44
958.467	3466.83
958.771	3436.77
959.075	3439.94
959.378	3422.09
959.682	3390.22
959.985	3393.61
960.289	3361.3
960.592	3364.23
960.896	3366.72
961.199	3314.29
961.502	3326.72
961.805	3313.16
962.108	3315.65
962.411	3283.33
962.714	3229.77
963.017	3228.19
963.32	3246.5
963.623	3221.19
963.926	3209.44
964.228	3188.87
964.531	3163.79
964.833	3181.64
965.136	3191.13
965.438	3107.52
965.741	3092.83
966.043	3118.59
966.345	3089.21
966.648	3097.57
966.95	3079.04
967.252	3051.47
967.554	3077.69
967.856	3038.14
968.158	2995.2
968.46	3011.25
968.761	2990.68
969.063	3032.72
969.365	2973.74
969.666	2997.24
969.968	2916.34
970.269	2950.91
970.571	2932.61
970.872	2908.65
971.174	2902.55
971.475	2863.46
971.776	2888.99
972.077	2858.48
972.378	2811.93
972.679	2811.48
972.98	2842.21
973.281	2820.97
973.582	2773.51
973.883	2792.5
974.183	2769.22
974.484	2757.24
974.785	2743.23
975.085	2758.83
975.386	2751.59
975.686	2736.23
975.986	2712.73
976.287	2687.64
976.587	2666.85
976.887	2717.47
977.187	2652.16
977.487	2657.13
977.787	2616.91
978.087	2621.88
978.387	2597.7
978.687	2573.29
978.987	2594.31
979.286	2586.4
979.586	2568.55
979.885	2527.42
980.185	2543.24
980.484	2547.76
980.784	2505.05
981.083	2500.75
981.382	2520.19
981.682	2497.59
981.981	2480.64
982.28	2466.63
982.579	2436.12
982.878	2444.94
983.177	2411.94
983.475	2427.76
983.774	2417.37
984.073	2415.56
984.372	2378.95
984.67	2381.89
984.969	2364.94
985.267	2380.76
985.566	2341.21
985.864	2326.75
986.162	2337.37
986.461	2323.58
986.759	2329.68
987.057	2266.64
987.355	2293.53
987.653	2271.15
987.951	2233.64
988.249	2267.77
988.547	2228.9
988.844	2244.26
989.142	2240.42
989.44	2216.47
989.737	2208.33
990.035	2184.6
990.332	2211.95
990.63	2191.61
990.927	2166.3
991.224	2174.66
991.521	2155.9
991.819	2138.28
992.116	2135.11
992.413	2123.59
992.71	2134.66
993.006	2068.22
993.303	2109.13
993.6	2098.73
993.897	2075.68
994.193	2093.76
994.49	2040.65
994.787	2044.27
995.083	2006.08
995.379	1997.49
995.676	1997.04
995.972	2005.63
996.268	2011.95
996.565	2018.73
996.861	2021.22
997.157	1970.6
997.453	1955.91
997.749	1961.33
998.044	1921.33
998.34	1910.94
998.636	1934.21
998.932	1940.09
999.227	1936.25
999.523	1917.27
999.818	1853.54
1000.114	1861
1000.409	1873.2
1000.704	1828.23
1001	1841.56
1001.295	1818.06
1001.59	1858.06
1001.885	1826.19
1002.18	1812.18
1002.475	1794.33
1002.77	1797.04
1003.065	1778.51
1003.359	1771.96
1003.654	1756.59
1003.949	1752.75
1004.243	1757.5
1004.538	1730.6
1004.832	1721.79
1005.127	1733.32
1005.421	1716.37
1005.715	1729.7
1006.009	1712.75
1006.304	1719.98
1006.598	1651.74
1006.892	1650.83
1007.186	1639.76
1007.48	1653.77
1007.773	1637.05
1008.067	1593.21
1008.361	1604.96
1008.655	1616.71
1008.948	1643.83
1009.242	1582.13
1009.535	1592.08
1009.829	1580.78
1010.122	1558.18
1010.415	1571.06
1010.708	1530.84
1011.001	1544.17
1011.295	1522.47
1011.588	1521.12
1011.881	1508.46
1012.173	1495.36
1012.466	1522.02
1012.759	1505.07
1013.052	1496.26
1013.344	1480.67
1013.637	1466.43
1013.93	1456.94
1014.222	1447
1014.514	1446.32
1014.807	1434.11
1015.099	1451.29
1015.391	1397.51
1015.683	1426.66
1015.976	1411.74
1016.268	1393.66
1016.56	1396.6
1016.851	1381.91
1017.143	1387.79
1017.435	1375.81
1017.727	1378.75
1018.018	1357.51
1018.31	1329.71
1018.602	1325.19
1018.893	1287.68
1019.185	1296.49
1019.476	1294.91
1019.767	1287.9
1020.058	1294.23
1020.35	1275.47
1020.641	1288.81
1020.932	1272.99
1021.223	1260.79
1021.514	1246.78
1021.804	1214.91
1022.095	1233.22
1022.386	1235.48
1022.677	1225.53
1022.967	1200.22
1023.258	1207.68
1023.548	1200
1023.839	1206.78
1024.129	1177.4
1024.419	1171.52
1024.709	1174.69
1025	1134.24
1025.29	1163.61
1025.58	1134.69
1025.87	1166.55
1026.16	1136.5
1026.449	1131.3
1026.739	1099.66
1027.029	1106.89
1027.319	1131.3
1027.608	1093.56
1027.898	1087.01
1028.187	1075.03
1028.477	1088.81
1028.766	1070.28
1029.055	1057.85
1029.344	1070.28
1029.634	1054.69
1029.923	1063.73
1030.212	1041.58
1030.501	1041.81
1030.79	1020.11
1031.078	1013.79
1031.367	984.64
1031.656	1010.4
1031.945	983.73
1032.233	997.74
1032.522	996.16
1032.81	995.03
1033.099	996.16
1033.387	972.88
1033.675	959.1
1033.963	944.41
1034.251	958.2
1034.54	934.01
1034.828	925.43
1035.116	918.87
1035.403	926.56
1035.691	906.22
1035.979	929.5
1036.267	894.02
1036.554	904.19
1036.842	913.22
1037.129	921.36
1037.417	869.84
1037.704	887.01
1037.992	889.72
1038.279	867.12
1038.566	886.33
1038.853	886.33
1039.14	886.33
