Data from hue_180_FLMS001491_00097.txt Node
Date: Tue Feb 07 16:47:45 GMT 2017
User: dcchb
Spectrometer: FLMS00149
Trigger mode: 0
Integration Time (sec): 2.000000E-2
Scans to average: 10
Electric dark correction enabled: true
Nonlinearity correction enabled: false
Boxcar width: 0
XAxis mode: Wavelengths
Number of Pixels in Spectrum: 2048
>>>>>Begin Spectral Data<<<<<
341.393	-7.36
341.776	-7.36
342.16	-7.36
342.543	-67.24
342.927	-54.36
343.31	-70.41
343.693	-84.42
344.077	-51.65
344.46	-49.62
344.843	-55.04
345.226	-54.14
345.61	-36.28
345.993	-15.49
346.376	-7.36
346.759	21.79
347.142	36.03
347.525	41.91
347.908	42.36
348.291	78.06
348.674	96.82
349.057	107.44
349.44	126.88
349.823	144.05
350.206	158.74
350.588	200.09
350.971	225.63
351.354	225.4
351.737	227.66
352.119	266.08
352.502	252.52
352.884	276.93
353.267	268.79
353.65	296.59
354.032	286.19
354.414	310.6
354.797	288.45
355.179	323.71
355.562	295.91
355.944	332.97
356.326	327.32
356.709	325.29
357.091	346.76
357.473	324.84
357.855	334.78
358.238	348.56
358.62	358.96
359.002	344.72
359.384	340.43
359.766	334.1
360.148	352.41
360.53	336.81
360.912	346.53
361.294	360.99
361.676	324.84
362.057	327.77
362.439	346.3
362.821	320.99
363.203	328.45
363.584	316.25
363.966	316.93
364.348	316.02
364.729	307.66
365.111	335.68
365.493	318.73
365.874	315.57
366.256	305.85
366.637	321.67
367.019	302.92
367.4	299.53
367.781	307.21
368.163	315.8
368.544	323.03
368.925	311.73
369.306	325.97
369.688	314.89
370.069	309.7
370.45	306.53
370.831	297.49
371.212	306.98
371.593	317.38
371.974	308.34
372.355	305.85
372.736	313.76
373.117	313.99
373.498	311.96
373.879	297.27
374.26	317.83
374.641	324.84
375.021	308.79
375.402	315.34
375.783	324.38
376.163	324.84
376.544	338.62
376.925	311.73
377.305	317.6
377.686	330.94
378.066	328.9
378.447	335.01
378.827	328.9
379.208	325.51
379.588	342.46
379.968	335.23
380.349	311.28
380.729	340.88
381.109	341.11
381.489	338.62
381.87	335.46
382.25	339.98
382.63	335.01
383.01	349.92
383.39	334.1
383.77	343.59
384.15	348.34
384.53	341.78
384.91	353.54
385.29	341.56
385.67	332.52
386.049	351.5
386.429	328
386.809	357.6
387.189	360.77
387.568	355.8
387.948	359.86
388.328	344.72
388.707	377.04
389.087	377.49
389.466	346.08
389.846	360.77
390.225	376.81
390.605	357.15
390.984	360.99
391.363	374.55
391.743	381.78
392.122	367.32
392.501	373.42
392.881	373.2
393.26	365.51
393.639	379.52
394.018	380.2
394.397	363.93
394.776	377.26
395.155	376.59
395.534	379.3
395.913	379.75
396.292	393.08
396.671	385.63
397.05	385.85
397.429	399.86
397.808	378.17
398.186	371.39
398.565	389.24
398.944	396.02
399.323	399.18
399.701	389.02
400.08	415
400.458	411.61
400.837	382.01
401.215	413.87
401.594	408.9
401.972	412.74
402.351	415.91
402.729	402.8
403.107	425.17
403.486	425.17
403.864	420.2
404.242	443.03
404.62	456.13
404.999	427.88
405.377	436.25
405.755	446.41
406.133	432.18
406.511	428.79
406.889	468.79
407.267	473.76
407.645	463.82
408.023	467.43
408.401	467.21
408.779	476.47
409.156	460.2
409.534	471.95
409.912	503.36
410.29	520.99
410.667	499.52
411.045	499.97
411.422	513.08
411.8	515.34
412.178	522.57
412.555	543.81
412.933	547.88
413.31	553.08
413.687	551.27
414.065	548.33
414.442	575
414.819	583.13
415.197	593.53
415.574	590.59
415.951	581.78
416.328	615.9
416.705	593.98
417.082	609.57
417.46	632.17
417.837	625.17
418.214	636.47
418.591	648.67
418.967	649.35
419.344	660.87
419.721	643.7
420.098	662.45
420.475	672.4
420.852	687.76
421.228	684.6
421.605	687.54
421.982	719.18
422.358	733.86
422.735	743.58
423.111	735.45
423.488	737.93
423.864	781.55
424.241	781.32
424.617	769.8
424.994	795.56
425.37	804.6
425.746	809.34
426.123	835.56
426.499	835.78
426.875	825.84
427.251	859.29
427.627	865.84
428.003	866.29
428.379	896.57
428.756	885.5
429.132	914.43
429.507	896.12
429.883	914.88
430.259	932.96
430.635	942.67
431.011	942.67
431.387	973.86
431.763	983.35
432.138	979.28
432.514	979.51
432.89	1022.9
433.265	1041.2
433.641	1038.26
434.016	1028.77
434.392	1074.87
434.767	1096.79
435.143	1093.86
435.518	1118.71
435.894	1130.01
436.269	1161.2
436.644	1189.67
437.02	1219.05
437.395	1191.03
437.77	1205.72
438.145	1248.2
438.52	1229.22
438.895	1279.39
439.271	1298.6
439.646	1323.91
440.021	1330.91
440.395	1341.31
440.77	1319.39
441.145	1333.4
441.52	1383.79
441.895	1381.53
442.27	1411.36
442.645	1415.65
443.019	1415.2
443.394	1452.49
443.769	1460.17
444.143	1483
444.518	1485.94
444.892	1494.07
445.267	1491.81
445.641	1489.1
446.016	1529.1
446.39	1542.66
446.764	1550.34
447.139	1551.92
447.513	1588.31
447.887	1562.09
448.262	1573.62
448.636	1621.75
449.01	1626.5
449.384	1619.04
449.758	1670.34
450.132	1662.43
450.506	1690.9
450.88	1691.35
451.254	1704.01
451.628	1739.49
452.002	1734.29
452.376	1747.17
452.75	1766.15
453.123	1785.14
453.497	1826.94
453.871	1850.67
454.244	1893.38
454.618	1900.16
454.992	1897.9
455.365	1891.12
455.739	1983.1
456.112	1951.01
456.486	2019.25
456.859	2011.12
457.232	2021.74
457.606	2040.72
457.979	2073.72
458.352	2095.86
458.725	2128.18
459.099	2165.47
459.472	2162.98
459.845	2223.77
460.218	2238.46
460.591	2232.81
460.964	2265.58
461.337	2353.03
461.71	2371.56
462.083	2412.01
462.456	2431.22
462.829	2417.44
463.201	2475.51
463.574	2473.03
463.947	2508.96
464.32	2581.73
464.692	2593.93
465.065	2626.7
465.438	2644.55
465.81	2692.01
466.183	2722.29
466.555	2757.31
466.928	2775.62
467.3	2835.5
467.672	2861.94
468.045	2927.93
468.417	2946.01
468.789	2936.07
469.161	3018.32
469.534	3044.54
469.906	3167.25
470.278	3161.37
470.65	3199.34
471.022	3275.94
471.394	3332.44
471.766	3349.62
472.138	3404.3
472.51	3470.06
472.882	3557.07
473.253	3602.26
473.625	3680.68
473.997	3743.5
474.369	3755.93
474.74	3800.68
475.112	3916.61
475.484	3979.2
475.855	3998.19
476.227	4116.83
476.598	4193.43
476.97	4258.74
477.341	4378.51
477.713	4434.11
478.084	4458.74
478.455	4593.42
478.827	4664.83
479.198	4807.2
479.569	4832.51
479.94	4976.24
480.311	5010.81
480.682	5140.75
481.053	5281.09
481.424	5365.16
481.795	5391.37
482.166	5482.44
482.537	5619.16
482.908	5699.38
483.279	5750.23
483.65	5912.94
484.021	6029.09
484.391	6119.94
484.762	6147.06
485.133	6258.47
485.503	6308.41
485.874	6493.04
486.244	6579.36
486.615	6739.36
486.985	6802.18
487.356	6965.11
487.726	6991.33
488.097	7138.67
488.467	7209.4
488.837	7367.81
489.207	7478.32
489.578	7559.45
489.948	7616.17
490.318	7795.6
490.688	7794.02
491.058	7939.78
491.428	8079.43
491.798	8209.83
492.168	8356.49
492.538	8373.89
492.908	8453.89
493.278	8596.48
493.648	8526.2
494.017	8707.67
494.387	8825.4
494.757	8892.07
495.126	8949.69
495.496	8925.06
495.866	9011.84
496.235	9156.02
496.605	9212.06
496.974	9283.7
497.344	9382.9
497.713	9429
498.082	9534.31
498.452	9516.91
498.821	9640.75
499.19	9623.12
499.559	9709.45
499.928	9770.46
500.298	9856.79
500.667	9927.97
501.036	9854.53
501.405	9981.08
501.774	9949.44
502.143	10086.61
502.512	10136.33
502.88	10193.28
503.249	10157.12
503.618	10260.62
503.987	10269.89
504.356	10293.16
504.724	10366.15
505.093	10347.85
505.462	10461.07
505.83	10471.91
506.199	10566.15
506.567	10587.39
506.936	10604.11
507.304	10710.33
507.672	10671.68
508.041	10713.26
508.409	10753.49
508.777	10845.01
509.145	10902.64
509.514	10861.96
509.882	10946.7
510.25	10931.34
510.618	10971.11
510.986	10930.88
511.354	11054.95
511.722	11076.64
512.09	11101.73
512.458	11068.06
512.826	11155.06
513.193	11172.23
513.561	11197.09
513.929	11292.68
514.297	11327.48
514.664	11363.87
515.032	11302.85
515.4	11346.47
515.767	11376.07
516.135	11413.13
516.502	11317.32
516.869	11518.89
517.237	11386.69
517.604	11369.52
517.972	11406.58
518.339	11479.57
518.706	11483.64
519.073	11446.8
519.44	11509.4
519.808	11543.3
520.175	11511.43
520.542	11620.81
520.909	11737.64
521.276	11557.99
521.643	11600.25
522.009	11687.93
522.376	11660.36
522.743	11684.54
523.11	11733.58
523.477	11821.03
523.843	11811.09
524.21	11870.3
524.577	11870.52
524.943	11818.32
525.31	11866.91
525.676	11882.27
526.043	11843.4
526.409	11919.33
526.776	11956.85
527.142	11948.94
527.508	11952.1
527.874	11906.9
528.241	11938.09
528.607	11910.29
528.973	11974.7
529.339	11935.83
529.705	11883.63
530.071	11915.49
530.437	11952.78
530.803	11963.17
531.169	11975.15
531.535	11916.62
531.901	11937.64
532.267	11876.4
532.632	11875.04
532.998	11879.33
533.364	11900.35
533.73	11741.03
534.095	11847.02
534.461	11810.18
534.826	11772.67
535.192	11711.43
535.557	11678.89
535.923	11686.12
536.288	11641.15
536.653	11624.2
537.019	11558.44
537.384	11592.79
537.749	11509.63
538.114	11513.24
538.479	11446.58
538.845	11412.45
539.21	11360.48
539.575	11367.71
539.94	11235.96
540.305	11381.49
540.67	11205.91
541.034	11224.44
541.399	11155.29
541.764	11137.43
542.129	11150.54
542.494	11075.51
542.858	11012.46
543.223	11007.95
543.587	11032.58
543.952	10892.47
544.316	10898.8
544.681	10865.12
545.045	10896.08
545.41	10855.63
545.774	10809.31
546.138	10688.41
546.503	10717.11
546.867	10628.29
547.231	10555.53
547.595	10567.05
547.959	10578.8
548.324	10525.47
548.688	10486.38
549.052	10425.59
549.416	10334.74
549.779	10288.64
550.143	10280.51
550.507	10306.72
550.871	10220.85
551.235	10114.64
551.599	10191.24
551.962	10203.67
552.326	10104.69
552.689	10096.1
553.053	10030.8
553.417	9994.41
553.78	10151.7
554.143	9980.4
554.507	10049.1
554.87	9931.14
555.234	9961.64
555.597	9901.08
555.96	9912.15
556.323	9890.46
556.686	9822.67
557.05	9839.16
557.413	9861.76
557.776	9772.5
558.139	9790.8
558.502	9763.68
558.865	9746.51
559.228	9770.92
559.59	9697.02
559.953	9667.42
560.316	9764.59
560.679	9726.85
561.041	9698.83
561.404	9725.72
561.767	9698.15
562.129	9665.83
562.492	9785.38
562.854	9579.28
563.217	9711.03
563.579	9666.74
563.941	9615.44
564.304	9675.78
564.666	9656.34
565.028	9610.24
565.39	9678.49
565.753	9662.44
566.115	9653.86
566.477	9658.83
566.839	9624.7
567.201	9641.65
567.563	9662.67
567.925	9699.5
568.287	9638.49
568.648	9694.08
569.01	9662.67
569.372	9645.72
569.734	9637.81
570.095	9685.95
570.457	9726.62
570.819	9724.36
571.18	9629.9
571.542	9685.27
571.903	9644.37
572.265	9704.48
572.626	9699.05
572.987	9678.49
573.349	9721.65
573.71	9670.81
574.071	9674.87
574.432	9742.67
574.794	9715.1
575.155	9679.62
575.516	9700.18
575.877	9720.07
576.238	9699.96
576.599	9726.85
576.96	9735.44
577.32	9735.66
577.681	9739.96
578.042	9743.57
578.403	9733.4
578.763	9691.6
579.124	9725.72
579.485	9679.84
579.845	9790.35
580.206	9674.65
580.566	9729.56
580.927	9750.35
581.287	9769.11
581.648	9631.03
582.008	9751.93
582.368	9713.74
582.728	9723.01
583.089	9660.86
583.449	9689.56
583.809	9681.43
584.169	9683.23
584.529	9651.6
584.889	9675.1
585.249	9643.01
585.609	9637.59
585.969	9647.98
586.329	9572.95
586.688	9604.59
587.048	9616.12
587.408	9574.54
587.768	9496.8
588.127	9560.75
588.487	9461.77
588.846	9588.1
589.206	9500.19
589.565	9458.16
589.925	9523.46
590.284	9456.57
590.643	9490.47
591.003	9479.62
591.362	9562.79
591.721	9463.58
592.08	9445.73
592.44	9477.59
592.799	9437.82
593.158	9487.98
593.517	9435.56
593.876	9441.88
594.235	9423.81
594.593	9407.54
594.952	9437.14
595.311	9433.52
595.67	9434.88
596.029	9465.16
596.387	9431.26
596.746	9413.86
597.104	9355.11
597.463	9303.58
597.822	9406.63
598.18	9445.73
598.538	9292.96
598.897	9427.42
599.255	9309.01
599.613	9400.98
599.972	9343.36
600.33	9308.78
600.688	9383.13
601.046	9361.21
601.404	9341.55
601.762	9392.17
602.12	9365.05
602.478	9352.4
602.836	9400.08
603.194	9259.06
603.552	9364.37
603.91	9332.51
604.268	9311.27
604.625	9203.02
604.983	9281.21
605.341	9230.14
605.698	9263.81
606.056	9334.99
606.413	9363.02
606.771	9336.58
607.128	9303.36
607.485	9318.05
607.843	9348.78
608.2	9359.4
608.557	9385.16
608.914	9327.31
609.272	9319.18
609.629	9368.67
609.986	9339.06
610.343	9343.81
610.7	9403.69
611.057	9409.12
611.414	9360.76
611.771	9398.27
612.127	9414.09
612.484	9429.23
612.841	9433.07
613.198	9337.71
613.554	9396.01
613.911	9446.86
614.267	9450.92
614.624	9407.99
614.98	9430.13
615.337	9505.39
615.693	9396.69
616.05	9396.69
616.406	9455.67
616.762	9391.94
617.118	9404.82
617.475	9429.46
617.831	9492.5
618.187	9442.56
618.543	9478.72
618.899	9502
619.255	9512.62
619.611	9448.66
619.967	9576.12
620.323	9582.22
620.678	9465.39
621.034	9536.8
621.39	9470.58
621.746	9468.32
622.101	9583.12
622.457	9517.14
622.812	9565.72
623.168	9528.89
623.523	9541.32
623.879	9577.02
624.234	9546.74
624.589	9491.83
624.945	9519.62
625.3	9504.26
625.655	9509
626.01	9529.34
626.365	9508.78
626.72	9489.79
627.075	9535.44
627.43	9478.72
627.785	9451.83
628.14	9555.33
628.495	9497.02
628.85	9525.95
629.205	9434.65
629.559	9468.78
629.914	9416.8
630.269	9488.89
630.623	9462.45
630.978	9379.97
631.332	9450.25
631.687	9425.61
632.041	9394.2
632.396	9434.88
632.75	9401.66
633.104	9356.46
633.459	9371.83
633.813	9325.5
634.167	9370.93
634.521	9288.89
634.875	9328.22
635.229	9282.57
635.583	9250.7
635.937	9284.6
636.291	9237.82
636.645	9237.6
636.999	9251.61
637.352	9209.35
637.706	9204.83
638.06	9233.98
638.413	9186.07
638.767	9205.28
639.121	9184.04
639.474	9156.47
639.828	9087.32
640.181	9163.93
640.534	9175.22
640.888	9095.9
641.241	9099.07
641.594	9202.57
641.947	9137.26
642.301	9158.73
642.654	9113.76
643.007	9137.94
643.36	9086.41
643.713	9035.79
644.066	9090.71
644.419	9026.98
644.771	8971.39
645.124	8899.53
645.477	8934.55
645.83	8868.34
646.182	8769.13
646.535	8796.93
646.888	8805.74
647.24	8724.84
647.593	8803.26
647.945	8726.2
648.298	8701.79
648.65	8729.13
649.002	8697.72
649.355	8754.67
649.707	8771.85
650.059	8799.64
650.411	8846.87
650.763	8940.88
651.115	8973.2
651.467	8983.37
651.819	8976.59
652.171	9003.25
652.523	8989.24
652.875	8874.22
653.227	8932.75
653.578	8974.1
653.93	8944.04
654.282	8918.73
654.633	8949.47
654.985	8904.05
655.337	8910.83
655.688	8960.99
656.039	8992.18
656.391	8959.64
656.742	9001.67
657.094	9012.97
657.445	9061.56
657.796	8910.6
658.147	8917.15
658.498	8962.8
658.849	9009.35
659.2	8979.07
659.551	8946.08
659.902	9052.52
660.253	8946.98
660.604	9029.01
660.955	9019.3
661.306	9067.88
661.656	9001.44
662.007	9040.54
662.358	9029.92
662.708	9060.2
663.059	8975.23
663.409	8973.42
663.76	9007.55
664.11	9036.47
664.461	9048.22
664.811	9083.48
665.161	9011.84
665.511	8961.22
665.862	9022.46
666.212	8990.6
666.562	9066.98
666.912	8993.08
667.262	9038.73
667.612	8977.04
667.962	9112.85
668.312	9023.59
668.662	9045.74
669.011	9033.53
669.361	8992.63
669.711	8988.11
670.06	8997.15
670.41	9060.88
670.76	8986.53
671.109	9025.62
671.459	9026.75
671.808	8942.24
672.157	9024.95
672.507	8930.71
672.856	8920.54
673.205	9001.9
673.554	8981.78
673.904	8965.06
674.253	9007.55
674.602	8910.37
674.951	8764.61
675.3	8700.21
675.649	8884.16
675.998	8872.18
676.346	8860.66
676.695	8865.4
677.044	8837.38
677.393	8874.44
677.741	8926.42
678.09	8845.74
678.438	8873.99
678.787	8845.29
679.135	8847.78
679.484	8797.38
679.832	8824.73
680.181	8722.13
680.529	8763.48
680.877	8761.22
681.225	8665.86
681.573	8781.79
681.922	8711.73
682.27	8607.56
682.618	8691.4
682.966	8667.67
683.314	8620.66
683.661	8647.78
684.009	8516.26
684.357	8570.27
684.705	8560.1
685.053	8616.82
685.4	8510.84
685.748	8523.72
686.095	8485.98
686.443	8415.7
686.79	8403.04
687.138	8463.15
687.485	8424.28
687.832	8369.82
688.18	8404.62
688.527	8339.31
688.874	8410.27
689.221	8294.57
689.568	8295.02
689.915	8238.3
690.262	8253.22
690.609	8215.02
690.956	8240.56
691.303	8228.13
691.65	8123.95
691.997	8211.86
692.344	8088.7
692.69	8080.79
693.037	8032.43
693.383	7954.24
693.73	7999.44
694.077	7977.29
694.423	7933.68
694.769	7925.77
695.116	7874.02
695.462	7822.72
695.808	7836.28
696.155	7783.17
696.501	7752.66
696.847	7812.77
697.193	7720.35
697.539	7712.44
697.885	7598.54
698.231	7611.42
698.577	7540.92
698.923	7605.32
699.269	7544.31
699.614	7520.81
699.96	7486
700.306	7413.69
700.651	7434.71
700.997	7380.24
701.342	7350.64
701.688	7305.9
702.033	7365.78
702.379	7330.75
702.724	7283.98
703.069	7287.59
703.415	7152.23
703.76	7220.02
704.105	7216.41
704.45	7154.49
704.795	7146.8
705.14	7093.92
705.485	7052.34
705.83	7061.83
706.175	7072.91
706.52	7004.89
706.865	7000.14
707.209	7006.92
707.554	6979.58
707.899	6987.26
708.243	6838.79
708.588	6879.24
708.932	6854.16
709.277	6795.17
709.621	6826.36
709.966	6755.85
710.31	6821.61
710.654	6744.55
710.998	6732.8
711.342	6758.79
711.687	6687.83
712.031	6654.61
712.375	6624.78
712.719	6681.73
713.063	6675.86
713.407	6660.94
713.75	6659.81
714.094	6641.96
714.438	6563.09
714.782	6598.57
715.125	6562.86
715.469	6582.07
715.812	6592.69
716.156	6494.62
716.499	6550.44
716.843	6574.84
717.186	6498.69
717.53	6504.33
717.873	6521.96
718.216	6496.43
718.559	6464.79
718.902	6416.43
719.246	6432.92
719.589	6435.41
719.932	6375.07
720.275	6417.11
720.617	6384.79
720.96	6420.95
721.303	6359.71
721.646	6356.32
721.989	6319.93
722.331	6342.98
722.674	6399.7
723.016	6366.71
723.359	6328.75
723.701	6410.55
724.044	6348.63
724.386	6314.96
724.729	6395.64
725.071	6335.07
725.413	6303.44
725.755	6333.27
726.097	6284.68
726.439	6241.74
726.782	6258.92
727.124	6330.1
727.465	6303.21
727.807	6229.77
728.149	6265.92
728.491	6226.38
728.833	6246.94
729.175	6251.46
729.516	6245.36
729.858	6212.59
730.199	6273.61
730.541	6267.96
730.882	6213.27
731.224	6299.37
731.565	6257.79
731.906	6231.8
732.248	6243.78
732.589	6270.89
732.93	6220.05
733.271	6218.01
733.612	6248.07
733.953	6262.53
734.294	6236.32
734.635	6263.89
734.976	6272.7
735.317	6261.18
735.658	6251.46
735.999	6325.13
736.339	6241.97
736.68	6257.79
737.021	6303.44
737.361	6307.05
737.702	6314.74
738.042	6293.04
738.383	6287.39
738.723	6270.44
739.063	6281.52
739.404	6348.63
739.744	6338.69
740.084	6322.87
740.424	6385.24
740.764	6339.59
741.104	6387.73
741.444	6364
741.784	6422.98
742.124	6488.74
742.464	6375.07
742.804	6403.32
743.143	6413.49
743.483	6493.71
743.823	6509.31
744.162	6461.62
744.502	6528.06
744.841	6534.39
745.181	6573.71
745.52	6608.06
745.86	6635.86
746.199	6685.35
746.538	6703.2
746.877	6804.89
747.216	6839.92
747.556	6805.34
747.895	6872.46
748.234	6897.32
748.573	6942.29
748.911	6999.01
749.25	7063.87
749.589	7094.15
749.928	7170.53
750.267	7294.82
750.605	7382.05
750.944	7392.45
751.283	7441.71
751.621	7531.65
751.96	7582.5
752.298	7637.86
752.636	7775.94
752.975	7833.79
753.313	7891.42
753.651	8091.41
753.989	8106.1
754.327	8215.7
754.666	8244.63
755.004	8408.24
755.342	8586.99
755.679	8695.24
756.017	8771.62
756.355	8887.77
756.693	8971.61
757.031	9166.64
757.368	9213.42
757.706	9362.34
758.044	9545.84
758.381	9682.78
758.719	9846.85
759.056	9950.35
759.394	10124.13
759.731	10165.03
760.068	10321.64
760.405	10419.94
760.743	10580.84
761.08	10863.77
761.417	10908.74
761.754	11097.21
762.091	11304.43
762.428	11400.48
762.765	11599.34
763.102	11782.16
763.438	11917.75
763.775	12022.83
764.112	12217.18
764.449	12404.97
764.785	12572.42
765.122	12558.41
765.458	12824.85
765.795	12909.59
766.131	13080.66
766.467	13332.86
766.804	13374.66
767.14	13476.13
767.476	13686.07
767.812	13744.37
768.148	13909.11
768.485	14032.72
768.821	14073.85
769.157	14266.39
769.492	14458.25
769.828	14528.3
770.164	14497.12
770.5	14677
770.836	14887.84
771.171	14873.61
771.507	14993.6
771.842	15023.66
772.178	15174.16
772.513	15281.73
772.849	15355.85
773.184	15456.19
773.519	15518.33
773.855	15541.16
774.19	15615.73
774.525	15678.56
774.86	15797.65
775.195	15890.98
775.53	15927.14
775.865	15920.36
776.2	15877.87
776.535	15868.61
776.87	16123.52
777.205	16072.44
777.539	16104.99
777.874	16217.3
778.209	16207.58
778.543	16157.19
778.878	16237.41
779.212	16297.98
779.547	16234.02
779.881	16439.89
780.215	16291.87
780.55	16400.8
780.884	16417.29
781.218	16404.87
781.552	16465.43
781.886	16428.14
782.22	16537.97
782.554	16431.98
782.888	16306.34
783.222	16337.75
783.556	16337.97
783.889	16311.99
784.223	16263.63
784.557	16361.25
784.89	16436.5
785.224	16312.89
785.557	16342.49
785.891	16321.03
786.224	16297.52
786.558	16413
786.891	16213.23
787.224	16221.37
787.557	16273.12
787.891	16342.49
788.224	16306.34
788.557	16272.44
788.89	16248.94
789.223	16199.22
789.556	16132.1
789.888	16116.06
790.221	16149.73
790.554	16014.82
790.887	16083.52
791.219	16053.46
791.552	16070.86
791.884	15964.88
792.217	15992.9
792.549	15928.95
792.882	15928.72
793.214	15808.95
793.546	15813.24
793.879	15787.48
794.211	15874.03
794.543	15771.89
794.875	15789.06
795.207	15768.05
795.539	15639.24
795.871	15688.27
796.203	15548.84
796.535	15492.8
796.867	15494.83
797.198	15499.13
797.53	15459.13
797.862	15400.82
798.193	15403.31
798.525	15391.56
798.856	15392.91
799.188	15148.63
799.519	15258.68
799.85	15140.72
800.182	15101.4
800.513	15209.87
800.844	15071.12
801.175	15110.66
801.506	15165.12
801.837	15095.75
802.168	15069.99
802.499	14987.28
802.83	14890.55
803.161	14894.4
803.491	14853.27
803.822	15009.2
804.153	14813.04
804.483	14719.94
804.814	14637.45
805.145	14721.29
805.475	14679.71
805.805	14632.48
806.136	14592.71
806.466	14712.93
806.796	14665.7
807.126	14491.24
807.457	14516.78
807.787	14620.05
808.117	14477.23
808.447	14425.48
808.777	14437.46
809.107	14326.5
809.436	14282.89
809.766	14285.37
810.096	14216.45
810.426	14286.28
810.755	14194.98
811.085	14198.6
811.414	14144.13
811.744	14073.63
812.073	14015.55
812.403	13998.15
812.732	13915.89
813.061	14023.46
813.39	13988.88
813.719	13872.28
814.049	13940.98
814.378	13813.07
814.707	13785.73
815.036	13828.66
815.365	13777.14
815.693	13679.51
816.022	13686.29
816.351	13705.05
816.68	13526.07
817.008	13610.14
817.337	13548.22
817.665	13506.64
817.994	13587.31
818.322	13592.06
818.651	13454.21
818.979	13495.79
819.307	13583.24
819.636	13442.68
819.964	13401.1
820.292	13450.59
820.62	13457.82
820.948	13492.63
821.276	13414.89
821.604	13424.15
821.932	13435.23
822.259	13425.28
822.587	13309.58
822.915	13402.01
823.243	13447.2
823.57	13302.8
823.898	13347.09
824.225	13380.54
824.553	13344.61
824.88	13394.32
825.207	13382.35
825.535	13367.66
825.862	13482.46
826.189	13266.64
826.516	13508.9
826.843	13409.46
827.17	13464.15
827.497	13464.15
827.824	13427.54
828.151	13446.52
828.478	13394.32
828.805	13465.51
829.131	13343.7
829.458	13405.17
829.785	13402.23
830.111	13397.71
830.438	13490.82
830.764	13432.74
831.09	13467.32
831.417	13372.85
831.743	13408.11
832.069	13353.42
832.395	13289.92
832.722	13439.97
833.048	13424.6
833.374	13376.24
833.7	13322.23
834.026	13329.92
834.351	13377.15
834.677	13306.19
835.003	13311.61
835.329	13268.68
835.654	13299.64
835.98	13254.67
836.306	13296.92
836.631	13230.26
836.956	13195.91
837.282	13263.48
837.607	13250.37
837.932	13171.73
838.258	13158.4
838.583	13097.38
838.908	13069.59
839.233	13039.08
839.558	13037.5
839.883	13040.21
840.208	12913.21
840.533	12988.91
840.858	12989.59
841.182	12932.19
841.507	12947.78
841.832	12910.95
842.156	12816.94
842.481	12859.2
842.805	12783.49
843.13	12781.01
843.454	12719.31
843.778	12691.29
844.103	12677.05
844.427	12678.41
844.751	12700.33
845.075	12600.45
845.399	12534.91
845.723	12485.65
846.047	12535.14
846.371	12477.74
846.695	12410.62
847.019	12346.21
847.343	12313
847.666	12167.91
847.99	12198.87
848.313	12143.28
848.637	12091.76
848.96	11968.37
849.284	11964.3
849.607	11946.68
849.931	11867.58
850.254	11818.09
850.577	11881.37
850.9	11711.2
851.223	11674.14
851.546	11712.33
851.869	11600.92
852.192	11660.36
852.515	11573.13
852.838	11522.28
853.161	11485.45
853.483	11489.97
853.806	11362.29
854.129	11374.49
854.451	11368.39
854.774	11261.5
855.096	11201.84
855.419	11207.49
855.741	11133.37
856.063	11089.75
856.385	11138.11
856.708	11070.77
857.03	11027.38
857.352	11066.93
857.674	10981.51
857.996	10950.09
858.318	10902.86
858.64	10917.55
858.961	10940.15
859.283	10863.54
859.605	10757.56
859.926	10836.65
860.248	10737.22
860.57	10663.55
860.891	10702.87
861.212	10636.2
861.534	10555.53
861.855	10645.02
862.176	10551.91
862.498	10611.12
862.819	10641.18
863.14	10514.4
863.461	10564.79
863.782	10457.68
864.103	10519.82
864.424	10435.98
864.745	10486.15
865.065	10401.41
865.386	10335.42
865.707	10377.23
866.027	10394.63
866.348	10339.49
866.668	10353.05
866.989	10268.53
867.309	10296.78
867.63	10301.07
867.95	10217.46
868.27	10214.97
868.59	10288.42
868.91	10138.36
869.23	10192.83
869.55	10140.62
869.87	10176.55
870.19	10157.8
870.51	10130.91
870.83	10107.63
871.15	10104.92
871.469	10091.36
871.789	10107.63
872.109	10103.11
872.428	9944.24
872.748	10080.06
873.067	10013.17
873.386	9940.4
873.706	9967.75
874.025	9911.93
874.344	9902.66
874.663	9946.73
874.982	9928.2
875.301	9874.42
875.62	9899.73
875.939	9856.79
876.258	9838.71
876.577	9781.76
876.896	9759.84
877.214	9754.87
877.533	9789.22
877.852	9796.9
878.17	9763.68
878.489	9708.32
878.807	9754.64
879.125	9655.66
879.444	9708.32
879.762	9664.7
880.08	9666.06
880.398	9517.59
880.716	9638.72
881.034	9568.89
881.352	9619.73
881.67	9525.72
881.988	9545.38
882.306	9524.82
882.624	9475.78
882.941	9439.62
883.259	9428.33
883.577	9419.74
883.894	9372.51
884.212	9389.23
884.529	9391.94
884.846	9301.32
885.164	9382.45
885.481	9242.12
885.798	9292.51
886.115	9199.18
886.432	9226.75
886.75	9132.29
887.067	9171.16
887.383	9153.53
887.7	9173.19
888.017	9131.84
888.334	9104.27
888.651	9052.29
888.967	9120.09
889.284	9010.71
889.6	8941.33
889.917	8859.75
890.233	8964.38
890.55	8848.45
890.866	8836.48
891.182	8867.66
891.498	8832.41
891.815	8722.58
892.131	8714.22
892.447	8715.8
892.763	8723.94
893.079	8699.53
893.395	8638.74
893.71	8619.53
894.026	8565.07
894.342	8601.68
894.657	8468.12
894.973	8472.87
895.289	8505.41
895.604	8450.95
895.92	8458.86
896.235	8442.14
896.55	8436.49
896.865	8459.31
897.181	8397.17
897.496	8355.13
897.811	8295.47
898.126	8275.36
898.441	8214.57
898.756	8226.55
899.071	8150.39
899.386	8200.34
899.7	8025.88
900.015	8059.1
900.33	7981.81
900.644	7903.85
900.959	8021.13
901.273	8040.79
901.588	7931.42
901.902	7869.95
902.216	7905.65
902.531	7793.57
902.845	7764.19
903.159	7740.23
903.473	7776.39
903.787	7725.32
904.101	7721.03
904.415	7678.32
904.729	7649.62
905.042	7558.32
905.356	7580.24
905.67	7514.93
905.984	7553.35
906.297	7519
906.611	7444.65
906.924	7437.42
907.237	7406.01
907.551	7349.74
907.864	7345.67
908.177	7293.01
908.491	7357.42
908.804	7221.6
909.117	7228.16
909.43	7161.27
909.743	7158.1
910.056	7163.53
910.368	7139.12
910.681	7031.55
910.994	7053.47
911.307	7022.51
911.619	6972.12
911.932	6967.37
912.244	6874.27
912.557	6906.81
912.869	6851.22
913.181	6839.69
913.494	6856.42
913.806	6793.59
914.118	6687.61
914.43	6722.41
914.742	6718.34
915.054	6693.48
915.366	6722.41
915.678	6658.45
915.99	6634.95
916.302	6535.29
916.613	6535.97
916.925	6517.67
917.236	6506.37
917.548	6469.31
917.859	6435.64
918.171	6417.78
918.482	6363.77
918.794	6391.34
919.105	6395.64
919.416	6345.24
919.727	6303.44
920.038	6302.76
920.349	6225.02
920.66	6174.85
920.971	6184.34
921.282	6195.64
921.593	6174.4
921.903	6107.28
922.214	6124.91
922.525	6034.74
922.835	6063.22
923.146	6000.62
923.456	5983.9
923.767	5991.35
924.077	6003.78
924.387	5958.81
924.697	5928.08
925.008	5852.83
925.318	5868.87
925.628	5837.91
925.938	5790.91
926.248	5801.75
926.558	5753.17
926.867	5754.98
927.177	5699.16
927.487	5702.1
927.796	5630.01
928.106	5641.31
928.416	5599.73
928.725	5636.11
929.034	5569.22
929.344	5610.57
929.653	5525.83
929.962	5542.78
930.271	5491.48
930.581	5428.88
930.89	5447.87
931.199	5407.41
931.508	5413.52
931.817	5376.45
932.125	5347.08
932.434	5351.82
932.743	5267.53
933.051	5258.72
933.36	5257.81
933.669	5231.15
933.977	5225.95
934.286	5184.37
934.594	5190.92
934.902	5190.7
935.21	5086.97
935.519	5123.58
935.827	5084.71
936.135	5070.93
936.443	4994.09
936.751	5028.22
937.059	4992.06
937.367	4980.76
937.674	4957.03
937.982	4975.56
938.29	4960.19
938.597	4935.34
938.905	4900.31
939.213	4892.17
939.52	4837.26
939.827	4840.2
940.135	4817.83
940.442	4790.48
940.749	4777.83
941.056	4809.01
941.363	4727.43
941.67	4694.89
941.977	4758.84
942.284	4690.37
942.591	4629.13
942.898	4656.7
943.205	4599.75
943.511	4599.07
943.818	4577.61
944.125	4546.42
944.431	4540.09
944.738	4508.45
945.044	4476.37
945.35	4456.25
945.657	4409.47
945.963	4440.21
946.269	4405.18
946.575	4402.47
946.881	4422.13
947.187	4386.42
947.493	4330.61
947.799	4363.83
948.105	4315.01
948.41	4289.25
948.716	4286.31
949.022	4260.55
949.327	4250.83
949.633	4215.36
949.938	4227.33
950.244	4202.02
950.549	4139.88
950.854	4149.82
951.16	4160.89
951.465	4081.12
951.77	4068.92
952.075	4080.44
952.38	4053.1
952.685	4058.52
952.99	4001.12
953.294	3990.95
953.599	4007
953.904	3970.62
954.209	3959.54
954.513	3931.97
954.818	3926.1
955.122	3952.99
955.426	3895.14
955.731	3900.11
956.035	3849.72
956.339	3855.14
956.643	3826.44
956.948	3824.41
957.252	3800.9
957.556	3774.01
957.86	3792.32
958.163	3756.61
958.467	3741.24
958.771	3725.88
959.075	3693.79
959.378	3676.61
959.682	3675.48
959.985	3646.1
960.289	3603.39
960.592	3642.04
960.896	3594.58
961.199	3593.45
961.502	3592.77
961.805	3544.86
962.108	3557.52
962.411	3581.93
962.714	3535.37
963.017	3529.5
963.32	3498.09
963.623	3489.05
963.926	3460.57
964.228	3431.2
964.531	3448.37
964.833	3412.66
965.136	3413.34
965.438	3390.07
965.741	3368.82
966.043	3363.85
966.345	3326.11
966.648	3326.11
966.95	3317.75
967.252	3324.53
967.554	3283.4
967.856	3244.99
968.158	3241.37
968.46	3207.47
968.761	3230.3
969.063	3214.25
969.365	3211.09
969.666	3198.88
969.968	3129.06
970.269	3157.98
970.571	3170.19
970.872	3114.82
971.174	3081.83
971.475	3105.78
971.776	3096.06
972.077	3075.05
972.378	3060.13
972.679	3073.46
972.98	3073.01
973.281	3030.98
973.582	3022.62
973.883	3016.52
974.183	2970.87
974.484	3011.77
974.785	2952.11
975.085	2922.28
975.386	2974.94
975.686	2891.55
975.986	2920.02
976.287	2889.06
976.587	2872.34
976.887	2856.52
977.187	2847.03
977.487	2853.81
977.787	2867.82
978.087	2822.17
978.387	2799.57
978.687	2830.53
978.987	2776.3
979.286	2792.57
979.586	2779.23
979.885	2759.8
980.185	2715.96
980.484	2703.53
980.784	2689.97
981.083	2696.3
981.382	2706.92
981.682	2687.03
981.981	2696.53
982.28	2619.92
982.579	2619.47
982.878	2639.8
983.177	2619.24
983.475	2612.91
983.774	2573.82
984.073	2583.31
984.372	2550.77
984.67	2568.39
984.969	2542.63
985.267	2558.68
985.566	2503.99
985.864	2568.62
986.162	2513.03
986.461	2521.61
986.759	2467.83
987.057	2449.3
987.355	2440.71
987.653	2489.98
987.951	2432.13
988.249	2455.18
988.547	2442.52
988.844	2392.8
989.142	2405.46
989.44	2374.27
989.737	2360.71
990.035	2376.99
990.332	2337.44
990.63	2334.95
990.927	2320.49
991.224	2323.43
991.521	2304.45
991.819	2292.47
992.116	2283.43
992.413	2282.98
992.71	2292.24
993.006	2251.57
993.303	2220.38
993.6	2237.55
993.897	2228.06
994.193	2240.72
994.49	2221.74
994.787	2195.52
995.083	2203.2
995.379	2154.84
995.676	2163.43
995.972	2130.89
996.268	2128.63
996.565	2094.28
996.861	2120.72
997.157	2113.72
997.453	2122.75
997.749	2136.31
998.044	2064.68
998.34	2074.39
998.636	2053.83
998.932	2024.9
999.227	2039.37
999.523	2010.89
999.818	2021.29
1000.114	2016.54
1000.409	2007.5
1000.704	1988.97
1001	1937
1001.295	1993.94
1001.59	1955.53
1001.885	1923.44
1002.18	1925.7
1002.475	1906.72
1002.77	1922.53
1003.065	1891.35
1003.359	1896.09
1003.654	1873.72
1003.949	1893.16
1004.243	1867.17
1004.538	1831.92
1004.832	1848.86
1005.127	1830.56
1005.421	1809.09
1005.715	1791.69
1006.009	1796.89
1006.304	1801.41
1006.598	1753.27
1006.892	1789.88
1007.186	1732.03
1007.48	1738.58
1007.773	1734.97
1008.067	1723.67
1008.361	1726.38
1008.655	1708.75
1008.948	1711.01
1009.242	1667.63
1009.535	1668.53
1009.829	1654.74
1010.122	1647.29
1010.415	1661.75
1010.708	1637.8
1011.001	1620.4
1011.295	1622.88
1011.588	1633.28
1011.881	1606.38
1012.173	1630.79
1012.466	1595.09
1012.759	1578.14
1013.052	1565.48
1013.344	1565.71
1013.637	1537.23
1013.93	1540.85
1014.222	1554.41
1014.514	1567.97
1014.807	1504.92
1015.099	1499.04
1015.391	1500.4
1015.683	1486.84
1015.976	1494.07
1016.268	1471.25
1016.56	1471.02
1016.851	1459.27
1017.143	1444.13
1017.435	1418.37
1017.727	1438.03
1018.018	1408.65
1018.31	1415.43
1018.602	1395.32
1018.893	1376.33
1019.185	1371.81
1019.476	1359.16
1019.767	1375.66
1020.058	1360.52
1020.35	1359.61
1020.641	1322.32
1020.932	1328.65
1021.223	1306.28
1021.514	1317.58
1021.804	1282.78
1022.095	1316.45
1022.386	1294.75
1022.677	1276.9
1022.967	1283.91
1023.258	1254.98
1023.548	1271.7
1023.839	1285.04
1024.129	1237.81
1024.419	1240.74
1024.709	1246.17
1025	1227.64
1025.29	1220.41
1025.58	1188.77
1025.87	1194.42
1026.16	1166.17
1026.449	1182.67
1026.739	1192.16
1027.029	1182.21
1027.319	1173.85
1027.608	1144.7
1027.898	1164.36
1028.187	1123.69
1028.477	1133.18
1028.766	1153.97
1029.055	1141.09
1029.344	1111.26
1029.634	1097.7
1029.923	1089.34
1030.212	1090.24
1030.501	1074.65
1030.79	1083.46
1031.078	1058.38
1031.367	1066.29
1031.656	1054.76
1031.945	1041.2
1032.233	1040.52
1032.522	1062.44
1032.81	1026.06
1033.099	1037.13
1033.387	1002.11
1033.675	1018.38
1033.963	1017.25
1034.251	989.45
1034.54	999.17
1034.828	974.99
1035.116	983.8
1035.403	963.69
1035.691	974.54
1035.979	980.86
1036.267	965.05
1036.554	963.69
1036.842	953.97
1037.129	936.8
1037.417	945.16
1037.704	935.67
1037.992	938.83
1038.279	919.17
1038.566	908.78
1038.853	908.78
1039.14	908.78
