Data from hue_26_FLMS001491_00027.txt Node
Date: Tue Feb 07 17:13:46 GMT 2017
User: dcchb
Spectrometer: FLMS00149
Trigger mode: 0
Integration Time (sec): 2.000000E-2
Scans to average: 10
Electric dark correction enabled: true
Nonlinearity correction enabled: false
Boxcar width: 0
XAxis mode: Wavelengths
Number of Pixels in Spectrum: 2048
>>>>>Begin Spectral Data<<<<<
341.393	-28.63
341.776	-28.63
342.16	-28.63
342.543	-69.76
342.927	-64.56
343.31	-85.58
343.693	-67.27
344.077	-74.73
344.46	-48.74
344.843	-84.45
345.226	-32.7
345.61	-9.65
345.993	-50.78
346.376	-10.1
346.759	25.38
347.142	39.62
347.525	39.62
347.908	67.41
348.291	77.81
348.674	96.11
349.057	118.03
349.44	127.07
349.823	153.06
350.206	157.58
350.588	193.51
350.971	212.72
351.354	216.56
351.737	249.78
352.119	255.88
352.502	254.08
352.884	272.61
353.267	276
353.65	283.68
354.032	304.24
354.414	309.22
354.797	308.99
355.179	327.75
355.562	318.03
355.944	314.86
356.326	337.01
356.709	343.11
357.091	344.24
357.473	334.3
357.855	356.9
358.238	345.15
358.62	320.06
359.002	336.11
359.384	332.04
359.766	329.1
360.148	330.46
360.53	356.22
360.912	324.36
361.294	346.28
361.676	334.98
362.057	346.28
362.439	325.26
362.821	329.55
363.203	342.89
363.584	319.84
363.966	325.94
364.348	318.93
364.729	310.57
365.111	320.06
365.493	308.54
365.874	344.24
366.256	310.57
366.637	317.12
367.019	327.75
367.4	313.96
367.781	313.51
368.163	322.55
368.544	312.38
368.925	313.28
369.306	305.15
369.688	329.78
370.069	310.34
370.45	304.7
370.831	314.19
371.212	331.59
371.593	329.1
371.974	307.18
372.355	323.45
372.736	310.8
373.117	318.25
373.498	304.92
373.879	310.34
374.26	319.16
374.641	316.67
375.021	324.36
375.402	315.09
375.783	322.77
376.163	332.49
376.544	328.2
376.925	306.5
377.305	330.91
377.686	335.43
378.066	325.03
378.447	329.55
378.827	322.1
379.208	344.92
379.588	317.12
379.968	320.29
380.349	336.78
380.729	331.59
381.109	323.23
381.489	340.4
381.87	331.14
382.25	341.53
382.63	344.24
383.01	328.88
383.39	332.49
383.77	340.17
384.15	349.44
384.53	339.27
384.91	356.45
385.29	346.05
385.67	335.88
386.049	347.86
386.429	346.95
386.809	352.38
387.189	362.55
387.568	341.98
387.948	354.41
388.328	367.74
388.707	361.42
389.087	359.61
389.466	370.68
389.846	356.45
390.225	376.78
390.605	350.8
390.984	342.66
391.363	365.48
391.743	348.76
392.122	373.62
392.501	379.72
392.881	377.24
393.26	364.13
393.639	369.33
394.018	372.94
394.397	378.14
394.776	375.88
395.155	392.83
395.534	387.86
395.913	388.99
396.292	382.89
396.671	373.85
397.05	388.53
397.429	386.5
397.808	383.79
398.186	384.02
398.565	389.89
398.944	390.34
399.323	389.66
399.701	365.94
400.08	395.09
400.458	387.41
400.837	386.95
401.215	376.78
401.594	402.55
401.972	398.03
402.351	397.35
402.729	393.05
403.107	419.49
403.486	414.3
403.864	410
404.242	410.68
404.62	420.62
404.999	411.59
405.377	416.56
405.755	414.3
406.133	423.79
406.511	439.61
406.889	422.21
407.267	449.78
407.645	427.63
408.023	421.53
408.401	441.19
408.779	435.09
409.156	443.9
409.534	458.36
409.912	438.93
410.29	463.34
410.667	457.91
411.045	449.55
411.422	468.76
411.8	438.03
412.178	484.13
412.555	454.75
412.933	479.83
413.31	479.61
413.687	479.38
414.065	465.82
414.442	475.31
414.819	488.42
415.197	473.28
415.574	490
415.951	478.7
416.328	499.94
416.705	506.95
417.082	468.31
417.46	487.29
417.837	497.91
418.214	491.36
418.591	489.32
418.967	505.59
419.344	514.41
419.721	502.88
420.098	528.19
420.475	504.92
420.852	515.54
421.228	527.06
421.605	511.92
421.982	530.23
422.358	511.92
422.735	541.53
423.111	533.62
423.488	547.85
423.864	538.36
424.241	556.44
424.617	533.16
424.994	568.19
425.37	558.02
425.746	562.09
426.123	544.01
426.499	564.8
426.875	564.58
427.251	605.48
427.627	547.63
428.003	562.99
428.379	581.52
428.756	611.35
429.132	591.02
429.507	593.05
429.883	607.06
430.259	629.21
430.635	602.99
431.011	599.83
431.387	628.3
431.763	622.43
432.138	621.3
432.514	613.39
432.89	631.01
433.265	653.39
433.641	616.1
434.016	638.92
434.392	651.8
434.767	673.27
435.143	673.05
435.518	680.96
435.894	678.7
436.269	655.42
436.644	710.33
437.02	696.78
437.395	684.57
437.77	693.84
438.145	728.19
438.52	717.79
438.895	685.02
439.271	690.9
439.646	725.25
440.021	734.29
440.395	718.7
440.77	722.09
441.145	741.97
441.52	748.3
441.895	756.89
442.27	748.07
442.645	753.5
443.019	750.33
443.394	754.4
443.769	748.07
444.143	774.97
444.518	789.88
444.892	765.47
445.267	807.96
445.641	811.8
446.016	784.68
446.39	787.85
446.764	803.21
447.139	812.25
447.513	819.03
447.887	795.53
448.262	791.24
448.636	822.2
449.01	813.38
449.384	838.24
449.758	841.63
450.132	834.17
450.506	842.99
450.88	839.82
451.254	844.34
451.628	849.09
452.002	863.1
452.376	882.76
452.75	863.32
453.123	891.35
453.497	904.23
453.871	875.53
454.244	916.66
454.618	912.59
454.992	903.78
455.365	929.99
455.739	923.66
456.112	952.59
456.486	940.61
456.859	976.09
457.232	934.74
457.606	932.7
457.979	981.97
458.352	991.91
458.725	1006.15
459.099	1029.42
459.472	1009.31
459.845	1047.27
460.218	1063.55
460.591	1065.58
460.964	1047.27
461.337	1078.91
461.71	1083.88
462.083	1121.62
462.456	1107.61
462.829	1105.13
463.201	1107.84
463.574	1114.17
463.947	1155.29
464.32	1159.14
464.692	1184.67
465.065	1182.64
465.438	1197.33
465.81	1209.08
466.183	1223.77
466.555	1236.2
466.928	1234.84
467.3	1267.16
467.672	1278.23
468.045	1320.94
468.417	1322.52
468.789	1303.99
469.161	1329.98
469.534	1392.35
469.906	1410.2
470.278	1412.01
470.65	1403.88
471.022	1435.74
471.394	1432.35
471.766	1478.9
472.138	1502.18
472.51	1535.4
472.882	1535.62
473.253	1572.01
473.625	1606.81
473.997	1595.28
474.369	1643.19
474.74	1681.16
475.112	1667.15
475.484	1720.48
475.855	1730.42
476.227	1738.33
476.598	1817.88
476.97	1835.73
477.341	1867.82
477.713	1898.33
478.084	1934.71
478.455	1983.3
478.827	1983.3
479.198	2061.94
479.569	2084.76
479.94	2125.89
480.311	2134.03
480.682	2186
481.053	2246.79
481.424	2292.44
481.795	2298.09
482.166	2375.83
482.537	2395.49
482.908	2453.34
483.279	2478.42
483.65	2540.79
484.021	2599.1
484.391	2603.84
484.762	2647.23
485.133	2695.37
485.503	2736.27
485.874	2783.95
486.244	2837.74
486.615	2907.11
486.985	2951.63
487.356	2995.25
487.726	3043.61
488.097	3101.91
488.467	3096.94
488.837	3200.66
489.207	3262.81
489.578	3320.66
489.948	3305.52
490.318	3393.43
490.688	3446.99
491.058	3438.17
491.428	3563.59
491.798	3570.15
492.168	3638.39
492.538	3683.14
492.908	3752.29
493.278	3785.96
493.648	3803.13
494.017	3858.5
494.387	3921.1
494.757	3914.32
495.126	3929.68
495.496	4006.29
495.866	4063.01
496.235	4077.7
496.605	4129.45
496.974	4148.66
497.344	4198.6
497.713	4263.69
498.082	4232.95
498.452	4285.38
498.821	4357.92
499.19	4357.47
499.559	4434.76
499.928	4392.72
500.298	4433.63
500.667	4507.07
501.036	4525.83
501.405	4577.58
501.774	4622.32
502.143	4627.52
502.512	4665.03
502.88	4711.13
503.249	4677.91
503.618	4749.32
503.987	4739.61
504.356	4822.99
504.724	4812.15
505.093	4758.36
505.462	4846.95
505.83	4877
506.199	4894.86
506.567	4984.12
506.936	4997
507.304	5016.44
507.672	5008.3
508.041	5033.38
508.409	5161.52
508.777	5087.17
509.145	5218.46
509.514	5182.31
509.882	5234.06
510.25	5206.94
510.618	5256.43
510.986	5263.66
511.354	5269.99
511.722	5337.33
512.09	5365.13
512.458	5361.51
512.826	5387.73
513.193	5409.19
513.561	5451.9
513.929	5447.16
514.297	5518.34
514.664	5592.24
515.032	5530.32
515.4	5596.53
515.767	5621.62
516.135	5622.52
516.502	5594.73
516.869	5710.65
517.237	5744.1
517.604	5739.35
517.972	5835.17
518.339	5789.75
518.706	5765.12
519.073	5776.19
519.44	5831.78
519.808	5804.44
520.175	5894.6
520.542	5916.3
520.909	5917.66
521.276	5999.01
521.643	5987.48
522.009	6027.48
522.376	6044.21
522.743	6135.95
523.11	6137.08
523.477	6214.37
523.843	6157.42
524.21	6228.83
524.577	6291.66
524.943	6317.87
525.31	6283.07
525.676	6423.63
526.043	6397.19
526.409	6452.1
526.776	6476.06
527.142	6520.13
527.508	6585.89
527.874	6577.3
528.241	6593.57
528.607	6695.71
528.973	6669.27
529.339	6668.6
529.705	6757.41
530.071	6802.83
530.437	6764.86
530.803	6860.46
531.169	6915.59
531.535	6859.1
531.901	6952.2
532.267	6947.91
532.632	6954.24
532.998	7018.87
533.364	7070.85
533.73	7051.86
534.095	7118.08
534.461	7194.23
534.826	7187
535.192	7171.63
535.557	7257.05
535.923	7280.56
536.288	7211.63
536.653	7316.26
537.019	7307.9
537.384	7348.8
537.749	7388.35
538.114	7377.05
538.479	7450.95
538.845	7440.1
539.21	7382.02
539.575	7510.83
539.94	7521.45
540.305	7576.37
540.67	7572.75
541.034	7621.11
541.399	7671.06
541.764	7690.04
542.129	7703.82
542.494	7811.62
542.858	7860.88
543.223	7785.18
543.587	7862.69
543.952	7944.04
544.316	7948.34
544.681	7911.5
545.045	7965.06
545.41	8020.2
545.774	8042.35
546.138	7999.18
546.503	8065.62
546.867	8085.73
547.231	8119.41
547.595	8226.75
547.959	8208.89
548.324	8207.54
548.688	8231.04
549.052	8264.71
549.416	8315.78
549.779	8278.72
550.143	8376.12
550.507	8433.07
550.871	8409.12
551.235	8467.42
551.599	8447.08
551.962	8542.44
552.326	8480.98
552.689	8631.03
553.053	8539.96
553.417	8593.52
553.78	8694.08
554.143	8625.83
554.507	8693.63
554.87	8696.57
555.234	8805.04
555.597	8732.95
555.96	8770.01
556.323	8850.23
556.686	8894.3
557.05	8939.5
557.413	8905.6
557.776	8950.34
558.139	8935.43
558.502	8906.05
558.865	9050.23
559.228	9037.8
559.59	9102.88
559.953	9140.85
560.316	9154.41
560.679	9219.94
561.041	9270.34
561.404	9279.15
561.767	9358.02
562.129	9284.57
562.492	9379.26
562.854	9379.26
563.217	9383.78
563.579	9457.22
563.941	9444.79
564.304	9454.06
564.666	9581.51
565.028	9582.87
565.39	9613.83
565.753	9630.33
566.115	9668.29
566.477	9682.75
566.839	9727.5
567.201	9757.1
567.563	9869.64
567.925	9866.48
568.287	9878.91
568.648	9973.37
569.01	9915.29
569.372	10045.68
569.734	9941.96
570.095	10063.53
570.457	10087.04
570.819	10132.46
571.18	10134.49
571.542	10347.37
571.903	10239.12
572.265	10341.49
572.626	10430.76
572.987	10475.73
573.349	10463.98
573.71	10546.01
574.071	10622.84
574.432	10689.06
574.794	10738.55
575.155	10809.73
575.516	10821.93
575.877	10908.26
576.238	10925.43
576.599	11071.42
576.96	11142.6
577.32	11238.42
577.681	11247.23
578.042	11383.95
578.403	11409.94
578.763	11537.39
579.124	11657.39
579.485	11788.46
579.845	11908.68
580.206	11928.57
580.566	12061.22
580.927	12125.4
581.287	12400.87
581.648	12480.87
582.008	12557.93
582.368	12771.49
582.728	12825.72
583.089	13061.87
583.449	13170.57
583.809	13343.9
584.169	13528.98
584.529	13582.76
584.889	13977.1
585.249	14017.78
585.609	14193.37
585.969	14455.51
586.329	14661.83
586.688	14907.93
587.048	15161.03
587.408	15301.36
587.768	15464.97
588.127	15694.35
588.487	15910.16
588.846	16328.68
589.206	16418.85
589.565	16627.88
589.925	16973.41
590.284	17206.17
590.643	17461.98
591.003	17860.17
591.362	18090.22
591.721	18316.43
592.08	18606.59
592.44	19049.29
592.799	19240.47
593.158	19453.12
593.517	19730.85
593.876	20079.54
594.235	20261.46
594.593	20675.91
594.952	20954.77
595.311	21037.48
595.67	21488.77
596.029	21851.02
596.387	22199.94
596.746	22439.03
597.104	22738.68
597.463	23039.24
597.822	23372.56
598.18	23521.49
598.538	23844.87
598.897	24297.06
599.255	24385.64
599.613	24986.98
599.972	25137.94
600.33	25473.53
600.688	25609.79
601.046	26011.36
601.404	26385.14
601.762	26591.01
602.12	27041.62
602.478	27216.3
602.836	27613.81
603.194	27728.83
603.552	28016.06
603.91	28123.85
604.268	28535.14
604.625	28755.02
604.983	29201.34
605.341	29250.15
605.698	29691.95
606.056	30018.94
606.413	30080.18
606.771	30363.57
607.128	30584.8
607.485	30723.1
607.843	31058.24
608.2	31401.96
608.557	31629.75
608.914	31822.96
609.272	32337.53
609.629	32336.62
609.986	32738.64
610.343	32739.77
610.7	33234.23
611.057	33265.64
611.414	33319.87
611.771	33591.5
612.127	34004.83
612.484	34173.86
612.841	34401.2
613.198	34542.67
613.554	34659.27
613.911	35017.68
614.267	35283.66
614.624	35292.93
614.98	35472.81
615.337	35685.91
615.693	35990.76
616.05	35936.98
616.406	36309.85
616.762	36188.72
617.118	36409.28
617.475	36515.04
617.831	36895.15
618.187	36946.22
618.543	36967.01
618.899	37451.52
619.255	37472.53
619.611	37486.99
619.967	37674.56
620.323	37910.03
620.678	37883.37
621.034	37972.18
621.39	38086.98
621.746	38114.55
622.101	38561.77
622.457	38420.53
622.812	38667.75
623.168	38644.7
623.523	38858.94
623.879	38909.56
624.234	38755.21
624.589	39083.11
624.945	39128.31
625.3	39320.39
625.655	39260.28
626.01	39457.34
626.365	39548.64
626.72	39510.67
627.075	39701.17
627.43	39708.86
627.785	39625.7
628.14	39872.24
628.495	39800.83
628.85	39919.47
629.205	39804.22
629.559	40039.24
629.914	40040.15
630.269	40035.4
630.623	40048.51
630.978	40034.72
631.332	40267.71
631.687	40281.27
632.041	40108.39
632.396	40150.2
632.75	40346.81
633.104	40225.91
633.459	40216.19
633.813	40234.27
634.167	40352.68
634.521	40227.94
634.875	40412.57
635.229	40349.74
635.583	40419.35
635.937	40248.96
636.291	40438.33
636.645	40408.73
636.999	40281.05
637.352	40433.36
637.706	40219.8
638.06	40464.54
638.413	40309.07
638.767	40160.6
639.121	40356.75
639.474	40107.72
639.828	40156.08
640.181	40323.76
640.534	40255.51
640.888	40180.03
641.241	39956.76
641.594	40133.03
641.947	40258
642.301	40210.76
642.654	40220.93
643.007	40160.82
643.36	40197.88
643.713	40028.62
644.066	40207.15
644.419	40057.77
644.771	39857.33
645.124	39501.63
645.477	39375.53
645.83	39121.08
646.182	39142.77
646.535	38998.14
646.888	39119.49
647.24	38877.24
647.593	39208.76
647.945	39085.37
648.298	38932.15
648.65	38831.82
649.002	38678.6
649.355	39016.67
649.707	38858.26
650.059	39123.34
650.411	39613.49
650.763	39624.11
651.115	40038.79
651.467	39771.68
651.819	39967.83
652.171	39719.03
652.523	39620.5
652.875	39754.28
653.227	39528.52
653.578	39813.04
653.93	39747.05
654.282	39730.78
654.633	39498.69
654.985	39682.64
655.337	39609.65
655.688	39595.87
656.039	39649.65
656.391	39432.93
656.742	39533.27
657.094	39462.76
657.445	39627.96
657.796	39548.64
658.147	39476.09
658.498	39368.08
658.849	39449.88
659.2	39520.61
659.551	39334.18
659.902	39430.9
660.253	39510.44
660.604	39434.51
660.955	39325.59
661.306	39529.2
661.656	39437.9
662.007	39411.92
662.358	39423.67
662.708	39429.99
663.059	39365.59
663.409	39277
663.76	39501.18
664.11	39490.78
664.461	39483.78
664.811	39474.29
665.161	39345.02
665.511	39345.7
665.862	39324.23
666.212	39496.66
666.562	39345.48
666.912	39402.88
667.262	39311.81
667.612	39190.68
667.962	39366.72
668.312	39423.89
668.662	39406.72
669.011	39371.24
669.361	39352.26
669.711	39239.04
670.06	39132.6
670.41	39108.19
670.76	39147.06
671.109	39289.43
671.459	39131.7
671.808	39147.29
672.157	39219.83
672.507	38982.55
672.856	38968.54
673.205	39095.99
673.554	39172.15
673.904	38985.71
674.253	39286.27
674.602	39040.63
674.951	38537.14
675.3	38357.03
675.649	39100.29
675.998	38871.14
676.346	38930.8
676.695	39097.12
677.044	38722.22
677.393	38891.93
677.741	38982.77
678.09	38802.89
678.438	38757.47
678.787	38886.51
679.135	38825.49
679.484	38529.23
679.832	38751.37
680.181	38580.07
680.529	38616.46
680.877	38356.35
681.225	38478.61
681.573	38800.18
681.922	38385.73
682.27	38270.48
682.618	38128.33
682.966	38140.76
683.314	38295.33
683.661	38259.18
684.009	37940.32
684.357	37973.08
684.705	37956.13
685.053	38030.03
685.4	37926.08
685.748	37777.61
686.095	37837.72
686.443	37644.05
686.79	37452.87
687.138	37560.44
687.485	37632.3
687.832	37506.66
688.18	37493.55
688.527	37358.86
688.874	37226.21
689.221	37089.26
689.568	37058.76
689.915	36981.25
690.262	36980.79
690.609	36951.64
690.956	36813.79
691.303	36666.23
691.65	36504.42
691.997	36704.42
692.344	36329.06
692.69	36371.09
693.037	36365.89
693.383	36041.83
693.73	36260.36
694.077	36042.29
694.423	36030.31
694.769	35890.65
695.116	35879.58
695.462	35878.22
695.808	35593.94
696.155	35709.19
696.501	35362.3
696.847	35521.4
697.193	35221.97
697.539	35353.94
697.885	35096.77
698.231	35055.19
698.577	35007.96
698.923	34878.48
699.269	34950.11
699.614	34698.14
699.96	34550.35
700.306	34554.87
700.651	34550.8
700.997	34428.54
701.342	34153.97
701.688	34240.75
702.033	34185.39
702.379	34223.58
702.724	34049.12
703.069	34137.48
703.415	33728
703.76	33727.32
704.105	33798.96
704.45	33665.17
704.795	33426.31
705.14	33375.46
705.485	33498.85
705.83	33213.89
706.175	33294.11
706.52	33231.51
706.865	33025.64
707.209	32939.32
707.554	32861.35
707.899	33060.44
708.243	32742.94
708.588	32776.61
708.932	32519.67
709.277	32495.26
709.621	32544.98
709.966	32322.16
710.31	32452.32
710.654	32096.63
710.998	32171.88
711.342	32248.04
711.687	32173.91
712.031	31897.31
712.375	31822.28
712.719	31923.98
713.063	31846.24
713.407	31867.93
713.75	31709.75
714.094	31742.06
714.438	31505.68
714.782	31627.94
715.125	31382.97
715.469	31568.73
715.812	31304.11
716.156	31207.84
716.499	31205.58
716.843	31270.89
717.186	31068.18
717.53	31144.79
717.873	31213.94
718.216	31157.9
718.559	30900.95
718.902	30626.84
719.246	30804.46
719.589	30673.16
719.932	30606.95
720.275	30580.28
720.617	30618.25
720.96	30476.78
721.303	30391.36
721.646	30540.28
721.989	30300.29
722.331	30338.03
722.674	30354.53
723.016	30269.56
723.359	30225.26
723.701	30229.33
724.044	30097.81
724.386	29942.33
724.729	30227.75
725.071	29940.98
725.413	29857.14
725.755	29956.8
726.097	29810.36
726.439	29698.05
726.782	29651.49
727.124	29631.61
727.465	29562.46
727.807	29531.27
728.149	29552.29
728.491	29381.67
728.833	29469.35
729.175	29324.5
729.516	29334.44
729.858	29292.63
730.199	29260.54
730.541	29341.9
730.882	29129.7
731.224	29291.28
731.565	29066.65
731.906	29097.38
732.248	29149.59
732.589	28809.93
732.93	28943.94
733.271	28888.35
733.612	28922.47
733.953	28923.38
734.294	28658.75
734.635	28625.76
734.976	28773.33
735.317	28593.44
735.658	28668.7
735.999	28500.79
736.339	28515.71
736.68	28600.67
737.021	28464.41
737.361	28427.57
737.702	28524.97
738.042	28356.39
738.383	28302.6
738.723	28316.84
739.063	28202.94
739.404	28304.86
739.744	28219.44
740.084	28180.8
740.424	28158.88
740.764	28082.27
741.104	28304.19
741.444	28093.34
741.784	27853.12
742.124	27998.43
742.464	27903.29
742.804	27814.93
743.143	27783.97
743.483	27776.29
743.823	27686.35
744.162	27639.57
744.502	27780.13
744.841	27496.97
745.181	27710.53
745.52	27582.85
745.86	27648.61
746.199	27616.52
746.538	27536.07
746.877	27588.72
747.216	27519.8
747.556	27413.36
747.895	27384.44
748.234	27199.36
748.573	27276.87
748.911	27247.94
749.25	27269.18
749.589	26995.52
749.928	27132.01
750.267	27055.63
750.605	27111.22
750.944	26935.63
751.283	27032.58
751.621	26989.19
751.96	26865.8
752.298	26796.43
752.636	26870.1
752.975	26579.71
753.313	26647.05
753.651	26645.92
753.989	26559.37
754.327	26514.18
754.666	26471.46
755.004	26525.93
755.342	26570.9
755.679	26303.33
756.017	26168.65
756.355	26290.23
756.693	26233.51
757.031	26206.39
757.368	26072.61
757.706	25922.55
758.044	25856.34
758.381	25981.31
758.719	25869.9
759.056	25798.94
759.394	25760.3
759.731	25652.28
760.068	25690.69
760.405	25576.57
760.743	25448.89
761.08	25449.12
761.417	25307.65
761.754	25234.44
762.091	25223.59
762.428	25216.36
762.765	25095.91
763.102	25173.42
763.438	25083.25
763.775	24944.27
764.112	24865.86
764.449	24894.78
764.785	24750.61
765.122	24452.54
765.458	24562.14
765.795	24507.22
766.131	24431.07
766.467	24277.17
766.804	24168.7
767.14	24154.92
767.476	24154.01
767.812	23965.99
768.148	24062.04
768.485	23793.34
768.821	23760.58
769.157	23735.49
769.492	23575.72
769.828	23566.23
770.164	23455.27
770.5	23455.05
770.836	23360.36
771.171	23243.75
771.507	23172.79
771.842	23008.05
772.178	22958.11
772.513	22900.26
772.849	22912.24
773.184	22837.44
773.519	22848.28
773.855	22644.45
774.19	22538.01
774.525	22461.17
774.86	22508.41
775.195	22343.44
775.53	22366.49
775.865	22196.78
776.2	22077.23
776.535	22004.92
776.87	22009.89
777.205	21854.19
777.539	21716.79
777.874	21872.26
778.209	21688.09
778.543	21534.19
778.878	21407.42
779.212	21411.94
779.547	21300.98
779.881	21410.81
780.215	21151.38
780.55	21230.92
780.884	21088.56
781.218	20985.73
781.552	20987.99
781.886	20821.22
782.22	20802.46
782.554	20696.02
782.888	20550.04
783.222	20499.42
783.556	20376.71
783.889	20243.38
784.223	20192.08
784.557	20165.87
784.89	20113.89
785.224	20054.68
785.557	19941.69
785.891	19884.97
786.224	19880.68
786.558	19838.87
786.891	19704.19
787.224	19542.61
787.557	19482.95
787.891	19472.78
788.224	19477.75
788.557	19380.8
788.89	19326.12
789.223	19305.78
789.556	19149.4
789.888	19108.04
790.221	19023.53
790.554	18874.6
790.887	18986.69
791.219	18890.42
791.552	18798.45
791.884	18673.48
792.217	18697.43
792.549	18567.49
792.882	18573.37
793.214	18417.67
793.546	18430.09
793.879	18336.31
794.211	18210.44
794.543	18303.54
794.875	18189.42
795.207	18186.49
795.539	18156.88
795.871	18062.65
796.203	17901.07
796.535	17864.46
796.867	17822.65
797.198	17722.54
797.53	17668.76
797.862	17627.86
798.193	17583.79
798.525	17464.47
798.856	17530.01
799.188	17440.74
799.519	17268.09
799.85	17163.69
800.182	17240.3
800.513	17205.72
800.844	17035.33
801.175	17143.57
801.506	17008.44
801.837	17057.93
802.168	16998.72
802.499	16882.56
802.83	16878.27
803.161	16772.51
803.491	16749.01
803.822	16805.73
804.153	16632.18
804.483	16530.03
804.814	16449.13
805.145	16413.42
805.475	16458.17
805.805	16310.38
806.136	16366.65
806.466	16353.99
806.796	16282.58
807.126	16174.56
807.457	16085.52
807.787	16111.06
808.117	15979.09
808.447	15962.81
808.777	16011.85
809.107	15922.14
809.436	15950.39
809.766	15865.42
810.096	15801.24
810.426	15770.05
810.755	15757.85
811.085	15692.77
811.414	15681.47
811.744	15519.66
812.073	15507.23
812.403	15542.94
812.732	15471.53
813.061	15439.89
813.39	15258.88
813.719	15285.09
814.049	15334.36
814.378	15326.45
814.707	15217.07
815.036	15198.32
815.365	15134.59
815.693	14938.43
816.022	15036.51
816.351	15010.52
816.68	14898.21
817.008	14903.41
817.337	14820.47
817.665	14814.82
817.994	14705.45
818.322	14791.32
818.651	14671.1
818.979	14626.35
819.307	14700.7
819.636	14658.22
819.964	14562.85
820.292	14701.83
820.62	14625.67
820.948	14583.64
821.276	14654.15
821.604	14512.68
821.932	14681.27
822.259	14485.79
822.587	14490.54
822.915	14506.81
823.243	14625.9
823.57	14562.4
823.898	14522.85
824.225	14517.2
824.553	14433.59
824.88	14485.57
825.207	14583.42
825.535	14382.07
825.862	14507.94
826.189	14421.16
826.516	14488.73
826.843	14499.58
827.17	14460.26
827.497	14448.96
827.824	14482.18
828.151	14487.6
828.478	14509.97
828.805	14524.21
829.131	14394.04
829.458	14420.93
829.785	14376.87
830.111	14436.08
830.438	14502.06
830.764	14361.95
831.09	14385.68
831.417	14371.22
831.743	14392.69
832.069	14388.39
832.395	14263.2
832.722	14379.58
833.048	14304.33
833.374	14324.89
833.7	14281.95
834.026	14272.24
834.351	14205.8
834.677	14261.16
835.003	14292.58
835.329	14297.1
835.654	14239.47
835.98	14181.62
836.306	14181.17
836.631	14088.97
836.956	14103.43
837.282	14182.52
837.607	14130.77
837.932	14049.64
838.258	14062.98
838.583	14055.75
838.908	13911.34
839.233	14017.1
839.558	13908.63
839.883	13947.95
840.208	13867.5
840.533	13886.26
840.858	13891
841.182	13843.1
841.507	13751.57
841.832	13758.13
842.156	13739.14
842.481	13706.6
842.805	13719.71
843.13	13682.87
843.454	13648.07
843.778	13559.71
844.103	13560.17
844.427	13526.27
844.751	13495.76
845.075	13406.05
845.399	13417.57
845.723	13406.5
846.047	13392.03
846.371	13186.62
846.695	13202.44
847.019	13066.17
847.343	13089.22
847.666	13018.03
847.99	12910.24
848.313	13017.81
848.637	12892.61
848.96	12806.74
849.284	12856.46
849.607	12734.65
849.931	12695.56
850.254	12542.57
850.577	12598.61
850.9	12514.77
851.223	12454.88
851.546	12457.6
851.869	12345.06
852.192	12347.09
852.515	12307.54
852.838	12211.73
853.161	12132.86
853.483	12156.81
853.806	12088.79
854.129	12124.27
854.451	11980.77
854.774	12003.6
855.096	11933.54
855.419	11962.47
855.741	11893.09
856.063	11778.07
856.385	11794.79
856.708	11743.94
857.03	11696.26
857.352	11688.8
857.674	11625.75
857.996	11688.12
858.318	11538.07
858.64	11552.54
858.961	11523.84
859.283	11537.85
859.605	11421.47
859.926	11456.27
860.248	11379.43
860.57	11340.79
860.891	11327.46
861.212	11331.98
861.534	11272.09
861.855	11286.1
862.176	11303.95
862.498	11186.67
862.819	11202.04
863.14	11216.72
863.461	11197.29
863.782	11153
864.103	11055.37
864.424	11056.5
864.745	11078.2
865.065	11042.72
865.386	11024.87
865.707	10970.86
866.027	10918.2
866.348	10935.83
866.668	10936.51
866.989	10929.95
867.309	10816.06
867.63	10920.46
867.95	10874.59
868.27	10729.05
868.59	10875.94
868.91	10775.83
869.23	10828.03
869.55	10713.24
869.87	10759.79
870.19	10732.67
870.51	10755.04
870.83	10707.59
871.15	10640.47
871.469	10742.39
871.789	10701.71
872.109	10615.61
872.428	10501.26
872.748	10577.87
873.067	10577.42
873.386	10542.84
873.706	10570.87
874.025	10506.69
874.344	10384.2
874.663	10519.57
874.982	10393.92
875.301	10412
875.62	10423.3
875.939	10369.06
876.258	10421.72
876.577	10316.86
876.896	10328.84
877.214	10332.23
877.533	10314.83
877.852	10201.84
878.17	10216.07
878.489	10357.99
878.807	10349.4
879.125	10183.98
879.444	10209.52
879.762	10259.46
880.08	10174.27
880.398	10190.76
880.716	10149.41
881.034	10131.78
881.352	10099.47
881.67	10130.88
881.988	10144.44
882.306	10004.33
882.624	10078.22
882.941	10009.52
883.259	9943.31
883.577	9971.33
883.894	9912.35
884.212	9941.73
884.529	9821.28
884.846	9878
885.164	9853.14
885.481	9848.85
885.798	9828.06
886.115	9863.54
886.432	9775.18
886.75	9704
887.067	9701.96
887.383	9655.41
887.7	9720.49
888.017	9653.83
888.334	9587.39
888.651	9615.41
888.967	9670.1
889.284	9502.19
889.6	9514.85
889.917	9465.13
890.233	9482.53
890.55	9460.61
890.866	9426.04
891.182	9383.33
891.498	9353.27
891.815	9341.52
892.131	9293.61
892.447	9267.85
892.763	9203.9
893.079	9190.56
893.395	9231.69
893.71	9146.04
894.026	9139.72
894.342	9142.2
894.657	9065.59
894.973	9003.22
895.289	8995.99
895.604	9051.13
895.92	8942.43
896.235	8863.57
896.55	8868.09
896.865	8885.26
897.181	8885.71
897.496	8807.3
897.811	8794.42
898.126	8812.04
898.441	8743.34
898.756	8763.46
899.071	8641.2
899.386	8647.3
899.7	8546.29
900.015	8532.95
900.33	8529.79
900.644	8481.88
900.959	8508.32
901.273	8434.88
901.588	8403.24
901.902	8385.61
902.216	8358.72
902.531	8333.64
902.845	8331.6
903.159	8249.57
903.473	8246.86
903.787	8242.11
904.101	8177.71
904.415	8141.78
904.729	8142.91
905.042	8061.55
905.356	8082.57
905.67	8027.88
905.984	8048.9
906.297	7997.6
906.611	7927.09
906.924	7881.9
907.237	7895.68
907.551	7854.33
907.864	7857.94
908.177	7841.9
908.491	7726.65
908.804	7739.53
909.117	7697.5
909.43	7624.5
909.743	7631.51
910.056	7558.29
910.368	7568.46
910.681	7509.7
910.994	7449.14
911.307	7460.21
911.619	7371.63
911.932	7471.74
912.244	7365.07
912.557	7349.93
912.869	7327.56
913.181	7332.08
913.494	7265.19
913.806	7224.29
914.118	7177.28
914.43	7160.79
914.742	7123.27
915.054	7103.39
915.366	7065.65
915.678	6999.43
915.99	6987.46
916.302	6970.96
916.613	7009.83
916.925	6928.93
917.236	6858.87
917.548	6836.05
917.859	6881.7
918.171	6776.39
918.482	6772.32
918.794	6747.69
919.105	6723.06
919.416	6693
919.727	6702.04
920.038	6654.13
920.349	6590.63
920.66	6577.98
920.971	6591.08
921.282	6558.77
921.593	6552.67
921.903	6497.07
922.214	6460.01
922.525	6434.03
922.835	6407.13
923.146	6362.84
923.456	6340.92
923.767	6377.76
924.077	6307.93
924.387	6256.18
924.697	6259.34
925.008	6197.87
925.318	6230.64
925.628	6179.34
925.938	6178.21
926.248	6121.04
926.558	6128.05
926.867	6105.67
927.177	6039.23
927.487	5990.87
927.796	5960.59
928.106	5933.93
928.416	5912.91
928.725	5931.89
929.034	5853.48
929.344	5886.47
929.653	5837.88
929.962	5801.73
930.271	5788.17
930.581	5779.13
930.89	5731.9
931.199	5683.09
931.508	5659.36
931.817	5732.8
932.125	5676.76
932.434	5606.48
932.743	5589.53
933.051	5505.01
933.36	5552.47
933.669	5457.55
933.977	5472.24
934.286	5462.53
934.594	5469.98
934.902	5375.52
935.21	5383.43
935.519	5436.76
935.827	5348.4
936.135	5338.69
936.443	5301.4
936.751	5320.16
937.059	5204.91
937.367	5250.78
937.674	5269.08
937.982	5225.24
938.29	5191.57
938.597	5153.16
938.905	5131.01
939.213	5129.65
939.52	5088.52
939.827	5075.42
940.135	5035.42
940.442	5010.79
940.749	5002.88
941.056	4978.7
941.363	4955.87
941.67	4948.87
941.977	4900.51
942.284	4863.67
942.591	4901.86
942.898	4885.14
943.205	4853.28
943.511	4796.78
943.818	4789.78
944.125	4783.9
944.431	4755.88
944.738	4754.52
945.044	4737.8
945.35	4675.2
945.657	4681.98
945.963	4661.87
946.269	4638.37
946.575	4634.3
946.881	4582.55
947.187	4591.81
947.493	4507.07
947.799	4538.26
948.105	4486.28
948.41	4479.95
948.716	4484.25
949.022	4430.91
949.327	4423.23
949.633	4447.19
949.938	4455.77
950.244	4365.61
950.549	4354.98
950.854	4344.82
951.16	4299.62
951.465	4263.24
951.77	4248.77
952.075	4261.65
952.38	4239.96
952.685	4230.24
952.99	4192.5
953.294	4207.87
953.599	4167.19
953.904	4124.93
954.209	4102.11
954.513	4097.82
954.818	4103.92
955.122	4097.36
955.426	4073.18
955.731	4062.79
956.035	4045.16
956.339	4035.44
956.643	4002
956.948	3910.93
957.252	3980.3
957.556	3945.28
957.86	3906.18
958.163	3913.41
958.467	3905.5
958.771	3902.11
959.075	3880.19
959.378	3861.89
959.682	3813.53
959.985	3823.02
960.289	3790.71
960.592	3813.3
960.896	3773.3
961.199	3753.64
961.502	3777.6
961.805	3710.71
962.108	3712.06
962.411	3659.41
962.714	3637.04
963.017	3667.32
963.32	3654.66
963.623	3631.39
963.926	3625.96
964.228	3590.94
964.531	3561.56
964.833	3540.54
965.136	3541.9
965.438	3516.14
965.741	3552.97
966.043	3494.67
966.345	3487.21
966.648	3493.76
966.95	3470.26
967.252	3396.14
967.554	3458.28
967.856	3418.51
968.158	3394.56
968.46	3380.77
968.761	3394.11
969.063	3378.06
969.365	3339.42
969.666	3312.75
969.968	3322.02
970.269	3243.38
970.571	3275.01
970.872	3276.59
971.174	3205.41
971.475	3206.54
971.776	3200.44
972.077	3208.57
972.378	3181.91
972.679	3146.2
972.98	3206.99
973.281	3150.95
973.582	3104.4
973.883	3136.26
974.183	3134.45
974.484	3095.13
974.785	3066.2
975.085	3066.2
975.386	3075.02
975.686	3026.43
975.986	3039.99
976.287	3040.67
976.587	2984.62
976.887	2990.27
977.187	2951.86
977.487	2980.33
977.787	2940.78
978.087	2923.38
978.387	2914.8
978.687	2934.91
978.987	2903.05
979.286	2886.55
979.586	2841.58
979.885	2833.89
980.185	2856.94
980.484	2837.06
980.784	2828.47
981.083	2840.22
981.382	2830.05
981.682	2790.28
981.981	2793.22
982.28	2765.87
982.579	2738.76
982.878	2749.15
983.177	2755.7
983.475	2712.54
983.774	2667.12
984.073	2715.48
984.372	2670.73
984.67	2683.62
984.969	2668.25
985.267	2651.53
985.566	2625.76
985.864	2616.95
986.162	2589.38
986.461	2602.71
986.759	2582.15
987.057	2508.71
987.355	2588.7
987.653	2549.38
987.951	2523.39
988.249	2554.13
988.547	2528.14
988.844	2486.56
989.142	2495.6
989.44	2443.4
989.737	2488.59
990.035	2426.45
990.332	2454.24
990.63	2425.54
990.927	2441.59
991.224	2412.21
991.521	2434.81
991.819	2411.76
992.116	2382.61
992.413	2353.91
992.71	2343.96
993.006	2335.6
993.303	2346.9
993.6	2333.12
993.897	2308.48
994.193	2294.7
994.49	2313.68
994.787	2292.89
995.083	2289.05
995.379	2290.18
995.676	2243.63
995.972	2228.26
996.268	2205.66
996.565	2219
996.861	2234.36
997.157	2208.37
997.453	2195.27
997.749	2202.72
998.044	2141.94
998.34	2146.68
998.636	2154.14
998.932	2145.32
999.227	2131.77
999.523	2107.36
999.818	2061.49
1000.114	2108.72
1000.409	2079.79
1000.704	2074.14
1001	2024.2
1001.295	2047.02
1001.59	2055.16
1001.885	2049.06
1002.18	2021.94
1002.475	2001.83
1002.77	1978.55
1003.065	1962.96
1003.359	1958.89
1003.654	1936.06
1003.949	1926.35
1004.243	1933.81
1004.538	1898.1
1004.832	1933.13
1005.127	1905.11
1005.421	1924.54
1005.715	1857.87
1006.009	1864.88
1006.304	1860.81
1006.598	1874.6
1006.892	1842.51
1007.186	1842.96
1007.48	1819.91
1007.773	1822.85
1008.067	1818.55
1008.361	1780.59
1008.655	1797.99
1008.948	1773.81
1009.242	1757.09
1009.535	1781.72
1009.829	1752.11
1010.122	1727.26
1010.415	1739.46
1010.708	1717.09
1011.001	1699.69
1011.295	1683.42
1011.588	1708.05
1011.881	1679.12
1012.173	1648.84
1012.466	1652.23
1012.759	1654.94
1013.052	1628.28
1013.344	1655.17
1013.637	1627.15
1013.93	1607.49
1014.222	1578.33
1014.514	1593.93
1014.807	1596.64
1015.099	1559.58
1015.391	1587.6
1015.683	1556.41
1015.976	1551.89
1016.268	1542.85
1016.56	1549.18
1016.851	1501.95
1017.143	1513.25
1017.435	1495.4
1017.727	1494.49
1018.018	1496.3
1018.31	1482.07
1018.602	1478.9
1018.893	1423.76
1019.185	1454.5
1019.476	1439.58
1019.767	1418.79
1020.058	1393.03
1020.35	1416.76
1020.641	1372.01
1020.932	1383.99
1021.223	1402.75
1021.514	1379.47
1021.804	1368.4
1022.095	1366.14
1022.386	1316.42
1022.677	1327.72
1022.967	1346.25
1023.258	1309.41
1023.548	1288.62
1023.839	1296.99
1024.129	1307.61
1024.419	1306.7
1024.709	1275.97
1025	1270.55
1025.29	1258.79
1025.58	1260.38
1025.87	1244.56
1026.16	1241.85
1026.449	1251.34
1026.739	1213.6
1027.029	1219.02
1027.319	1227.38
1027.608	1201.62
1027.898	1193.26
1028.187	1169.76
1028.477	1151.9
1028.766	1194.62
1029.055	1175.41
1029.344	1165.92
1029.634	1155.29
1029.923	1138.57
1030.212	1136.54
1030.501	1163.66
1030.79	1146.48
1031.078	1091.57
1031.367	1098.12
1031.656	1105.8
1031.945	1089.31
1032.233	1077.56
1032.522	1064.9
1032.81	1077.78
1033.099	1041.85
1033.387	1079.36
1033.675	1042.08
1033.963	1042.3
1034.251	1031.68
1034.54	1025.13
1034.828	1012.25
1035.116	1020.38
1035.403	1011.12
1035.691	987.39
1035.979	1007.28
1036.267	997.56
1036.554	993.26
1036.842	984
1037.129	976.77
1037.417	954.17
1037.704	968.86
1037.992	962.53
1038.279	956.66
1038.566	948.75
1038.853	948.75
1039.14	948.75
