Data from hue_36_FLMS001491_00011.txt Node
Date: Tue Feb 07 17:29:26 GMT 2017
User: dcchb
Spectrometer: FLMS00149
Trigger mode: 0
Integration Time (sec): 2.000000E-2
Scans to average: 10
Electric dark correction enabled: true
Nonlinearity correction enabled: false
Boxcar width: 0
XAxis mode: Wavelengths
Number of Pixels in Spectrum: 2048
>>>>>Begin Spectral Data<<<<<
341.393	-1.79
341.776	-1.79
342.16	-1.79
342.543	-44.28
342.927	-44.05
343.31	-82.7
343.693	-63.71
344.077	-54.45
344.46	-72.07
344.843	-44.28
345.226	-42.47
345.61	-18.52
345.993	-21.91
346.376	-8.57
346.759	1.6
347.142	32.33
347.525	52.89
347.908	60.35
348.291	76.17
348.674	83.85
349.057	101.48
349.44	128.6
349.823	139.22
350.206	168.6
350.588	215.38
350.971	218.77
351.354	224.19
351.737	257.41
352.119	272.55
352.502	262.15
352.884	294.92
353.267	299.22
353.65	294.47
354.032	300.8
354.414	308.93
354.797	321.36
355.179	311.64
355.562	328.14
355.944	331.3
356.326	337.63
356.709	341.25
357.091	354.13
357.473	325.43
357.855	338.08
358.238	348.71
358.62	341.47
359.002	336.28
359.384	342.6
359.766	350.29
360.148	332.66
360.53	343.96
360.912	353
361.294	338.99
361.676	362.04
362.057	349.61
362.439	324.07
362.821	341.02
363.203	330.17
363.584	328.59
363.966	329.27
364.348	354.36
364.729	319.33
365.111	343.51
365.493	317.07
365.874	331.76
366.256	308.71
366.637	314.13
367.019	303.96
367.4	306.45
367.781	340.12
368.163	324.75
368.544	299.67
368.925	296.5
369.306	333.56
369.688	306.9
370.069	340.34
370.45	328.82
370.831	315.03
371.212	341.02
371.593	324.98
371.974	319.1
372.355	320.91
372.736	311.19
373.117	324.3
373.498	325.66
373.879	319.33
374.26	311.19
374.641	318.2
375.021	335.6
375.402	332.89
375.783	336.73
376.163	327.01
376.544	339.44
376.925	328.59
377.305	330.17
377.686	340.57
378.066	326.33
378.447	337.18
378.827	325.66
379.208	341.7
379.588	338.76
379.968	357.29
380.349	328.59
380.729	314.36
381.109	337.86
381.489	350.06
381.87	338.76
382.25	350.29
382.63	351.19
383.01	360.91
383.39	354.36
383.77	343.51
384.15	335.82
384.53	350.29
384.91	341.02
385.29	338.54
385.67	353.9
386.049	357.29
386.429	353.45
386.809	341.02
387.189	362.04
387.568	351.19
387.948	362.72
388.328	366.56
388.707	349.84
389.087	357.52
389.466	355.71
389.846	345.09
390.225	378.76
390.605	375.82
390.984	352.77
391.363	390.06
391.743	361.13
392.122	352.55
392.501	359.55
392.881	381.02
393.26	370.85
393.639	353
394.018	367.01
394.397	369.72
394.776	376.95
395.155	386.67
395.534	377.63
395.913	379.21
396.292	383.73
396.671	402.26
397.05	378.31
397.429	366.33
397.808	385.99
398.186	401.13
398.565	387.8
398.944	397.07
399.323	393.22
399.701	378.31
400.08	393.45
400.458	398.87
400.837	385.77
401.215	368.37
401.594	406.56
401.972	403.85
402.351	396.84
402.729	399.33
403.107	413.11
403.486	407.91
403.864	401.13
404.242	404.98
404.62	430.96
404.999	406.56
405.377	412.21
405.755	419.66
406.133	428.93
406.511	425.99
406.889	425.54
407.267	422.38
407.645	437.29
408.023	440.23
408.401	422.6
408.779	451.75
409.156	439.55
409.534	434.13
409.912	440.23
410.29	432.09
410.667	435.71
411.045	431.64
411.422	445.43
411.8	453.56
412.178	451.08
412.555	436.61
412.933	474.58
413.31	460.57
413.687	488.14
414.065	464.18
414.442	458.99
414.819	495.59
415.197	464.18
415.574	472.54
415.951	487.68
416.328	494.24
416.705	504.63
417.082	482.71
417.46	507.35
417.837	492.43
418.214	503.28
418.591	506.89
418.967	498.31
419.344	502.15
419.721	505.54
420.098	516.84
420.475	508.02
420.852	529.94
421.228	518.64
421.605	519.77
421.982	504.41
422.358	520.68
422.735	536.72
423.111	529.04
423.488	527.91
423.864	525.65
424.241	554.8
424.617	548.93
424.994	538.76
425.37	540.56
425.746	536.5
426.123	534.69
426.499	547.57
426.875	548.25
427.251	581.69
427.627	578.76
428.003	587.12
428.379	584.86
428.756	560.45
429.132	581.24
429.507	582.15
429.883	619.66
430.259	588.25
430.635	600.9
431.011	614.91
431.387	613.56
431.763	649.94
432.138	614.91
432.514	607.91
432.89	635.25
433.265	628.7
433.641	626.66
434.016	634.35
434.392	662.6
434.767	650.62
435.143	660.79
435.518	671.18
435.894	676.15
436.269	657.17
436.644	670.73
437.02	671.86
437.395	673.44
437.77	697.85
438.145	709.15
438.52	681.35
438.895	697.62
439.271	695.36
439.646	714.57
440.021	735.59
440.395	721.8
440.77	684.52
441.145	732.88
441.52	739.2
441.895	722.93
442.27	741.24
442.645	739.43
443.019	748.92
443.394	753.67
443.769	743.95
444.143	749.15
444.518	794.12
444.892	727.68
445.267	754.12
445.641	743.5
446.016	785.98
446.39	790.28
446.764	797.51
447.139	769.03
447.513	793.89
447.887	775.81
448.262	813.55
448.636	816.49
449.01	792.54
449.384	823.95
449.758	803.83
450.132	831.18
450.506	834.57
450.88	833.66
451.254	820.11
451.628	808.81
452.002	842.93
452.376	831.4
452.75	851.29
453.123	864.17
453.497	852.87
453.871	876.38
454.244	888.13
454.618	870.5
454.992	898.3
455.365	903.27
455.739	937.84
456.112	918.41
456.486	920.89
456.859	923.38
457.232	975.36
457.606	962.7
457.979	959.99
458.352	983.27
458.725	993.21
459.099	1017.39
459.472	1013.55
459.845	1019.2
460.218	1015.81
460.591	1036.37
460.964	1054.9
461.337	1060.33
461.71	1089.93
462.083	1081.34
462.456	1107.33
462.829	1103.71
463.201	1134.67
463.574	1128.35
463.947	1131.74
464.32	1149.59
464.692	1163.37
465.065	1182.81
465.438	1200.43
465.81	1212.86
466.183	1225.74
466.555	1259.42
466.928	1255.35
467.3	1261.9
467.672	1267.33
468.045	1333.99
468.417	1323.6
468.789	1340.77
469.161	1381.67
469.534	1391.84
469.906	1411.73
470.278	1399.98
470.65	1444.95
471.022	1473.65
471.394	1473.87
471.766	1502.57
472.138	1526.75
472.51	1544.83
472.882	1636.36
473.253	1612.63
473.625	1673.42
473.997	1684.26
474.369	1731.49
474.74	1718.61
475.112	1762.23
475.484	1811.04
475.855	1856.01
476.227	1899.63
476.598	1942.79
476.97	1964.48
477.341	2032.28
477.713	2040.19
478.084	2095.33
478.455	2140.75
478.827	2196.34
479.198	2239.5
479.569	2301.65
479.94	2378.48
480.311	2434.53
480.682	2500.74
481.053	2550.91
481.424	2642.66
481.795	2661.87
482.166	2764.69
482.537	2798.58
482.908	2875.87
483.279	2970.56
483.65	3077.9
484.021	3138.01
484.391	3209.42
484.762	3267.5
485.133	3298.01
485.503	3384.56
485.874	3455.52
486.244	3560.82
486.615	3636.08
486.985	3745.23
487.356	3830.42
487.726	3912.68
488.097	4034.71
488.467	4077.87
488.837	4228.83
489.207	4326.45
489.578	4357.64
489.948	4420.91
490.318	4599.67
490.688	4623.62
491.058	4771.19
491.428	4897.74
491.798	4930.05
492.168	5074.23
492.538	5196.04
492.908	5249.82
493.278	5353.09
493.648	5399.42
494.017	5521.22
494.387	5639.87
494.757	5702.24
495.126	5800.09
495.496	5890.71
495.866	5943.81
496.235	6066.52
496.605	6177.7
496.974	6252.28
497.344	6308.77
497.713	6403.46
498.082	6510.13
498.452	6600.74
498.821	6650.46
499.19	6728.88
499.559	6800.06
499.928	6922.77
500.298	6940.62
500.667	7127.51
501.036	7067.62
501.405	7165.48
501.774	7235.98
502.143	7392.59
502.512	7435.52
502.88	7500.83
503.249	7588.06
503.618	7602.07
503.987	7689.98
504.356	7790.32
504.724	7827.15
505.093	7896.98
505.462	7995.74
505.83	8089.97
506.199	8200.7
506.567	8207.26
506.936	8233.7
507.304	8327.03
507.672	8442.28
508.041	8435.27
508.409	8541.48
508.777	8619.67
509.145	8680.69
509.514	8675.27
509.882	8781.25
510.25	8886.56
510.618	8866
510.986	8913.68
511.354	9051.75
511.722	9147.57
512.09	9229.83
512.458	9209.04
512.826	9270.73
513.193	9299.2
513.561	9399.77
513.929	9483.38
514.297	9658.07
514.664	9660.78
515.032	9691.96
515.4	9712.53
515.767	9754.79
516.135	9848.34
516.502	9821
516.869	9971.05
517.237	9988
517.604	9990.71
517.972	10142.35
518.339	10155.91
518.706	10192.74
519.073	10256.47
519.44	10322.68
519.808	10369.01
520.175	10450.13
520.542	10490.59
520.909	10578.49
521.276	10625.5
521.643	10654.65
522.009	10739.39
522.376	10750.01
522.743	10862.33
523.11	10923.79
523.477	11093.28
523.843	11088.99
524.21	11286.05
524.577	11313.16
524.943	11309.32
525.31	11379.6
525.676	11547.51
526.043	11583.89
526.409	11609.43
526.776	11744.79
527.142	11709.31
527.508	11847.39
527.874	11924.22
528.241	12062.3
528.607	11954.28
528.973	12119.24
529.339	12143.88
529.705	12279.47
530.071	12342.74
530.437	12379.58
530.803	12413.93
531.169	12520.81
531.535	12518.78
531.901	12554.03
532.267	12655.73
532.632	12756.97
532.998	12750.64
533.364	12900.01
533.73	12972.1
534.095	13066.56
534.461	13031.31
534.826	13048.94
535.192	13072.89
535.557	13289.83
535.923	13246.22
536.288	13339.78
536.653	13385.65
537.019	13308.36
537.384	13474.69
537.749	13528.02
538.114	13571.86
538.479	13659.99
538.845	13711.07
539.21	13645.31
539.575	13709.03
539.94	13826.09
540.305	13921.68
540.67	13756.49
541.034	13911.51
541.399	14042.36
541.764	14006.43
542.129	14151.96
542.494	14193.31
542.858	14219.3
543.223	14225.18
543.587	14301.56
543.952	14358.73
544.316	14426.08
544.681	14464.27
545.045	14516.92
545.41	14596.92
545.774	14681.21
546.138	14685.73
546.503	14763.92
546.867	14819.96
547.231	14869.91
547.595	14944.03
547.959	14948.1
548.324	14992.84
548.688	15015.66
549.052	15094.76
549.416	15116.9
549.779	15184.25
550.143	15240.29
550.507	15384.47
550.871	15381.76
551.235	15383.56
551.599	15517.57
551.962	15456.56
552.326	15546.5
552.689	15620.39
553.053	15628.98
553.417	15659.26
553.78	15764.12
554.143	15751.69
554.507	15871.91
554.87	15903.32
555.234	16076.2
555.597	15960.95
555.96	15956.88
556.323	16131.12
556.686	16217.21
557.05	16227.16
557.413	16310.32
557.776	16279.81
558.139	16451.11
558.502	16463.76
558.865	16582.63
559.228	16694.26
559.59	16643.42
559.953	16716.64
560.316	16826.01
560.679	16959.34
561.041	16947.59
561.404	17041.6
561.767	17153.46
562.129	17092.22
562.492	17232.33
562.854	17199.11
563.217	17259.67
563.579	17286.34
563.941	17508.93
564.304	17518.88
564.666	17604.97
565.028	17601.81
565.39	17702.83
565.753	17742.15
566.115	17861.92
566.477	17828.47
566.839	17990.05
567.201	18086.77
567.563	18212.64
567.925	18197.28
568.287	18153.89
568.648	18242.25
569.01	18321.34
569.372	18516.14
569.734	18385.75
570.095	18488.12
570.457	18774.66
570.819	18745.74
571.18	18765.4
571.542	18879.29
571.903	18935.34
572.265	18955.67
572.626	19099.17
572.987	19212.84
573.349	19204.93
573.71	19339.84
574.071	19387.75
574.432	19564.25
574.794	19706.39
575.155	19616.45
575.516	19655.54
575.877	19871.81
576.238	19977.12
576.599	20061.18
576.96	20230.22
577.32	20147.51
577.681	20413.26
578.042	20516.08
578.403	20613.71
578.763	20779.81
579.124	20859.8
579.485	21079.46
579.845	21209.17
580.206	21272.68
580.566	21398.1
580.927	21559.67
581.287	21669.73
581.648	21866.33
582.008	22102.94
582.368	22110.62
582.728	22322.14
583.089	22518.29
583.449	22574.79
583.809	22804.39
584.169	23077.37
584.529	23123.25
584.889	23433.07
585.249	23550.13
585.609	23621.09
585.969	23975.2
586.329	23999.61
586.688	24384.91
587.048	24474.17
587.408	24613.83
587.768	24850.89
588.127	25054.95
588.487	25119.35
588.846	25638.89
589.206	25666.46
589.565	25884.98
589.925	26179.21
590.284	26354.35
590.643	26639.99
591.003	26816.03
591.362	26993.2
591.721	27262.57
592.08	27446.98
592.44	27729.68
592.799	27964.93
593.158	28150.69
593.517	28333.51
593.876	28512.94
594.235	28795.42
594.593	29043.32
594.952	29239.92
595.311	29392.69
595.67	29606.47
596.029	29998.77
596.387	30205.1
596.746	30479.44
597.104	30534.8
597.463	30584.52
597.822	31016.83
598.18	30954.23
598.538	31262.24
598.897	31624.04
599.255	31538.85
599.613	32081.2
599.972	32106.29
600.33	32406.62
600.688	32499.05
601.046	32866.95
601.404	33002.99
601.762	32986.94
602.12	33352.13
602.478	33527.49
602.836	33684.33
603.194	33776.08
603.552	33986.01
603.91	33877.09
604.268	34349.62
604.625	34445.44
604.983	34638.2
605.341	34644.75
605.698	34844.3
606.056	35174.23
606.413	35238.18
606.771	35446.99
607.128	35593.43
607.485	35590.04
607.843	35776.7
608.2	36037.48
608.557	36159.74
608.914	36143.24
609.272	36466.17
609.629	36677.24
609.986	36817.8
610.343	36806.05
610.7	37197.68
611.057	37152.03
611.414	37281.97
611.771	37440.16
612.127	37699.81
612.484	37644.45
612.841	37983.2
613.198	37909.98
613.554	37990.2
613.911	38325.33
614.267	38355.16
614.624	38318.33
614.98	38530.3
615.337	38857.98
615.693	38810.07
616.05	38895.04
616.406	39214.58
616.762	39110.85
617.118	39229.49
617.475	39225.65
617.831	39537.28
618.187	39463.38
618.543	39463.16
618.899	39770.49
619.255	39618.41
619.611	39828.8
619.967	39887.33
620.323	40074.89
620.678	39977.04
621.034	40052.75
621.39	40142.24
621.746	40061.79
622.101	40696.8
622.457	40225.85
622.812	40488.67
623.168	40563.69
623.523	40721.2
623.879	40760.98
624.234	40591.94
624.589	40838.49
624.945	40774.54
625.3	40910.35
625.655	40990.8
626.01	41040.97
626.365	41072.15
626.72	40920.97
627.075	41005.49
627.43	41092.72
627.785	41049.56
628.14	41021.76
628.495	41136.56
628.85	41121.64
629.205	41043.45
629.559	41391.69
629.914	41176.78
630.269	41308.31
630.623	41184.24
630.978	41138.59
631.332	41284.35
631.687	41446.38
632.041	41351.47
632.396	41317.12
632.75	41158.71
633.104	41316.67
633.459	41185.82
633.813	41166.62
634.167	41192.15
634.521	41252.94
634.875	41293.17
635.229	41331.13
635.583	40938.82
635.937	41181.76
636.291	41139.27
636.645	41132.27
636.999	41187.18
637.352	41235.77
637.706	41028.09
638.06	41305.14
638.413	41018.14
638.767	41006.62
639.121	41249.1
639.474	40817.47
639.828	40871.71
640.181	41081.19
640.534	41045.04
640.888	40920.07
641.241	40669.45
641.594	40959.16
641.947	41026.05
642.301	40736.34
642.654	40884.81
643.007	40781.99
643.36	40921.42
643.713	40786.96
644.066	40788.77
644.419	40727.53
644.771	40431.04
645.124	40034.44
645.477	39989.25
645.83	39848.01
646.182	39664.28
646.535	39563.04
646.888	39797.39
647.24	39418.64
647.593	39678.29
647.945	39668.8
648.298	39439.2
648.65	39382.48
649.002	39428.13
649.355	39537.96
649.707	39469.48
650.059	39627.9
650.411	40146.08
650.763	40113.76
651.115	40545.61
651.467	40454.32
651.819	40306.75
652.171	40302.68
652.523	40231.95
652.875	40185.62
653.227	40088.23
653.578	40418.84
653.93	40230.82
654.282	40037.38
654.633	40003.48
654.985	40094.1
655.337	40046.42
655.688	40199.86
656.039	40264.49
656.391	39957.16
656.742	40001
657.094	40123.48
657.445	40198.05
657.796	39993.54
658.147	40078.73
658.498	39941.34
658.849	40085.06
659.2	39929.81
659.551	39873.77
659.902	40016.82
660.253	39899.08
660.604	40030.6
660.955	39812.98
661.306	40051.16
661.656	39845.75
662.007	39984.73
662.358	39976.82
662.708	39838.74
663.059	39853.88
663.409	39712.64
663.76	39933.88
664.11	39970.71
664.461	40050.94
664.811	39826.31
665.161	39876.93
665.511	39724.85
665.862	39821.79
666.212	39830.83
666.562	39883.03
666.912	39743.38
667.262	39649.82
667.612	39767.56
667.962	39815.01
668.312	39863.37
668.662	39907.21
669.011	39695.47
669.361	39747.67
669.711	39694.79
670.06	39699.99
670.41	39761.91
670.76	39632.64
671.109	39665.19
671.459	39553.1
671.808	39650.27
672.157	39745.64
672.507	39390.16
672.856	39507.9
673.205	39589.71
673.554	39572.31
673.904	39476.49
674.253	39676.71
674.602	39535.02
674.951	39135.48
675.3	38907.24
675.649	39624.06
675.998	39570.27
676.346	39390.16
676.695	39572.53
677.044	39342.71
677.393	39349.04
677.741	39519.43
678.09	39340.67
678.438	39220.45
678.787	39373.89
679.135	39450.73
679.484	39048.93
679.832	39172.32
680.181	38905.43
680.529	39094.58
680.877	39006.9
681.225	38935.49
681.573	39071.3
681.922	38948.82
682.27	38702.05
682.618	38814.59
682.966	38654.59
683.314	38836.51
683.661	38753.35
684.009	38454.37
684.357	38474.48
684.705	38340.93
685.053	38351.1
685.4	38384.77
685.748	38165.11
686.095	38183.19
686.443	38027.94
686.79	37978.9
687.138	38100.93
687.485	38142.29
687.832	37912.92
688.18	37983.65
688.527	37778.91
688.874	37664.79
689.221	37764.67
689.568	37609.65
689.915	37568.52
690.262	37505.02
690.609	37487.39
690.956	37255.31
691.303	37239.03
691.65	37154.74
691.997	37206.72
692.344	36846.73
692.69	36846.73
693.037	37054.18
693.383	36728.09
693.73	36684.02
694.077	36553.4
694.423	36556.79
694.769	36305.5
695.116	36323.13
695.462	36150.93
695.808	36087.88
696.155	36204.71
696.501	35945.74
696.847	35925.62
697.193	35789.13
697.539	35887.43
697.885	35533.77
698.231	35545.97
698.577	35464.39
698.923	35458.29
699.269	35317.05
699.614	35180.78
699.96	34983.05
700.306	35093.55
700.651	34962.94
700.997	34823.28
701.342	34743.06
701.688	34705.09
702.033	34662.15
702.379	34632.55
702.724	34577.41
703.069	34590.74
703.415	34158.89
703.76	34233.24
704.105	34207.02
704.45	34244.54
704.795	34009.74
705.14	33910.53
705.485	33781.27
705.83	33687.26
706.175	33743.31
706.52	33630.32
706.865	33491.34
707.209	33507.61
707.554	33439.36
707.899	33442.98
708.243	33318.01
708.588	33137.9
708.932	33047.51
709.277	32915.53
709.621	33045.25
709.966	32755.54
710.31	32873.05
710.654	32500.4
710.998	32684.8
711.342	32697.69
711.687	32471.02
712.031	32343.8
712.375	32301.31
712.719	32327.75
713.063	32341.31
713.407	32324.81
713.75	32153.29
714.094	32051.15
714.438	31985.39
714.782	32013.86
715.125	31944.71
715.469	31914.2
715.812	31767.54
716.156	31548.11
716.499	31725.73
716.843	31606.64
717.186	31456.81
717.53	31491.16
717.873	31616.36
718.216	31443.93
718.559	31301.56
718.902	31113.32
719.246	31275.58
719.589	31127.56
719.932	30932.08
720.275	30903.16
720.617	31034.45
720.96	30885.08
721.303	30960.56
721.646	30905.87
721.989	30630.62
722.331	30767.79
722.674	30771.86
723.016	30692.77
723.359	30638.3
723.701	30741.58
724.044	30543.84
724.386	30358.09
724.729	30565.99
725.071	30517.18
725.413	30387.24
725.755	30338.43
726.097	30161.71
726.439	30106.79
726.782	30048.26
727.124	30292.1
727.465	30087.36
727.807	29972.56
728.149	29954.03
728.491	29912.9
728.833	29940.47
729.175	29814.15
729.516	29785.9
729.858	29657.77
730.199	29646.92
730.541	29574.6
730.882	29686.24
731.224	29683.75
731.565	29507.26
731.906	29483.08
732.248	29475.17
732.589	29322.63
732.93	29218.45
733.271	29208.06
733.612	29229.3
733.953	29341.84
734.294	29248.51
734.635	29072.47
734.976	29231.34
735.317	29037.67
735.658	28975.98
735.999	28896.43
736.339	28885.13
736.68	28952.7
737.021	28826.37
737.361	28714.97
737.702	28872.48
738.042	28852.36
738.383	28654.63
738.723	28757.45
739.063	28695.76
739.404	28709.54
739.744	28674.74
740.084	28572.14
740.424	28617.34
740.764	28491.02
741.104	28654.85
741.444	28375.77
741.784	28289.67
742.124	28377.57
742.464	28225.94
742.804	28296.9
743.143	28226.39
743.483	28211.7
743.823	27996.79
744.162	28091.7
744.502	27972.61
744.841	28006.28
745.181	28069.11
745.52	27938.49
745.86	27963.35
746.199	27935.32
746.538	27832.28
746.877	27935.32
747.216	27788.21
747.556	27816.91
747.895	27746.18
748.234	27664.15
748.573	27582.57
748.911	27499.18
749.25	27557.93
749.589	27479.74
749.928	27551.15
750.267	27426.19
750.605	27316.58
750.944	27326.98
751.283	27220.99
751.621	27317.71
751.96	27115.69
752.298	27080.43
752.636	27052.41
752.975	26991.17
753.313	26823.72
753.651	27030.26
753.989	26811.96
754.327	26764.06
754.666	26793.21
755.004	26702.59
755.342	26724.51
755.679	26693.78
756.017	26517.06
756.355	26583.04
756.693	26359.1
757.031	26430.28
757.368	26289.49
757.706	26311.41
758.044	26222.6
758.381	26167.91
758.719	26157.52
759.056	26106.67
759.394	26028.48
759.731	25744.42
760.068	25790.52
760.405	25678.66
760.743	25592.56
761.08	25627.36
761.417	25497.87
761.754	25542.39
762.091	25416.07
762.428	25280.71
762.765	25202.29
763.102	25273.02
763.438	25039.13
763.775	25066.93
764.112	25063.08
764.449	25010.43
764.785	24958.23
765.122	24654.06
765.458	24711.45
765.795	24629.87
766.131	24593.49
766.467	24471.01
766.804	24508.52
767.14	24348.3
767.476	24310.56
767.812	24257.46
768.148	24200.06
768.485	24064.01
768.821	23849.78
769.157	23875.54
769.492	23812.95
769.828	23821.99
770.164	23648.43
770.5	23504.71
770.836	23496.12
771.171	23365.95
771.507	23292.28
771.842	23056.36
772.178	23145.39
772.513	23061.1
772.849	23022.91
773.184	22949.69
773.519	22874.89
773.855	22686.88
774.19	22759.42
774.525	22551.06
774.86	22592.41
775.195	22504.51
775.53	22395.36
775.865	22309.26
776.2	22121.47
776.535	21988.59
776.87	22057.51
777.205	21890.29
777.539	21850.97
777.874	21912.66
778.209	21692.55
778.543	21616.17
778.878	21491.88
779.212	21578.2
779.547	21311.09
779.881	21394.93
780.215	21240.59
780.55	21197.2
780.884	21093.7
781.218	21063.19
781.552	21180.47
781.886	20940.71
782.22	20788.17
782.554	20775.51
782.888	20614.39
783.222	20461.62
783.556	20464.33
783.889	20366.48
784.223	20300.95
784.557	20298.01
784.89	20186.83
785.224	20161.07
785.557	20057.57
785.891	19997.45
786.224	19990
786.558	19986.38
786.891	19736.44
787.224	19677.01
787.557	19598.14
787.891	19572.83
788.224	19533.29
788.557	19526.05
788.89	19482.44
789.223	19445.6
789.556	19296.46
789.888	19238.83
790.221	19162.45
790.554	18857.6
790.887	18970.59
791.219	18937.14
791.552	18902.34
791.884	18880.87
792.217	18735.57
792.549	18709.8
792.882	18470.94
793.214	18522.46
793.546	18532.63
793.879	18387.1
794.211	18358.63
794.543	18246.99
794.875	18169.48
795.207	18208.8
795.539	18097.17
795.871	18004.74
796.203	17918.19
796.535	17912.76
796.867	17915.48
797.198	17796.61
797.53	17878.64
797.862	17687.23
798.193	17804.52
798.525	17587.12
798.856	17626.67
799.188	17386.9
799.519	17311.2
799.85	17331.08
800.182	17279.56
800.513	17308.26
800.844	17152.11
801.175	17196.62
801.506	17154.14
801.837	17056.74
802.168	16972
802.499	16955.73
802.83	16879.8
803.161	16840.93
803.491	16819.01
803.822	16878.67
804.153	16789.86
804.483	16620.59
804.814	16493.37
805.145	16500.37
805.475	16431.9
805.805	16418.11
806.136	16441.62
806.466	16447.49
806.796	16387.15
807.126	16240.04
807.457	16187.84
807.787	16262.41
808.117	16073.72
808.447	16111
808.777	16103.55
809.107	15982.42
809.436	16066.48
809.766	15890.67
810.096	15875.08
810.426	15907.39
810.755	15824
811.085	15728.19
811.414	15666.95
811.744	15519.61
812.073	15574.07
812.403	15479.16
812.732	15543.33
813.061	15560.96
813.39	15349.22
813.719	15318.71
814.049	15381.08
814.378	15349.22
814.707	15187.19
815.036	15175.66
815.365	15171.59
815.693	15051.37
816.022	15051.6
816.351	15024.25
816.68	14848.66
817.008	15031.03
817.337	14891.6
817.665	14876.46
817.994	14887.98
818.322	14815.9
818.651	14721.43
818.979	14674.2
819.307	14716.92
819.636	14767.76
819.964	14652.06
820.292	14683.47
820.62	14670.59
820.948	14634.21
821.276	14637.82
821.604	14581.33
821.932	14523.93
822.259	14638.5
822.587	14613.42
822.915	14610.03
823.243	14571.61
823.57	14489.12
823.898	14519.63
824.225	14506.53
824.553	14465.4
824.88	14574.77
825.207	14477.6
825.535	14447.32
825.862	14551.04
826.189	14504.04
826.516	14548.33
826.843	14583.36
827.17	14566.86
827.497	14579.97
827.824	14556.02
828.151	14559.86
828.478	14574.55
828.805	14586.98
829.131	14485.96
829.458	14460.42
829.785	14425.4
830.111	14449.58
830.438	14464.72
830.764	14516.24
831.09	14452.97
831.417	14377.49
831.743	14461.78
832.069	14421.33
832.395	14404.16
832.722	14367.55
833.048	14361.44
833.374	14370.03
833.7	14228.57
834.026	14336.13
834.351	14313.31
834.677	14270.83
835.003	14286.87
835.329	14320.77
835.654	14266.76
835.98	14273.76
836.306	14263.37
836.631	14117.84
836.956	14163.94
837.282	14247.55
837.607	14059.53
837.932	14129.81
838.258	14113.32
838.583	13999.19
838.908	14034.67
839.233	13980.21
839.558	14049.81
839.883	13903.15
840.208	13958.29
840.533	13860.67
840.858	13901.34
841.182	13889.82
841.507	13866.99
841.832	13830.84
842.156	13665.64
842.481	13770.73
842.805	13654.34
843.13	13697.28
843.454	13632.65
843.778	13612.99
844.103	13549.94
844.427	13540
844.751	13559.88
845.075	13575.93
845.399	13481.24
845.723	13335.93
846.047	13382.94
846.371	13238.31
846.695	13297.29
847.019	13175.26
847.343	13129.84
847.666	13037.19
847.99	13039.67
848.313	12988.37
848.637	12888.71
848.96	12867.02
849.284	12859.34
849.607	12812.33
849.931	12725.78
850.254	12601.26
850.577	12570.76
850.9	12535.96
851.223	12632.9
851.546	12479.23
851.869	12313.14
852.192	12424.32
852.515	12302.97
852.838	12292.35
853.161	12250.99
853.483	12125.12
853.806	12189.3
854.129	12140.94
854.451	12125.35
854.774	12060.04
855.096	11989.76
855.419	11996.99
855.741	11977.78
856.063	11818.01
856.385	11804.22
856.708	11799.93
857.03	11798.8
857.352	11785.47
857.674	11681.74
857.996	11569.43
858.318	11527.39
858.64	11610.33
858.961	11559.03
859.283	11523.55
859.605	11421.18
859.926	11498.92
860.248	11411.01
860.57	11407.85
860.891	11348.87
861.212	11316.55
861.534	11265.03
861.855	11225.03
862.176	11272.26
862.498	11247.18
862.819	11200.62
863.14	11192.94
863.461	11180.51
863.782	11088.76
864.103	11180.06
864.424	11058.48
864.745	10994.3
865.065	11100.06
865.386	11060.51
865.707	11011.7
866.027	10998.14
866.348	10968.99
866.668	11054.86
866.989	10985.49
867.309	10936.22
867.63	10857.36
867.95	10935.32
868.27	10804.7
868.59	10856.23
868.91	10818.26
869.23	10830.01
869.55	10827.07
869.87	10880.63
870.19	10851.93
870.51	10760.64
870.83	10741.2
871.15	10684.7
871.469	10700.3
871.789	10697.13
872.109	10689.45
872.428	10619.17
872.748	10662.56
873.067	10626.4
873.386	10626.4
873.706	10603.35
874.025	10483.81
874.344	10434.77
874.663	10508.21
874.982	10518.16
875.301	10455.78
875.62	10421.21
875.939	10347.76
876.258	10397.93
876.577	10379.63
876.896	10393.41
877.214	10334.88
877.533	10343.24
877.852	10348.89
878.17	10388.44
878.489	10235.45
878.807	10350.25
879.125	10196.13
879.444	10286.07
879.762	10252.17
880.08	10235.45
880.398	10188.67
880.716	10155.23
881.034	10150.48
881.352	10182.35
881.67	10108
881.988	10139.86
882.306	10100.77
882.624	10056.47
882.941	10022.35
883.259	10002.46
883.577	10013.76
883.894	9937.38
884.212	9929.02
884.529	9938.06
884.846	9896.93
885.164	9891.96
885.481	9803.37
885.798	9837.5
886.115	9776.71
886.432	9741.23
886.75	9736.26
887.067	9798.17
887.383	9715.69
887.7	9727.89
888.017	9677.5
888.334	9668.01
888.651	9609.93
888.967	9528.13
889.284	9520.44
889.6	9546.43
889.917	9450.16
890.233	9445.42
890.55	9437.73
890.866	9408.58
891.182	9397.51
891.498	9340.56
891.815	9351.41
892.131	9297.85
892.447	9304.63
892.763	9247.45
893.079	9298.75
893.395	9172.88
893.71	9174.91
894.026	9172.43
894.342	9129.04
894.657	9051.75
894.973	9019.89
895.289	9074.35
895.604	9024.86
895.92	8993
896.235	8961.81
896.55	8967.24
896.865	8919.78
897.181	8872.55
897.496	8852.89
897.811	8755.49
898.126	8854.92
898.441	8770.4
898.756	8784.64
899.071	8691.99
899.386	8716.4
899.7	8573.35
900.015	8583.29
900.33	8535.61
900.644	8494.93
900.959	8494.48
901.273	8482.5
901.588	8389.17
901.902	8383.75
902.216	8350.08
902.531	8379.68
902.845	8330.87
903.159	8275.95
903.473	8278.44
903.787	8203.19
904.101	8180.82
904.415	8156.18
904.729	8158.22
905.042	8069.41
905.356	8107.6
905.67	8079.58
905.984	7994.15
906.297	7997.77
906.611	7914.16
906.924	7920.48
907.237	7914.38
907.551	7868.06
907.864	7836.87
908.177	7766.82
908.491	7822.63
908.804	7716.42
909.117	7750.32
909.43	7681.62
909.743	7666.25
910.056	7633.71
910.368	7631.45
910.681	7512.81
910.994	7574.28
911.307	7446.82
911.619	7453.15
911.932	7397.56
912.244	7377.67
912.557	7442.08
912.869	7359.14
913.181	7350.78
913.494	7346.71
913.806	7274.85
914.118	7254.74
914.43	7222.42
914.742	7187.17
915.054	7132.71
915.366	7093.84
915.678	7150.79
915.99	7092.48
916.302	6899.72
916.613	6977.01
916.925	6945.82
917.236	7016.78
917.548	6861.53
917.859	6934.75
918.171	6803.23
918.482	6786.28
918.794	6816.11
919.105	6775.88
919.416	6722.78
919.727	6693.17
920.038	6673.96
920.349	6669.67
920.66	6607.52
920.971	6573.17
921.282	6597.35
921.593	6582.44
921.903	6445.04
922.214	6419.05
922.525	6464.25
922.835	6426.51
923.146	6397.81
923.456	6390.58
923.767	6331.83
924.077	6320.75
924.387	6297.48
924.697	6243.24
925.008	6177.25
925.318	6164.6
925.628	6191.72
925.938	6107.65
926.248	6118.95
926.558	6116.46
926.867	6094.54
927.177	6074.66
927.487	6037.14
927.796	5969.57
928.106	5976.81
928.416	5946.3
928.725	5939.97
929.034	5903.81
929.344	5875.34
929.653	5877.83
929.962	5824.95
930.271	5739.52
930.581	5796.25
930.89	5732.07
931.199	5734.1
931.508	5735.91
931.817	5747.89
932.125	5706.53
932.434	5639.19
932.743	5612.52
933.051	5523.48
933.36	5577.04
933.669	5499.08
933.977	5497.27
934.286	5517.38
934.594	5501.11
934.902	5414.79
935.21	5400.1
935.519	5417.5
935.827	5358.74
936.135	5340.44
936.443	5262.93
936.751	5296.82
937.059	5339.76
937.367	5296.37
937.674	5313.09
937.982	5225.64
938.29	5207.79
938.597	5211.18
938.905	5154.68
939.213	5145.64
939.52	5069.49
939.827	5114.91
940.135	5023.84
940.442	5032.65
940.749	5029.49
941.056	5010.5
941.363	4935.7
941.67	4918.53
941.977	4897.74
942.284	4868.59
942.591	4875.37
942.898	4846.89
943.205	4923.27
943.511	4827.91
943.818	4803.73
944.125	4792.2
944.431	4782.71
944.738	4773.9
945.044	4733
945.35	4688.03
945.657	4688.25
945.963	4670.85
946.269	4641.93
946.575	4598.31
946.881	4628.37
947.187	4585.43
947.493	4561.7
947.799	4574.13
948.105	4534.81
948.41	4477.86
948.716	4466.56
949.022	4448.94
949.327	4488.26
949.633	4424.53
949.938	4418.43
950.244	4421.14
950.549	4366.68
950.854	4329.84
951.16	4314.93
951.465	4310.86
951.77	4253.01
952.075	4274.48
952.38	4247.81
952.685	4263.18
952.99	4182.5
953.294	4187.93
953.599	4164.88
953.904	4148.61
954.209	4128.72
954.513	4131.88
954.818	4077.2
955.122	4090.98
955.426	4095.27
955.731	4047.37
956.035	4046.91
956.339	3985.45
956.643	4011.43
956.948	3964.43
957.252	3970.08
957.556	3950.64
957.86	3939.8
958.163	3926.01
958.467	3869.74
958.771	3891.21
959.075	3884.88
959.378	3829.29
959.682	3847.37
959.985	3855.05
960.289	3819.35
960.592	3773.93
960.896	3753.14
961.199	3752.23
961.502	3740.03
961.805	3730.31
962.108	3706.13
962.411	3684.44
962.714	3705
963.017	3652.8
963.32	3636.75
963.623	3650.31
963.926	3674.04
964.228	3600.6
964.531	3604.67
964.833	3568.96
965.136	3545.68
965.438	3526.48
965.741	3525.35
966.043	3526.02
966.345	3487.83
966.648	3468.85
966.95	3484.67
967.252	3409.87
967.554	3412.58
967.856	3435.18
968.158	3390.66
968.46	3406.7
968.761	3346.82
969.063	3378.46
969.365	3374.84
969.666	3337.78
969.968	3296.42
970.269	3264.56
970.571	3265.01
970.872	3275.41
971.174	3249.19
971.475	3237.22
971.776	3190.21
972.077	3199.48
972.378	3211.46
972.679	3225.92
972.98	3173.49
973.281	3152.93
973.582	3113.83
973.883	3146.37
974.183	3117.45
974.484	3126.03
974.785	3083.1
975.085	3076.54
975.386	3111.57
975.686	3070.22
975.986	3036.54
976.287	2984.79
976.587	2963.78
976.887	2973.95
977.187	2999.71
977.487	2971.01
977.787	2962.65
978.087	2915.87
978.387	2926.26
978.687	2953.16
978.987	2877.23
979.286	2906.15
979.586	2866.61
979.885	2858.92
980.185	2853.27
980.484	2834.29
980.784	2815.53
981.083	2828.87
981.382	2798.58
981.682	2773.5
981.981	2751.58
982.28	2776.66
982.579	2792.03
982.878	2758.13
983.177	2731.47
983.475	2752.71
983.774	2676.1
984.073	2717.23
984.372	2694.63
984.67	2651.92
984.969	2641.75
985.267	2686.05
985.566	2665.03
985.864	2624.35
986.162	2602.21
986.461	2562.88
986.759	2612.83
987.057	2557.46
987.355	2559.49
987.653	2568.08
987.951	2550.46
988.249	2559.95
988.547	2537.35
988.844	2519.95
989.142	2537.8
989.44	2498.25
989.737	2476.33
990.035	2450.57
990.332	2444.02
990.63	2443.11
990.927	2424.58
991.224	2435.88
991.521	2417.13
991.819	2392.72
992.116	2394.53
992.413	2376.22
992.71	2356.34
993.006	2348.43
993.303	2375.77
993.6	2365.15
993.897	2345.49
994.193	2323.12
994.49	2294.87
994.787	2276.11
995.083	2274.3
995.379	2267.3
995.676	2244.47
995.972	2274.08
996.268	2193.63
996.565	2211.93
996.861	2220.52
997.157	2179.62
997.453	2217.13
997.749	2189.79
998.044	2176.91
998.34	2160.18
998.636	2147.08
998.932	2120.86
999.227	2130.81
999.523	2136.46
999.818	2093.07
1000.114	2125.83
1000.409	2051.71
1000.704	2071.15
1001	2058.04
1001.295	2053.07
1001.59	2027.53
1001.885	2045.61
1002.18	2034.31
1002.475	1992.05
1002.77	1972.84
1003.065	1987.76
1003.359	1994.31
1003.654	1956.57
1003.949	1945.95
1004.243	1911.38
1004.538	1922.68
1004.832	1920.87
1005.127	1937.36
1005.421	1906.86
1005.715	1910.92
1006.009	1879.51
1006.304	1867.31
1006.598	1841.77
1006.892	1839.29
1007.186	1860.08
1007.48	1836.35
1007.773	1835.45
1008.067	1816.24
1008.361	1806.75
1008.655	1772.4
1008.948	1781.89
1009.242	1789.35
1009.535	1768.56
1009.829	1742.34
1010.122	1724.26
1010.415	1742.57
1010.708	1729.91
1011.001	1718.84
1011.295	1703.7
1011.588	1645.39
1011.881	1704.38
1012.173	1681.33
1012.466	1640.65
1012.759	1658.05
1013.052	1620.31
1013.344	1639.29
1013.637	1643.81
1013.93	1622.57
1014.222	1595.23
1014.514	1610.82
1014.807	1601.55
1015.099	1588.45
1015.391	1548.9
1015.683	1583.93
1015.976	1554.55
1016.268	1563.59
1016.56	1540.31
1016.851	1552.74
1017.143	1514.78
1017.435	1496.02
1017.727	1494.66
1018.018	1502.35
1018.31	1481.11
1018.602	1514.32
1018.893	1443.37
1019.185	1474.55
1019.476	1450.37
1019.767	1453.08
1020.058	1391.84
1020.35	1435
1020.641	1397.27
1020.932	1415.12
1021.223	1385.51
1021.514	1383.48
1021.804	1375.35
1022.095	1359.07
1022.386	1349.58
1022.677	1358.85
1022.967	1344.84
1023.258	1313.88
1023.548	1305.29
1023.839	1320.66
1024.129	1285.18
1024.419	1297.83
1024.709	1279.98
1025	1258.06
1025.29	1249.47
1025.58	1250.83
1025.87	1264.84
1026.16	1262.58
1026.449	1223.48
1026.739	1228.91
1027.029	1217.38
1027.319	1218.29
1027.608	1205.63
1027.898	1193.43
1028.187	1187.33
1028.477	1193.88
1028.766	1189.14
1029.055	1156.82
1029.344	1156.82
1029.634	1148.01
1029.923	1139.19
1030.212	1146.88
1030.501	1117.05
1030.79	1134.67
1031.078	1128.12
1031.367	1110.95
1031.656	1097.84
1031.945	1088.57
1032.233	1086.09
1032.522	1066.2
1032.81	1054.22
1033.099	1053.32
1033.387	1084.73
1033.675	1062.36
1033.963	1042.92
1034.251	1070.27
1034.54	1059.65
1034.828	1036.82
1035.116	1039.31
1035.403	1025.3
1035.691	1010.16
1035.979	981.68
1036.267	1002.93
1036.554	969.03
1036.842	987.33
1037.129	959.08
1037.417	961.12
1037.704	963.83
1037.992	965.19
1038.279	981.91
1038.566	924.74
1038.853	924.74
1039.14	924.74
