Data from hue_300_FLMS001491_00089.txt Node
Date: Tue Feb 07 15:51:20 GMT 2017
User: dcchb
Spectrometer: FLMS00149
Trigger mode: 0
Integration Time (sec): 2.000000E-2
Scans to average: 10
Electric dark correction enabled: true
Nonlinearity correction enabled: false
Boxcar width: 0
XAxis mode: Wavelengths
Number of Pixels in Spectrum: 2048
>>>>>Begin Spectral Data<<<<<
341.393	-22.63
341.776	-22.63
342.16	-22.63
342.543	-57.43
342.927	-61.27
343.31	-79.57
343.693	-69.63
344.077	-60.14
344.46	-81.16
344.843	-42.06
345.226	-36.41
345.61	-35.51
345.993	-5.23
346.376	-3.87
346.759	16.24
347.142	22.57
347.525	41.78
347.908	46.98
348.291	89.91
348.674	92.4
349.057	103.7
349.44	110.25
349.823	149.35
350.206	145.5
350.588	202.45
350.971	208.55
351.354	246.29
351.737	224.6
352.119	240.19
352.502	269.34
352.884	286.97
353.267	274.99
353.65	299.62
354.032	305.27
354.414	292.85
354.797	313.41
355.179	307.31
355.562	334.88
355.944	330.58
356.326	326.52
356.709	327.42
357.091	327.42
357.473	356.12
357.855	325.61
358.238	350.47
358.62	362
359.002	339.62
359.384	339.17
359.766	334.2
360.148	340.08
360.53	333.75
360.912	342.34
361.294	316.12
361.676	338.72
362.057	349.57
362.439	344.37
362.821	329
363.203	326.29
363.584	329.45
363.966	318.83
364.348	334.65
364.729	353.86
365.111	330.81
365.493	315.22
365.874	304.14
366.256	322.45
366.637	316.57
367.019	325.16
367.4	325.16
367.781	318.83
368.163	302.79
368.544	338.27
368.925	314.31
369.306	316.12
369.688	308.89
370.069	321.09
370.45	325.16
370.831	307.76
371.212	304.6
371.593	331.71
371.974	329.23
372.355	324.03
372.736	327.65
373.117	328.78
373.498	331.26
373.879	324.71
374.26	312.05
374.641	312.28
375.021	315.67
375.402	312.28
375.783	338.72
376.163	341.88
376.544	332.62
376.925	344.6
377.305	327.87
377.686	332.62
378.066	344.6
378.447	344.6
378.827	343.69
379.208	329
379.588	347.08
379.968	316.35
380.349	349.34
380.729	334.65
381.109	366.29
381.489	342.34
381.87	372.17
382.25	325.84
382.63	337.36
383.01	351.83
383.39	349.57
383.77	349.79
384.15	354.31
384.53	374.88
384.91	355.44
385.29	358.15
385.67	338.72
386.049	360.87
386.429	362.22
386.809	370.81
387.189	378.72
387.568	364.26
387.948	366.97
388.328	378.72
388.707	381.2
389.087	375.1
389.466	394.09
389.846	388.66
390.225	388.44
390.605	403.12
390.984	402.9
391.363	389.34
391.743	395.89
392.122	394.99
392.501	409.45
392.881	411.94
393.26	403.58
393.639	401.77
394.018	429.56
394.397	406.06
394.776	403.8
395.155	416.46
395.534	390.02
395.913	421.66
396.292	408.1
396.671	438.6
397.05	413.97
397.429	436.34
397.808	409.68
398.186	417.59
398.565	435.21
398.944	437.25
399.323	443.8
399.701	444.48
400.08	437.25
400.458	428.44
400.837	464.59
401.215	468.66
401.594	452.62
401.972	449
402.351	449.9
402.729	461.43
403.107	471.37
403.486	469.79
403.864	468.21
404.242	458.72
404.62	459.17
404.999	507.08
405.377	489.68
405.755	501.2
406.133	490.58
406.511	500.52
406.889	520.64
407.267	535.32
407.645	516.79
408.023	521.99
408.401	519.05
408.779	555.21
409.156	557.25
409.534	572.61
409.912	541.88
410.29	548.21
410.667	556.79
411.045	605.61
411.422	606.51
411.8	594.53
412.178	594.08
412.555	604.02
412.933	598.83
413.31	643.8
413.687	646.28
414.065	641.54
414.442	667.52
414.819	689.9
415.197	692.16
415.574	714.3
415.951	706.62
416.328	722.44
416.705	740.97
417.082	734.19
417.46	742.78
417.837	781.87
418.214	771.48
418.591	785.26
418.967	792.49
419.344	791.14
419.721	821.87
420.098	823.9
420.475	820.29
420.852	850.57
421.228	862.77
421.605	863.9
421.982	892.15
422.358	901.64
422.735	897.58
423.111	902.55
423.488	934.41
423.864	953.62
424.241	934.86
424.617	980.51
424.994	951.13
425.37	980.96
425.746	978.25
426.123	987.97
426.499	988.87
426.875	1017.57
427.251	1035.42
427.627	1062.09
428.003	1042.43
428.379	1086.5
428.756	1066.61
429.132	1073.39
429.507	1089.43
429.883	1107.74
430.259	1138.25
430.635	1159.94
431.011	1141.64
431.387	1161.75
431.763	1214.4
432.138	1227.28
432.514	1212.6
432.89	1220.05
433.265	1266.83
433.641	1276.55
434.016	1267.51
434.392	1263.67
434.767	1279.49
435.143	1324.46
435.518	1338.47
435.894	1350.67
436.269	1370.11
436.644	1379.14
437.02	1398.58
437.395	1392.48
437.77	1452.14
438.145	1443.78
438.52	1457.56
438.895	1458.24
439.271	1480.84
439.646	1513.83
440.021	1500.05
440.395	1529.42
440.77	1498.24
441.145	1527.16
441.52	1524.9
441.895	1542.98
442.27	1552.7
442.645	1532.81
443.019	1554.73
443.394	1574.39
443.769	1586.37
444.143	1583.66
444.518	1600.16
444.892	1628.18
445.267	1596.54
445.641	1609.87
446.016	1593.6
446.39	1652.13
446.764	1642.19
447.139	1623.88
447.513	1652.58
447.887	1669.98
448.262	1653.26
448.636	1645.13
449.01	1692.13
449.384	1693.71
449.758	1703.2
450.132	1685.13
450.506	1737.78
450.88	1738.23
451.254	1732.13
451.628	1732.58
452.002	1718.8
452.376	1756.54
452.75	1783.65
453.123	1740.49
453.497	1834.5
453.871	1827.72
454.244	1823.65
454.618	1844.22
454.992	1848.96
455.365	1883.99
455.739	1895.74
456.112	1954.27
456.486	1912.46
456.859	1908.17
457.232	1915.63
457.606	1920.83
457.979	1975.96
458.352	1990.43
458.725	2002.63
459.099	2020.71
459.472	2062.97
459.845	2086.24
460.218	2090.09
460.591	2092.8
460.964	2045.79
461.337	2127.6
461.71	2162.63
462.083	2168.05
462.456	2180.48
462.829	2122.85
463.201	2213.47
463.574	2209.63
463.947	2236.98
464.32	2265
464.692	2268.61
465.065	2301.83
465.438	2296.86
465.81	2333.47
466.183	2294.83
466.555	2377.31
466.928	2358.55
467.3	2359.01
467.672	2417.08
468.045	2501.37
468.417	2484.88
468.789	2471.09
469.161	2457.31
469.534	2544.31
469.906	2535.95
470.278	2561.26
470.65	2594.93
471.022	2641.94
471.394	2662.5
471.766	2666.57
472.138	2686
472.51	2749.96
472.882	2763.74
473.253	2803.06
473.625	2806.23
473.997	2858.2
474.369	2862.27
474.74	2884.19
475.112	2930.06
475.484	2981.81
475.855	2995.83
476.227	3008.48
476.598	3078.76
476.97	3145.65
477.341	3133.9
477.713	3203.96
478.084	3180
478.455	3243.5
478.827	3280.56
479.198	3317.85
479.569	3298.19
479.94	3423.61
480.311	3440.79
480.682	3458.86
481.053	3560.78
481.424	3543.61
481.795	3558.75
482.166	3653.89
482.537	3635.36
482.908	3726.43
483.279	3723.94
483.65	3794.67
484.021	3813.43
484.391	3876.03
484.762	3888.23
485.133	3906.76
485.503	3968.23
485.874	4017.72
486.244	4020.43
486.615	4100.2
486.985	4113.31
487.356	4205.28
487.726	4199.41
488.097	4252.97
488.467	4234.66
488.837	4327.54
489.207	4399.86
489.578	4430.59
489.948	4442.57
490.318	4538.38
490.688	4469.68
491.058	4524.82
491.428	4585.39
491.798	4625.39
492.168	4690.02
492.538	4711.26
492.908	4715.55
493.278	4823.8
493.648	4815.89
494.017	4859.5
494.387	4936.79
494.757	4897.7
495.126	4966.62
495.496	4963.23
495.866	4990.12
496.235	5015.66
496.605	5054.08
496.974	5058.37
497.344	5093.85
497.713	5120.29
498.082	5187.63
498.452	5180.85
498.821	5208.42
499.19	5233.96
499.559	5266.95
499.928	5270.34
500.298	5284.8
500.667	5302.43
501.036	5299.27
501.405	5363.67
501.774	5363.9
502.143	5445.25
502.512	5405.25
502.88	5451.81
503.249	5488.42
503.618	5472.37
503.987	5491.35
504.356	5518.47
504.724	5537.23
505.093	5548.53
505.462	5595.53
505.83	5596.66
506.199	5639.37
506.567	5667.17
506.936	5654.74
507.304	5727.28
507.672	5715.08
508.041	5742.87
508.409	5790.55
508.777	5870.1
509.145	5871.68
509.514	5821.74
509.882	5899.25
510.25	5910.55
510.618	5861.29
510.986	5912.58
511.354	5977.22
511.722	5977.67
512.09	6016.99
512.458	6019.25
512.826	6060.38
513.193	6008.4
513.561	6095.63
513.929	6055.86
514.297	6127.49
514.664	6149.41
515.032	6194.61
515.4	6224.44
515.767	6202.52
516.135	6211.11
516.502	6169.53
516.869	6240.49
517.237	6270.77
517.604	6250.88
517.972	6358.67
518.339	6337.21
518.706	6346.47
519.073	6327.94
519.44	6363.65
519.808	6396.64
520.175	6378.34
520.542	6462.4
520.909	6476.41
521.276	6435.28
521.643	6568.16
522.009	6601.15
522.376	6576.97
522.743	6660.81
523.11	6652.23
523.477	6728.38
523.843	6779.45
524.21	6820.13
524.577	6790.3
524.943	6845.22
525.31	6850.19
525.676	6914.37
526.043	6976.06
526.409	6981.71
526.776	7057.41
527.142	7053.12
527.508	7077.3
527.874	7138.09
528.241	7177.18
528.607	7211.53
528.973	7244.53
529.339	7257.41
529.705	7258.76
530.071	7313
530.437	7400.91
530.803	7403.39
531.169	7460.79
531.535	7413.34
531.901	7455.59
532.267	7505.31
532.632	7536.27
532.998	7565.87
533.364	7608.36
533.73	7610.62
534.095	7723.16
534.461	7699.43
534.826	7841.57
535.192	7832.08
535.557	7842.48
535.923	7846.09
536.288	7900.78
536.653	7977.39
537.019	7873.21
537.384	7935.13
537.749	7953.21
538.114	7977.62
538.479	8029.14
538.845	8019.87
539.21	8016.71
539.575	8056.26
539.94	8134.45
540.305	8214.9
540.67	8190.72
541.034	8209.25
541.399	8286.53
541.764	8317.95
542.129	8391.39
542.494	8360.88
542.858	8326.76
543.223	8451.95
543.587	8502.35
543.952	8497.15
544.316	8508
544.681	8492.4
545.045	8581.67
545.41	8590.71
545.774	8651.95
546.138	8606.07
546.503	8700.08
546.867	8733.75
547.231	8807.88
547.595	8818.5
547.959	8829.57
548.324	8817.37
548.688	8910.92
549.052	8910.47
549.416	8971.04
549.779	8933.07
550.143	8958.61
550.507	9044.71
550.871	9081.77
551.235	9066.63
551.599	9126.74
551.962	9112.27
552.326	9234.76
552.689	9221.2
553.053	9235.21
553.417	9208.54
553.78	9296.22
554.143	9245.6
554.507	9383.91
554.87	9330.57
555.234	9449.67
555.597	9396.56
555.96	9431.81
556.323	9424.58
556.686	9480.85
557.05	9515.88
557.413	9510
557.776	9637.46
558.139	9604.24
558.502	9654.18
558.865	9670
559.228	9720.62
559.59	9719.04
559.953	9771.92
560.316	9825.93
560.679	9847.62
561.041	9923.1
561.404	9834.97
561.767	9990.44
562.129	9960.61
562.492	10012.59
562.854	10039.26
563.217	10052.59
563.579	10058.69
563.941	10185.69
564.304	10203.55
564.666	10252.36
565.028	10218.69
565.39	10238.57
565.753	10300.27
566.115	10304.79
566.477	10356.99
566.839	10379.59
567.201	10448.51
567.563	10497.32
567.925	10552.01
568.287	10579.35
568.648	10555.17
569.01	10612.12
569.372	10717.2
569.734	10669.75
570.095	10731.67
570.457	10828.39
570.819	10798.11
571.18	10872.91
571.542	10987.93
571.903	10979.8
572.265	10987.93
572.626	11077.19
572.987	11136.18
573.349	11229.51
573.71	11282.16
574.071	11351.54
574.432	11405.1
574.794	11507.01
575.155	11503.17
575.516	11578.42
575.877	11676.5
576.238	11762.83
576.599	11893.22
576.96	11986.32
577.32	12026.1
577.681	12153.32
578.042	12282.13
578.403	12367.33
578.763	12506.08
579.124	12624.72
579.485	12806.64
579.845	12851.39
580.206	12967.31
580.566	13193.3
580.927	13243.69
581.287	13476.68
581.648	13558.03
582.008	13848.2
582.368	13955.31
582.728	14176.32
583.089	14338.58
583.449	14540.61
583.809	14740.6
584.169	14910.77
584.529	15149.4
584.889	15559.34
585.249	15570.18
585.609	15872.1
585.969	16268.92
586.329	16367.23
586.688	16650.83
587.048	16885.18
587.408	17187.54
587.768	17496.23
588.127	17761.09
588.487	18090.34
588.846	18456.21
589.206	18658.69
589.565	18866.14
589.925	19403.3
590.284	19503.41
590.643	19935.94
591.003	20259.1
591.362	20637.4
591.721	21022.7
592.08	21263.37
592.44	21639.85
592.799	22030.13
593.158	22335.43
593.517	22688.41
593.876	22931.57
594.235	23322.75
594.593	23731.1
594.952	24061.71
595.311	24270.29
595.67	24613.11
596.029	25091.52
596.387	25434.33
596.746	25759.07
597.104	26025.73
597.463	26467.98
597.822	26751.81
598.18	27119.03
598.538	27419.59
598.897	27842.86
599.255	27946.58
599.613	28649.16
599.972	28820.68
600.33	29194.01
600.688	29370.72
601.046	29861.56
601.404	30189.23
601.762	30495.44
602.12	30939.72
602.478	31140.17
602.836	31464.46
603.194	31544
603.552	31975.63
603.91	32080.94
604.268	32587.59
604.625	32683.41
604.983	33150.96
605.341	33248.14
605.698	33583.27
606.056	33963.15
606.413	34189.81
606.771	34599.06
607.128	34820.53
607.485	34868.66
607.843	35194.07
608.2	35528.3
608.557	35869.31
608.914	36006.93
609.272	36382.07
609.629	36498.45
609.986	36982.05
610.343	36901.83
610.7	37458.2
611.057	37463.17
611.414	37761.69
611.771	37837.85
612.127	38301.56
612.484	38389.7
612.841	38756.01
613.198	38656.58
613.554	38892.28
613.911	39230.8
614.267	39330.46
614.624	39306.06
614.98	39724.8
615.337	39991.01
615.693	40197.78
616.05	40222.87
616.406	40587.15
616.762	40541.73
617.118	40742.18
617.475	40927.48
617.831	41005.45
618.187	41236.18
618.543	41458.32
618.899	41767.46
619.255	41687.92
619.611	41828.7
619.967	42055.14
620.323	42151.18
620.678	42264.17
621.034	42239.31
621.39	42381
621.746	42347.33
622.101	43000.2
622.457	42747.77
622.812	42898.96
623.168	43049.69
623.523	43199.97
623.879	43411.03
624.234	43092.4
624.589	43469.79
624.945	43450.81
625.3	43550.69
625.655	43561.99
626.01	43641.08
626.365	43818.48
626.72	43899.16
627.075	43816.22
627.43	43856.45
627.785	43927.86
628.14	43964.69
628.495	44128.53
628.85	44290.78
629.205	43959.95
629.559	44243.1
629.914	44258.7
630.269	44277.23
630.623	44286.72
630.978	44115.42
631.332	44364.45
631.687	44564
632.041	44307.96
632.396	44438.35
632.75	44299.15
633.104	44394.96
633.459	44352.48
633.813	44263.89
634.167	44325.13
634.521	44423.44
634.875	44343.21
635.229	44395.87
635.583	44252.37
635.937	44278.13
636.291	44171.24
636.645	44371.46
636.999	44202.2
637.352	44353.61
637.706	44299.15
638.06	44394.96
638.413	44360.39
638.767	44348.41
639.121	44405.36
639.474	44020.06
639.828	44164.01
640.181	44366.26
640.534	44260.73
640.888	44159.26
641.241	44067.29
641.594	44038.36
641.947	44338.69
642.301	44282.42
642.654	44136.66
643.007	44246.49
643.36	44165.59
643.713	44046.5
644.066	44249.88
644.419	44081.52
644.771	43829.55
645.124	43332.62
645.477	43321.54
645.83	43068.67
646.182	43016.92
646.535	42931.5
646.888	43074.77
647.24	42832.97
647.593	43160.19
647.945	43043.81
648.298	42868.9
648.65	42905.06
649.002	42752.75
649.355	42913.42
649.707	42916.13
650.059	42870.48
650.411	43449.22
650.763	43370.36
651.115	43862.32
651.467	43852.83
651.819	43798.59
652.171	43673.17
652.523	43478.38
652.875	43568.09
653.227	43368.77
653.578	43766.5
653.93	43655.77
654.282	43458.49
654.633	43306.4
654.985	43544.82
655.337	43590.46
655.688	43474.99
656.039	43642.67
656.391	43384.59
656.742	43371.71
657.094	43445.61
657.445	43508.88
657.796	43441.54
658.147	43367.87
658.498	43390.7
658.849	43486.74
659.2	43410.13
659.551	43213.75
659.902	43415.33
660.253	43324.48
660.604	43484.25
660.955	43241.77
661.306	43465.5
661.656	43391.6
662.007	43265.73
662.358	43143.02
662.708	43321.32
663.059	43232.51
663.409	43085.62
663.76	43275.67
664.11	43376.01
664.461	43335.33
664.811	43233.86
665.161	43411.94
665.511	43132.4
665.862	43141.21
666.212	43264.37
666.562	43283.58
666.912	43258.95
667.262	43241.77
667.612	43166.97
667.962	43187.08
668.312	43167.65
668.662	43387.08
669.011	43179.63
669.361	43118.61
669.711	43119.97
670.06	43027.09
670.41	43080.87
670.76	42943.48
671.109	43047.2
671.459	43079.74
671.808	43034.32
672.157	43083.13
672.507	42697.15
672.856	42965.17
673.205	42928.33
673.554	42979.41
673.904	42839.52
674.253	43013.53
674.602	42886.08
674.951	42145.53
675.3	42089.94
675.649	42769.69
675.998	42787.32
676.346	42751.16
676.695	42795.23
677.044	42536.25
677.393	42628.23
677.741	42693.54
678.09	42416.48
678.438	42578.29
678.787	42510.49
679.135	42459.42
679.484	42182.14
679.832	42431.85
680.181	42268.69
680.529	42386.43
680.877	42215.81
681.225	42222.14
681.573	42351.17
681.922	42090.62
682.27	42040
682.618	42116.38
682.966	41939.21
683.314	41955.48
683.661	42001.35
684.009	41716.16
684.357	41602.04
684.705	41651.76
685.053	41647.92
685.4	41543.51
685.748	41493.8
686.095	41607.92
686.443	41263.75
686.79	41200.02
687.138	41253.12
687.485	41261.94
687.832	41061.26
688.18	41220.81
688.527	40965
688.874	40823.98
689.221	40774.27
689.568	40704.21
689.915	40506.7
690.262	40619.92
690.609	40414.05
690.956	40361.17
691.303	40278.69
691.65	40194.62
691.997	40199.82
692.344	39842.99
692.69	39865.82
693.037	39932.93
693.383	39603.45
693.73	39701.07
694.077	39577.46
694.423	39487.97
694.769	39343.34
695.116	39360.97
695.462	39220.86
695.808	38952.17
696.155	39097.02
696.501	38895.45
696.847	38824.04
697.193	38589.01
697.539	38735.9
697.885	38416.14
698.231	38335.91
698.577	38268.12
698.923	38362.13
699.269	38164.84
699.614	38011.85
699.96	37866.32
700.306	38016.6
700.651	37595.37
700.997	37563.96
701.342	37634.24
701.688	37575.03
702.033	37433.56
702.379	37335.94
702.724	37263.4
703.069	37368.71
703.415	36895.27
703.76	36925.78
704.105	36773.92
704.45	36817.99
704.795	36674.49
705.14	36515.4
705.485	36417.09
705.83	36354.95
706.175	36453.93
706.52	36349.75
706.865	36022.98
707.209	36044
707.554	36011.91
707.899	36099.59
708.243	35746.38
708.588	35779.14
708.932	35565.36
709.277	35506.16
709.621	35578.25
709.966	35355.65
710.31	35380.74
710.654	35173.74
710.998	35178.48
711.342	35211.48
711.687	35080.41
712.031	34860.3
712.375	34896.46
712.719	34838.15
713.063	34760.41
713.407	34989.11
713.75	34584.15
714.094	34678.16
714.438	34546.41
714.782	34597.25
715.125	34398.16
715.469	34436.13
715.812	34240.43
716.156	33978.51
716.499	34061.68
716.843	34077.72
717.186	33941.68
717.53	34026.87
717.873	33998.63
718.216	33865.07
718.559	33744.4
718.902	33664.62
719.246	33642.93
719.589	33579.43
719.932	33386.44
720.275	33468.24
720.617	33357.06
720.96	33418.08
721.303	33221.02
721.646	33345.76
721.989	33129.5
722.331	33198.87
722.674	33128.14
723.016	33174.47
723.359	33105.09
723.701	33073.9
724.044	32834.36
724.386	32777.19
724.729	32911.2
725.071	32667.36
725.413	32675.5
725.755	32654.48
726.097	32576.97
726.439	32412.9
726.782	32439.8
727.124	32634.37
727.465	32319.57
727.807	32360.7
728.149	32218.56
728.491	32161.16
728.833	32294.94
729.175	32239.35
729.516	32122.52
729.858	32076.19
730.199	32118.9
730.541	31982.86
730.882	32031.67
731.224	32041.39
731.565	31707.61
731.906	31849.53
732.248	31835.29
732.589	31627.16
732.93	31530.67
733.271	31611.12
733.612	31721.85
733.953	31553.72
734.294	31362.99
734.635	31419.03
734.976	31358.24
735.317	31223.33
735.658	31320.05
735.999	31334.74
736.339	31214.07
736.68	31289.77
737.021	31200.96
737.361	30989.67
737.702	31125.93
738.042	31072.83
738.383	31041.87
738.723	31175.65
739.063	30949.89
739.404	30877.58
739.744	30972.04
740.084	30742.44
740.424	30855.21
740.764	30700.41
741.104	30918.03
741.444	30867.63
741.784	30659.73
742.124	30619.05
742.464	30437.14
742.804	30591.48
743.143	30507.87
743.483	30485.72
743.823	30378.38
744.162	30308.1
744.502	30300.87
744.841	30184.04
745.181	30377.93
745.52	30233.75
745.86	30151.04
746.199	30109.24
746.538	30161.66
746.877	30321.43
747.216	30086.86
747.556	29975.91
747.895	30010.93
748.234	29977.71
748.573	29880.77
748.911	29835.12
749.25	29918.51
749.589	29822.92
749.928	29837.83
750.267	29821.33
750.605	29838.06
750.944	29657.5
751.283	29658.85
751.621	29771.62
751.96	29490.95
752.298	29530.27
752.636	29571.17
752.975	29498.86
753.313	29332.76
753.651	29407.11
753.989	29330.73
754.327	29304.74
754.666	29208.24
755.004	29248.69
755.342	29249.6
755.679	29195.14
756.017	29061.35
756.355	29132.54
756.693	29002.82
757.031	28997.4
757.368	28927.8
757.706	29041.69
758.044	28765.32
758.381	28752.44
758.719	28690.74
759.056	28732.55
759.394	28671.76
759.731	28481.48
760.068	28387.02
760.405	28423.18
760.743	28107.03
761.08	28372.79
761.417	28143.64
761.754	28125.56
762.091	28027.94
762.428	28009.63
762.765	27798.79
763.102	27984.55
763.438	27775.06
763.775	27707.49
764.112	27764.67
764.449	27747.94
764.785	27643.76
765.122	27359.03
765.458	27354.73
765.795	27284
766.131	27285.13
766.467	27215.98
766.804	27059.6
767.14	26851.47
767.476	26986.38
767.812	26933.73
768.148	26805.14
768.485	26686.28
768.821	26565.15
769.157	26563.12
769.492	26521.99
769.828	26538.48
770.164	26207.42
770.5	26168.55
770.836	26262.56
771.171	26175.33
771.507	26053.52
771.842	25669.13
772.178	25716.13
772.513	25684.72
772.849	25560.2
773.184	25500.09
773.519	25548.68
773.855	25481.11
774.19	25292.87
774.525	25145.53
774.86	25125.41
775.195	25140.1
775.53	25103.94
775.865	24960.9
776.2	24797.51
776.535	24613.11
776.87	24541.7
777.205	24497.18
777.539	24418.99
777.874	24338.54
778.209	24143.52
778.543	24131.99
778.878	24079.34
779.212	23930.87
779.547	23882.96
779.881	23892
780.215	23759.57
780.55	23711.66
780.884	23586.02
781.218	23488.39
781.552	23635.06
781.886	23320.26
782.22	23305.8
782.554	23128.18
782.888	22984
783.222	22977.22
783.556	22904.91
783.889	22901.29
784.223	22671.92
784.557	22722.54
784.89	22684.12
785.224	22513.73
785.557	22369.1
785.891	22301.53
786.224	22384.02
786.558	22240.29
786.891	22043.91
787.224	21965.04
787.557	21966.17
787.891	21886.18
788.224	21884.37
788.557	21747.87
788.89	21742.22
789.223	21720.3
789.556	21518.73
789.888	21519.41
790.221	21313.54
790.554	21254.78
790.887	21153.09
791.219	21078.97
791.552	21064.73
791.884	21050.27
792.217	20947.67
792.549	20750.39
792.882	20716.04
793.214	20666.55
793.546	20678.98
793.879	20448.47
794.211	20375.26
794.543	20532.54
794.875	20424.29
795.207	20371.64
795.539	20251.64
795.871	20244.19
796.203	20032.89
796.535	19968.03
796.867	19969.39
797.198	20007.81
797.53	19864.99
797.862	19767.81
798.193	19861.6
798.525	19637.65
798.856	19636.07
799.188	19465.67
799.519	19406.02
799.85	19286.24
800.182	19316.07
800.513	19357.88
800.844	19060.49
801.175	19201.95
801.506	19153.82
801.837	18971.45
802.168	19022.75
802.499	18959.25
802.83	18777.33
803.161	18724.45
803.491	18802.19
803.822	18830.21
804.153	18662.76
804.483	18511.58
804.814	18448.98
805.145	18428.19
805.475	18479.49
805.805	18311.13
806.136	18297.34
806.466	18305.71
806.796	18215.54
807.126	18172.38
807.457	18081.53
807.787	18115.2
808.117	17924.92
808.447	18030.23
808.777	17958.82
809.107	17888.54
809.436	17768.09
809.766	17833.63
810.096	17732.84
810.426	17691.94
810.755	17716.57
811.085	17511.15
811.414	17581.88
811.744	17484.94
812.073	17480.64
812.403	17433.86
812.732	17328.1
813.061	17258.95
813.39	17269.12
813.719	17171.95
814.049	17238.39
814.378	17277.71
814.707	17060.54
815.036	17162.68
815.365	16948.23
815.693	16892.63
816.022	16879.75
816.351	16892.63
816.68	16716.59
817.008	16778.51
817.337	16606.09
817.665	16578.07
817.994	16604.05
818.322	16570.38
818.651	16451.06
818.979	16366.55
819.307	16550.05
819.636	16500.78
819.964	16329.71
820.292	16406.77
820.62	16409.03
820.948	16285.19
821.276	16265.31
821.604	16355.47
821.932	16335.36
822.259	16314.57
822.587	16179.66
822.915	16222.82
823.243	16294.91
823.57	16248.36
823.898	16361.12
824.225	16166.1
824.553	16121.36
824.88	16256.27
825.207	16268.24
825.535	16132.65
825.862	16164.29
826.189	16237.28
826.516	16205.42
826.843	16247.91
827.17	16188.92
827.497	16177.85
827.824	16218.98
828.151	16206.55
828.478	16127.23
828.805	16285.65
829.131	16141.69
829.458	16096.95
829.785	16181.02
830.111	16177.4
830.438	16201.13
830.764	16127.68
831.09	16076.16
831.417	15967.24
831.743	16124.97
832.069	16073
832.395	16031.41
832.722	16063.5
833.048	15952.09
833.374	16082.26
833.7	15958.2
834.026	15903.51
834.351	15982.6
834.677	15937.86
835.003	15994.35
835.329	15951.87
835.654	15887.24
835.98	15880.23
836.306	15887.92
836.631	15823.06
836.956	15794.36
837.282	15884.53
837.607	15790.29
837.932	15726.79
838.258	15764.75
838.583	15710.75
838.908	15598.43
839.233	15652.67
839.558	15579
839.883	15519.34
840.208	15461.71
840.533	15547.59
840.858	15536.96
841.182	15502.39
841.507	15582.84
841.832	15363.41
842.156	15338.55
842.481	15348.95
842.805	15259.46
843.13	15308.95
843.454	15189.18
843.778	15199.35
844.103	15212.45
844.427	15076.19
844.751	15114.15
845.075	15102.4
845.399	14932.69
845.723	14981.05
846.047	14992.35
846.371	14797.1
846.695	14844.78
847.019	14704.44
847.343	14616.08
847.666	14545.58
847.99	14605.01
848.313	14509.19
848.637	14374.06
848.96	14356.88
849.284	14359.37
849.607	14297
849.931	14235.3
850.254	14036.66
850.577	14047.06
850.9	13974.52
851.223	13849.1
851.546	13870.57
851.869	13769.1
852.192	13868.08
852.515	13731.59
852.838	13654.3
853.161	13627.64
853.483	13609.78
853.806	13540.41
854.129	13524.36
854.451	13426.96
854.774	13360.3
855.096	13457.92
855.419	13285.05
855.741	13359.17
856.063	13205.27
856.385	13186.52
856.708	13100.64
857.03	13100.42
857.352	13041.66
857.674	12964.83
857.996	12949.01
858.318	12986.97
858.64	12923.93
858.961	12840.31
859.283	12866.75
859.605	12786.53
859.926	12792.18
860.248	12742.46
860.57	12730.48
860.891	12711.28
861.212	12631.05
861.534	12624.72
861.855	12547.89
862.176	12605.06
862.498	12591.96
862.819	12604.84
863.14	12412.07
863.461	12520.55
863.782	12402.58
864.103	12519.64
864.424	12328.24
864.745	12386.99
865.065	12335.69
865.386	12285.98
865.707	12249.59
866.027	12275.81
866.348	12260.67
866.668	12313.09
866.989	12161.01
867.309	12134.57
867.63	12147.67
867.95	12099.31
868.27	12012.31
868.59	12092.54
868.91	12064.29
869.23	11991.52
869.55	11957.62
869.87	11992.2
870.19	11966.89
870.51	11954.69
870.83	12009.15
871.15	11879.66
871.469	11883.05
871.789	11905.65
872.109	11850.28
872.428	11745.2
872.748	11824.97
873.067	11816.16
873.386	11804.18
873.706	11861.35
874.025	11717.86
874.344	11743.62
874.663	11723.73
874.982	11731.19
875.301	11681.92
875.62	11622.49
875.939	11602.83
876.258	11585.88
876.577	11561.7
876.896	11568.93
877.214	11562.61
877.533	11497.97
877.852	11557.63
878.17	11564.64
878.489	11540.46
878.807	11488.26
879.125	11453.91
879.444	11460.24
879.762	11389.5
880.08	11396.28
880.398	11263.86
880.716	11417.07
881.034	11358.77
881.352	11395.6
881.67	11215.5
881.988	11284.19
882.306	11216.85
882.624	11107.25
882.941	11076.52
883.259	11087.59
883.577	11093.47
883.894	11096.4
884.212	11034.71
884.529	11010.98
884.846	11037.65
885.164	11027.48
885.481	10963.53
885.798	10997.65
886.115	10909.29
886.432	10899.12
886.75	10792.46
887.067	10791.1
887.383	10782.51
887.7	10797.65
888.017	10696.87
888.334	10765.34
888.651	10726.24
888.967	10743.87
889.284	10622.97
889.6	10592.24
889.917	10617.09
890.233	10554.95
890.55	10500.94
890.866	10457.78
891.182	10387.27
891.498	10423.65
891.815	10380.04
892.131	10275.18
892.447	10346.14
892.763	10288.97
893.079	10237.44
893.395	10241.06
893.71	10192.47
894.026	10148.41
894.342	10142.3
894.657	10117.22
894.973	10075.19
895.289	10139.14
895.604	10021.63
895.92	9968.75
896.235	9985.02
896.55	9897.56
896.865	9883.55
897.181	9888.53
897.496	9887.85
897.811	9735.76
898.126	9765.82
898.441	9670
898.756	9698.02
899.071	9683.11
899.386	9653.5
899.7	9587.06
900.015	9583.45
900.33	9446.05
900.644	9461.42
900.959	9459.84
901.273	9383.68
901.588	9343
901.902	9286.28
902.216	9271.37
902.531	9280.18
902.845	9251.71
903.159	9125.83
903.473	9163.12
903.787	9067.3
904.101	9037.47
904.415	9059.62
904.729	9015.55
905.042	9002.22
905.356	9003.35
905.67	8935.33
905.984	8843.81
906.297	8891.94
906.611	8806.07
906.924	8787.54
907.237	8747.54
907.551	8736.69
907.864	8662.79
908.177	8707.77
908.491	8681.1
908.804	8648.56
909.117	8580.99
909.43	8548.67
909.743	8507.77
910.056	8505.28
910.368	8426.64
910.681	8405.85
910.994	8341
911.307	8261.22
911.619	8310.26
911.932	8298.28
912.244	8231.17
912.557	8178.29
912.869	8123.15
913.181	8199.53
913.494	8147.78
913.806	8033.21
914.118	8011.96
914.43	7962.7
914.742	8012.19
915.054	7881.57
915.366	7839.09
915.678	7844.74
915.99	7842.93
916.302	7753.67
916.613	7762.03
916.925	7746.21
917.236	7702.59
917.548	7650.39
917.859	7616.04
918.171	7629.38
918.482	7557.29
918.794	7547.34
919.105	7488.59
919.416	7485.65
919.727	7448.82
920.038	7461.24
920.349	7381.92
920.66	7373.56
920.971	7317.97
921.282	7241.36
921.593	7186.68
921.903	7148.26
922.214	7143.74
922.525	7091.31
922.835	7122.5
923.146	7081.14
923.456	7076.17
923.767	6989.84
924.077	7043.63
924.387	6953.24
924.697	6886.34
925.008	6916.63
925.318	6857.42
925.628	6844.31
925.938	6787.59
926.248	6743.3
926.558	6708.72
926.867	6760.92
927.177	6668.72
927.487	6607.71
927.796	6602.06
928.106	6613.36
928.416	6564.32
928.725	6551.66
929.034	6528.84
929.344	6512.12
929.653	6499.46
929.962	6404.78
930.271	6404.32
930.581	6409.29
930.89	6332.69
931.199	6313.25
931.508	6287.04
931.817	6319.13
932.125	6191.67
932.434	6211.56
932.743	6144.44
933.051	6182.86
933.36	6147.38
933.669	6115.74
933.977	6108.96
934.286	6041.85
934.594	6028.74
934.902	5951
935.21	5957.1
935.519	5962.3
935.827	5971.57
936.135	5884.11
936.443	5794.62
936.751	5833.49
937.059	5797.79
937.367	5809.08
937.674	5806.82
937.982	5781.51
938.29	5757.56
938.597	5701.74
938.905	5625.36
939.213	5649.77
939.52	5631.91
939.827	5609.77
940.135	5562.09
940.442	5565.02
940.749	5553.72
941.056	5573.16
941.363	5439.83
941.67	5454.74
941.977	5452.94
942.284	5482.99
942.591	5389.66
942.898	5364.35
943.205	5371.36
943.511	5310.57
943.818	5352.83
944.125	5278.25
944.431	5249.78
944.738	5247.52
945.044	5209.55
945.35	5180.4
945.657	5144.24
945.963	5163.23
946.269	5128.42
946.575	5099.95
946.881	5017.47
947.187	5037.81
947.493	5029.22
947.799	5027.18
948.105	4995.77
948.41	4945.6
948.716	4944.25
949.022	4891.59
949.327	4910.35
949.633	4830.35
949.938	4847.08
950.244	4823.57
950.549	4839.62
950.854	4791.03
951.16	4751.03
951.465	4750.81
951.77	4758.49
952.075	4737.93
952.38	4676.01
952.685	4661.09
952.99	4651.37
953.294	4600.3
953.599	4616.35
953.904	4600.08
954.209	4539.97
954.513	4525.5
954.818	4475.11
955.122	4482.79
955.426	4480.76
955.731	4459.97
956.035	4431.72
956.339	4325.51
956.643	4404.83
956.948	4352.17
957.252	4320.31
957.556	4342.68
957.86	4329.8
958.163	4289.58
958.467	4259.52
958.771	4300.2
959.075	4285.51
959.378	4218.17
959.682	4218.17
959.985	4208.22
960.289	4157.38
960.592	4147.66
960.896	4116.47
961.199	4099.98
961.502	4111.05
961.805	4090.71
962.108	3993.77
962.411	4008.91
962.714	3995.12
963.017	4003.93
963.32	4013.2
963.623	4008.23
963.926	3988.12
964.228	3965.97
964.531	3895.91
964.833	3931.85
965.136	3849.59
965.438	3866.54
965.741	3872.64
966.043	3827.67
966.345	3831.28
966.648	3793.54
966.95	3769.82
967.252	3739.31
967.554	3726.2
967.856	3726.2
968.158	3749.7
968.46	3700.89
968.761	3659.31
969.063	3656.6
969.365	3602.59
969.666	3636.94
969.968	3636.49
970.269	3580.22
970.571	3603.72
970.872	3575.47
971.174	3502.25
971.475	3551.52
971.776	3516.72
972.077	3506.09
972.378	3475.81
972.679	3482.37
972.98	3436.94
973.281	3452.76
973.582	3422.48
973.883	3429.03
974.183	3386.32
974.484	3394.23
974.785	3344.29
975.085	3347.91
975.386	3342.48
975.686	3368.7
975.986	3317.4
976.287	3355.36
976.587	3271.3
976.887	3259.55
977.187	3241.92
977.487	3264.74
977.787	3191.75
978.087	3197.18
978.387	3176.16
978.687	3202.6
978.987	3153.79
979.286	3139.1
979.586	3161.7
979.885	3148.59
980.185	3112.21
980.484	3117.63
980.784	3075.37
981.083	3067.46
981.382	3069.27
981.682	3063.17
981.981	3000.57
982.28	3037.41
982.579	3010.51
982.878	2991.98
983.177	2977.52
983.475	2921.25
983.774	2982.27
984.073	2937.75
984.372	2914.47
984.67	2917.18
984.969	2904.53
985.267	2852.55
985.566	2889.61
985.864	2816.39
986.162	2803.51
986.461	2817.07
986.759	2804.42
987.057	2794.47
987.355	2786.57
987.653	2790.63
987.951	2801.03
988.249	2716.96
988.547	2738.2
988.844	2711.76
989.142	2709.05
989.44	2691.2
989.737	2692.33
990.035	2661.6
990.332	2664.76
990.63	2659.56
990.927	2651.88
991.224	2620.24
991.521	2627.7
991.819	2619.34
992.116	2585.89
992.413	2571.43
992.71	2556.29
993.006	2536.85
993.303	2537.31
993.6	2557.42
993.897	2518.78
994.193	2494.82
994.49	2497.08
994.787	2467.93
995.083	2443.98
995.379	2441.04
995.676	2430.19
995.972	2401.49
996.268	2407.37
996.565	2413.24
996.861	2391.77
997.157	2360.14
997.453	2355.62
997.749	2316.75
998.044	2344.77
998.34	2300.7
998.636	2338.22
998.932	2301.38
999.227	2283.3
999.523	2302.28
999.818	2261.61
1000.114	2238.56
1000.409	2246.01
1000.704	2240.14
1001	2205.56
1001.295	2226.35
1001.59	2204.66
1001.885	2176.41
1002.18	2164.89
1002.475	2145.68
1002.77	2119.69
1003.065	2115.17
1003.359	2117.43
1003.654	2112.91
1003.949	2098.9
1004.243	2093.25
1004.538	2068.84
1004.832	2045.57
1005.127	2042.86
1005.421	2036.75
1005.715	2052.35
1006.009	2036.53
1006.304	1981.16
1006.598	2005.12
1006.892	1997.66
1007.186	1956.08
1007.48	1972.58
1007.773	1967.83
1008.067	1941.16
1008.361	1927.6
1008.655	1918.79
1008.948	1896.87
1009.242	1918.57
1009.535	1893.93
1009.829	1892.35
1010.122	1860.94
1010.415	1869.98
1010.708	1844.44
1011.001	1848.06
1011.295	1833.37
1011.588	1812.81
1011.881	1791.79
1012.173	1775.97
1012.466	1792.69
1012.759	1764.67
1013.052	1776.2
1013.344	1739.36
1013.637	1731.45
1013.93	1734.84
1014.222	1677.89
1014.514	1700.49
1014.807	1684.45
1015.099	1685.8
1015.391	1672.47
1015.683	1668.85
1015.976	1664.79
1016.268	1634.96
1016.56	1646.48
1016.851	1637.67
1017.143	1615.97
1017.435	1604
1017.727	1609.65
1018.018	1587.95
1018.31	1547.05
1018.602	1568.97
1018.893	1584.11
1019.185	1530.55
1019.476	1519.03
1019.767	1535.98
1020.058	1513.6
1020.35	1501.85
1020.641	1503.44
1020.932	1448.97
1021.223	1454.85
1021.514	1447.17
1021.804	1449.65
1022.095	1433.15
1022.386	1426.37
1022.677	1417.11
1022.967	1416.88
1023.258	1401.29
1023.548	1375.53
1023.839	1388.18
1024.129	1359.26
1024.419	1373.72
1024.709	1367.85
1025	1333.5
1025.29	1330.11
1025.58	1328.75
1025.87	1350.9
1026.16	1349.54
1026.449	1320.61
1026.739	1285.14
1027.029	1298.24
1027.319	1290.56
1027.608	1267.51
1027.898	1251.92
1028.187	1251.46
1028.477	1243.1
1028.766	1244.46
1029.055	1249.88
1029.344	1211.01
1029.634	1238.36
1029.923	1203.78
1030.212	1197.23
1030.501	1185.7
1030.79	1150.45
1031.078	1154.97
1031.367	1170.34
1031.656	1198.13
1031.945	1146.61
1032.233	1151.58
1032.522	1152.26
1032.81	1125.59
1033.099	1105.48
1033.387	1107.29
1033.675	1109.55
1033.963	1104.35
1034.251	1112.71
1034.54	1108.19
1034.828	1088.08
1035.116	1085.59
1035.403	1082.43
1035.691	1054.18
1035.979	1051.24
1036.267	1033.84
1036.554	1026.39
1036.842	1015.54
1037.129	1015.76
1037.417	1036.33
1037.704	1030.68
1037.992	981.19
1038.279	1023.67
1038.566	992.49
1038.853	992.49
1039.14	992.49
