Data from hue_38_FLMS001491_00049.txt Node
Date: Tue Feb 07 17:31:34 GMT 2017
User: dcchb
Spectrometer: FLMS00149
Trigger mode: 0
Integration Time (sec): 2.000000E-2
Scans to average: 10
Electric dark correction enabled: true
Nonlinearity correction enabled: false
Boxcar width: 0
XAxis mode: Wavelengths
Number of Pixels in Spectrum: 2048
>>>>>Begin Spectral Data<<<<<
341.393	-27.03
341.776	-27.03
342.16	-27.03
342.543	-71.1
342.927	-70.65
343.31	-86.92
343.693	-63.42
344.077	-63.87
344.46	-65.9
344.843	-50.54
345.226	-50.99
345.61	-24.55
345.993	0.31
346.376	-8.05
346.759	0.31
347.142	25.17
347.525	40.54
347.908	71.27
348.291	61.1
348.674	97.48
349.057	118.05
349.44	141.32
349.823	145.39
350.206	157.37
350.588	189.91
350.971	220.42
351.354	232.17
351.737	247.31
352.119	226.97
352.502	263.58
352.884	268.33
353.267	270.13
353.65	290.47
354.032	327.99
354.414	309.91
354.797	316.46
355.179	335.44
355.562	327.31
355.944	328.89
356.326	334.99
356.709	327.08
357.091	329.12
357.473	343.8
357.855	338.83
358.238	332.73
358.62	344.03
359.002	308.55
359.384	345.84
359.766	366.4
360.148	359.4
360.53	324.37
360.912	325.27
361.294	328.44
361.676	344.26
362.057	344.71
362.439	344.93
362.821	341.32
363.203	326.18
363.584	339.74
363.966	331.6
364.348	339.28
364.729	318.72
365.111	325.27
365.493	323.92
365.874	293.64
366.256	319.62
366.637	322.79
367.019	321.21
367.4	328.66
367.781	301.55
368.163	312.17
368.544	309.46
368.925	319.4
369.306	306.07
369.688	304.48
370.069	321.88
370.45	351.26
370.831	295.44
371.212	306.29
371.593	326.86
371.974	313.52
372.355	298.61
372.736	321.88
373.117	313.97
373.498	325.5
373.879	327.76
374.26	338.38
374.641	323.47
375.021	334.31
375.402	330.92
375.783	325.95
376.163	308.78
376.544	308.78
376.925	342.45
377.305	329.79
377.686	324.37
378.066	320.98
378.447	338.83
378.827	337.25
379.208	318.27
379.588	342
379.968	334.99
380.349	340.41
380.729	327.31
381.109	332.28
381.489	340.87
381.87	330.7
382.25	336.35
382.63	347.19
383.01	309
383.39	321.66
383.77	324.82
384.15	320.75
384.53	342.45
384.91	348.1
385.29	316.69
385.67	339.28
386.049	345.16
386.429	372.28
386.809	358.95
387.189	343.8
387.568	351.71
387.948	348.1
388.328	346.29
388.707	357.14
389.087	354.2
389.466	367.08
389.846	356.69
390.225	342
390.605	372.5
390.984	378.83
391.363	370.24
391.743	385.39
392.122	373.63
392.501	391.03
392.881	400.98
393.26	379.96
393.639	376.12
394.018	372.5
394.397	376.35
394.776	389.23
395.155	393.52
395.534	368.89
395.913	373.63
396.292	396.91
396.671	399.85
397.05	399.62
397.429	379.06
397.808	377.48
398.186	394.65
398.565	388.78
398.944	387.42
399.323	402.79
399.701	400.75
400.08	401.2
400.458	385.39
400.837	401.43
401.215	413.86
401.594	396.46
401.972	390.58
402.351	395.1
402.729	395.55
403.107	410.92
403.486	405.72
403.864	400.3
404.242	395.78
404.62	416.12
404.999	415.67
405.377	413.41
405.755	429.23
406.133	421.09
406.511	423.58
406.889	420.64
407.267	427.19
407.645	438.04
408.023	440.53
408.401	425.16
408.779	410.24
409.156	458.6
409.534	444.82
409.912	452.73
410.29	445.72
410.667	469.9
411.045	452.05
411.422	456.57
411.8	469.45
412.178	472.16
412.555	462.22
412.933	477.36
413.31	462.45
413.687	485.95
414.065	476.91
414.442	476
414.819	495.21
415.197	457.93
415.574	488.43
415.951	516.68
416.328	498.15
416.705	503.35
417.082	493.86
417.46	511.71
417.837	524.14
418.214	505.38
418.591	488.43
418.967	515.55
419.344	526.4
419.721	535.21
420.098	516.23
420.475	536.34
420.852	507.87
421.228	510.13
421.605	538.6
421.982	549.45
422.358	557.36
422.735	540.64
423.111	534.08
423.488	561.43
423.864	542.22
424.241	559.84
424.617	560.52
424.994	556.91
425.37	567.98
425.746	551.93
426.123	578.15
426.499	545.83
426.875	579.28
427.251	589.9
427.627	565.72
428.003	610.46
428.379	585.61
428.756	599.84
429.132	617.24
429.507	615.44
429.883	624.25
430.259	626.51
430.635	635.32
431.011	631.71
431.387	612.5
431.763	648.66
432.138	614.98
432.514	645.49
432.89	665.83
433.265	648.43
433.641	674.42
434.016	661.31
434.392	679.84
434.767	695.21
435.143	678.26
435.518	697.47
435.894	687.07
436.269	697.47
436.644	704.47
437.02	716.68
437.395	705.15
437.77	716.9
438.145	702.44
438.52	733.4
438.895	711.93
439.271	736.56
439.646	720.07
440.021	730.24
440.395	738.14
440.77	760.29
441.145	783.79
441.52	768.43
441.895	762.1
442.27	748.99
442.645	763.68
443.019	762.55
443.394	799.84
443.769	762.55
444.143	774.3
444.518	788.99
444.892	806.17
445.267	817.01
445.641	809.1
446.016	786.73
446.39	795.77
446.764	802.1
447.139	820.4
447.513	835.54
447.887	824.24
448.262	827.41
448.636	822.89
449.01	857.92
449.384	834.64
449.758	845.26
450.132	873.28
450.506	843.45
450.88	885.71
451.254	857.92
451.628	896.56
452.002	874.86
452.376	901.76
452.75	883.68
453.123	905.15
453.497	917.8
453.871	948.53
454.244	950.12
454.618	930.23
454.992	963.45
455.365	979.27
455.739	980.4
456.112	973.62
456.486	987.4
456.859	985.82
457.232	1006.84
457.606	1007.52
457.979	1047.51
458.352	1018.36
458.725	1055.65
459.099	1050.68
459.472	1056.33
459.845	1083.67
460.218	1097.01
460.591	1113.28
460.964	1078.25
461.337	1115.08
461.71	1150.56
462.083	1169.09
462.456	1171.35
462.829	1175.42
463.201	1208.64
463.574	1221.07
463.947	1198.7
464.32	1221.07
464.692	1248.41
465.065	1236.21
465.438	1252.26
465.81	1264.46
466.183	1317.79
466.555	1322.31
466.928	1336.32
467.3	1352.37
467.672	1355.98
468.045	1402.99
468.417	1400.5
468.789	1421.97
469.161	1437.34
469.534	1488.41
469.906	1513.49
470.278	1516.43
470.65	1560.5
471.022	1564.34
471.394	1593.94
471.766	1619.03
472.138	1664.45
472.51	1684.79
472.882	1702.41
473.253	1741.96
473.625	1799.36
473.997	1790.55
474.369	1854.73
474.74	1866.25
475.112	1929.53
475.484	1957.77
475.855	2022.4
476.227	2025.12
476.598	2082.97
476.97	2101.27
477.341	2181.72
477.713	2238.9
478.084	2256.97
478.455	2343.53
478.827	2394.82
479.198	2456.74
479.569	2501.04
479.94	2601.82
480.311	2661.48
480.682	2733.12
481.053	2783.97
481.424	2874.36
481.795	2923.17
482.166	2965.43
482.537	3045.65
482.908	3155.26
483.279	3254.01
483.65	3308.92
484.021	3397.28
484.391	3447.45
484.762	3575.13
485.133	3650.84
485.503	3688.35
485.874	3802.02
486.244	3884.05
486.615	4010.83
486.985	4102.58
487.356	4198.84
487.726	4248.33
488.097	4420.31
488.467	4471.83
488.837	4585.05
489.207	4665.27
489.578	4807.19
489.948	4924.48
490.318	5071.36
490.688	5094.19
491.058	5248.99
491.428	5269.78
491.798	5413.05
492.168	5580.28
492.538	5619.37
492.908	5791.12
493.278	5893.72
493.648	5953.83
494.017	6039.25
494.387	6137.78
494.757	6278.56
495.126	6361.5
495.496	6455.28
495.866	6575.05
496.235	6640.81
496.605	6813.46
496.974	6834.71
497.344	6958.09
497.713	7037.19
498.082	7131.2
498.452	7286.9
498.821	7399.21
499.19	7405.54
499.559	7524.41
499.928	7631.3
500.298	7662.26
500.667	7843.27
501.036	7856.38
501.405	8057.5
501.774	8064.51
502.143	8130.04
502.512	8200.1
502.88	8333.2
503.249	8373.2
503.618	8457.94
503.987	8577.94
504.356	8641.21
504.724	8752.62
505.093	8810.02
505.462	8815.67
505.83	8977.02
506.199	9045.27
506.567	9197.81
506.936	9220.63
507.304	9288.43
507.672	9413.85
508.041	9485.26
508.409	9498.59
508.777	9609.55
509.145	9748.98
509.514	9773.61
509.882	9867.62
510.25	9891.58
510.618	9967.96
510.986	9988.75
511.354	10141.29
511.722	10187.61
512.09	10356.65
512.458	10354.61
512.826	10485.23
513.193	10509.86
513.561	10540.37
513.929	10714.15
514.297	10764.32
514.664	10846.13
515.032	10819.69
515.4	11034.82
515.767	11017.65
516.135	11188.72
516.502	11108.95
516.869	11219.68
517.237	11296.28
517.604	11247.47
517.972	11417.64
518.339	11500.12
518.706	11491.31
519.073	11569.05
519.44	11685.43
519.808	11812.66
520.175	11798.19
520.542	11954.12
520.909	11991.86
521.276	11992.54
521.643	12130.84
522.009	12175.81
522.376	12280.89
522.743	12309.59
523.11	12419.87
523.477	12587.55
523.843	12557.72
524.21	12654.89
524.577	12814.66
524.943	12881.55
525.31	12973.75
525.676	13020.99
526.043	13090.81
526.409	13210.13
526.776	13321.09
527.142	13331.26
527.508	13380.98
527.874	13512.5
528.241	13522.89
528.607	13660.52
528.973	13787.52
529.339	13843.34
529.705	13981.19
530.071	14029.09
530.437	14128.53
530.803	14233.61
531.169	14251.01
531.535	14288.3
531.901	14309.76
532.267	14449.42
532.632	14480.83
532.998	14525.58
533.364	14625.01
533.73	14702.75
534.095	14827.72
534.461	14787.04
534.826	14844.89
535.192	14950.2
535.557	15072.23
535.923	15058.9
536.288	15139.12
536.653	15182.74
537.019	15189.97
537.384	15310.87
537.749	15344.54
538.114	15354.48
538.479	15494.82
538.845	15561.94
539.21	15471.77
539.575	15609.39
539.94	15704.3
540.305	15760.57
540.67	15789.05
541.034	15794.25
541.399	15921.7
541.764	15974.81
542.129	16060.91
542.494	16127.8
542.858	16100.68
543.223	16180
543.587	16273.1
543.952	16231.3
544.316	16401.01
544.681	16366.43
545.045	16502.25
545.41	16615.69
545.774	16632.42
546.138	16672.19
546.503	16691.17
546.867	16808.68
547.231	16909.24
547.595	16934.1
547.959	17035.12
548.324	17058.17
548.688	17077.83
549.052	17172.97
549.416	17134.32
549.779	17300.42
550.143	17258.84
550.507	17445.95
550.871	17497.7
551.235	17463.81
551.599	17580.41
551.962	17579.28
552.326	17678.26
552.689	17746.74
553.053	17748.09
553.417	17769.56
553.78	17988.09
554.143	17973.4
554.507	18079.61
554.87	18046.62
555.234	18270.56
555.597	18224.46
555.96	18324.12
556.323	18391.69
556.686	18346.72
557.05	18454.74
557.413	18534.96
557.776	18622.19
558.139	18701.97
558.502	18771.34
558.865	18739.71
559.228	18901.96
559.59	18848.63
559.953	18930.89
560.316	19183.99
560.679	19143.54
561.041	19301.5
561.404	19361.84
561.767	19549.85
562.129	19452.45
562.492	19659.68
562.854	19641.38
563.217	19608.83
563.579	19776.06
563.941	19821.03
564.304	19854.48
564.666	20046.34
565.028	20074.13
565.39	20084.53
565.753	20206.79
566.115	20269.38
566.477	20353.45
566.839	20388.7
567.201	20515.03
567.563	20519.77
567.925	20818.97
568.287	20809.48
568.648	20667.79
569.01	20952.75
569.372	21007.67
569.734	21025.52
570.095	21179.64
570.457	21275.46
570.819	21257.15
571.18	21310.26
571.542	21421.67
571.903	21554.55
572.265	21689.23
572.626	21650.59
572.987	21751.83
573.349	21839.06
573.71	21975.55
574.071	21973.74
574.432	22097.58
574.794	22427.74
575.155	22329.22
575.516	22446.05
575.877	22578.93
576.238	22823.21
576.599	22881.97
576.96	22948.18
577.32	22980.95
577.681	23144.11
578.042	23237.89
578.403	23383.2
578.763	23502.07
579.124	23761.72
579.485	23905.22
579.845	24080.81
580.206	24174.59
580.566	24314.7
580.927	24432.66
581.287	24698.87
581.648	24775.03
582.008	25048.47
582.368	25032.65
582.728	25228.57
583.089	25391.73
583.449	25608.45
583.809	25724.83
584.169	25981.32
584.529	25959.85
584.889	26358.26
585.249	26415.21
585.609	26588.76
585.969	26863.56
586.329	26967.06
586.688	27306.94
587.048	27367.95
587.408	27567.27
587.768	27754.16
588.127	28009.52
588.487	28106.46
588.846	28545.1
589.206	28573.34
589.565	28765.66
589.925	29072.99
590.284	29138.98
590.643	29488.8
591.003	29706.2
591.362	29957.26
591.721	30063.48
592.08	30272.96
592.44	30447.87
592.799	30842.89
593.158	31002.66
593.517	31165.14
593.876	31226.38
594.235	31375.53
594.593	31713.15
594.952	31922.86
595.311	32084.21
595.67	32412.11
596.029	32599.23
596.387	32809.62
596.746	33069.5
597.104	33013.68
597.463	33245.54
597.822	33616.83
598.18	33638.75
598.538	33799.42
598.897	34135.68
599.255	34036.03
599.613	34679.62
599.972	34583.13
600.33	34949
600.688	34918.26
601.046	35166.84
601.404	35620.39
601.762	35639.6
602.12	35903.77
602.478	35930.21
602.836	36241.84
603.194	36024.9
603.552	36288.62
603.91	36263.31
604.268	36715.5
604.625	36629.86
604.983	36804.99
605.341	36813.35
605.698	37184.19
606.056	37269.61
606.413	37390.97
606.771	37693.1
607.128	37763.16
607.485	37801.8
607.843	37979.2
608.2	38210.15
608.557	38310.04
608.914	38313.88
609.272	38605.4
609.629	38747.99
609.986	38897.37
610.343	38867.54
610.7	39316.79
611.057	39231.14
611.414	39369.45
611.771	39608.76
612.127	39689.44
612.484	39805.59
612.841	40057.56
613.198	39952.25
613.554	39967.62
613.911	40292.81
614.267	40477.21
614.624	40405.8
614.98	40620.49
615.337	40790.42
615.693	40897.09
616.05	40721.73
616.406	41328.04
616.762	40972.79
617.118	41130.08
617.475	41108.61
617.831	41379.79
618.187	41424.08
618.543	41713.11
618.899	41787.23
619.255	41797.63
619.611	41790.62
619.967	41896.38
620.323	41964.63
620.678	42014.8
621.034	41925.08
621.39	42017.74
621.746	42044.85
622.101	42537.05
622.457	42246.43
622.812	42346.99
623.168	42548.57
623.523	42539.98
623.879	42704.95
624.234	42457.5
624.589	42575.01
624.945	42762.58
625.3	42895.45
625.655	42957.37
626.01	42888.67
626.365	42839.41
626.72	42913.08
627.075	42849.35
627.43	42833.53
627.785	42894.55
628.14	42919.41
628.495	43061.1
628.85	42997.15
629.205	42911.72
629.559	43135.9
629.914	42984.72
630.269	43065.17
630.623	43031.5
630.978	42934.32
631.332	43145.39
631.687	43326.86
632.041	43095.67
632.396	43090.7
632.75	43067.2
633.104	43072.4
633.459	43048.44
633.813	43075.56
634.167	43096.35
634.521	43156.46
634.875	43157.82
635.229	43193.53
635.583	42941.33
635.937	43028.11
636.291	42899.07
636.645	42878.96
636.999	42929.13
637.352	43086.18
637.706	42730.03
638.06	42939.75
638.413	42791.28
638.767	42814.1
639.121	42990.37
639.474	42690.26
639.828	42579.76
640.181	42664.73
640.534	42657.72
640.888	42621.56
641.241	42394.68
641.594	42648.68
641.947	42733.42
642.301	42642.58
642.654	42697.27
643.007	42601.9
643.36	42540.44
643.713	42568.91
644.066	42777.49
644.419	42412.53
644.771	42277.39
645.124	41876.5
645.477	41714.02
645.83	41577.07
646.182	41510.63
646.535	41296.17
646.888	41488.71
647.24	41401.71
647.593	41434.7
647.945	41352.44
648.298	41218.44
648.65	41126.01
649.002	41065.9
649.355	41288.94
649.707	41292.78
650.059	41429.73
650.411	41708.14
650.763	41858.87
651.115	42263.83
651.467	42120.11
651.819	42287.11
652.171	42079.88
652.523	41865.65
652.875	41890.28
653.227	41766.44
653.578	42076.04
653.93	41887.57
654.282	41844.18
654.633	41724.41
654.985	41904.07
655.337	41864.52
655.688	41829.72
656.039	42052.54
656.391	41702.49
656.742	41842.15
657.094	41847.12
657.445	41963.73
657.796	41740.46
658.147	41768.25
658.498	41714.47
658.849	41742.04
659.2	41757.86
659.551	41561.7
659.902	41762.6
660.253	41752.21
660.604	41754.92
660.955	41455.94
661.306	41616.84
661.656	41576.84
662.007	41650.06
662.358	41685.32
662.708	41539.11
663.059	41572.78
663.409	41348.15
663.76	41578.88
664.11	41558.09
664.461	41656.16
664.811	41635.83
665.161	41685.77
665.511	41462.95
665.862	41645.32
666.212	41430.18
666.562	41579.33
666.912	41514.47
667.262	41455.27
667.612	41448.26
667.962	41573.91
668.312	41482.16
668.662	41641.7
669.011	41546.79
669.361	41350.41
669.711	41422.05
670.06	41502.04
670.41	41323.97
670.76	41141.6
671.109	41494.13
671.459	41299.79
671.808	41284.65
672.157	41360.58
672.507	41282.62
672.856	41253.46
673.205	41351.09
673.554	41252.33
673.904	41224.09
674.253	41563.51
674.602	41277.87
674.951	40758.11
675.3	40398.12
675.649	41171.66
675.998	41173.92
676.346	41044.43
676.695	41244.2
677.044	40836.3
677.393	41020.48
677.741	41054.37
678.09	40993.13
678.438	40931.21
678.787	40938.44
679.135	41006.24
679.484	40708.39
679.832	40809.18
680.181	40604.67
680.529	40836.98
680.877	40563.99
681.225	40545.46
681.573	40812.12
681.922	40505.23
682.27	40354.5
682.618	40345.24
682.966	40308.86
683.314	40402.19
683.661	40236.31
684.009	40084.91
684.357	39993.84
684.705	39989.09
685.053	40111.12
685.4	40015.3
685.748	39804.24
686.095	39686.05
686.443	39787.74
686.79	39746.84
687.138	39805.59
687.485	39770.79
687.832	39402.66
688.18	39615.99
688.527	39428.43
688.874	39247.41
689.221	39251.48
689.568	39135.33
689.915	39207.87
690.262	38988.89
690.609	39079.51
690.956	38938.95
691.303	38819.4
691.65	38655.11
691.997	38639.29
692.344	38555
692.69	38561.78
693.037	38362.24
693.383	38186.65
693.73	38319.76
694.077	38130.38
694.423	38142.36
694.769	37936.94
695.116	37955.02
695.462	37839.32
695.808	37629.15
696.155	37825.3
696.501	37527.46
696.847	37589.38
697.193	37363.4
697.539	37319.1
697.885	37176.06
698.231	37004.08
698.577	37067.13
698.923	36932.9
699.269	36765.22
699.614	36617.43
699.96	36454.27
700.306	36680.93
700.651	36501.27
700.997	36296.08
701.342	36329.3
701.688	36283.42
702.033	36023.09
702.379	36062.87
702.724	36063.77
703.069	35969.53
703.415	35747.85
703.76	35744.23
704.105	35735.64
704.45	35545.82
704.795	35330.23
705.14	35228.54
705.485	35250.01
705.83	35098.37
706.175	35278.48
706.52	35103.79
706.865	34967.53
707.209	34869.22
707.554	34789.23
707.899	34892.5
708.243	34623.81
708.588	34664.03
708.932	34467.88
709.277	34448.44
709.621	34507.65
709.966	34081.22
710.31	34299.3
710.654	33968.23
710.998	34154.21
711.342	34072.86
711.687	33960.55
712.031	33849.14
712.375	33718.07
712.719	33646.21
713.063	33659.09
713.407	33675.58
713.75	33569.6
714.094	33567.79
714.438	33316.04
714.782	33470.17
715.125	33197.4
715.469	33345.65
715.812	33174.81
716.156	33045.54
716.499	33074.7
716.843	33134.58
717.186	32743.18
717.53	32960.35
717.873	32843.06
718.216	32785.89
718.559	32678.32
718.902	32400.59
719.246	32579.12
719.589	32428.61
719.932	32276.75
720.275	32351.55
720.617	32331.66
720.96	32197.66
721.303	32301.83
721.646	32312.46
721.989	32081.73
722.331	32182.74
722.674	31996.76
723.016	32046.47
723.359	31875.63
723.701	32034.95
724.044	31707.95
724.386	31621.4
724.729	31879.02
725.071	31695.52
725.413	31589.76
725.755	31551.57
726.097	31384.12
726.439	31273.39
726.782	31406.04
727.124	31533.94
727.465	31375.53
727.807	31198.13
728.149	31186.84
728.491	31215.08
728.833	31276.55
729.175	31010.12
729.516	30929.67
729.858	31082.88
730.199	31012.38
730.541	30884.7
730.882	30840.63
731.224	30941.87
731.565	30733.29
731.906	30687.41
732.248	30780.74
732.589	30692.84
732.93	30462.56
733.271	30628.66
733.612	30539.39
733.953	30566.06
734.294	30373.52
734.635	30363.35
734.976	30420.53
735.317	30130.37
735.658	30232.06
735.999	30121.78
736.339	30072.74
736.68	30201.32
737.021	29971.05
737.361	29886.08
737.702	30142.57
738.042	29924.95
738.383	29880.88
738.723	30000.65
739.063	29836.59
739.404	29907.55
739.744	29841.79
740.084	29636.14
740.424	29757.27
740.764	29593.66
741.104	29708.46
741.444	29480.89
741.784	29425.53
742.124	29630.72
742.464	29411.29
742.804	29534.68
743.143	29319.77
743.483	29415.36
743.823	29186.89
744.162	29194.35
744.502	29193.67
744.841	29088.13
745.181	29290.16
745.52	29012.66
745.86	29113.22
746.199	28925.43
746.538	28935.14
746.877	29083.61
747.216	28863.28
747.556	28898.08
747.895	28800.46
748.234	28703.06
748.573	28690.4
748.911	28628.26
749.25	28681.36
749.589	28549.84
749.928	28479.79
750.267	28487.7
750.605	28350.53
750.944	28410.64
751.283	28232.79
751.621	28311.43
751.96	28152.34
752.298	28170.42
752.636	28202.28
752.975	28026.69
753.313	27957.54
753.651	28063.08
753.989	27876.19
754.327	27778.56
754.666	27765.91
755.004	27773.37
755.342	27796.19
755.679	27636.65
756.017	27599.13
756.355	27499.02
756.693	27506.25
757.031	27425.35
757.368	27369.99
757.706	27245.24
758.044	27210.67
758.381	27332.25
758.719	27186.26
759.056	27157.11
759.394	26998.47
759.731	26864.46
760.068	26751.25
760.405	26876.67
760.743	26693.62
761.08	26704.02
761.417	26648.88
761.754	26514.19
762.091	26488.65
762.428	26323.23
762.765	26172.96
763.102	26293.63
763.438	26084.6
763.775	26041.66
764.112	25974.32
764.449	25967.09
764.785	25810.25
765.122	25652.97
765.458	25698.39
765.795	25672.86
766.131	25461.34
766.467	25483.93
766.804	25353.32
767.14	25316.48
767.476	25212.53
767.812	25095.7
768.148	25013.66
768.485	24912.65
768.821	24897.96
769.157	24795.36
769.492	24680.34
769.828	24643.28
770.164	24503.85
770.5	24526.67
770.836	24369.16
771.171	24257.3
771.507	24272.21
771.842	24119.68
772.178	24091.2
772.513	23967.82
772.849	24020.47
773.184	23899.12
773.519	23802.4
773.855	23715.39
774.19	23653.7
774.525	23532.35
774.86	23551.78
775.195	23383.88
775.53	23320.6
775.865	23217.78
776.2	23060.95
776.535	22952.7
776.87	22879.48
777.205	22855.3
777.539	22739.37
777.874	22747.96
778.209	22491.92
778.543	22460.74
778.878	22442.88
779.212	22368.76
779.547	22214.87
779.881	22323.34
780.215	22132.61
780.55	22116.57
780.884	21994.08
781.218	21938.49
781.552	21839.06
781.886	21642.23
782.22	21700.76
782.554	21504.15
782.888	21432.97
783.222	21425.96
783.556	21290.6
783.889	21125.4
784.223	21096.71
784.557	21005.63
784.89	21057.61
785.224	20903.94
785.557	20831.63
785.891	20713.89
786.224	20722.25
786.558	20715.7
786.891	20530.17
787.224	20472.54
787.557	20371.75
787.891	20312.09
788.224	20345.09
788.557	20243.85
788.89	20234.58
789.223	20149.39
789.556	20066.9
789.888	19957.53
790.221	19970.18
790.554	19775.84
790.887	19732.22
791.219	19646.35
791.552	19667.14
791.884	19501.27
792.217	19403.87
792.549	19417.65
792.882	19345.11
793.214	19102.18
793.546	19169.75
793.879	19081.39
794.211	19049.3
794.543	19025.35
794.875	18938.8
795.207	18957.1
795.539	18815.86
795.871	18835.3
796.203	18690.44
796.535	18529.32
796.867	18598.24
797.198	18519.82
797.53	18404.8
797.862	18334.52
798.193	18358.7
798.525	18290.45
798.856	18348.75
799.188	18105.82
799.519	18007.07
799.85	18053.4
800.182	17972.72
800.513	17889.56
800.844	17808.66
801.175	17832.16
801.506	17805.72
801.837	17783.35
802.168	17661.77
802.499	17684.59
802.83	17523.92
803.161	17448.21
803.491	17475.33
803.822	17466.29
804.153	17371.15
804.483	17200.76
804.814	17136.13
805.145	17141.1
805.475	17102.23
805.805	17126.41
806.136	17087.32
806.466	16978.4
806.796	16958.73
807.126	16879.87
807.457	16775.91
807.787	16758.51
808.117	16755.58
808.447	16645.52
808.777	16653.88
809.107	16610.27
809.436	16505.87
809.766	16523.04
810.096	16523.04
810.426	16413.89
810.755	16388.35
811.085	16357.85
811.414	16289.15
811.744	16168.93
812.073	16167.12
812.403	16203.05
812.732	16075.14
813.061	16046.44
813.39	15967.57
813.719	15994.69
814.049	15989.27
814.378	15918.76
814.707	15903.85
815.036	15880.35
815.365	15795.83
815.693	15635.61
816.022	15613.01
816.351	15610.3
816.68	15577.08
817.008	15616.62
817.337	15452.79
817.665	15434.48
817.994	15423.41
818.322	15503.18
818.651	15365.1
818.979	15260.93
819.307	15359.23
819.636	15279.01
819.964	15258.67
820.292	15270.19
820.62	15248.05
820.948	15193.81
821.276	15256.86
821.604	15091.21
821.932	15182.06
822.259	15176.18
822.587	15144.09
822.915	15093.7
823.243	15065.23
823.57	15102.29
823.898	15100.93
824.225	15055.06
824.553	15072.91
824.88	15101.38
825.207	15113.59
825.535	15087.37
825.862	15083.3
826.189	15047.6
826.516	15093.25
826.843	15094.15
827.17	15098.9
827.497	15095.73
827.824	15076.98
828.151	15061.61
828.478	15117.2
828.805	15159.46
829.131	14998.56
829.458	14958.11
829.785	14976.87
830.111	14994.72
830.438	15108.61
830.764	15078.33
831.09	15025.23
831.417	15048.5
831.743	14905.91
832.069	14960.14
832.395	14938.68
832.722	14946.58
833.048	14868.85
833.374	14912.24
833.7	14867.04
834.026	14943.42
834.351	14968.5
834.677	14849.19
835.003	14904.1
835.329	14900.26
835.654	14801.73
835.98	14728.06
836.306	14708.62
836.631	14682.18
836.956	14749.98
837.282	14733.03
837.607	14706.14
837.932	14600.15
838.258	14664.78
838.583	14656.42
838.908	14509.31
839.233	14615.75
839.558	14599.93
839.883	14406.03
840.208	14501.85
840.533	14388.18
840.858	14450.78
841.182	14382.98
841.507	14374.17
841.832	14323.55
842.156	14335.53
842.481	14303.44
842.805	14250.56
843.13	14195.19
843.454	14190.9
843.778	14161.75
844.103	14094.4
844.427	14127.17
844.751	14091.92
845.075	14074.06
845.399	14013.73
845.723	13962.66
846.047	13983.45
846.371	13874.3
846.695	13808.99
847.019	13644.25
847.343	13659.39
847.666	13682.21
847.99	13470.01
848.313	13549.56
848.637	13400.86
848.96	13454.42
849.284	13390.02
849.607	13309.79
849.931	13231.6
850.254	13182.79
850.577	13066.41
850.9	13020.08
851.223	13038.39
851.546	13004.04
851.869	12826.64
852.192	13019.86
852.515	12760.88
852.838	12781.67
853.161	12723.14
853.483	12697.83
853.806	12584.61
854.129	12512.98
854.451	12488.57
854.774	12544.61
855.096	12501.22
855.419	12397.95
855.741	12444.28
856.063	12310.5
856.385	12310.27
856.708	12207
857.03	12209.93
857.352	12252.19
857.674	12140.56
857.996	12109.6
858.318	12044.29
858.64	12015.59
858.961	11982.59
859.283	11897.63
859.605	11886.78
859.926	11903.27
860.248	11857.63
860.57	11742.83
860.891	11830.28
861.212	11764.75
861.534	11638.65
861.855	11754.13
862.176	11754.35
862.498	11690.4
862.819	11709.61
863.14	11593.45
863.461	11555.04
863.782	11498.54
864.103	11639.78
864.424	11563.85
864.745	11566.33
865.065	11442.95
865.386	11377.86
865.707	11433.23
866.027	11472.78
866.348	11333.8
866.668	11360.69
866.989	11337.41
867.309	11263.29
867.63	11296.74
867.95	11278.21
868.27	11216.29
868.59	11270.52
868.91	11233.01
869.23	11176.74
869.55	11180.13
869.87	11210.41
870.19	11187.59
870.51	11166.57
870.83	11193.01
871.15	11161.6
871.469	11154.82
871.789	11128.83
872.109	11156.63
872.428	10978.55
872.748	11051.77
873.067	11073.69
873.386	10992.56
873.706	11018.78
874.025	10948.27
874.344	10954.82
874.663	10934.71
874.982	10933.58
875.301	10925.45
875.62	10860.82
875.939	10834.15
876.258	10854.71
876.577	10838.67
876.896	10795.28
877.214	10734.72
877.533	10728.39
877.852	10697.88
878.17	10721.38
878.489	10658.79
878.807	10723.87
879.125	10707.6
879.444	10640.71
879.762	10635.51
880.08	10574.5
880.398	10559.36
880.716	10599.13
881.034	10562.29
881.352	10595.74
881.67	10501.96
881.988	10428.06
882.306	10430.09
882.624	10420.83
882.941	10402.07
883.259	10344.9
883.577	10330.66
883.894	10317.1
884.212	10360.26
884.529	10327.5
884.846	10258.12
885.164	10226.03
885.481	10254.73
885.798	10130.21
886.115	10201.17
886.432	10172.92
886.75	10138.8
887.067	10136.99
887.383	10034.62
887.7	10174.51
888.017	10009.77
888.334	10050.67
888.651	10017.9
888.967	9982.65
889.284	9917.34
889.6	9958.92
889.917	9812.93
890.233	9887.06
890.55	9762.31
890.866	9778.36
891.182	9811.35
891.498	9703.33
891.815	9689.55
892.131	9705.14
892.447	9652.26
892.763	9620.62
893.079	9562.77
893.395	9555.09
893.71	9494.52
894.026	9425.37
894.342	9463.34
894.657	9385.15
894.973	9474.86
895.289	9445.94
895.604	9385.83
895.92	9364.36
896.235	9284.36
896.55	9249.79
896.865	9231.25
897.181	9217.47
897.496	9195.78
897.811	9123.23
898.126	9079.85
898.441	9140.86
898.756	9095.21
899.071	8967.53
899.386	9018.6
899.7	8886.4
900.015	8898.83
900.33	8817.48
900.644	8805.73
900.959	8849.12
901.273	8739.74
901.588	8798.95
901.902	8702.45
902.216	8684.83
902.531	8673.53
902.845	8653.64
903.159	8556.92
903.473	8556.7
903.787	8524.83
904.101	8450.03
904.415	8484.16
904.729	8463.59
905.042	8372.97
905.356	8391.05
905.67	8389.47
905.984	8383.82
906.297	8322.35
906.611	8252.52
906.924	8228.57
907.237	8201.9
907.551	8165.52
907.864	8181.56
908.177	8130.94
908.491	8131.85
908.804	8043.94
909.117	8019.99
909.43	7981.12
909.743	7925.75
910.056	7920.78
910.368	7891.18
910.681	7885.53
910.994	7753.78
911.307	7800.33
911.619	7728.02
911.932	7798.07
912.244	7613.9
912.557	7684.4
912.869	7627
913.181	7568.25
913.494	7550.62
913.806	7563.95
914.118	7574.8
914.43	7460.91
914.742	7440.79
915.054	7414.58
915.366	7392.66
915.678	7364.18
915.99	7294.58
916.302	7296.84
916.613	7230.4
916.925	7195.6
917.236	7199.44
917.548	7160.12
917.859	7171.65
918.171	7127.13
918.482	7076.73
918.794	7088.26
919.105	7010.75
919.416	6966
919.727	6909.96
920.038	6916.97
920.349	6936.85
920.66	6877.87
920.971	6832.67
921.282	6833.13
921.593	6839.45
921.903	6704.77
922.214	6713.13
922.525	6706.12
922.835	6642.85
923.146	6628.16
923.456	6632.68
923.767	6572.12
924.077	6544.77
924.387	6546.58
924.697	6479.91
925.008	6507.03
925.318	6480.59
925.628	6436.3
925.938	6360.82
926.248	6336.19
926.558	6314.27
926.867	6332.8
927.177	6258.23
927.487	6237.66
927.796	6153.37
928.106	6223.42
928.416	6134.61
928.725	6187.04
929.034	6132.13
929.344	6090.77
929.653	6089.42
929.962	6033.37
930.271	6024.56
930.581	6019.59
930.89	5980.72
931.199	5874.05
931.508	5925.8
931.817	5939.14
932.125	5905.92
932.434	5860.04
932.743	5813.49
933.051	5759.71
933.36	5773.04
933.669	5723.32
933.977	5674.29
934.286	5733.04
934.594	5681.29
934.902	5676.32
935.21	5582.31
935.519	5584.8
935.827	5541.18
936.135	5545.7
936.443	5464.8
936.751	5457.34
937.059	5476.32
937.367	5457.79
937.674	5463.22
937.982	5421.86
938.29	5355.2
938.597	5444.91
938.905	5304.13
939.213	5310.45
939.52	5248.76
939.827	5312.71
940.135	5268.87
940.442	5210.57
940.749	5185.03
941.056	5231.36
941.363	5121.76
941.67	5133.28
941.977	5118.37
942.284	5063.23
942.591	5108.65
942.898	5093.28
943.205	4998.6
943.511	5027.52
943.818	5030.23
944.125	4972.84
944.431	4950.46
944.738	4914.08
945.044	4899.39
945.35	4891.93
945.657	4850.35
945.963	4843.35
946.269	4814.87
946.575	4812.61
946.881	4817.59
947.187	4777.59
947.493	4717.93
947.799	4710.92
948.105	4680.87
948.41	4657.82
948.716	4654.88
949.022	4631.6
949.327	4590.02
949.633	4572.85
949.938	4548.67
950.244	4544.82
950.549	4535.33
950.854	4511.15
951.16	4484.71
951.465	4487.65
951.77	4414.66
952.075	4420.08
952.38	4447.88
952.685	4443.36
952.99	4342.8
953.294	4331.04
953.599	4310.93
953.904	4321.1
954.209	4292.63
954.513	4277.03
954.818	4269.35
955.122	4239.07
955.426	4236.36
955.731	4175.34
956.035	4162.24
956.339	4211.73
956.643	4115
956.948	4098.51
957.252	4112.52
957.556	4130.15
957.86	4087.66
958.163	4078.4
958.467	4046.76
958.771	4021.22
959.075	4043.37
959.378	4020.54
959.682	3988.23
959.985	3985.29
960.289	3898.29
960.592	3914.11
960.896	3881.56
961.199	3906.87
961.502	3912.98
961.805	3884.95
962.108	3831.85
962.411	3812.41
962.714	3806.54
963.017	3799.53
963.32	3781
963.623	3739.2
963.926	3763.38
964.228	3745.75
964.531	3710.27
964.833	3690.16
965.136	3682.47
965.438	3696.71
965.741	3591.63
966.043	3636.6
966.345	3592.76
966.648	3613.78
966.95	3602.48
967.252	3547.11
967.554	3554.12
967.856	3557.96
968.158	3487.68
968.46	3496.26
968.761	3487.9
969.063	3488.58
969.365	3444.29
969.666	3487.68
969.968	3408.58
970.269	3390.28
970.571	3373.1
970.872	3412.88
971.174	3364.52
971.475	3325.65
971.776	3352.76
972.077	3335.59
972.378	3297.63
972.679	3301.47
972.98	3306.66
973.281	3278.19
973.582	3263.05
973.883	3255.14
974.183	3211.3
974.484	3225.08
974.785	3156.84
975.085	3165.2
975.386	3194.58
975.686	3146.22
975.986	3129.04
976.287	3096.27
976.587	3090.62
976.887	3126.1
977.187	3109.38
977.487	3079.55
977.787	3055.82
978.087	3042.72
978.387	3007.01
978.687	3005.66
978.987	3008.37
979.286	2997.75
979.586	2990.74
979.885	2946.9
980.185	2960.01
980.484	2940.57
980.784	2919.78
981.083	2908.93
981.382	2864.87
981.682	2872.33
981.981	2841.82
982.28	2876.17
982.579	2854.25
982.878	2819.67
983.177	2812.21
983.475	2803.85
983.774	2796.4
984.073	2801.59
984.372	2755.94
984.67	2755.49
984.969	2720.69
985.267	2717.75
985.566	2711.43
985.864	2703.06
986.162	2685.66
986.461	2672.56
986.759	2671.43
987.057	2668.49
987.355	2641.82
987.653	2607.02
987.951	2659.22
988.249	2626
988.547	2606.8
988.844	2604.76
989.142	2630.98
989.44	2588.49
989.737	2573.35
990.035	2529.06
990.332	2526.35
990.63	2544.42
990.927	2491.77
991.224	2522.73
991.521	2513.92
991.819	2490.19
992.116	2462.17
992.413	2461.94
992.71	2427.14
993.006	2428.95
993.303	2401.38
993.6	2430.76
993.897	2410.42
994.193	2380.36
994.49	2362.73
994.787	2374.71
995.083	2334.71
995.379	2351.89
995.676	2316.41
995.972	2312.57
996.268	2286.8
996.565	2304.88
996.861	2260.14
997.157	2281.15
997.453	2270.53
997.749	2257.2
998.044	2232.12
998.34	2253.36
998.636	2205.22
998.932	2206.13
999.227	2188.28
999.523	2162.06
999.818	2177.65
1000.114	2176.3
1000.409	2118.9
1000.704	2146.69
1001	2149.41
1001.295	2139.69
1001.59	2076.41
1001.885	2066.92
1002.18	2062.86
1002.475	2057.43
1002.77	2052.01
1003.065	2035.51
1003.359	2040.71
1003.654	2004.33
1003.949	1995.51
1004.243	2040.94
1004.538	1960.94
1004.832	1960.71
1005.127	1957.1
1005.421	1985.8
1005.715	1940.82
1006.009	1942.41
1006.304	1934.95
1006.598	1921.62
1006.892	1918.45
1007.186	1904.44
1007.48	1895.4
1007.773	1877.55
1008.067	1861.5
1008.361	1837.1
1008.655	1854.5
1008.948	1838.68
1009.242	1812.47
1009.535	1828.96
1009.829	1812.47
1010.122	1804.11
1010.415	1811.79
1010.708	1799.13
1011.001	1763.2
1011.295	1763.2
1011.588	1725.46
1011.881	1712.58
1012.173	1737.44
1012.466	1725.92
1012.759	1709.19
1013.052	1708.29
1013.344	1691.79
1013.637	1671.68
1013.93	1657.89
1014.222	1657.67
1014.514	1648.4
1014.807	1638.46
1015.099	1601.85
1015.391	1616.54
1015.683	1612.02
1015.976	1616.99
1016.268	1617.22
1016.56	1582.64
1016.851	1573.83
1017.143	1532.47
1017.435	1556.43
1017.727	1557.33
1018.018	1539.48
1018.31	1498.8
1018.602	1511.91
1018.893	1486.15
1019.185	1493.15
1019.476	1491.8
1019.767	1448.86
1020.058	1445.02
1020.35	1455.19
1020.641	1452.48
1020.932	1477.79
1021.223	1420.16
1021.514	1398.24
1021.804	1385.59
1022.095	1381.97
1022.386	1388.3
1022.677	1373.83
1022.967	1343.78
1023.258	1333.16
1023.548	1343.1
1023.839	1310.33
1024.129	1339.48
1024.419	1310.56
1024.709	1333.16
1025	1305.14
1025.29	1308.98
1025.58	1306.04
1025.87	1275.76
1026.16	1270.79
1026.449	1264.91
1026.739	1257.9
1027.029	1249.77
1027.319	1251.35
1027.608	1247.74
1027.898	1240.28
1028.187	1219.04
1028.477	1231.92
1028.766	1191.92
1029.055	1197.34
1029.344	1163.22
1029.634	1205.48
1029.923	1181.97
1030.212	1154.86
1030.501	1158.92
1030.79	1184.23
1031.078	1118.02
1031.367	1120.51
1031.656	1096.78
1031.945	1125.48
1032.233	1129.09
1032.522	1082.77
1032.81	1111.47
1033.099	1091.36
1033.387	1085.48
1033.675	1074.41
1033.963	1079.15
1034.251	1083.45
1034.54	1065.59
1034.828	1069.89
1035.116	1015.65
1035.403	1042.77
1035.691	1026.95
1035.979	1004.8
1036.267	1025.14
1036.554	1010.91
1036.842	991.25
1037.129	1009.32
1037.417	967.52
1037.704	974.97
1037.992	976.1
1038.279	960.29
1038.566	960.06
1038.853	960.06
1039.14	960.06
