Data from hue_26_FLMS001491_00089.txt Node
Date: Tue Feb 07 17:14:42 GMT 2017
User: dcchb
Spectrometer: FLMS00149
Trigger mode: 0
Integration Time (sec): 2.000000E-2
Scans to average: 10
Electric dark correction enabled: true
Nonlinearity correction enabled: false
Boxcar width: 0
XAxis mode: Wavelengths
Number of Pixels in Spectrum: 2048
>>>>>Begin Spectral Data<<<<<
341.393	-13.95
341.776	-13.95
342.16	-13.95
342.543	-76.33
342.927	-61.41
343.31	-35.87
343.693	-82.2
344.077	-68.42
344.46	-67.74
344.843	-66.61
345.226	-47.4
345.61	-34.07
345.993	-18.47
346.376	-24.12
346.759	28.53
347.142	19.72
347.525	43.22
347.908	49.77
348.291	78.7
348.674	107.62
349.057	117.34
349.44	135.42
349.823	146.72
350.206	150.11
350.588	177.45
350.971	207.51
351.354	224.68
351.737	238.47
352.119	258.58
352.502	265.59
352.884	273.27
353.267	265.13
353.65	259.26
354.032	301.29
354.414	310.78
354.797	323.89
355.179	310.33
355.562	335.19
355.944	326.83
356.326	346.26
356.709	325.25
357.091	343.78
357.473	354.17
357.855	357.34
358.238	334.28
358.62	314.4
359.002	320.95
359.384	323.89
359.766	322.31
360.148	356.21
360.53	340.84
360.912	324.34
361.294	343.1
361.676	334.28
362.057	327.73
362.439	333.16
362.821	340.84
363.203	354.85
363.584	333.16
363.966	320.5
364.348	327.51
364.729	307.17
365.111	326.38
365.493	310.78
365.874	312.14
366.256	330.44
366.637	312.82
367.019	312.82
367.4	320.73
367.781	315.98
368.163	323.89
368.544	320.5
368.925	301.74
369.306	328.86
369.688	329.09
370.069	310.33
370.45	303.55
370.831	297
371.212	312.59
371.593	321.86
371.974	320.5
372.355	331.8
372.736	329.31
373.117	311.23
373.498	315.08
373.879	315.53
374.26	317.34
374.641	315.08
375.021	312.59
375.402	315.75
375.783	343.32
376.163	331.35
376.544	339.26
376.925	328.41
377.305	325.7
377.686	339.48
378.066	324.57
378.447	323.21
378.827	334.51
379.208	328.64
379.588	335.87
379.968	345.13
380.349	331.8
380.729	325.7
381.109	351.46
381.489	316.21
381.87	342.65
382.25	323.44
382.63	330.67
383.01	353.49
383.39	354.17
383.77	352.82
384.15	340.61
384.53	354.62
384.91	342.65
385.29	334.51
385.67	361.85
386.049	355.98
386.429	353.72
386.809	347.39
387.189	359.82
387.568	356.66
387.948	358.92
388.328	355.53
388.707	377.9
389.087	370.89
389.466	377.45
389.846	354.17
390.225	351.01
390.605	354.4
390.984	372.02
391.363	366.6
391.743	373.38
392.122	389.2
392.501	363.21
392.881	370.22
393.26	379.48
393.639	363.66
394.018	382.42
394.397	374.51
394.776	379.93
395.155	376.54
395.534	360.05
395.913	366.83
396.292	384
396.671	384.91
397.05	391.46
397.429	380.39
397.808	388.07
398.186	394.4
398.565	387.39
398.944	383.32
399.323	388.07
399.701	387.62
400.08	383.78
400.458	403.21
400.837	393.49
401.215	395.53
401.594	388.97
401.972	395.53
402.351	391.91
402.729	381.97
403.107	396.88
403.486	397.79
403.864	409.09
404.242	438.92
404.62	393.04
404.999	416.32
405.377	409.76
405.755	425.81
406.133	409.99
406.511	388.07
406.889	413.38
407.267	426.03
407.645	411.8
408.023	439.14
408.401	431.68
408.779	446.37
409.156	450.21
409.534	453.83
409.912	455.41
410.29	432.36
410.667	462.42
411.045	468.52
411.422	447.05
411.8	461.97
412.178	471.91
412.555	447.95
412.933	475.75
413.31	479.14
413.687	476.65
414.065	464
414.442	467.84
414.819	482.3
415.197	475.75
415.574	478.01
415.951	474.39
416.328	494.51
416.705	482.53
417.082	492.47
417.46	491.57
417.837	506.26
418.214	487.28
418.591	497.9
418.967	481.4
419.344	515.75
419.721	482.98
420.098	493.15
420.475	491.12
420.852	513.04
421.228	510.55
421.605	527.5
421.982	510.55
422.358	534.73
422.735	535.64
423.111	534.96
423.488	529.76
423.864	526.37
424.241	540.38
424.617	551.68
424.994	527.05
425.37	549.19
425.746	525.01
426.123	556.2
426.499	528.63
426.875	576.31
427.251	576.31
427.627	561.4
428.003	568.18
428.379	589.42
428.756	587.39
429.132	597.78
429.507	568.4
429.883	596.88
430.259	595.97
430.635	576.09
431.011	578.57
431.387	581.28
431.763	616.54
432.138	620.38
432.514	621.06
432.89	640.27
433.265	630.32
433.641	627.61
434.016	645.46
434.392	634.84
434.767	661.06
435.143	663.32
435.518	666.03
435.894	671.9
436.269	658.12
436.644	688.4
437.02	676.42
437.395	684.56
437.77	691.34
438.145	689.76
438.52	689.3
438.895	713.71
439.271	691.79
439.646	719.81
440.021	712.58
440.395	727.04
440.77	698.34
441.145	716.65
441.52	757.1
441.895	722.52
442.27	730.21
442.645	742.64
443.019	733.6
443.394	756.42
443.769	757.1
444.143	753.03
444.518	748.29
444.892	756.42
445.267	770.66
445.641	773.6
446.016	784.44
446.39	783.09
446.764	802.52
447.139	779.02
447.513	799.81
447.887	786.7
448.262	801.62
448.636	787.83
449.01	811.11
449.384	789.64
449.758	819.24
450.132	805.69
450.506	831.22
450.88	818.57
451.254	828.28
451.628	822.63
452.002	857.89
452.376	831.67
452.75	856.08
453.123	863.54
453.497	860.6
453.871	894.04
454.244	890.88
454.618	915.06
454.992	913.03
455.365	918
455.739	917.09
456.112	922.07
456.486	936.08
456.859	926.36
457.232	943.76
457.606	975.17
457.979	961.61
458.352	977.66
458.725	986.7
459.099	974.72
459.472	998.45
459.845	989.86
460.218	997.09
460.591	1019.46
460.964	1049.97
461.337	1069.63
461.71	1060.37
462.083	1076.64
462.456	1082.74
462.829	1098.56
463.201	1102.85
463.574	1113.7
463.947	1125.22
464.32	1139.46
464.692	1158.44
465.065	1159.12
465.438	1179.69
465.81	1183.08
466.183	1192.79
466.555	1248.39
466.928	1234.6
467.3	1233.02
467.672	1264.66
468.045	1281.83
468.417	1303.75
468.789	1277.99
469.161	1310.3
469.534	1314.15
469.906	1337.65
470.278	1390.75
470.65	1359.12
471.022	1376.52
471.394	1422.39
471.766	1431.21
472.138	1468.94
472.51	1480.7
472.882	1520.02
473.253	1529.51
473.625	1543.52
473.997	1583.97
474.369	1563.18
474.74	1616.29
475.112	1600.01
475.484	1686.79
475.855	1684.53
476.227	1706
476.598	1781.48
476.97	1795.04
477.341	1819.67
477.713	1852.66
478.084	1825.55
478.455	1929.05
478.827	1943.28
479.198	2004.07
479.569	2002.26
479.94	2078.87
480.311	2125.42
480.682	2119.77
481.053	2165.65
481.424	2261.24
481.795	2265.76
482.166	2286.32
482.537	2306.21
482.908	2345.76
483.279	2409.71
483.65	2489.26
484.021	2503.95
484.391	2561.57
484.762	2592.3
485.133	2623.04
485.503	2673.21
485.874	2722.47
486.244	2805.18
486.615	2806.31
486.985	2883.82
487.356	2932.41
487.726	2957.27
488.097	3037.72
488.467	3060.09
488.837	3091.5
489.207	3189.13
489.578	3243.14
489.948	3283.59
490.318	3294.43
490.688	3376.92
491.058	3378.95
491.428	3443.13
491.798	3513.64
492.168	3592.28
492.538	3644.25
492.908	3693.07
493.278	3711.82
493.648	3742.78
494.017	3755.89
494.387	3846.74
494.757	3899.84
495.126	3933.51
495.496	3973.51
495.866	3979.61
496.235	4057.58
496.605	4072.04
496.974	4115.2
497.344	4128.31
497.713	4157.69
498.082	4230
498.452	4314.52
498.821	4303.67
499.19	4340.28
499.559	4347.06
499.928	4368.98
500.298	4404.46
500.667	4454.63
501.036	4437.45
501.405	4538.02
501.774	4497.11
502.143	4611.91
502.512	4627.96
502.88	4664.11
503.249	4668.86
503.618	4726.94
503.987	4675.87
504.356	4795.64
504.724	4734.85
505.093	4824.34
505.462	4832.25
505.83	4888.29
506.199	4929.19
506.567	4980.72
506.936	4942.75
507.304	4969.42
507.672	5012.81
508.041	5021.17
508.409	5124.89
508.777	5135.74
509.145	5193.37
509.514	5126.93
509.882	5138.45
510.25	5200.37
510.618	5234.27
510.986	5297.32
511.354	5285.34
511.722	5314.27
512.09	5356.3
512.458	5325.79
512.826	5410.76
513.193	5492.12
513.561	5453.47
513.929	5434.26
514.297	5509.52
514.664	5530.98
515.032	5512.45
515.4	5564.66
515.767	5626.12
516.135	5607.37
516.502	5627.03
516.869	5722.84
517.237	5707.48
517.604	5624.54
517.972	5746.35
518.339	5743.86
518.706	5748.83
519.073	5792.67
519.44	5820.47
519.808	5881.48
520.175	5861.37
520.542	5950.41
520.909	5983.85
521.276	5933.23
521.643	6029.05
522.009	6034.7
522.376	6014.59
522.743	6044.87
523.11	6158.09
523.477	6187.46
523.843	6178.65
524.21	6276.95
524.577	6305.88
524.943	6341.13
525.31	6355.37
525.676	6414.13
526.043	6432.43
526.409	6420
526.776	6483.5
527.142	6518.08
527.508	6519.89
527.874	6576.38
528.241	6625.87
528.607	6645.08
528.973	6630.62
529.339	6683.72
529.705	6759.65
530.071	6784.28
530.437	6820.67
530.803	6822.48
531.169	6889.37
531.535	6820.89
531.901	6884.4
532.267	6962.59
532.632	6975.24
532.998	7008.46
533.364	6974.11
533.73	7059.08
534.095	7132.07
534.461	7137.04
534.826	7158.51
535.192	7240.32
535.557	7214.78
535.923	7260.2
536.288	7250.71
536.653	7308.34
537.019	7300.2
537.384	7337.26
537.749	7307.66
538.114	7405.96
538.479	7453.87
538.845	7502.68
539.21	7504.72
539.575	7553.53
539.94	7466.07
540.305	7617.48
540.67	7573.87
541.034	7644.83
541.399	7655.67
541.764	7748.78
542.129	7723.02
542.494	7793.52
542.858	7839.85
543.223	7821.55
543.587	7866.06
543.952	7839.85
544.316	7861.54
544.681	7933.41
545.045	7967.53
545.41	8033.97
545.774	8014.08
546.138	8052.27
546.503	8153.06
546.867	8104.02
547.231	8170.01
547.595	8166.4
547.959	8184.25
548.324	8258.6
548.688	8271.48
549.052	8333.62
549.416	8376.11
549.779	8398.93
550.143	8397.12
550.507	8420.63
550.871	8448.42
551.235	8446.39
551.599	8531.58
551.962	8544.46
552.326	8606.61
552.689	8584.24
553.053	8604.35
553.417	8549.21
553.78	8736.32
554.143	8681.64
554.507	8718.7
554.87	8724.8
555.234	8819.49
555.597	8795.08
555.96	8825.36
556.323	8911.46
556.686	8851.58
557.05	8935.19
557.413	9030.78
557.776	8983.32
558.139	9072.59
558.502	9091.57
558.865	9065.81
559.228	9081.4
559.59	9144.9
559.953	9146.71
560.316	9248.4
560.679	9228.06
561.041	9232.58
561.404	9305.12
561.767	9358.23
562.129	9379.7
562.492	9407.27
562.854	9416.98
563.217	9463.31
563.579	9388.74
563.941	9479.36
564.304	9472.12
564.666	9566.36
565.028	9673.47
565.39	9706.47
565.753	9658.79
566.115	9669.86
566.477	9766.35
566.839	9786.24
567.201	9882.06
567.563	9879.57
567.925	9901.72
568.287	9913.69
568.648	9966.8
569.01	10073.01
569.372	10057.87
569.734	10077.98
570.095	10188.49
570.457	10164.76
570.819	10250.63
571.18	10275.49
571.542	10388.48
571.903	10357.75
572.265	10405.88
572.626	10417.86
572.987	10473.23
573.349	10519.78
573.71	10633.22
574.071	10632.55
574.432	10720
574.794	10774.46
575.155	10859.21
575.516	10879.54
575.877	10987.11
576.238	11042.93
576.599	11115.7
576.96	11162.25
577.32	11272.08
577.681	11344.39
578.042	11440.89
578.403	11488.34
578.763	11633.65
579.124	11703.48
579.485	11863.7
579.845	12011.94
580.206	12037.48
580.566	12206.29
580.927	12246.74
581.287	12430.01
581.648	12515.21
582.008	12765.14
582.368	12863
582.728	12989.32
583.089	13075.19
583.449	13287.39
583.809	13536.65
584.169	13674.5
584.529	13756.76
584.889	14083.08
585.249	14226.58
585.609	14353.13
585.969	14610.07
586.329	14752.44
586.688	15032.88
587.048	15193.33
587.408	15517.16
587.768	15606.43
588.127	15841
588.487	16073.76
588.846	16484.37
589.206	16613.63
589.565	16886.62
589.925	17184.69
590.284	17417.45
590.643	17606.83
591.003	17953.03
591.362	18221.95
591.721	18510.3
592.08	18794.14
592.44	19081.36
592.799	19413.78
593.158	19685.64
593.517	19885.86
593.876	20198.4
594.235	20500.53
594.593	20757.48
594.952	21146.39
595.311	21276.79
595.67	21649.66
596.029	22133.71
596.387	22464.32
596.746	22762.62
597.104	22926.69
597.463	23221.82
597.822	23600.57
598.18	23837.85
598.538	24123.49
598.897	24529.58
599.255	24614.55
599.613	25297.47
599.972	25404.13
600.33	25782.66
600.688	25976.32
601.046	26349.42
601.404	26669.19
601.762	26799.8
602.12	27259.45
602.478	27508.71
602.836	27907.8
603.194	27984.18
603.552	28354.57
603.91	28470.49
604.268	28783.71
604.625	29040.42
604.983	29265.95
605.341	29566.28
605.698	29899.84
606.056	30273.61
606.413	30364.91
606.771	30665.69
607.128	30991.56
607.485	31095.51
607.843	31428.38
608.2	31857.98
608.557	31965.77
608.914	32151.75
609.272	32449.15
609.629	32711.06
609.986	33010.94
610.343	33104.95
610.7	33411.83
611.057	33600.75
611.414	33672.17
611.771	33967.07
612.127	34310.57
612.484	34383.56
612.841	34653.16
613.198	34859.48
613.554	34972.47
613.911	35278
614.267	35450.42
614.624	35563.64
614.98	35668.5
615.337	35897.64
615.693	36104.64
616.05	36195.26
616.406	36689.04
616.762	36519.1
617.118	36657.62
617.475	36928.35
617.831	37036.37
618.187	37148.91
618.543	37313.65
618.899	37681.78
619.255	37748.67
619.611	37817.59
619.967	37963.13
620.323	38162.67
620.678	38334.42
621.034	38390.23
621.39	38321.31
621.746	38409.22
622.101	38974.17
622.457	38684.69
622.812	38915.19
623.168	39056.43
623.523	39144.79
623.879	39278.35
624.234	39165.13
624.589	39443.09
624.945	39482.41
625.3	39580.71
625.655	39683.31
626.01	39818.67
626.365	39871.32
626.72	39875.17
627.075	39998.55
627.43	40036.52
627.785	39868.61
628.14	40056.86
628.495	40134.82
628.85	40295.95
629.205	40146.8
629.559	40382.5
629.914	40152.67
630.269	40359.22
630.623	40288.94
630.978	40351.99
631.332	40558.09
631.687	40730.51
632.041	40542.04
632.396	40574.81
632.75	40585.43
633.104	40615.71
633.459	40421.37
633.813	40454.13
634.167	40520.12
634.521	40627.01
634.875	40624.53
635.229	40519.44
635.583	40514.02
635.937	40691.42
636.291	40488.71
636.645	40533.91
636.999	40408.03
637.352	40485.32
637.706	40455.04
638.06	40627.24
638.413	40634.92
638.767	40601.47
639.121	40485.77
639.474	40488.94
639.828	40411.42
640.181	40591.53
640.534	40491.2
640.888	40420.69
641.241	40307.02
641.594	40429.05
641.947	40534.81
642.301	40396.73
642.654	40544.08
643.007	40447.13
643.36	40420.24
643.713	40476.73
644.066	40607.35
644.419	40355.15
644.771	40010.76
645.124	39821.61
645.477	39553.59
645.83	39523.54
646.182	39291.68
646.535	39202.64
646.888	39431.34
647.24	39043.1
647.593	39461.84
647.945	39351.79
648.298	39232.47
648.65	39152.25
649.002	39025.25
649.355	39101.63
649.707	39191.12
650.059	39480.83
650.411	39836.52
650.763	39811.44
651.115	40253.91
651.467	40100.25
651.819	40074.71
652.171	40014.82
652.523	40084.88
652.875	40083.75
653.227	39803.08
653.578	40069.96
653.93	40010.98
654.282	39920.59
654.633	39848.05
654.985	39916.75
655.337	39900.25
655.688	39970.98
656.039	39997.2
656.391	39702.52
656.742	39732.12
657.094	39763.76
657.445	39979.57
657.796	39718.33
658.147	39768.5
658.498	39701.84
658.849	39871.32
659.2	39785.45
659.551	39765.11
659.902	39885.11
660.253	39689.41
660.604	39812.79
660.955	39553.14
661.306	39739.58
661.656	39830.42
662.007	39707.94
662.358	39698
662.708	39675.17
663.059	39848.05
663.409	39644.66
663.76	39742.74
664.11	39748.39
664.461	39836.07
664.811	39695.51
665.161	39693.48
665.511	39765.11
665.862	39639.01
666.212	39739.8
666.562	39745.68
666.912	39677.88
667.262	39542.07
667.612	39707.71
667.962	39793.13
668.312	39516.98
668.662	39750.2
669.011	39523.54
669.361	39582.74
669.711	39533.25
670.06	39535.74
670.41	39481.73
670.76	39439.92
671.109	39607.6
671.459	39401.73
671.808	39518.79
672.157	39587.94
672.507	39277.44
672.856	39333.03
673.205	39312.02
673.554	39532.58
673.904	39415.29
674.253	39530.32
674.602	39385.24
674.951	38814.63
675.3	38617.8
675.649	39338.23
675.998	39234.51
676.346	39307.95
676.695	39475.85
677.044	39015.75
677.393	39176.88
677.741	39250.1
678.09	39122.42
678.438	38978.69
678.787	39101.85
679.135	39113.15
679.484	38878.81
679.832	38975.98
680.181	38847.85
680.529	38780.05
680.877	38793.39
681.225	38771.24
681.573	38928.3
681.922	38646.27
682.27	38522.43
682.618	38669.77
682.966	38564.92
683.314	38644.92
683.661	38507.97
684.009	38276.56
684.357	38252.38
684.705	38204.7
685.053	38184.82
685.4	38139.39
685.748	38074.99
686.095	37985.27
686.443	37953.86
686.79	37780.98
687.138	37883.35
687.485	38035.89
687.832	37759.52
688.18	37833.86
688.527	37577.37
688.874	37561.33
689.221	37532.18
689.568	37382.35
689.915	37364.72
690.262	37203.6
690.609	37184.62
690.956	37096.93
691.303	37005.64
691.65	36908.92
691.997	36985.52
692.344	36684.74
692.69	36816.26
693.037	36736.72
693.383	36542.82
693.73	36596.38
694.077	36326.56
694.423	36288.14
694.769	36216.28
695.116	36200.46
695.462	36106.45
695.808	35911.2
696.155	35969.96
696.501	35856.97
696.847	35722.73
697.193	35710.08
697.539	35566.58
697.885	35316.64
698.231	35320.03
698.577	35295.17
698.923	35247.94
699.269	35225.8
699.614	34964.33
699.96	34862.42
700.306	34934.28
700.651	34739.71
700.997	34653.61
701.342	34612.71
701.688	34547.62
702.033	34363.67
702.379	34423.56
702.724	34284.35
703.069	34448.42
703.415	34003.68
703.76	34094.98
704.105	34050.69
704.45	33996.45
704.795	33756.46
705.14	33704.71
705.485	33625.16
705.83	33534.99
706.175	33616.57
706.52	33410.25
706.865	33400.53
707.209	33273.31
707.554	33122.35
707.899	33163.03
708.243	33102.91
708.588	33056.81
708.932	32798.97
709.277	32708.35
709.621	32821.57
709.966	32638.07
710.31	32718.97
710.654	32428.81
710.998	32572.31
711.342	32447.56
711.687	32289.38
712.031	32171.87
712.375	32056.61
712.719	32086.67
713.063	32118.31
713.407	32194.92
713.75	31866.79
714.094	31963.28
714.438	31752.22
714.782	31773.01
715.125	31686
715.469	31918.99
715.812	31542.73
716.156	31409.85
716.499	31531.2
716.843	31585.21
717.186	31330.98
717.53	31620.02
717.873	31420.47
718.216	31319.91
718.559	31220.7
718.902	31004.21
719.246	31123.53
719.589	31056.87
719.932	30900.03
720.275	30956.3
720.617	30861.84
720.96	30881.96
721.303	30775.07
721.646	30687.16
721.989	30610.1
722.331	30696.88
722.674	30556.32
723.016	30533.04
723.359	30624.11
723.701	30553.83
724.044	30314.74
724.386	30246.94
724.729	30339.37
725.071	30155.87
725.413	30131.47
725.755	30148.19
726.097	29972.38
726.439	29896.67
726.782	29880.63
727.124	30134.63
727.465	29799.27
727.807	29877.24
728.149	29801.98
728.491	29807.18
728.833	29828.88
729.175	29641.99
729.516	29698.94
729.858	29574.87
730.199	29524.03
730.541	29569.22
730.882	29395.89
731.224	29563.35
731.565	29378.72
731.906	29436.8
732.248	29449.9
732.589	29149.35
732.93	29207.2
733.271	29097.14
733.612	29164.49
733.953	29244.26
734.294	29075.9
734.635	29090.82
734.976	29106.41
735.317	28862.8
735.658	28885.17
735.999	28821.22
736.339	28859.41
736.68	28863.03
737.021	28857.38
737.361	28584.62
737.702	28737.38
738.042	28639.3
738.383	28579.64
738.723	28755.46
739.063	28560.44
739.404	28513.43
739.744	28475.69
740.084	28352.98
740.424	28402.47
740.764	28253.1
741.104	28428.46
741.444	28242.48
741.784	28176.49
742.124	28285.41
742.464	28151.18
742.804	28101.24
743.143	28070.73
743.483	28034.12
743.823	27864.41
744.162	27909.38
744.502	27986.67
744.841	27820.34
745.181	27961.36
745.52	27889.72
745.86	27917.51
746.199	27816.73
746.538	27723.4
746.877	27904.63
747.216	27656.28
747.556	27752.1
747.895	27635.71
748.234	27562.5
748.573	27443.85
748.911	27508.94
749.25	27353.24
749.589	27386.23
749.928	27313.69
750.267	27393.91
750.605	27282.5
750.944	27227.82
751.283	27089.97
751.621	27212.9
751.96	27007.71
752.298	27016.97
752.636	27031.21
752.975	26878.67
753.313	26820.59
753.651	27066.92
753.989	26659.24
754.327	26739.92
754.666	26647.94
755.004	26638.68
755.342	26696.3
755.679	26420.38
756.017	26467.61
756.355	26510.32
756.693	26353.71
757.031	26447.95
757.368	26261.06
757.706	26225.81
758.044	26038.47
758.381	26156.66
758.719	26009.09
759.056	26171.12
759.394	26010.67
759.731	25882.09
760.068	25774.29
760.405	25673.73
760.743	25625.82
761.08	25698.82
761.417	25609.55
761.754	25464.47
762.091	25518.03
762.428	25415.66
762.765	25106.97
763.102	25323.01
763.438	25192.84
763.775	25124.59
764.112	25056.35
764.449	25070.81
764.785	25007.99
765.122	24823.81
765.458	24629.47
765.795	24696.36
766.131	24602.12
766.467	24554.67
766.804	24496.14
767.14	24348.34
767.476	24266.54
767.812	24151.51
768.148	24132.3
768.485	24013.44
768.821	23925.3
769.157	23815.93
769.492	23826.77
769.828	23730.96
770.164	23631.98
770.5	23520.57
770.836	23485.99
771.171	23368.93
771.507	23264.98
771.842	23115.83
772.178	23163.74
772.513	23115.15
772.849	23046.46
773.184	22955.16
773.519	22843.07
773.855	22803.3
774.19	22687.37
774.525	22624.32
774.86	22638.33
775.195	22582.29
775.53	22450.09
775.865	22361.95
776.2	22300.71
776.535	22065.01
776.87	22043.77
777.205	21909.99
777.539	21870.67
777.874	21945.02
778.209	21693.05
778.543	21734.17
778.878	21591.58
779.212	21592.71
779.547	21397.46
779.881	21503.9
780.215	21327.63
780.55	21343.9
780.884	21213.51
781.218	21137.13
781.552	21098.94
781.886	20959.51
782.22	20809.45
782.554	20819.62
782.888	20609.46
783.222	20569.23
783.556	20515.68
783.889	20396.36
784.223	20294.66
784.557	20272.74
784.89	20290.6
785.224	20173.31
785.557	20066.42
785.891	19988.68
786.224	19981.9
786.558	19905.97
786.891	19795.24
787.224	19830.95
787.557	19582.14
787.891	19640.44
788.224	19598.86
788.557	19431.64
788.89	19517.28
789.223	19513.22
789.556	19254.69
789.888	19280.91
790.221	19209.27
790.554	19067.35
790.887	19048.37
791.219	18968.37
791.552	18987.35
791.884	18689.06
792.217	18757.98
792.549	18708.94
792.882	18540.81
793.214	18485.45
793.546	18614.48
793.879	18368.84
794.211	18278.9
794.543	18352.12
794.875	18282.29
795.207	18321.61
795.539	18181.95
795.871	18169.52
796.203	18032.8
796.535	17906.25
796.867	17926.59
797.198	17768.18
797.53	17857.44
797.862	17803.66
798.193	17750.32
798.525	17540.84
798.856	17636.2
799.188	17445.93
799.519	17289.32
799.85	17418.81
800.182	17320.73
800.513	17320.73
800.844	17206.38
801.175	17325.93
801.506	17159.38
801.837	17037.57
802.168	17010
802.499	16938.14
802.83	16802.55
803.161	16819.28
803.491	16746.73
803.822	16915.77
804.153	16777.69
804.483	16577.93
804.814	16504.93
805.145	16559.17
805.475	16560.3
805.805	16502.45
806.136	16437.82
806.466	16408.44
806.796	16317.14
807.126	16273.98
807.457	16229.23
807.787	16205.96
808.117	16166.41
808.447	16054.1
808.777	16136.13
809.107	16055.91
809.436	15968.45
809.766	15960.99
810.096	15878.06
810.426	15888.9
810.755	15841.22
811.085	15785.18
811.414	15771.85
811.744	15591.28
812.073	15575.69
812.403	15525.3
812.732	15494.79
813.061	15510.84
813.39	15453.89
813.719	15450.5
814.049	15548.57
814.378	15323.27
814.707	15315.59
815.036	15302.7
815.365	15213.67
815.693	15063.84
816.022	15130.28
816.351	15078.3
816.68	14975.26
817.008	15055.71
817.337	14869.04
817.665	14884.18
817.994	14865.65
818.322	14942.71
818.651	14721.03
818.979	14726.45
819.307	14813
819.636	14886.67
819.964	14582.95
820.292	14671.08
820.62	14614.36
820.948	14578.66
821.276	14707.24
821.604	14635.15
821.932	14684.64
822.259	14634.7
822.587	14575.72
822.915	14541.14
823.243	14557.64
823.57	14580.24
823.898	14607.13
824.225	14528.94
824.553	14535.27
824.88	14545.89
825.207	14559.45
825.535	14518.09
825.862	14571.42
826.189	14449.85
826.516	14629.28
826.843	14526.45
827.17	14574.81
827.497	14603.06
827.824	14626.79
828.151	14669.28
828.478	14415.95
828.805	14609.39
829.131	14466.34
829.458	14493.46
829.785	14364.2
830.111	14424.76
830.438	14526.91
830.764	14549.28
831.09	14519.45
831.417	14381.83
831.743	14467.7
832.069	14399.9
832.395	14441.03
832.722	14430.86
833.048	14352.45
833.374	14455.04
833.7	14218.44
834.026	14322.17
834.351	14420.69
834.677	14371.2
835.003	14279
835.329	14382.96
835.654	14191.77
835.98	14319.45
836.306	14238.33
836.631	14206.91
836.956	14292.34
837.282	14251.89
837.607	14123.98
837.932	14081.72
838.258	14141.38
838.583	14071.1
838.908	14028.39
839.233	14097.09
839.558	14087.82
839.883	13897.77
840.208	13926.02
840.533	13961.27
840.858	13933.7
841.182	13877.66
841.507	13931.44
841.832	13840.6
842.156	13817.77
842.481	13782.52
842.805	13791.78
843.13	13693.48
843.454	13715.85
843.778	13700.71
844.103	13622.3
844.427	13634.05
844.751	13700.26
845.075	13575.74
845.399	13475.18
845.723	13348.86
846.047	13465.47
846.371	13302.31
846.695	13208.75
847.019	13239.03
847.343	13226.6
847.666	13094.4
847.99	13061.63
848.313	13047.4
848.637	12925.82
848.96	12917.23
849.284	12832.49
849.607	12769.21
849.931	12830.45
850.254	12684.47
850.577	12619.16
850.9	12471.37
851.223	12495.77
851.546	12463.46
851.869	12411.03
852.192	12394.31
852.515	12308.21
852.838	12288.32
853.161	12217.14
853.483	12187.53
853.806	12101.89
854.129	12104.6
854.451	12046.07
854.774	11996.13
855.096	11955.67
855.419	11995.9
855.741	11917.03
856.063	11819.18
856.385	11880.2
856.708	11795.68
857.03	11776.47
857.352	11748.67
857.674	11759.3
857.996	11742.8
858.318	11612.63
858.64	11662.8
858.961	11569.7
859.283	11538.96
859.605	11565.18
859.926	11522.24
860.248	11440.66
860.57	11451.96
860.891	11426.42
861.212	11403.6
861.534	11394.56
861.855	11270.72
862.176	11393.88
862.498	11350.27
862.819	11295.13
863.14	11216.03
863.461	11210.16
863.782	11132.65
864.103	11203.15
864.424	11179.88
864.745	11131.74
865.065	11100.56
865.386	10983.72
865.707	11016.49
866.027	11050.61
866.348	11017.17
866.668	11051.52
866.989	10957.51
867.309	10885.42
867.63	10902.59
867.95	10924.06
868.27	10843.61
868.59	10838.64
868.91	10902.14
869.23	10784.63
869.55	10774.91
869.87	10854.01
870.19	10797.29
870.51	10825.99
870.83	10883.16
871.15	10701.02
871.469	10710.74
871.789	10732.43
872.109	10749.15
872.428	10598.65
872.748	10728.81
873.067	10658.53
873.386	10701.24
873.706	10634.58
874.025	10562.49
874.344	10582.6
874.663	10559.1
874.982	10510.06
875.301	10545.54
875.62	10437.52
875.939	10424.87
876.258	10437.07
876.577	10384.42
876.896	10366.11
877.214	10378.09
877.533	10394.36
877.852	10380.57
878.17	10294.93
878.489	10292.22
878.807	10311.88
879.125	10283.4
879.444	10290.86
879.762	10217.64
880.08	10289.73
880.398	10115.95
880.716	10143.74
881.034	10140.58
881.352	10146
881.67	10075.27
881.988	10110.98
882.306	10130.41
882.624	10028.72
882.941	10011.77
883.259	9992.11
883.577	9925.45
883.894	9937.42
884.212	9976.52
884.529	9920.7
884.846	9931.09
885.164	9938.78
885.481	9887.71
885.798	9892.68
886.115	9720.25
886.432	9727.71
886.75	9723.42
887.067	9715.06
887.383	9715.51
887.7	9623.98
888.017	9661.72
888.334	9644.77
888.651	9601.39
888.967	9594.15
889.284	9591.44
889.6	9571.78
889.917	9568.39
890.233	9524.78
890.55	9492.46
890.866	9441.39
891.182	9428.28
891.498	9445.91
891.815	9333.6
892.131	9374.95
892.447	9306.03
892.763	9252.69
893.079	9236.2
893.395	9216.09
893.71	9193.71
894.026	9213.6
894.342	9155.97
894.657	9048.86
894.973	9099.93
895.289	9045.02
895.604	9059.71
895.92	9000.72
896.235	8938.13
896.55	8962.76
896.865	8901.07
897.181	8820.39
897.496	8887.28
897.811	8830.56
898.126	8741.3
898.441	8759.15
898.756	8724.12
899.071	8648.42
899.386	8667.63
899.7	8649.32
900.015	8626.72
900.33	8509.21
900.644	8461.53
900.959	8531.36
901.273	8584.69
901.588	8483.68
901.902	8387.41
902.216	8398.71
902.531	8410.23
902.845	8325.04
903.159	8314.19
903.473	8296.11
903.787	8250.91
904.101	8223.8
904.415	8186.96
904.729	8154.87
905.042	8166.62
905.356	8129.79
905.67	7982.9
905.984	8052.05
906.297	8014.54
906.611	7955.33
906.924	7936.12
907.237	7960.3
907.551	7887.08
907.864	7834.43
908.177	7897.7
908.491	7823.13
908.804	7746.52
909.117	7692.74
909.43	7638.95
909.743	7645.05
910.056	7647.31
910.368	7600.08
910.681	7557.82
910.994	7533.42
911.307	7519.18
911.619	7440.09
911.932	7467.2
912.244	7473.53
912.557	7443.25
912.869	7350.15
913.181	7288.9
913.494	7328.68
913.806	7259.3
914.118	7275.8
914.43	7132.98
914.742	7198.51
915.054	7101.11
915.366	7091.62
915.678	7100.21
915.99	7102.02
916.302	6998.97
916.613	6965.07
916.925	6974.56
917.236	6948.57
917.548	6949.93
917.859	6916.03
918.171	6876.71
918.482	6825.87
918.794	6788.35
919.105	6751.52
919.416	6749.26
919.727	6718.07
920.038	6653.67
920.349	6630.16
920.66	6622.26
920.971	6597.85
921.282	6608.24
921.593	6469.72
921.903	6552.43
922.214	6532.54
922.525	6446.67
922.835	6439.66
923.146	6403.05
923.456	6407.12
923.767	6307.24
924.077	6357.63
924.387	6245.09
924.697	6268.14
925.008	6259.33
925.318	6222.94
925.628	6233.79
925.938	6211.42
926.248	6136.62
926.558	6102.27
926.867	6109.05
927.177	6076.05
927.487	6102.49
927.796	6000.12
928.106	5996.06
928.416	5943.18
928.725	5901.14
929.034	5907.02
929.344	5929.39
929.653	5872.67
929.962	5845.1
930.271	5777.76
930.581	5771.66
930.89	5769.62
931.199	5761.49
931.508	5697.31
931.817	5704.09
932.125	5632.45
932.434	5656.4
932.743	5584.54
933.051	5571.89
933.36	5545.67
933.669	5518.33
933.977	5491.89
934.286	5479.46
934.594	5510.42
934.902	5450.31
935.21	5406.24
935.519	5386.13
935.827	5360.37
936.135	5385.45
936.443	5343.64
936.751	5319.24
937.059	5283.76
937.367	5246.25
937.674	5279.01
937.982	5246.02
938.29	5218.68
938.597	5246.92
938.905	5129.19
939.213	5122.86
939.52	5102.07
939.827	5062.97
940.135	5072.01
940.442	5039.7
940.749	5069.75
941.056	5047.38
941.363	4946.59
941.67	4920.15
941.977	4966.71
942.284	4889.87
942.591	4888.52
942.898	4861.85
943.205	4864.11
943.511	4873.6
943.818	4798.57
944.125	4795.64
944.431	4766.48
944.738	4787.05
945.044	4747.05
945.35	4727.16
945.657	4674.51
945.963	4648.52
946.269	4630.22
946.575	4582.31
946.881	4601.29
947.187	4595.64
947.493	4578.92
947.799	4491.92
948.105	4528.75
948.41	4497.57
948.716	4529.43
949.022	4465.25
949.327	4472.26
949.633	4414.4
949.938	4424.35
950.244	4446.04
950.549	4368.3
950.854	4362.2
951.16	4338.02
951.465	4294.41
951.77	4282.2
952.075	4258.02
952.38	4296.89
952.685	4267.51
952.99	4248.31
953.294	4208.76
953.599	4161.98
953.904	4165.14
954.209	4151.59
954.513	4152.26
954.818	4112.94
955.122	4096.67
955.426	4086.28
955.731	4025.94
956.035	3995.88
956.339	3992.95
956.643	4011.02
956.948	4031.14
957.252	4022.1
957.556	3945.04
957.86	3949.78
958.163	3920.18
958.467	3884.25
958.771	3874.3
959.075	3888.99
959.378	3858.26
959.682	3813.06
959.985	3867.07
960.289	3830.24
960.592	3783.01
960.896	3768.32
961.199	3780.52
961.502	3723.12
961.805	3725.83
962.108	3720.64
962.411	3719.96
962.714	3722.44
963.017	3640.41
963.32	3692.16
963.623	3619.4
963.926	3629.57
964.228	3594.54
964.531	3550.7
964.833	3601.09
965.136	3559.51
965.438	3556.57
965.741	3588.21
966.043	3472.28
966.345	3507.53
966.648	3465.95
966.95	3472.06
967.252	3416.69
967.554	3454.2
967.856	3402.9
968.158	3384.15
968.46	3380.31
968.761	3395.45
969.063	3378.05
969.365	3358.84
969.666	3312.29
969.968	3326.75
970.269	3277.26
970.571	3299.86
970.872	3266.41
971.174	3243.81
971.475	3297.6
971.776	3207.43
972.077	3232.06
972.378	3229.12
972.679	3178.73
972.98	3151.39
973.281	3178.05
973.582	3100.31
973.883	3151.61
974.183	3093.76
974.484	3124.49
974.785	3091.5
975.085	3088.11
975.386	3072.29
975.686	3049.69
975.986	3017.15
976.287	3031.39
976.587	3013.99
976.887	3023.93
977.187	2991.84
977.487	2995.01
977.787	2991.16
978.087	2949.13
978.387	2913.2
978.687	2944.61
978.987	2901.45
979.286	2883.82
979.586	2880.66
979.885	2857.38
980.185	2856.25
980.484	2863.48
980.784	2838.17
981.083	2805.18
981.382	2834.33
981.682	2759.08
981.981	2797.5
982.28	2764.05
982.579	2739.42
982.878	2771.74
983.177	2749.36
983.475	2763.83
983.774	2672.75
984.073	2683.83
984.372	2679.99
984.67	2685.86
984.969	2658.52
985.267	2686.09
985.566	2604.06
985.864	2618.29
986.162	2628.01
986.461	2626.65
986.759	2572.19
987.057	2541.46
987.355	2569.71
987.653	2543.27
987.951	2565.19
988.249	2518.41
988.547	2528.35
988.844	2496.49
989.142	2539.42
989.44	2479.09
989.737	2499.2
990.035	2441.57
990.332	2467.34
990.63	2408.58
990.927	2417.39
991.224	2410.84
991.521	2414.46
991.819	2394.8
992.116	2391.86
992.413	2398.19
992.71	2353.21
993.006	2356.15
993.303	2339.88
993.6	2343.27
993.897	2338.98
994.193	2321.8
994.49	2309.37
994.787	2285.42
995.083	2262.6
995.379	2269.38
995.676	2275.02
995.972	2244.52
996.268	2247.68
996.565	2212.2
996.861	2235.03
997.157	2191.41
997.453	2201.81
997.749	2202.48
998.044	2154.12
998.34	2155.03
998.636	2158.19
998.932	2139.21
999.227	2144.63
999.523	2122.94
999.818	2108.48
1000.114	2089.49
1000.409	2077.29
1000.704	2098.08
1001	2053.79
1001.295	2054.92
1001.59	2037.52
1001.885	2048.59
1002.18	2025.31
1002.475	2004.52
1002.77	2018.99
1003.065	1975.15
1003.359	1979.67
1003.654	1978.54
1003.949	1957.97
1004.243	1957.97
1004.538	1927.92
1004.832	1936.95
1005.127	1917.75
1005.421	1905.09
1005.715	1892.89
1006.009	1912.32
1006.304	1897.41
1006.598	1869.84
1006.892	1840.01
1007.186	1837.75
1007.48	1823.29
1007.773	1800.01
1008.067	1821.93
1008.361	1791.42
1008.655	1767.02
1008.948	1739.67
1009.242	1783.29
1009.535	1782.16
1009.829	1749.16
1010.122	1760.24
1010.415	1764.53
1010.708	1717.07
1011.001	1717.07
1011.295	1702.38
1011.588	1672.78
1011.881	1678.43
1012.173	1658.54
1012.466	1672.78
1012.759	1655.61
1013.052	1638.88
1013.344	1652.89
1013.637	1638.43
1013.93	1614.93
1014.222	1612.44
1014.514	1620.35
1014.807	1601.6
1015.099	1575.61
1015.391	1564.31
1015.683	1584.2
1015.976	1555.5
1016.268	1548.94
1016.56	1537.19
1016.851	1543.07
1017.143	1537.19
1017.435	1508.49
1017.727	1475.05
1018.018	1488.83
1018.31	1466.46
1018.602	1473.01
1018.893	1432.34
1019.185	1464.65
1019.476	1430.75
1019.767	1444.09
1020.058	1405.22
1020.35	1401.15
1020.641	1402.73
1020.932	1391.21
1021.223	1384.65
1021.514	1390.53
1021.804	1369.51
1022.095	1355.28
1022.386	1353.47
1022.677	1332.9
1022.967	1350.08
1023.258	1334.03
1023.548	1305.33
1023.839	1297.88
1024.129	1292.9
1024.419	1276.86
1024.709	1297.2
1025	1257.2
1025.29	1285.45
1025.58	1247.93
1025.87	1256.29
1026.16	1234.37
1026.449	1219.69
1026.739	1249.97
1027.029	1221.04
1027.319	1202.74
1027.608	1218.78
1027.898	1209.52
1028.187	1169.74
1028.477	1188.73
1028.766	1184.21
1029.055	1151.66
1029.344	1145.11
1029.634	1157.54
1029.923	1142.17
1030.212	1147.82
1030.501	1110.99
1030.79	1132.23
1031.078	1111.21
1031.367	1120.03
1031.656	1107.82
1031.945	1139.46
1032.233	1076.64
1032.522	1105.11
1032.81	1073.25
1033.099	1061.27
1033.387	1085.9
1033.675	1054.27
1033.963	1047.71
1034.251	1044.77
1034.54	1044.55
1034.828	1038
1035.116	1026.02
1035.403	1010.2
1035.691	1011.78
1035.979	1022.4
1036.267	1007.94
1036.554	988.96
1036.842	992.12
1037.129	992.57
1037.417	980.82
1037.704	950.09
1037.992	952.8
1038.279	978.79
1038.566	964.55
1038.853	964.55
1039.14	964.55
