Data from hue_26_FLMS001491_00015.txt Node
Date: Tue Feb 07 17:13:37 GMT 2017
User: dcchb
Spectrometer: FLMS00149
Trigger mode: 0
Integration Time (sec): 2.000000E-2
Scans to average: 10
Electric dark correction enabled: true
Nonlinearity correction enabled: false
Boxcar width: 0
XAxis mode: Wavelengths
Number of Pixels in Spectrum: 2048
>>>>>Begin Spectral Data<<<<<
341.393	-18.43
341.776	-18.43
342.16	-18.43
342.543	-65.89
342.927	-61.59
343.31	-49.84
343.693	-81.93
344.077	-58.43
344.46	-87.58
344.843	-50.97
345.226	-50.75
345.61	-32.44
345.993	-25.44
346.376	12.08
346.759	15.24
347.142	36.48
347.525	45.52
347.908	62.47
348.291	74.67
348.674	99.76
349.057	91.17
349.44	140.89
349.823	148.57
350.206	170.26
350.588	178.4
350.971	194.67
351.354	239.64
351.737	247.55
352.119	251.84
352.502	278.28
352.884	267.21
353.267	255.01
353.65	287.32
354.032	291.84
354.414	316.93
354.797	337.04
355.179	310.15
355.562	319.86
355.944	325.74
356.326	324.61
356.709	309.7
357.091	337.04
357.473	336.36
357.855	329.58
358.238	362.35
358.62	338.85
359.002	356.47
359.384	336.59
359.766	353.99
360.148	331.62
360.53	344.04
360.912	327.32
361.294	333.2
361.676	350.6
362.057	327.1
362.439	338.62
362.821	331.62
363.203	335.23
363.584	327.77
363.966	328.23
364.348	312.63
364.729	330.26
365.111	331.84
365.493	324.38
365.874	335.23
366.256	301.79
366.637	307.21
367.019	318.73
367.4	317.38
367.781	320.32
368.163	303.82
368.544	325.29
368.925	324.16
369.306	315.34
369.688	320.09
370.069	315.57
370.45	321.9
370.831	320.32
371.212	312.18
371.593	332.97
371.974	347.43
372.355	312.41
372.736	317.6
373.117	326.42
373.498	312.63
373.879	333.42
374.26	303.14
374.641	320.09
375.021	315.34
375.402	332.75
375.783	316.93
376.163	348.34
376.544	333.88
376.925	319.19
377.305	332.75
377.686	328.23
378.066	325.51
378.447	329.36
378.827	345.4
379.208	344.04
379.588	358.96
379.968	345.85
380.349	344.27
380.729	335.91
381.109	356.93
381.489	343.59
381.87	345.85
382.25	345.17
382.63	333.65
383.01	343.14
383.39	337.04
383.77	350.37
384.15	339.75
384.53	351.5
384.91	357.15
385.29	363.71
385.67	356.7
386.049	356.7
386.429	356.93
386.809	358.51
387.189	348.79
387.568	353.76
387.948	356.7
388.328	377.72
388.707	360.77
389.087	367.77
389.466	372.07
389.846	369.35
390.225	360.54
390.605	370.94
390.984	373.65
391.363	353.31
391.743	370.48
392.122	375
392.501	387.43
392.881	379.07
393.26	372.74
393.639	388.11
394.018	389.69
394.397	393.53
394.776	401.22
395.155	396.7
395.534	418.17
395.913	392.63
396.292	394.89
396.671	394.44
397.05	387.43
397.429	358.06
397.808	404.16
398.186	393.99
398.565	407.55
398.944	389.69
399.323	397.83
399.701	420.2
400.08	410.26
400.458	397.6
400.837	412.29
401.215	415.68
401.594	436.02
401.972	405.51
402.351	411.84
402.729	408.45
403.107	416.13
403.486	406.87
403.864	425.4
404.242	406.64
404.62	423.82
404.999	429.47
405.377	413.2
405.755	430.37
406.133	418.62
406.511	423.59
406.889	440.31
407.267	446.87
407.645	438.96
408.023	442.35
408.401	444.83
408.779	434.89
409.156	451.61
409.534	464.95
409.912	472.63
410.29	459.97
410.667	482.35
411.045	459.07
411.422	465.62
411.8	465.4
412.178	481.89
412.555	494.32
412.933	461.56
413.31	501.55
413.687	473.31
414.065	495.45
414.442	502.46
414.819	491.61
415.197	491.61
415.574	506.75
415.951	531.38
416.328	494.1
416.705	507.66
417.082	486.19
417.46	507.66
417.837	522.12
418.214	538.39
418.591	521.22
418.967	523.93
419.344	538.16
419.721	539.29
420.098	527.54
420.475	542.01
420.852	544.27
421.228	556.92
421.605	547.43
421.982	545.17
422.358	569.35
422.735	560.76
423.111	564.15
423.488	566.86
423.864	576.81
424.241	582.91
424.617	574.55
424.994	564.83
425.37	574.77
425.746	594.66
426.123	555.79
426.499	579.52
426.875	598.28
427.251	613.19
427.627	624.26
428.003	614.09
428.379	610.03
428.756	635.56
429.132	610.03
429.507	623.59
429.883	649.8
430.259	667.88
430.635	649.12
431.011	638.27
431.387	672.4
431.763	631.04
432.138	655.45
432.514	666.75
432.89	666.52
433.265	670.36
433.641	697.26
434.016	719.18
434.392	705.84
434.767	682.11
435.143	709.91
435.518	685.5
435.894	712.62
436.269	741.55
436.644	745.16
437.02	746.97
437.395	767.31
437.77	745.16
438.145	759.4
438.52	753.3
438.895	753.98
439.271	767.08
439.646	768.21
440.021	767.31
440.395	783.13
440.77	773.41
441.145	800.53
441.52	794.88
441.895	799.63
442.27	797.82
442.645	763.92
443.019	810.02
443.394	797.37
443.769	803.92
444.143	819.96
444.518	833.75
444.892	860.87
445.267	850.92
445.641	840.53
446.016	853.64
446.39	868.78
446.764	827.42
447.139	844.82
447.513	854.99
447.887	882.11
448.262	887.31
448.636	861.55
449.01	900.41
449.384	891.37
449.758	897.93
450.132	893.86
450.506	920.53
450.88	899.06
451.254	919.17
451.628	908.78
452.002	920.75
452.376	947.64
452.75	951.03
453.123	959.4
453.497	991.71
453.871	964.37
454.244	979.28
454.618	989
454.992	983.35
455.365	1013.41
455.739	1019.73
456.112	1025.38
456.486	1029
456.859	1015.21
457.232	1050.92
457.606	1074.65
457.979	1065.38
458.352	1073.97
458.725	1116.45
459.099	1100.18
459.472	1112.61
459.845	1138.37
460.218	1103.57
460.591	1135.66
460.964	1134.08
461.337	1157.13
461.71	1193.29
462.083	1189.22
462.456	1204.81
462.829	1214.76
463.201	1207.52
463.574	1247.07
463.947	1222.44
464.32	1240.97
464.692	1274.64
465.065	1308.31
465.438	1326.17
465.81	1307.41
466.183	1325.04
466.555	1356.67
466.928	1346.96
467.3	1382.44
467.672	1408.42
468.045	1420.17
468.417	1414.3
468.789	1439.84
469.161	1445.03
469.534	1460.85
469.906	1511.02
470.278	1516.67
470.65	1529.55
471.022	1576.1
471.394	1589.66
471.766	1626.72
472.138	1624.69
472.51	1653.61
472.882	1673.05
473.253	1713.27
473.625	1739.26
473.997	1756.44
474.369	1780.62
474.74	1793.95
475.112	1851.8
475.484	1862.87
475.855	1897
476.227	1955.98
476.598	1959.37
476.97	1997.33
477.341	2016.54
477.713	2082.08
478.084	2084.56
478.455	2140.16
478.827	2165.69
479.198	2208.63
479.569	2249.98
479.94	2299.47
480.311	2315.07
480.682	2369.75
481.053	2423.09
481.424	2433.26
481.795	2516.19
482.166	2573.14
482.537	2609.97
482.908	2639.35
483.279	2670.99
483.65	2746.02
484.021	2775.39
484.391	2835.28
484.762	2892.23
485.133	2915.95
485.503	2983.3
485.874	3040.92
486.244	3084.99
486.615	3146.68
486.985	3206.12
487.356	3281.37
487.726	3271.2
488.097	3386.45
488.467	3387.13
488.837	3444.3
489.207	3526.33
489.578	3566.56
489.948	3618.31
490.318	3671.64
490.688	3717.29
491.058	3750.96
491.428	3873.9
491.798	3897.17
492.168	3981.69
492.538	3987.34
492.908	3985.53
493.278	4094.68
493.648	4101.23
494.017	4186.43
494.387	4185.07
494.757	4234.11
495.126	4274.34
495.496	4332.19
495.866	4348.91
496.235	4436.82
496.605	4459.87
496.974	4502.35
497.344	4587.55
497.713	4606.31
498.082	4626.19
498.452	4710.94
498.821	4707.77
499.19	4727.21
499.559	4747.09
499.928	4760.88
500.298	4822.57
500.667	4875.68
501.036	4905.73
501.405	4928.1
501.774	4914.55
502.143	4969.46
502.512	5026.18
502.88	5050.14
503.249	5093.75
503.618	5115.9
503.987	5115.22
504.356	5160.19
504.724	5239.74
505.093	5242.45
505.462	5251.49
505.83	5258.49
506.199	5381.43
506.567	5385.49
506.936	5371.71
507.304	5449.45
507.672	5488.09
508.041	5483.8
508.409	5546.85
508.777	5609.44
509.145	5600.4
509.514	5600.86
509.882	5658.93
510.25	5673.4
510.618	5734.86
510.986	5693.28
511.354	5785.48
511.722	5794.3
512.09	5829.32
512.458	5821.64
512.826	5874.07
513.193	5907.74
513.561	5922.43
513.929	5979.15
514.297	5990
514.664	6022.54
515.032	6056.44
515.4	6079.49
515.767	6111.8
516.135	6106.38
516.502	6089.43
516.869	6187.51
517.237	6177.34
517.604	6180.28
517.972	6270.22
518.339	6297.79
518.706	6357.45
519.073	6356.77
519.44	6389.76
519.808	6483.09
520.175	6406.03
520.542	6503.66
520.909	6489.87
521.276	6512.02
521.643	6594.5
522.009	6585.69
522.376	6595.86
522.743	6659.81
523.11	6706.59
523.477	6757.66
523.843	6761.95
524.21	6869.07
524.577	6907.71
524.943	6906.58
525.31	6989.97
525.676	7041.04
526.043	6985.45
526.409	7082.4
526.776	7146.35
527.142	7197.2
527.508	7228.84
527.874	7201.49
528.241	7300.02
528.607	7279.23
528.973	7328.49
529.339	7325.56
529.705	7399.45
530.071	7528.71
530.437	7574.59
530.803	7545.21
531.169	7558.77
531.535	7656.17
531.901	7568.04
532.267	7648.71
532.632	7725.32
532.998	7690.07
533.364	7763.51
533.73	7799.89
534.095	7848.48
534.461	7852.55
534.826	8010.06
535.192	7986.78
535.557	7984.3
535.923	8045.31
536.288	7992.21
536.653	8073.11
537.019	8094.12
537.384	8100.22
537.749	8143.84
538.114	8174.57
538.479	8209.37
538.845	8241.24
539.21	8250.73
539.575	8258.86
539.94	8272.88
540.305	8378.41
540.67	8387.45
541.034	8389.26
541.399	8528.46
541.764	8465.19
542.129	8530.95
542.494	8641
542.858	8626.09
543.223	8558.29
543.587	8651.62
543.952	8659.53
544.316	8662.24
544.681	8674.67
545.045	8832.63
545.41	8840.32
545.774	8864.05
546.138	8836.25
546.503	8920.09
546.867	8949.02
547.231	9006.42
547.595	9037.15
547.959	9045.06
548.324	9085.96
548.688	9104.49
549.052	9144.27
549.416	9120.54
549.779	9100.2
550.143	9231.49
550.507	9249.8
550.871	9320.31
551.235	9292.06
551.599	9399.17
551.962	9441.43
552.326	9410.25
552.689	9425.61
553.053	9444.6
553.417	9477.59
553.78	9593.74
554.143	9555.78
554.507	9648.21
554.87	9578.83
555.234	9760.75
555.597	9738.37
555.96	9681.2
556.323	9787.19
556.686	9712.16
557.05	9801.42
557.413	9815.89
557.776	9820.86
558.139	9975.66
558.502	9943.57
558.865	9994.64
559.228	10078.25
559.59	10028.76
559.953	10091.81
560.316	10165.71
560.679	10151.7
561.041	10246.38
561.404	10270.34
561.767	10355.31
562.129	10280.73
562.492	10411.12
562.854	10333.61
563.217	10413.38
563.579	10460.84
563.941	10479.82
564.304	10564.34
564.666	10494.51
565.028	10553.72
565.39	10550.33
565.753	10752.36
566.115	10710.78
566.477	10762.3
566.839	10784.9
567.201	10858.34
567.563	10871.68
567.925	10992.13
568.287	10869.42
568.648	11068.96
569.01	11062.63
569.372	11199.35
569.734	11122.97
570.095	11137.21
570.457	11202.97
570.819	11211.33
571.18	11230.54
571.542	11360.93
571.903	11386.47
572.265	11455.39
572.626	11560.47
572.987	11538.78
573.349	11651.09
573.71	11654.93
574.071	11703.29
574.432	11793.91
574.794	11894.25
575.155	11867.81
575.516	11954.36
575.877	12071.65
576.238	12105.54
576.599	12169.72
576.96	12323.62
577.32	12293.33
577.681	12515.93
578.042	12586.21
578.403	12660.33
578.763	12773.55
579.124	12822.36
579.485	12915.01
579.845	13056.03
580.206	13137.38
580.566	13259.86
580.927	13373.08
581.287	13464.83
581.648	13590.48
582.008	13857.59
582.368	13875.21
582.728	14030.01
583.089	14188.88
583.449	14319.04
583.809	14590
584.169	14757
584.529	14869.76
584.889	15153.6
585.249	15161.73
585.609	15296.19
585.969	15578.22
586.329	15759.01
586.688	16006.23
587.048	16170.97
587.408	16489.16
587.768	16686.89
588.127	16789.94
588.487	17057.96
588.846	17409.36
589.206	17569.35
589.565	17760.08
589.925	18204.14
590.284	18334.76
590.643	18581.31
591.003	18978.81
591.362	19226.49
591.721	19406.82
592.08	19735.85
592.44	20085.45
592.799	20319.34
593.158	20718.2
593.517	20810.85
593.876	21249.26
594.235	21431.85
594.593	21806.31
594.952	22003.59
595.311	22253.07
595.67	22642.89
596.029	22997.01
596.387	23458.92
596.746	23611.68
597.104	23886.48
597.463	24223.64
597.822	24576.63
598.18	24637.64
598.538	25060.46
598.897	25507.45
599.255	25644.85
599.613	26209.13
599.972	26230.14
600.33	26583.35
600.688	26833.52
601.046	27182.66
601.404	27661.07
601.762	27815.41
602.12	28173.6
602.478	28520.93
602.836	28808.61
603.194	28962.28
603.552	29280.91
603.91	29439.55
604.268	29877.05
604.625	29893.55
604.983	30307.32
605.341	30380.54
605.698	30855.11
606.056	31205.83
606.413	31293.29
606.771	31711.36
607.128	32124.45
607.485	32072.02
607.843	32293.26
608.2	32749.07
608.557	32994.49
608.914	32980.47
609.272	33518.31
609.629	33859.1
609.986	34138.41
610.343	34003.72
610.7	34549.7
611.057	34625.86
611.414	34858.39
611.771	35051.15
612.127	35402.33
612.484	35569.33
612.841	35755.32
613.198	35810
613.554	36082.77
613.911	36402.98
614.267	36448.86
614.624	36639.14
614.98	36963.19
615.337	37124.77
615.693	37331.55
616.05	37456.97
616.406	37644.08
616.762	37729.73
617.118	37827.58
617.475	38032.32
617.831	38241.58
618.187	38381.24
618.543	38544.4
618.899	38879.08
619.255	38845.41
619.611	38960.43
619.967	39213.31
620.323	39360.19
620.678	39258.95
621.034	39485.39
621.39	39500.76
621.746	39609.23
622.101	40140.96
622.457	39995.21
622.812	40054.19
623.168	40157.24
623.523	40353.16
623.879	40616.43
624.234	40293.5
624.589	40613.04
624.945	40660.95
625.3	40834.51
625.655	40898.01
626.01	40790.66
626.365	40957.89
626.72	40963.09
627.075	40939.36
627.43	41137.55
627.785	41123.09
628.14	41244.44
628.495	41386.58
628.85	41397.65
629.205	41358.79
629.559	41515.62
629.914	41464.32
630.269	41561.27
630.623	41412.34
630.978	41474.94
631.332	41712.22
631.687	41716.29
632.041	41712.9
632.396	41810.3
632.75	41609.4
633.104	41785.44
633.459	41725.1
633.813	41651.66
634.167	41887.13
634.521	41540.02
634.875	41728.04
635.229	41801.49
635.583	41554.94
635.937	41723.97
636.291	41649.85
636.645	41623.86
636.999	41668.38
637.352	41761.26
637.706	41736.4
638.06	41757.87
638.413	41683.07
638.767	41642.39
639.121	41717.65
639.474	41547.48
639.828	41619.34
640.181	41625.9
640.534	41781.15
640.888	41570.08
641.241	41586.35
641.594	41679
641.947	41720.81
642.301	41537.99
642.654	41700.02
643.007	41628.38
643.36	41601.49
643.713	41594.71
644.066	41641.94
644.419	41251.9
644.771	41152.24
645.124	40761.96
645.477	40712.02
645.83	40580.5
646.182	40538.92
646.535	40227.52
646.888	40496.89
647.24	40177.8
647.593	40392.94
647.945	40573.72
648.298	40215.31
648.65	40149.33
649.002	40210.12
649.355	40345.03
649.707	40184.35
650.059	40510.9
650.411	40888.52
650.763	40916.54
651.115	41373.93
651.467	41196.53
651.819	41210.54
652.171	41166.47
652.523	41232.24
652.875	40948.85
653.227	40971.22
653.578	41210.54
653.93	40944.11
654.282	40936.65
654.633	40926.25
654.985	41001.28
655.337	41053.71
655.688	40991.79
656.039	41027.95
656.391	40839.03
656.742	40953.6
657.094	40846.71
657.445	40990.66
657.796	40899.81
658.147	40734.4
658.498	40747.28
658.849	40872.7
659.2	40822.08
659.551	40617.34
659.902	40734.62
660.253	40778.46
660.604	40820.49
660.955	40616.21
661.306	40682.19
661.656	40764.22
662.007	40645.36
662.358	40645.13
662.708	40812.13
663.059	40716.54
663.409	40476.55
663.76	40700.72
664.11	40736.43
664.461	40862.3
664.811	40886.48
665.161	40785.02
665.511	40639.71
665.862	40712.7
666.212	40738.91
666.562	40800.16
666.912	40872.92
667.262	40658.46
667.612	40634.96
667.962	40703.66
668.312	40584.79
668.662	40702.98
669.011	40665.47
669.361	40540.5
669.711	40745.24
670.06	40550.67
670.41	40524.91
670.76	40351.13
671.109	40469.32
671.459	40559.48
671.808	40341.41
672.157	40489.43
672.507	40156.11
672.856	40310.45
673.205	40356.1
673.554	40455.98
673.904	40406.04
674.253	40559.26
674.602	40360.17
674.951	39889.9
675.3	39605.39
675.649	40239.49
675.998	40172.83
676.346	40378.7
676.695	40430.22
677.044	39997.92
677.393	40144.13
677.741	40247.85
678.09	40108.42
678.438	40050.8
678.787	40265.93
679.135	40043.79
679.484	39813.29
679.832	40050.57
680.181	39712.95
680.529	39870.69
680.877	39704.14
681.225	39626.63
681.573	39913.63
681.922	39518.16
682.27	39489.46
682.618	39650.81
682.966	39420.98
683.314	39545.05
683.661	39477.25
684.009	39157.26
684.357	39152.29
684.705	39292.85
685.053	39309.12
685.4	39256.92
685.748	38971.28
686.095	39053.54
686.443	38896.03
686.79	38883.37
687.138	38848.34
687.485	38842.47
687.832	38682.25
688.18	38690.38
688.527	38568.58
688.874	38377.62
689.221	38416.04
689.568	38527
689.915	38332.2
690.262	38316.38
690.609	38251.07
690.956	38012.88
691.303	38014.24
691.65	37877.07
691.997	37892.21
692.344	37692.89
692.69	37591.2
693.037	37467.14
693.383	37330.19
693.73	37473.92
694.077	37202.74
694.423	37073.93
694.769	37064.21
695.116	37018.79
695.462	37000.48
695.808	36830.77
696.155	36793.93
696.501	36646.14
696.847	36679.13
697.193	36361.4
697.539	36586.71
697.885	36347.17
698.231	36181.75
698.577	36282.99
698.923	36111.69
699.269	36032.15
699.614	35725.04
699.96	35700.18
700.306	35798.93
700.651	35573.4
700.997	35439.17
701.342	35518.71
701.688	35334.99
702.033	35412.73
702.379	35232.17
702.724	35194.43
703.069	35216.8
703.415	34867.43
703.76	34864.72
704.105	34916.02
704.45	34684.84
704.795	34576.59
705.14	34428.12
705.485	34525.29
705.83	34386.09
706.175	34249.37
706.52	34248.46
706.865	34097.06
707.209	34189.03
707.554	34049.37
707.899	33996.72
708.243	33781.81
708.588	33755.14
708.932	33576.84
709.277	33558.09
709.621	33673.79
709.966	33406
710.31	33443.51
710.654	33166.68
710.998	33316.96
711.342	33257.53
711.687	33239.9
712.031	33054.37
712.375	32827.26
712.719	33034.26
713.063	32891.21
713.407	32956.52
713.75	32847.6
714.094	32850.31
714.438	32578.23
714.782	32620.71
715.125	32382.98
715.469	32554.95
715.812	32256.65
716.156	32109.76
716.499	32256.2
716.843	32310.44
717.186	32046.49
717.53	32188.86
717.873	32007.39
718.216	32069.09
718.559	31853.5
718.902	31788.19
719.246	31792.48
719.589	31671.81
719.932	31613.5
720.275	31570.12
720.617	31619.83
720.96	31500.06
721.303	31431.81
721.646	31450.57
721.989	31322.89
722.331	31372.61
722.674	31321.08
723.016	31412.61
723.359	31178.94
723.701	31116.12
724.044	31161.09
724.386	30876.8
724.729	31162.9
725.071	30907.99
725.413	30837.25
725.755	30828.44
726.097	30777.82
726.439	30573.08
726.782	30639.52
727.124	30789.57
727.465	30577.37
727.807	30575.79
728.149	30452.86
728.491	30499.86
728.833	30417.6
729.175	30333.31
729.516	30277.49
729.858	30308.23
730.199	30263.26
730.541	30154.33
730.882	30228.91
731.224	30194.11
731.565	29996.6
731.906	30021.91
732.248	29986.2
732.589	29943.04
732.93	29748.02
733.271	29817.39
733.612	29831.86
733.953	29780.56
734.294	29626.21
734.635	29620.34
734.976	29645.87
735.317	29670.96
735.658	29514.13
735.999	29544.18
736.339	29510.51
736.68	29529.72
737.021	29360.46
737.361	29321.59
737.702	29471.64
738.042	29471.87
738.383	29305.09
738.723	29406.56
739.063	29266.9
739.404	29256.96
739.744	29196.85
740.084	29028.49
740.424	29079.33
740.764	29024.42
741.104	29129.05
741.444	28852.45
741.784	28889.51
742.124	28894.03
742.464	28837.98
742.804	28817.19
743.143	28765.22
743.483	28749.4
743.823	28546.47
744.162	28642.51
744.502	28640.25
744.841	28466.47
745.181	28608.61
745.52	28403.42
745.86	28490.65
746.199	28423.98
746.538	28242.97
746.877	28373.14
747.216	28323.2
747.556	28284.55
747.895	28255.4
748.234	28201.39
748.573	28180.15
748.911	28115.74
749.25	27994.39
749.589	27993.71
749.928	27980.61
750.267	28010.44
750.605	27908.74
750.944	27855.41
751.283	27726.6
751.621	27892.7
751.96	27698.81
752.298	27673.27
752.636	27665.13
752.975	27557.11
753.313	27417.23
753.651	27524.35
753.989	27415.2
754.327	27353.28
754.666	27229.44
755.004	27309.44
755.342	27340.4
755.679	27181.31
756.017	27043.23
756.355	27191.02
756.693	26993.51
757.031	26993.74
757.368	26771.15
757.706	26790.35
758.044	26704.26
758.381	26880.07
758.719	26673.52
759.056	26589.68
759.394	26565.28
759.731	26405.51
760.068	26388.11
760.405	26291.38
760.743	26266.98
761.08	26229.01
761.417	26154.67
761.754	26090.71
762.091	26037.83
762.428	25917.84
762.765	25752.64
763.102	25821.79
763.438	25711.29
763.775	25654.57
764.112	25682.14
764.449	25664.06
764.785	25361.47
765.122	25204.86
765.458	25195.37
765.795	25368.25
766.131	25137.97
766.467	25161.02
766.804	25052.55
767.14	24797.41
767.476	24749.5
767.812	24752.67
768.148	24800.8
768.485	24599.45
768.821	24516.97
769.157	24385.67
769.492	24297.09
769.828	24350.87
770.164	24193.59
770.5	24015.51
770.836	23999.24
771.171	23925.57
771.507	24027.72
771.842	23591.34
772.178	23702.98
772.513	23637.22
772.849	23521.97
773.184	23423.44
773.519	23483.55
773.855	23313.61
774.19	23274.06
774.525	23186.38
774.86	23262.31
775.195	23100.96
775.53	22860.06
775.865	22895.09
776.2	22752.04
776.535	22601.99
776.87	22684.47
777.205	22499.39
777.539	22458.04
777.874	22406.97
778.209	22273.64
778.543	22222.11
778.878	22058.05
779.212	22071.83
779.547	21914.55
779.881	21967.2
780.215	21816.02
780.55	21891.5
780.884	21693.77
781.218	21653.99
781.552	21546.65
781.886	21507.33
782.22	21422.36
782.554	21251.74
782.888	21141.92
783.222	21026.44
783.556	20872.09
783.889	20911.41
784.223	20714.81
784.557	20722.49
784.89	20721.81
785.224	20616.73
785.557	20524.3
785.891	20425.1
786.224	20465.78
786.558	20449.73
786.891	20096.75
787.224	20153.02
787.557	20066.69
787.891	20076.63
788.224	20002.96
788.557	19986.92
788.89	19894.04
789.223	19916.86
789.556	19719.35
789.888	19636.19
790.221	19608.17
790.554	19443.88
790.887	19532.01
791.219	19615.18
791.552	19445.46
791.884	19252.25
792.217	19149.88
792.549	19047.51
792.882	19017
793.214	18974.06
793.546	19017.68
793.879	18927.74
794.211	18705.14
794.543	18815.2
794.875	18739.49
795.207	18725.48
795.539	18624.02
795.871	18610.68
796.203	18392.16
796.535	18313.74
796.867	18278.71
797.198	18261.77
797.53	18234.42
797.862	18131.6
798.193	18183.12
798.525	18081.88
798.856	18094.54
799.188	17813.19
799.519	17790.37
799.85	17713.53
800.182	17717.6
800.513	17707.43
800.844	17592.18
801.175	17675.57
801.506	17591.27
801.837	17534.33
802.168	17478.96
802.499	17407.78
802.83	17239.19
803.161	17297.95
803.491	17227.67
803.822	17236.71
804.153	17131.4
804.483	16992.19
804.814	17059.54
805.145	16943.83
805.475	16987
805.805	16850.73
806.136	16867.68
806.466	16824.52
806.796	16769.6
807.126	16631.3
807.457	16581.81
807.787	16502.72
808.117	16516.73
808.447	16464.52
808.777	16488.03
809.107	16375.49
809.436	16386.79
809.766	16360.57
810.096	16224.08
810.426	16219.79
810.755	16225.21
811.085	16127.13
811.414	16166.45
811.744	16012.56
812.073	15933.47
812.403	15961.94
812.732	15873.58
813.061	15853.92
813.39	15781.83
813.719	15756.97
814.049	15849.17
814.378	15750.42
814.707	15568.73
815.036	15626.81
815.365	15521.95
815.693	15436.98
816.022	15477.66
816.351	15389.52
816.68	15285.35
817.008	15387.49
817.337	15240.15
817.665	15321.28
817.994	15297.78
818.322	15231.34
818.651	15160.15
818.979	15129.64
819.307	15182.52
819.636	15156.76
819.964	14975.98
820.292	15008.29
820.62	15003.09
820.948	15038.57
821.276	15046.03
821.604	14910.44
821.932	14971.91
822.259	14920.16
822.587	14860.73
822.915	14879.71
823.243	14991.57
823.57	14903.44
823.898	14966.94
824.225	14854.85
824.553	14900.5
824.88	14917.22
825.207	15037.44
825.535	14858.47
825.862	14923.1
826.189	14890.33
826.516	14984.79
826.843	15007.61
827.17	14872.7
827.497	14976.88
827.824	14936.88
828.151	14895.53
828.478	14939.82
828.805	14923.77
829.131	14817.34
829.458	14886.49
829.785	14837.9
830.111	14851.46
830.438	14963.55
830.764	14862.53
831.09	14851.46
831.417	14735.08
831.743	14850.33
832.069	14858.69
832.395	14793.61
832.722	14796.32
833.048	14750.67
833.374	14754.06
833.7	14730.11
834.026	14780.05
834.351	14728.98
834.677	14690.79
835.003	14735.08
835.329	14674.06
835.654	14655.31
835.98	14606.04
836.306	14642.65
836.631	14538.7
836.956	14585.25
837.282	14603.1
837.607	14434.07
837.932	14452.15
838.258	14436.1
838.583	14415.54
838.908	14433.39
839.233	14375.09
839.558	14335.99
839.883	14289.44
840.208	14292.83
840.533	14327.86
840.858	14265.49
841.182	14288.76
841.507	14278.14
841.832	14157.24
842.156	14158.37
842.481	14160.63
842.805	14164.25
843.13	14118.6
843.454	14050.35
843.778	13960.64
844.103	13949.79
844.427	13930.13
844.751	13921.09
845.075	13887.19
845.399	13913.86
845.723	13758.16
846.047	13765.16
846.371	13604.49
846.695	13665.95
847.019	13599.29
847.343	13496.47
847.666	13452.63
847.99	13345.51
848.313	13331.05
848.637	13314.33
848.96	13249.47
849.284	13225.97
849.607	13163.37
849.931	13064.61
850.254	13030.94
850.577	12914.34
850.9	12810.61
851.223	12915.92
851.546	12723.61
851.869	12661.91
852.192	12742.81
852.515	12660.78
852.838	12642.93
853.161	12579.43
853.483	12534.46
853.806	12378.76
854.129	12410.85
854.451	12376.5
854.774	12228.25
855.096	12300.79
855.419	12280.23
855.741	12274.35
856.063	12112.77
856.385	12214.02
856.708	12089.5
857.03	12095.83
857.352	12091.53
857.674	11937.19
857.996	11979.22
858.318	11889.5
858.64	11925.44
858.961	11903.74
859.283	11795.27
859.605	11757.3
859.926	11810.64
860.248	11802.73
860.57	11741.26
860.891	11788.72
861.212	11698.55
861.534	11572.22
861.855	11626.23
862.176	11633.24
862.498	11581.94
862.819	11508.72
863.14	11513.69
863.461	11475.96
863.782	11445.45
864.103	11464.66
864.424	11416.97
864.745	11516.86
865.065	11313.47
865.386	11286.81
865.707	11324.32
866.027	11272.8
866.348	11258.11
866.668	11293.14
866.989	11245.23
867.309	11222.85
867.63	11147.38
867.95	11152.8
868.27	11047.94
868.59	11116.87
868.91	11134.27
869.23	11135.17
869.55	11067.83
869.87	11133.14
870.19	11106.7
870.51	11030.32
870.83	11082.07
871.15	10990.54
871.469	11044.78
871.789	10977.66
872.109	10979.7
872.428	10932.47
872.748	10949.64
873.067	10941.96
873.386	10962.07
873.706	10877.78
874.025	10812.24
874.344	10798.68
874.663	10806.59
874.982	10781.28
875.301	10733.6
875.62	10705.81
875.939	10684.79
876.258	10721.85
876.577	10599.14
876.896	10691.8
877.214	10616.54
877.533	10556.43
877.852	10638.69
878.17	10637.79
878.489	10614.74
878.807	10616.09
879.125	10579.48
879.444	10553.95
879.762	10516.21
880.08	10447.28
880.398	10450.9
880.716	10494.96
881.034	10480.95
881.352	10348.3
881.67	10370
881.988	10355.98
882.306	10326.38
882.624	10260.39
882.941	10268.3
883.259	10220.17
883.577	10228.76
883.894	10231.69
884.212	10238.7
884.529	10146.72
884.846	10088.42
885.164	10161.87
885.481	10108.99
885.798	10074.18
886.115	10064.24
886.432	10028.76
886.75	10004.13
887.067	10015.2
887.383	9979.27
887.7	9995.99
888.017	9911.25
888.334	9949.44
888.651	9897.69
888.967	9894.53
889.284	9819.95
889.6	9777.92
889.917	9788.09
890.233	9802.55
890.55	9638.94
890.866	9714.42
891.182	9649.34
891.498	9697.02
891.815	9525.5
892.131	9602.78
892.447	9542.45
892.763	9496.8
893.079	9495.22
893.395	9461.09
893.71	9426.97
894.026	9409.12
894.342	9391.94
894.657	9355.11
894.973	9299.97
895.289	9307.2
895.604	9314.2
895.92	9255.22
896.235	9082.35
896.55	9186.98
896.865	9120.31
897.181	9114.89
897.496	9032.18
897.811	9041.9
898.126	9071.27
898.441	8973.87
898.756	8946.08
899.071	8881.45
899.386	8830.38
899.7	8806.2
900.015	8828.12
900.33	8716.93
900.644	8751.96
900.959	8773.65
901.273	8667.67
901.588	8688.46
901.902	8652.07
902.216	8629.02
902.531	8595.13
902.845	8567.78
903.159	8479.88
903.473	8479.42
903.787	8460.44
904.101	8401.46
904.415	8395.36
904.729	8327.11
905.042	8299.09
905.356	8269.03
905.67	8207.57
905.984	8245.08
906.297	8211.86
906.611	8131.86
906.924	8144.29
907.237	8162.82
907.551	8147.46
907.864	8060.45
908.177	8068.36
908.491	8028.81
908.804	7970.28
909.117	7926.22
909.43	7919.89
909.743	7885.09
910.056	7819.78
910.368	7760.12
910.681	7716.05
910.994	7758.99
911.307	7734.81
911.619	7651.2
911.932	7670.41
912.244	7627.47
912.557	7582.27
912.869	7503.18
913.181	7564.19
913.494	7546.12
913.806	7469.51
914.118	7411.43
914.43	7372.56
914.742	7339.57
915.054	7284.65
915.366	7317.87
915.678	7272.68
915.99	7202.17
916.302	7153.13
916.613	7174.6
916.925	7171.44
917.236	7136.18
917.548	7060.48
917.859	7104.54
918.171	7004.43
918.482	7009.18
918.794	7036.98
919.105	6963.98
919.416	6915.62
919.727	6839.47
920.038	6806.02
920.349	6804.67
920.66	6708.62
920.971	6766.25
921.282	6801.95
921.593	6693.26
921.903	6656.65
922.214	6646.03
922.525	6627.5
922.835	6586.59
923.146	6542.3
923.456	6535.29
923.767	6486.03
924.077	6478.57
924.387	6496.65
924.697	6398.8
925.008	6445.58
925.318	6379.59
925.628	6380.5
925.938	6288.75
926.248	6255.08
926.558	6271.35
926.867	6250.78
927.177	6210.56
927.487	6234.96
927.796	6138.47
928.106	6105.48
928.416	6111.8
928.725	6087.17
929.034	6072.03
929.344	6046.95
929.653	6050.79
929.962	5996.33
930.271	5912.49
930.581	5924.01
930.89	5858.25
931.199	5911.81
931.508	5856.89
931.817	5767.4
932.125	5804.47
932.434	5804.24
932.743	5705.03
933.051	5696.22
933.36	5676.79
933.669	5662.1
933.977	5675.43
934.286	5634.75
934.594	5605.38
934.902	5559.73
935.21	5573.29
935.519	5616.22
935.827	5573.96
936.135	5504.59
936.443	5411.48
936.751	5417.36
937.059	5453.97
937.367	5392.5
937.674	5382.56
937.982	5401.54
938.29	5325.61
938.597	5363.35
938.905	5263.69
939.213	5287.64
939.52	5219.17
939.827	5227.53
940.135	5168.1
940.442	5136.46
940.749	5204.26
941.056	5157.25
941.363	5096.91
941.67	5111.15
941.977	5084.48
942.284	5012.17
942.591	5009.23
942.898	5003.58
943.205	4998.61
943.511	4956.35
943.818	4980.53
944.125	4886.07
944.431	4860.31
944.738	4840.42
945.044	4873.42
945.35	4812.63
945.657	4805.17
945.963	4800.2
946.269	4760.43
946.575	4731.05
946.881	4682.46
947.187	4673.2
947.493	4691.5
947.799	4665.06
948.105	4658.51
948.41	4628.45
948.716	4611.73
949.022	4582.58
949.327	4544.16
949.633	4529.47
949.938	4585.52
950.244	4503.71
950.549	4474.33
950.854	4466.65
951.16	4395.92
951.465	4414.67
951.77	4437.72
952.075	4388.68
952.38	4339.65
952.685	4359.08
952.99	4289.25
953.294	4322.02
953.599	4281.57
953.904	4264.62
954.209	4206.09
954.513	4256.26
954.818	4237.73
955.122	4188.92
955.426	4168.8
955.731	4138.52
956.035	4131.52
956.339	4118.63
956.643	4081.35
956.948	4073.66
957.252	4082.93
957.556	4036.38
957.86	4050.61
958.163	4037.28
958.467	4010.16
958.771	3954.12
959.075	3999.77
959.378	3941.92
959.682	3952.76
959.985	3917.06
960.289	3866.21
960.592	3878.87
960.896	3859.88
961.199	3887.23
961.502	3808.81
961.805	3835.7
962.108	3809.72
962.411	3799.77
962.714	3757.97
963.017	3771.98
963.32	3734.24
963.623	3730.85
963.926	3734.46
964.228	3659.66
964.531	3649.95
964.833	3692.88
965.136	3641.36
965.438	3600
965.741	3554.13
966.043	3607.91
966.345	3560.91
966.648	3529.72
966.95	3547.12
967.252	3532.21
967.554	3524.07
967.856	3427.81
968.158	3461.02
968.46	3476.62
968.761	3438.65
969.063	3409.95
969.365	3457.86
969.666	3390.74
969.968	3361.59
970.269	3352.1
970.571	3389.16
970.872	3362.5
971.174	3324.08
971.475	3340.8
971.776	3317.98
972.077	3273.69
972.378	3306.9
972.679	3235.04
972.98	3310.29
973.281	3236.4
973.582	3242.05
973.883	3173.35
974.183	3206.34
974.484	3164.54
974.785	3140.81
975.085	3185.78
975.386	3167.7
975.686	3113.46
975.986	3136.29
976.287	3089.51
976.587	3076.4
976.887	3086.8
977.187	3076.18
977.487	3023.97
977.787	3007.25
978.087	2990.98
978.387	3026.01
978.687	3009.29
978.987	2971.55
979.286	2937.87
979.586	2948.5
979.885	2967.93
980.185	2898.55
980.484	2881.61
980.784	2880.93
981.083	2896.29
981.382	2835.5
981.682	2834.83
981.981	2856.29
982.28	2823.08
982.579	2801.83
982.878	2815.17
983.177	2773.13
983.475	2786.47
983.774	2794.6
984.073	2776.75
984.372	2737.43
984.67	2737.65
984.969	2739.01
985.267	2693.36
985.566	2687.71
985.864	2692.68
986.162	2690.65
986.461	2664.66
986.759	2656.98
987.057	2636.19
987.355	2622.85
987.653	2597.32
987.951	2624.44
988.249	2569.3
988.547	2596.19
988.844	2562.74
989.142	2573.82
989.44	2568.39
989.737	2515.74
990.035	2503.31
990.332	2504.44
990.63	2483.88
990.927	2476.42
991.224	2464.44
991.521	2466.02
991.819	2464.67
992.116	2445.68
992.413	2439.81
992.71	2436.87
993.006	2395.29
993.303	2396.19
993.6	2358.91
993.897	2367.04
994.193	2392.58
994.49	2347.38
994.787	2354.39
995.083	2329.08
995.379	2311.9
995.676	2309.42
995.972	2316.87
996.268	2299.47
996.565	2290.89
996.861	2273.03
997.157	2247.27
997.453	2263.09
997.749	2240.49
998.044	2231
998.34	2199.59
998.636	2204.33
998.932	2167.5
999.227	2184.45
999.523	2190.32
999.818	2140.16
1000.114	2105.35
1000.409	2137.44
1000.704	2120.04
1001	2102.64
1001.295	2087.05
1001.59	2080.04
1001.885	2066.03
1002.18	2038.92
1002.475	2053.15
1002.77	2076.88
1003.065	2031.01
1003.359	2034.62
1003.654	1983.32
1003.949	2030.33
1004.243	1976.77
1004.538	1985.36
1004.832	1954.4
1005.127	1953.27
1005.421	1957.11
1005.715	1954.85
1006.009	1924.34
1006.304	1929.54
1006.598	1889.09
1006.892	1897.22
1007.186	1873.95
1007.48	1870.11
1007.773	1877.56
1008.067	1844.57
1008.361	1869.65
1008.655	1855.87
1008.948	1823.78
1009.242	1786.49
1009.535	1774.06
1009.829	1786.04
1010.122	1764.8
1010.415	1758.7
1010.708	1790.11
1011.001	1727.96
1011.295	1723.22
1011.588	1762.09
1011.881	1712.14
1012.173	1702.43
1012.466	1691.58
1012.759	1691.13
1013.052	1678.7
1013.344	1677.57
1013.637	1635.99
1013.93	1670.34
1014.222	1630.34
1014.514	1621.98
1014.807	1606.16
1015.099	1594.41
1015.391	1604.35
1015.683	1594.41
1015.976	1594.41
1016.268	1546.27
1016.56	1550.11
1016.851	1549.66
1017.143	1537.46
1017.435	1525.93
1017.727	1510.12
1018.018	1514.41
1018.31	1503.11
1018.602	1500.85
1018.893	1501.75
1019.185	1486.16
1019.476	1468.99
1019.767	1475.54
1020.058	1443.45
1020.35	1440.51
1020.641	1413.4
1020.932	1424.02
1021.223	1420.4
1021.514	1411.14
1021.804	1401.42
1022.095	1376.11
1022.386	1372.94
1022.677	1379.05
1022.967	1376.11
1023.258	1361.19
1023.548	1320.29
1023.839	1335.66
1024.129	1320.29
1024.419	1297.92
1024.709	1315.77
1025	1289.56
1025.29	1287.07
1025.58	1296.79
1025.87	1272.83
1026.16	1271.25
1026.449	1258.37
1026.739	1249.56
1027.029	1256.56
1027.319	1245.94
1027.608	1226.28
1027.898	1243.23
1028.187	1213.85
1028.477	1188.09
1028.766	1211.82
1029.055	1174.31
1029.344	1206.17
1029.634	1183.12
1029.923	1166.4
1030.212	1185.15
1030.501	1158.94
1030.79	1129.11
1031.078	1126.62
1031.367	1139.73
1031.656	1118.49
1031.945	1095.44
1032.233	1137.92
1032.522	1102.67
1032.81	1094.53
1033.099	1099.28
1033.387	1099.28
1033.675	1087.53
1033.963	1059.96
1034.251	1060.41
1034.54	1056.12
1034.828	1051.82
1035.116	1043.69
1035.403	1038.26
1035.691	1039.85
1035.979	998.04
1036.267	1011.6
1036.554	992.62
1036.842	992.16
1037.129	967.31
1037.417	983.58
1037.704	959.17
1037.992	953.75
1038.279	967.53
1038.566	974.31
1038.853	974.31
1039.14	974.31
