Data from hue_10_FLMS001491_56.txt Node
Date: Mon Feb 06 15:32:09 GMT 2017
User: dcchb
Spectrometer: FLMS00149
Trigger mode: 0
Integration Time (sec): 2.000000E-2
Scans to average: 10
Electric dark correction enabled: true
Nonlinearity correction enabled: false
Boxcar width: 0
XAxis mode: Wavelengths
Number of Pixels in Spectrum: 2048
>>>>>Begin Spectral Data<<<<<
341.393	-4.72
341.776	-4.72
342.16	-4.72
342.543	-76.13
342.927	-70.48
343.31	-75.45
343.693	-97.37
344.077	-53.76
344.46	-56.24
344.843	-51.04
345.226	-40.2
345.61	-48.78
345.993	-44.04
346.376	-20.76
346.759	1.16
347.142	46.13
347.525	37.77
347.908	65.11
348.291	99.46
348.674	89.97
349.057	148.05
349.44	133.36
349.823	142.85
350.206	169.97
350.588	176.75
350.971	204.77
351.354	222.62
351.737	224.88
352.119	220.59
352.502	270.3
352.884	255.61
353.267	259.68
353.65	276.63
354.032	300.36
354.414	314.37
354.797	317.76
355.179	320.25
355.562	330.64
355.944	325.67
356.326	341.49
356.709	317.76
357.091	313.01
357.473	338.32
357.855	351.66
358.238	339.91
358.62	346.91
359.002	346.69
359.384	333.58
359.766	334.71
360.148	323.86
360.53	335.84
360.912	331.09
361.294	342.62
361.676	346.91
362.057	339.45
362.439	334.03
362.821	307.82
363.203	320.47
363.584	321.83
363.966	317.31
364.348	321.6
364.729	347.59
365.111	321.6
365.493	317.76
365.874	306.01
366.256	327.7
366.637	315.73
367.019	317.76
367.4	317.31
367.781	315.95
368.163	284.31
368.544	299.91
368.925	290.64
369.306	334.48
369.688	316.18
370.069	301.26
370.45	297.2
370.831	321.83
371.212	313.47
371.593	316.86
371.974	306.01
372.355	297.87
372.736	323.41
373.117	313.24
373.498	330.64
373.879	306.23
374.26	307.36
374.641	315.27
375.021	307.14
375.402	304.2
375.783	295.16
376.163	321.15
376.544	318.66
376.925	306.23
377.305	312.34
377.686	309.62
378.066	311.88
378.447	323.41
378.827	336.97
379.208	320.7
379.588	328.61
379.968	322.05
380.349	322.28
380.729	323.86
381.109	323.41
381.489	358.44
381.87	327.03
382.25	327.7
382.63	333.58
383.01	353.01
383.39	331.32
383.77	338.55
384.15	330.64
384.53	331.32
384.91	337.65
385.29	322.05
385.67	333.35
386.049	358.44
386.429	348.27
386.809	349.62
387.189	346.01
387.568	340.13
387.948	346.01
388.328	327.7
388.707	332
389.087	348.27
389.466	348.49
389.846	350.75
390.225	359.34
390.605	344.2
390.984	344.88
391.363	338.32
391.743	338.55
392.122	365.67
392.501	346.91
392.881	358.89
393.26	362.96
393.639	388.27
394.018	361.37
394.397	369.74
394.776	375.61
395.155	379.23
395.534	355.05
395.913	351.66
396.292	363.41
396.671	360.02
397.05	382.84
397.429	371.09
397.808	371.54
398.186	360.92
398.565	377.19
398.944	374.03
399.323	386.46
399.701	370.87
400.08	375.84
400.458	382.39
400.837	394.59
401.215	376.52
401.594	377.87
401.972	368.15
402.351	379.91
402.729	389.62
403.107	372
403.486	381.71
403.864	392.56
404.242	382.39
404.62	404.09
404.999	390.07
405.377	401.37
405.755	406.35
406.133	402.05
406.511	401.6
406.889	403.41
407.267	412.9
407.645	412.45
408.023	413.12
408.401	409.51
408.779	415.84
409.156	411.54
409.534	411.99
409.912	412.22
410.29	411.99
410.667	428.72
411.045	436.63
411.422	449.06
411.8	417.19
412.178	427.36
412.555	437.98
412.933	460.36
413.31	439.11
413.687	450.64
414.065	430.3
414.442	447.25
414.819	444.54
415.197	466.68
415.574	445.21
415.951	428.04
416.328	471.2
416.705	457.64
417.082	470.3
417.46	447.25
417.837	464.42
418.214	459.68
418.591	468.72
418.967	480.47
419.344	485.44
419.721	495.83
420.098	480.24
420.475	496.51
420.852	466.68
421.228	505.1
421.605	481.37
421.982	487.25
422.358	494.25
422.735	499.9
423.111	506.46
423.488	509.62
423.864	510.07
424.241	501.48
424.617	516.62
424.994	491.99
425.37	538.09
425.746	513.46
426.123	510.3
426.499	545.78
426.875	561.14
427.251	522.27
427.627	532.9
428.003	540.13
428.379	542.16
428.756	545.78
429.132	551.2
429.507	569.05
429.883	549.39
430.259	563.4
430.635	560.01
431.011	572.22
431.387	562.05
431.763	572.67
432.138	599.56
432.514	591.65
432.89	604.98
433.265	583.06
433.641	616.96
434.016	602.05
434.392	615.83
434.767	635.49
435.143	604.98
435.518	609.05
435.894	625.32
436.269	635.27
436.644	655.38
437.02	643.85
437.395	653.8
437.77	653.34
438.145	640.46
438.52	649.05
438.895	665.77
439.271	664.64
439.646	688.82
440.021	676.17
440.395	666
440.77	679.11
441.145	658.32
441.52	670.97
441.895	688.37
442.27	713
442.645	703.51
443.019	698.77
443.394	706.22
443.769	709.61
444.143	720.69
444.518	712.78
444.892	708.94
445.267	724.08
445.641	710.52
446.016	717.07
446.39	735.6
446.764	728.82
447.139	741.48
447.513	741.48
447.887	757.07
448.262	727.69
448.636	749.39
449.01	782.61
449.384	790.29
449.758	753
450.132	772.66
450.506	771.08
450.88	788.26
451.254	774.7
451.628	772.89
452.002	809.72
452.376	787.13
452.75	782.61
453.123	795.26
453.497	803.4
453.871	793.23
454.244	836.16
454.618	836.39
454.992	862.15
455.365	862.38
455.739	861.47
456.112	870.29
456.486	872.1
456.859	876.16
457.232	903.73
457.606	878.42
457.979	873.68
458.352	908.48
458.725	932.66
459.099	902.6
459.472	941.7
459.845	936.05
460.218	948.03
460.591	957.97
460.964	961.58
461.337	974.01
461.71	980.34
462.083	1020.79
462.456	1023.96
462.829	1000.68
463.201	990.06
463.574	1017.4
463.947	1031.19
464.32	1066.67
464.692	1065.08
465.065	1059.21
465.438	1079.77
465.81	1106.44
466.183	1071.86
466.555	1124.29
466.928	1123.16
467.3	1149.83
467.672	1153.22
468.045	1170.39
468.417	1183.95
468.789	1169.26
469.161	1189.83
469.534	1218.3
469.906	1240
470.278	1254.68
470.65	1241.35
471.022	1263.27
471.394	1307.56
471.766	1291.52
472.138	1310.5
472.51	1350.73
472.882	1362.93
473.253	1377.62
473.625	1401.12
473.997	1447.45
474.369	1404.74
474.74	1456.49
475.112	1494.68
475.484	1494.45
475.855	1499.2
476.227	1544.62
476.598	1593.88
476.97	1584.39
477.341	1622.58
477.713	1650.15
478.084	1660.78
478.455	1711.85
478.827	1741.45
479.198	1777.38
479.569	1799.75
479.94	1835.46
480.311	1858.28
480.682	1885.4
481.053	1911.84
481.424	1965.4
481.795	1966.3
482.166	2048.79
482.537	2062.35
482.908	2124.49
483.279	2138.96
483.65	2188.22
484.021	2224.38
484.391	2234.77
484.762	2271.61
485.133	2302.11
485.503	2299.85
485.874	2362.68
486.244	2399.51
486.615	2441.77
486.985	2480.87
487.356	2533.29
487.726	2573.29
488.097	2626.4
488.467	2602.9
488.837	2686.29
489.207	2691.93
489.578	2761.54
489.948	2812.16
490.318	2801.76
490.688	2842.21
491.058	2889.44
491.428	2925.83
491.798	2975.54
492.168	3030.46
492.538	3051.7
492.908	3070.91
493.278	3141.19
493.648	3158.36
494.017	3186.61
494.387	3223.22
494.757	3216.67
495.126	3233.62
495.496	3311.13
495.866	3358.13
496.235	3360.84
496.605	3392.48
496.974	3429.54
497.344	3443.1
497.713	3450.33
498.082	3535.53
498.452	3544.34
498.821	3586.6
499.19	3553.38
499.559	3629.54
499.928	3622.53
500.298	3669.08
500.667	3713.15
501.036	3676.32
501.405	3718.35
501.774	3721.96
502.143	3773.49
502.512	3796.31
502.88	3826.82
503.249	3859.81
503.618	3870.43
503.987	3867.5
504.356	3921.51
504.724	3914.05
505.093	3932.58
505.462	3920.38
505.83	3948.4
506.199	3982.97
506.567	4057.32
506.936	4056.64
507.304	4091.45
507.672	4077.44
508.041	4120.37
508.409	4123.76
508.777	4157.66
509.145	4201.5
509.514	4165.34
509.882	4241.5
510.25	4239.46
510.618	4280.82
510.986	4260.26
511.354	4263.87
511.722	4307.26
512.09	4328.95
512.458	4361.72
512.826	4358.11
513.193	4378.22
513.561	4415.96
513.929	4380.93
514.297	4450.31
514.664	4454.6
515.032	4459.35
515.4	4514.26
515.767	4510.42
516.135	4528.72
516.502	4543.86
516.869	4638.32
517.237	4622.05
517.604	4593.81
517.972	4655.95
518.339	4620.47
518.706	4696.18
519.073	4641.94
519.44	4665.67
519.808	4747.25
520.175	4758.77
520.542	4800.13
520.909	4764.87
521.276	4775.04
521.643	4822.05
522.009	4895.94
522.376	4895.04
522.743	4902.27
523.11	4856.62
523.477	4935.27
523.843	4993.57
524.21	5040.12
524.577	4983.17
524.943	5053
525.31	5056.39
525.676	5110.63
526.043	5156.95
526.409	5197.41
526.776	5233.56
527.142	5234.24
527.508	5189.95
527.874	5241.92
528.241	5303.17
528.607	5325.31
528.973	5354.46
529.339	5363.5
529.705	5389.49
530.071	5454.35
530.437	5455.03
530.803	5519.21
531.169	5514.46
531.535	5524.85
531.901	5508.13
532.267	5569.6
532.632	5639.2
532.998	5622.25
533.364	5651.41
533.73	5684.85
534.095	5695.7
534.461	5717.39
534.826	5726.88
535.192	5782.48
535.557	5780.44
535.923	5859.99
536.288	5835.13
536.653	5871.29
537.019	5875.13
537.384	5893.43
537.749	5921.23
538.114	5937.5
538.479	5963.04
538.845	5945.18
539.21	5967.33
539.575	5988.8
539.94	6024.95
540.305	6049.13
540.67	6096.14
541.034	6149.7
541.399	6128.68
541.764	6135.01
542.129	6230.6
542.494	6182.01
542.858	6257.49
543.223	6251.62
543.587	6264.95
543.952	6254.55
544.316	6316.02
544.681	6295.46
545.045	6337.71
545.41	6412.52
545.774	6434.44
546.138	6437.37
546.503	6414.32
546.867	6477.6
547.231	6600.08
547.595	6574.32
547.959	6585.84
548.324	6553.53
548.688	6625.16
549.052	6656.58
549.416	6636.69
549.779	6647.09
550.143	6722.11
550.507	6742.9
550.871	6725.73
551.235	6797.82
551.599	6778.83
551.962	6811.37
552.326	6861.99
552.689	6876.01
553.053	6804.82
553.417	6863.8
553.78	6913.97
554.143	6886.4
554.507	6939.51
554.87	6981.31
555.234	7038.94
555.597	7030.35
555.96	7035.55
556.323	7050.69
556.686	7084.36
557.05	7145.83
557.413	7156
557.776	7175.66
558.139	7199.84
558.502	7196.22
558.865	7273.06
559.228	7233.06
559.59	7332.04
559.953	7262.89
560.316	7372.49
560.679	7375.2
561.041	7369.1
561.404	7438.48
561.767	7426.73
562.129	7452.71
562.492	7511.02
562.854	7501.3
563.217	7583.33
563.579	7598.92
563.941	7620.62
564.304	7642.31
564.666	7645.7
565.028	7683.44
565.39	7755.3
565.753	7775.19
566.115	7741.07
566.477	7822.65
566.839	7807.05
567.201	7866.26
567.563	7846.83
567.925	7901.52
568.287	7878.01
568.648	7896.54
569.01	7969.54
569.372	8056.31
569.734	8040.49
570.095	8100.15
570.457	8184.9
570.819	8166.59
571.18	8150.77
571.542	8250.43
571.903	8246.14
572.265	8295.63
572.626	8323.65
572.987	8380.37
573.349	8398
573.71	8473.7
574.071	8425.34
574.432	8547.6
574.794	8693.81
575.155	8656.98
575.516	8658.56
575.877	8730.65
576.238	8794.83
576.599	8862.62
576.96	8870.53
577.32	9010.64
577.681	9064.87
578.042	9146.91
578.403	9162.5
578.763	9215.61
579.124	9339.9
579.485	9413.57
579.845	9529.27
580.206	9559.32
580.566	9789.6
580.927	9812.2
581.287	9920.9
581.648	10011.52
582.008	10118.86
582.368	10241.11
582.728	10383.03
583.089	10537.38
583.449	10635.45
583.809	10798.61
584.169	10943.02
584.529	11057.59
584.889	11345.49
585.249	11402.89
585.609	11483.34
585.969	11682.21
586.329	11854.18
586.688	12116.09
587.048	12240.16
587.408	12496.2
587.768	12653.71
588.127	12831.1
588.487	13028.39
588.846	13232.67
589.206	13460.92
589.565	13727.12
589.925	13920.34
590.284	14125.98
590.643	14424.51
591.003	14723.26
591.362	14914.21
591.721	15130.25
592.08	15344.94
592.44	15677.36
592.799	15977.46
593.158	16057.69
593.517	16370.67
593.876	16675.75
594.235	16825.12
594.593	17060.37
594.952	17390.53
595.311	17692.44
595.67	17992.55
596.029	18280.45
596.387	18636.15
596.746	18896.71
597.104	19015.8
597.463	19348.22
597.822	19791.82
598.18	19856.91
598.538	20137.35
598.897	20539.38
599.255	20554.97
599.613	21154.05
599.972	21296.42
600.33	21666.13
600.688	21736.63
601.046	22100.69
601.404	22516.5
601.762	22569.38
602.12	22981.12
602.478	23169.14
602.836	23559.41
603.194	23612.06
603.552	23902.45
603.91	24023.8
604.268	24449.55
604.625	24593.05
604.983	24951.24
605.341	25018.81
605.698	25377.67
606.056	25742.63
606.413	25866.01
606.771	26098.33
607.128	26463.29
607.485	26497.18
607.843	26780.34
608.2	27046.32
608.557	27389.14
608.914	27429.59
609.272	27816.02
609.629	28028.9
609.986	28319.74
610.343	28400.64
610.7	28698.26
611.057	28813.28
611.414	28880.85
611.771	29174.63
612.127	29391.35
612.484	29529.65
612.841	29817.1
613.198	29907.72
613.554	30006.02
613.911	30461.6
614.267	30549.51
614.624	30656.62
614.98	30826.56
615.337	31134.35
615.693	31209.6
616.05	31303.16
616.406	31576.37
616.762	31654.11
617.118	31897.95
617.475	32002.12
617.831	32208.67
618.187	32141.78
618.543	32389.69
618.899	32664.48
619.255	32617.25
619.611	32781.54
619.967	32917.13
620.323	33051.14
620.678	33052.04
621.034	33142.43
621.39	33098.37
621.746	33267.85
622.101	33685.02
622.457	33726.37
622.812	33770.67
623.168	34025.35
623.523	33961.85
623.879	34149.41
624.234	34019.02
624.589	34232.57
624.945	34379.69
625.3	34489.52
625.655	34612
626.01	34593.69
626.365	34641.6
626.72	34706.69
627.075	34743.07
627.43	34732.67
627.785	34706.91
628.14	34900.81
628.495	34932.67
628.85	34960.24
629.205	34920.47
629.559	35115.26
629.914	34952.56
630.269	35023.06
630.623	35092.66
630.978	35106.45
631.332	35253.79
631.687	35457.63
632.041	35367.23
632.396	35322.04
632.75	35301.47
633.104	35323.39
633.459	35254.02
633.813	35379.66
634.167	35408.14
634.521	35321.81
634.875	35409.04
635.229	35351.64
635.583	35373.34
635.937	35310.29
636.291	35357.52
636.645	35447.46
636.999	35381.47
637.352	35393.45
637.706	35259.21
638.06	35540.79
638.413	35336.05
638.767	35395.03
639.121	35444.75
639.474	35223.73
639.828	35230.29
640.181	35414.24
640.534	35419.89
640.888	35148.48
641.241	35120.69
641.594	35281.36
641.947	35297.86
642.301	35187.35
642.654	35355.03
643.007	35217.18
643.36	35197.29
643.713	35307.35
644.066	35361.81
644.419	35220.35
644.771	34979.67
645.124	34530.42
645.477	34707.14
645.83	34335.17
646.182	34300.6
646.535	34233.03
646.888	34293.59
647.24	34208.62
647.593	34247.94
647.945	34346.47
648.298	34085.46
648.65	34082.3
649.002	33956.42
649.355	34062.18
649.707	34077.1
650.059	34212.69
650.411	34570.42
650.763	34734.71
651.115	35066.22
651.467	34941.71
651.819	34903.52
652.171	34866
652.523	34730.87
652.875	34809.28
653.227	34704.88
653.578	34964.53
653.93	34875.27
654.282	34537.43
654.633	34613.36
654.985	34749.62
655.337	34665.78
655.688	34661.72
656.039	34681.38
656.391	34478.9
656.742	34570.42
657.094	34472.12
657.445	34647.48
657.796	34631.43
658.147	34538.56
658.498	34598.89
658.849	34583.3
659.2	34611.32
659.551	34476.64
659.902	34586.69
660.253	34542.17
660.604	34651.09
660.955	34379.46
661.306	34534.26
661.656	34469.18
662.007	34440.93
662.358	34493.13
662.708	34571.32
663.059	34588.95
663.409	34216.98
663.76	34530.65
664.11	34456.3
664.461	34488.16
664.811	34485
665.161	34454.26
665.511	34414.04
665.862	34422.63
666.212	34563.41
666.562	34475.73
666.912	34400.93
667.262	34441.38
667.612	34326.58
667.962	34425.34
668.312	34355.28
668.662	34533.58
669.011	34425.11
669.361	34407.03
669.711	34374.72
670.06	34328.17
670.41	34296.08
670.76	34223.54
671.109	34482.74
671.459	34420.37
671.808	34153.93
672.157	34376.53
672.507	33962.98
672.856	34158
673.205	34237.32
673.554	34277.55
673.904	34080.26
674.253	34397.09
674.602	34075.52
674.951	33549.88
675.3	33479.37
675.649	34084.56
675.998	34065.8
676.346	34207.04
676.695	34212.69
677.044	33772.93
677.393	34097.44
677.741	34028.29
678.09	34039.59
678.438	33862.87
678.787	34009.53
679.135	33846.37
679.484	33702.64
679.832	34010.89
680.181	33670.56
680.529	33740.61
680.877	33652.48
681.225	33705.81
681.573	33906.93
681.922	33471.92
682.27	33399.83
682.618	33463.33
682.966	33438.02
683.314	33485.25
683.661	33289.77
684.009	33250.68
684.357	33186.73
684.705	33116.9
685.053	33143.34
685.4	33074.41
685.748	33011.14
686.095	32947.41
686.443	32845.49
686.79	32795.32
687.138	32906.06
687.485	32912.16
687.832	32759.84
688.18	32697.47
688.527	32651.37
688.874	32494.09
689.221	32500.42
689.568	32358.27
689.915	32431.72
690.262	32478.5
690.609	32198.96
690.956	32125.29
691.303	32069.24
691.65	31961
691.997	31930.26
692.344	31712.87
692.69	31745.86
693.037	31812.75
693.383	31622.25
693.73	31581.8
694.077	31435.36
694.423	31427.22
694.769	31369.82
695.116	31257.29
695.462	31091.87
695.808	31185.42
696.155	31168.47
696.501	30953.34
696.847	30917.63
697.193	30688.26
697.539	30732.33
697.885	30725.32
698.231	30527.36
698.577	30504.54
698.923	30468.61
699.269	30348.38
699.614	30194.26
699.96	30129.63
700.306	30269.97
700.651	30052.57
700.997	29940.26
701.342	29932.35
701.688	29930.09
702.033	29764.9
702.379	29645.8
702.724	29580.27
703.069	29667.5
703.415	29304.57
703.76	29407.84
704.105	29318.81
704.45	29205.36
704.795	29078.81
705.14	29031.58
705.485	28930.57
705.83	28797.92
706.175	28888.31
706.52	28860.29
706.865	28651.93
707.209	28734.41
707.554	28592.27
707.899	28706.39
708.243	28625.04
708.588	28594.53
708.932	28368.55
709.277	28256.01
709.621	28243.35
709.966	28112.74
710.31	28195.9
710.654	27857.15
710.998	27913.42
711.342	27986.86
711.687	27877.04
712.031	27783.03
712.375	27590.72
712.719	27860.31
713.063	27710.03
713.407	27823.7
713.75	27504.39
714.094	27618.06
714.438	27446.99
714.782	27548
715.125	27463.71
715.469	27484.73
715.812	27252.19
716.156	27014.46
716.499	27194.57
716.843	27058.07
717.186	26975.14
717.53	27009.04
717.873	27059.66
718.216	27001.13
718.559	26895.59
718.902	26667.12
719.246	26767.23
719.589	26614.7
719.932	26642.27
720.275	26471.2
720.617	26494.47
720.96	26491.31
721.303	26498.54
721.646	26481.37
721.989	26284.31
722.331	26298.77
722.674	26300.58
723.016	26284.31
723.359	26334.03
723.701	26244.31
724.044	26031.89
724.386	25910.99
724.729	26138.1
725.071	25938.1
725.413	26028.5
725.755	25990.53
726.097	25988.05
726.439	25777.2
726.782	25811.55
727.124	25803.87
727.465	25786.02
727.807	25746.7
728.149	25644.55
728.491	25636.42
728.833	25557.1
729.175	25581.28
729.516	25374.73
729.858	25391.9
730.199	25372.92
730.541	25309.65
730.882	25333.6
731.224	25332.92
731.565	25168.41
731.906	25183.09
732.248	25236.88
732.589	25084.79
732.93	24913.72
733.271	25101.52
733.612	25050.44
733.953	25096.32
734.294	24919.6
734.635	24895.87
734.976	24890.9
735.317	24759.83
735.658	24842.99
735.999	24838.7
736.339	24765.7
736.68	24802.09
737.021	24718.02
737.361	24628.76
737.702	24771.81
738.042	24760.96
738.383	24586.05
738.723	24671.24
739.063	24579.49
739.404	24652.04
739.744	24499.05
740.084	24414.3
740.424	24406.62
740.764	24421.76
741.104	24516.45
741.444	24264.7
741.784	24321.87
742.124	24159.39
742.464	24215.66
742.804	24089.11
743.143	24106.97
743.483	24089.11
743.823	23973.64
744.162	23971.15
744.502	23980.41
744.841	23959.17
745.181	24027.87
745.52	23842.57
745.86	23962.11
746.199	23757.37
746.538	23830.59
746.877	23904.94
747.216	23822.68
747.556	23765.51
747.895	23715.11
748.234	23757.14
748.573	23637.82
748.911	23727.77
749.25	23621.55
749.589	23447.55
749.928	23502.46
750.267	23520.77
750.605	23511.27
750.944	23380.2
751.283	23290.94
751.621	23305.86
751.96	23111.51
752.298	23168.23
752.636	23188.35
752.975	23104.05
753.313	23045.98
753.651	23121.91
753.989	22947
754.327	22955.13
754.666	22836.72
755.004	22933.21
755.342	22873.55
755.679	22868.13
756.017	22824.96
756.355	22730.28
756.693	22641.69
757.031	22752.42
757.368	22620.22
757.706	22643.5
758.044	22457.74
758.381	22565.99
758.719	22539.32
759.056	22536.61
759.394	22339.1
759.731	22256.39
760.068	22223.17
760.405	22205.32
760.743	22176.85
761.08	22206.45
761.417	21988.83
761.754	21902.73
762.091	21993.57
762.428	21821.6
762.765	21585.68
763.102	21774.6
763.438	21610.99
763.775	21563.76
764.112	21541.61
764.449	21581.16
764.785	21373.25
765.122	21237.44
765.458	21203.99
765.795	21118.57
766.131	21232.69
766.467	21123.31
766.804	20985.69
767.14	20907.5
767.476	20938.46
767.812	20757.45
768.148	20773.27
768.485	20685.13
768.821	20514.29
769.157	20645.14
769.492	20533.27
769.828	20442.43
770.164	20317.91
770.5	20302.55
770.836	20273.39
771.171	20164.7
771.507	20081.08
771.842	19983.68
772.178	19931.48
772.513	19839.96
772.849	19838.38
773.184	19807.64
773.519	19769.68
773.855	19701.88
774.19	19530.81
774.525	19573.07
774.86	19496.46
775.195	19463.47
775.53	19352.74
775.865	19177.6
776.2	19099.19
776.535	18969.7
776.87	18933.32
777.205	18909.81
777.539	18776.94
777.874	18839.98
778.209	18713.21
778.543	18641.8
778.878	18519.32
779.212	18564.51
779.547	18411.75
779.881	18529.48
780.215	18333.33
780.55	18337.63
780.884	18093.79
781.218	18188.48
781.552	18103.73
781.886	18049.27
782.22	17941.48
782.554	17811.99
782.888	17694.7
783.222	17662.61
783.556	17584.65
783.889	17510.3
784.223	17497.65
784.557	17411.1
784.89	17428.95
785.224	17434.82
785.557	17355.96
785.891	17192.8
786.224	17257.2
786.558	17197.32
786.891	17068.51
787.224	16981.95
787.557	16943.09
787.891	16867.83
788.224	16891.79
788.557	16907.83
788.89	16774.05
789.223	16710.78
789.556	16646.6
789.888	16587.84
790.221	16433.27
790.554	16452.93
790.887	16420.39
791.219	16375.19
791.552	16297
791.884	16150.56
792.217	16087.74
792.549	16134.29
792.882	16024.01
793.214	15915.32
793.546	15916.9
793.879	15873.51
794.211	15713.06
794.543	15764.13
794.875	15697.92
795.207	15757.35
795.539	15657.24
795.871	15587.42
796.203	15522.56
796.535	15410.92
796.867	15399.4
797.198	15327.08
797.53	15328.44
797.862	15292.51
798.193	15230.14
798.525	15163.25
798.856	15221.32
799.188	14985.85
799.519	14945.62
799.85	14910.82
800.182	14920.31
800.513	14960.31
800.844	14708.79
801.175	14774.78
801.506	14815.23
801.837	14727.32
802.168	14692.3
802.499	14581.79
802.83	14577.5
803.161	14502.02
803.491	14517.39
803.822	14530.27
804.153	14443.94
804.483	14379.54
804.814	14371.85
805.145	14254.34
805.475	14242.59
805.805	14211.86
806.136	14169.83
806.466	14121.92
806.796	14025.2
807.126	13987.01
807.457	13917.85
807.787	13929.38
808.117	13869.95
808.447	13879.89
808.777	13864.52
809.107	13705.43
809.436	13687.13
809.766	13732.32
810.096	13772.55
810.426	13632.21
810.755	13631.99
811.085	13586.79
811.414	13554.7
811.744	13497.07
812.073	13435.83
812.403	13391.09
812.732	13408.94
813.061	13402.16
813.39	13332.56
813.719	13371.88
814.049	13365.55
814.378	13210.3
814.707	13174.15
815.036	13147.71
815.365	13092.57
815.693	13072.68
816.022	13012.79
816.351	12924.43
816.68	12795.85
817.008	12990.2
817.337	12786.81
817.665	12778.22
817.994	12894.6
818.322	12880.59
818.651	12780.03
818.979	12731.67
819.307	12655.06
819.636	12728.28
819.964	12628.4
820.292	12665.68
820.62	12672.01
820.948	12547.49
821.276	12672.69
821.604	12575.74
821.932	12579.81
822.259	12626.14
822.587	12446.48
822.915	12596.99
823.243	12576.65
823.57	12507.27
823.898	12532.35
824.225	12462.53
824.553	12488.97
824.88	12460.72
825.207	12508.85
825.535	12503.88
825.862	12521.28
826.189	12452.81
826.516	12562.41
826.843	12578.91
827.17	12587.04
827.497	12536.87
827.824	12542.3
828.151	12564.67
828.478	12482.64
828.805	12587.27
829.131	12492.13
829.458	12485.12
829.785	12439.02
830.111	12481.51
830.438	12490.77
830.764	12492.13
831.09	12466.14
831.417	12409.42
831.743	12424.79
832.069	12439.25
832.395	12425.69
832.722	12446.25
833.048	12449.42
833.374	12321.51
833.7	12325.81
834.026	12322.64
834.351	12400.15
834.677	12347.95
835.003	12419.14
835.329	12318.57
835.654	12307.05
835.98	12229.09
836.306	12305.92
836.631	12199.26
836.956	12295.3
837.282	12214.62
837.607	12081.74
837.932	12182.08
838.258	12149.31
838.583	12119.48
838.908	12087.39
839.233	12084.46
839.558	12056.21
839.883	12031.12
840.208	12059.6
840.533	11957.91
840.858	11950.67
841.182	11945.25
841.507	11931.47
841.832	11890.34
842.156	11919.04
842.481	11846.72
842.805	11880.17
843.13	11849.43
843.454	11794.52
843.778	11817.8
844.103	11689.89
844.427	11703.22
844.751	11683.79
845.075	11628.88
845.399	11613.96
845.723	11587.29
846.047	11555.2
846.371	11424.13
846.695	11512.95
847.019	11342.33
847.343	11344.81
847.666	11259.17
847.99	11225.04
848.313	11248.09
848.637	11231.15
848.96	11152.05
849.284	11058.72
849.607	11086.06
849.931	10941.89
850.254	10935.79
850.577	10879.52
850.9	10796.58
851.223	10815.11
851.546	10750.93
851.869	10719.52
852.192	10707.09
852.515	10666.19
852.838	10567.66
853.161	10608.11
853.483	10494.22
853.806	10495.35
854.129	10465.29
854.451	10409.92
854.774	10422.58
855.096	10424.84
855.419	10278.18
855.741	10325.63
856.063	10225.07
856.385	10171.96
856.708	10201.34
857.03	10237.95
857.352	10167.9
857.674	10060.33
857.996	10123.38
858.318	9992.08
858.64	10022.14
858.961	10004.96
859.283	9886.77
859.605	9936.72
859.926	9959.54
860.248	9895.36
860.57	9810.17
860.891	9833.44
861.212	9804.97
861.534	9790.28
861.855	9767
862.176	9749.6
862.498	9737.85
862.819	9784.4
863.14	9687.01
863.461	9646.33
863.782	9613.79
864.103	9661.47
864.424	9566.33
864.745	9638.64
865.065	9616.72
865.386	9589.83
865.707	9544.41
866.027	9526.56
866.348	9542.83
866.668	9390.97
866.989	9423.28
867.309	9429.84
867.63	9468.71
867.95	9363.85
868.27	9311.42
868.59	9380.12
868.91	9386
869.23	9456.28
869.55	9253.57
869.87	9336.51
870.19	9314.36
870.51	9295.38
870.83	9322.49
871.15	9177.87
871.469	9207.47
871.789	9282.5
872.109	9184.42
872.428	9141.48
872.748	9117.75
873.067	9193.23
873.386	9150.97
873.706	9135.83
874.025	9093.8
874.344	9069.17
874.663	9125.21
874.982	9060.35
875.301	9043.86
875.62	8969.28
875.939	9047.47
876.258	9032.33
876.577	8961.6
876.896	8984.42
877.214	9037.08
877.533	8908.04
877.852	8917.31
878.17	8946.23
878.489	9005.22
878.807	8913.01
879.125	8864.65
879.444	8890.19
879.762	8854.26
880.08	8835.28
880.398	8847.71
880.716	8863.52
881.034	8780.36
881.352	8798.89
881.67	8777.88
881.988	8815.16
882.306	8670.08
882.624	8710.76
882.941	8711.44
883.259	8635.96
883.577	8615.39
883.894	8573.59
884.212	8621.04
884.529	8614.27
884.846	8480.48
885.164	8555.74
885.481	8519.58
885.798	8547.83
886.115	8465.57
886.432	8416.3
886.75	8396.19
887.067	8436.42
887.383	8376.76
887.7	8395.06
888.017	8340.83
888.334	8389.86
888.651	8270.77
888.967	8354.61
889.284	8278.68
889.6	8231
889.917	8197.55
890.233	8208.4
890.55	8117.33
890.866	8211.34
891.182	8135.41
891.498	8155.97
891.815	8107.84
892.131	8086.82
892.447	8018.57
892.763	7999.37
893.079	8025.35
893.395	7974.73
893.71	7954.4
894.026	7979.25
894.342	7877.56
894.657	7844.12
894.973	7848.18
895.289	7817.68
895.604	7801.41
895.92	7791.69
896.235	7743.1
896.55	7736.77
896.865	7749.2
897.181	7640.73
897.496	7704.01
897.811	7593.27
898.126	7566.61
898.441	7531.81
898.756	7578.13
899.071	7492.94
899.386	7503.56
899.7	7392.83
900.015	7369.78
900.33	7376.11
900.644	7373.62
900.959	7403.68
901.273	7287.52
901.588	7324.58
901.902	7298.37
902.216	7250.69
902.531	7199.16
902.845	7232.83
903.159	7131.59
903.473	7051.14
903.787	7046.62
904.101	7058.15
904.415	7049.56
904.729	7023.12
905.042	6990.58
905.356	6934.99
905.67	6952.39
905.984	6964.36
906.297	6903.12
906.611	6901.54
906.924	6852.96
907.237	6819.28
907.551	6790.58
907.864	6767.76
908.177	6790.36
908.491	6707.87
908.804	6687.76
909.117	6659.51
909.43	6612.06
909.743	6605.5
910.056	6614.77
910.368	6575
910.681	6544.94
910.994	6507.65
911.307	6512.17
911.619	6415.68
911.932	6489.12
912.244	6386.08
912.557	6382.01
912.869	6399.41
913.181	6382.91
913.494	6305.63
913.806	6299.75
914.118	6283.48
914.43	6242.8
914.742	6207.1
915.054	6187.44
915.366	6196.02
915.678	6159.87
915.99	6102.69
916.302	6070.83
916.613	6062.24
916.925	6047.78
917.236	6002.58
917.548	5968.23
917.859	6021.11
918.171	5934.34
918.482	5926.2
918.794	5882.81
919.105	5941.57
919.416	5810.72
919.727	5832.87
920.038	5835.36
920.349	5794.23
920.66	5768.24
920.971	5747.67
921.282	5662.25
921.593	5669.48
921.903	5614.57
922.214	5661.12
922.525	5610.5
922.835	5606.89
923.146	5585.42
923.456	5537.06
923.767	5550.39
924.077	5490.05
924.387	5491.41
924.697	5476.04
925.008	5449.38
925.318	5389.27
925.628	5393.78
925.938	5308.82
926.248	5304.52
926.558	5288.7
926.867	5272.21
927.177	5245.31
927.487	5226.56
927.796	5175.03
928.106	5153.79
928.416	5209.61
928.725	5172.1
929.034	5139.1
929.344	5127.8
929.653	5130.29
929.962	5013
930.271	5088.93
930.581	5023.62
930.89	4998.77
931.199	4992.89
931.508	4949.28
931.817	4941.82
932.125	4903.4
932.434	4928.71
932.743	4923.29
933.051	4806.46
933.36	4871.54
933.669	4828.83
933.977	4769.17
934.286	4782.95
934.594	4741.15
934.902	4693.92
935.21	4741.82
935.519	4724.65
935.827	4665.44
936.135	4612.34
936.443	4594.03
936.751	4631.77
937.059	4568.5
937.367	4589.29
937.674	4573.24
937.982	4562.85
938.29	4507.71
938.597	4507.48
938.905	4496.18
939.213	4469.74
939.52	4444.66
939.827	4399.23
940.135	4432.23
940.442	4386.81
940.749	4365.34
941.056	4379.57
941.363	4331.21
941.67	4297.54
941.977	4300.03
942.284	4302.06
942.591	4284.66
942.898	4251.44
943.205	4225.91
943.511	4226.58
943.818	4181.61
944.125	4170.54
944.431	4145.23
944.738	4103.65
945.044	4119.02
945.35	4105.91
945.657	4085.12
945.963	4050.09
946.269	4063.65
946.575	4025.46
946.881	4012.13
947.187	4003.99
947.493	4000.38
947.799	3965.8
948.105	3944.78
948.41	3911.34
948.716	3914.5
949.022	3912.47
949.327	3909.76
949.633	3815.3
949.938	3868.63
950.244	3820.72
950.549	3798.12
950.854	3784.56
951.16	3789.31
951.465	3775.07
951.77	3709.31
952.075	3708.86
952.38	3700.27
952.685	3680.61
952.99	3676.54
953.294	3670.89
953.599	3620.27
953.904	3622.08
954.209	3616.88
954.513	3615.53
954.818	3614.4
955.122	3602.19
955.426	3577.11
955.731	3549.54
956.035	3568.97
956.339	3500.28
956.643	3521.29
956.948	3492.37
957.252	3467.96
957.556	3464.8
957.86	3437
958.163	3460.73
958.467	3391.35
958.771	3406.04
959.075	3401.29
959.378	3371.92
959.682	3395.87
959.985	3383.44
960.289	3351.13
960.592	3297.34
960.896	3307.74
961.199	3275.65
961.502	3256.89
961.805	3262.54
962.108	3233.84
962.411	3228.64
962.714	3222.32
963.017	3206.72
963.32	3199.72
963.623	3164.92
963.926	3154.97
964.228	3126.27
964.531	3142.32
964.833	3124.01
965.136	3105.71
965.438	3097.57
965.741	3034.75
966.043	3071.59
966.345	3035.2
966.648	3025.71
966.95	3039.95
967.252	3005.6
967.554	3014.41
967.856	2998.37
968.158	2977.35
968.46	2965.83
968.761	2914.53
969.063	2933.51
969.365	2900.29
969.666	2897.58
969.968	2895.32
970.269	2866.39
970.571	2849.44
970.872	2848.99
971.174	2813.51
971.475	2852.61
971.776	2822.33
972.077	2825.26
972.378	2808.77
972.679	2841.31
972.98	2780.52
973.281	2716.34
973.582	2782.33
973.883	2761.31
974.183	2725.83
974.484	2739.84
974.785	2743.23
975.085	2712.05
975.386	2703.01
975.686	2684.7
975.986	2679.73
976.287	2655.1
976.587	2648.77
976.887	2623.24
977.187	2646.06
977.487	2616.68
977.787	2604.71
978.087	2582.11
978.387	2576.68
978.687	2564.93
978.987	2509.34
979.286	2571.26
979.586	2530.58
979.885	2511.83
980.185	2502.79
980.484	2522.67
980.784	2505.73
981.083	2489
981.382	2462.34
981.682	2433.64
981.981	2447.2
982.28	2414.2
982.579	2427.76
982.878	2404.48
983.177	2394.77
983.475	2409.91
983.774	2393.64
984.073	2363.81
984.372	2363.36
984.67	2348.67
984.969	2377.14
985.267	2357.03
985.566	2330.36
985.864	2302.79
986.162	2301.44
986.461	2291.27
986.759	2278.16
987.057	2228.44
987.355	2289.91
987.653	2257.37
987.951	2223.02
988.249	2243.81
988.547	2229.8
988.844	2187.77
989.142	2225.05
989.44	2176.02
989.737	2188.45
990.035	2143.93
990.332	2168.56
990.63	2142.57
990.927	2123.36
991.224	2139.86
991.521	2103.7
991.819	2087.66
992.116	2107.32
992.413	2114.1
992.71	2053.31
993.006	2080.65
993.303	2070.71
993.6	2065.74
993.897	2063.25
994.193	2040.2
994.49	2022.57
994.787	2013.08
995.083	1996.81
995.379	1978.73
995.676	1986.19
995.972	1968.79
996.268	1970.82
996.565	1951.84
996.861	1969.92
997.157	1925.18
997.453	1954.1
997.749	1920.66
998.044	1901.9
998.34	1901
998.636	1904.61
998.932	1902.8
999.227	1870.71
999.523	1892.41
999.818	1847.66
1000.114	1832.97
1000.409	1842.47
1000.704	1820.32
1001	1849.7
1001.295	1825.07
1001.59	1788.91
1001.885	1803.82
1002.18	1771.96
1002.475	1794.78
1002.77	1776.03
1003.065	1739.19
1003.359	1754.33
1003.654	1748.68
1003.949	1733.32
1004.243	1735.58
1004.538	1668.46
1004.832	1733.54
1005.127	1701.9
1005.421	1720.66
1005.715	1696.25
1006.009	1684.5
1006.304	1662.81
1006.598	1660.78
1006.892	1648.12
1007.186	1619.19
1007.48	1612.64
1007.773	1602.02
1008.067	1606.99
1008.361	1577.16
1008.655	1591.17
1008.948	1583.72
1009.242	1586.2
1009.535	1564.51
1009.829	1563.6
1010.122	1572.19
1010.415	1556.15
1010.708	1511.17
1011.001	1522.93
1011.295	1512.53
1011.588	1508.46
1011.881	1499.88
1012.173	1448.8
1012.466	1464.17
1012.759	1463.49
1013.052	1469.59
1013.344	1458.75
1013.637	1436.15
1013.93	1443.38
1014.222	1451.74
1014.514	1431.4
1014.807	1437.96
1015.099	1411.52
1015.391	1370.16
1015.683	1385.3
1015.976	1393.44
1016.268	1390.5
1016.56	1381.69
1016.851	1387.34
1017.143	1349.15
1017.435	1343.27
1017.727	1348.92
1018.018	1331.52
1018.31	1304.4
1018.602	1337.39
1018.893	1310.28
1019.185	1268.92
1019.476	1301.24
1019.767	1289.03
1020.058	1277.96
1020.35	1271.86
1020.641	1269.37
1020.932	1250.39
1021.223	1249.26
1021.514	1218.08
1021.804	1211.97
1022.095	1235.02
1022.386	1199.54
1022.677	1212.2
1022.967	1198.19
1023.258	1189.38
1023.548	1183.5
1023.839	1165.65
1024.129	1171.97
1024.419	1174.23
1024.709	1162.03
1025	1136.5
1025.29	1149.83
1025.58	1137.85
1025.87	1096.5
1026.16	1138.53
1026.449	1091.07
1026.739	1123.61
1027.029	1108.93
1027.319	1088.81
1027.608	1077.06
1027.898	1058.76
1028.187	1061.7
1028.477	1059.21
1028.766	1038.65
1029.055	1045.65
1029.344	1026.67
1029.634	1028.02
1029.923	1023.96
1030.212	1025.09
1030.501	1022.6
1030.79	1023.05
1031.078	1000.23
1031.367	988.7
1031.656	971.3
1031.945	977.4
1032.233	976.5
1032.522	963.17
1032.81	940.34
1033.099	931.08
1033.387	976.95
1033.675	949.61
1033.963	930.17
1034.251	958.2
1034.54	940.12
1034.828	929.95
1035.116	917.29
1035.403	903.28
1035.691	897.18
1035.979	904.19
1036.267	902.6
1036.554	887.46
1036.842	875.94
1037.129	886.33
1037.417	863.73
1037.704	865.54
1037.992	879.33
1038.279	849.05
1038.566	856.5
1038.853	856.5
1039.14	856.5
