Data from hue_180_FLMS001491_00067.txt Node
Date: Tue Feb 07 16:47:19 GMT 2017
User: dcchb
Spectrometer: FLMS00149
Trigger mode: 0
Integration Time (sec): 2.000000E-2
Scans to average: 10
Electric dark correction enabled: true
Nonlinearity correction enabled: false
Boxcar width: 0
XAxis mode: Wavelengths
Number of Pixels in Spectrum: 2048
>>>>>Begin Spectral Data<<<<<
341.393	-3.49
341.776	-3.49
342.16	-3.49
342.543	-49.82
342.927	-69.02
343.31	-71.96
343.693	-70.38
344.077	-58.85
344.46	-64.05
344.843	-57.05
345.226	-40.55
345.61	-29.02
345.993	-20.89
346.376	6.23
346.759	10.75
347.142	19.34
347.525	33.35
347.908	59.56
348.291	62.5
348.674	85.55
349.057	135.49
349.44	116.73
349.823	135.72
350.206	156.06
350.588	186.11
350.971	221.14
351.354	212.78
351.737	226.34
352.119	249.61
352.502	253.23
352.884	258.65
353.267	274.02
353.65	263.62
354.032	317.41
354.414	304.07
354.797	294.36
355.179	311.76
355.562	319.44
355.944	319.89
356.326	319.44
356.709	332.32
357.091	328.25
357.473	335.26
357.855	323.51
358.238	333.45
358.62	349.5
359.002	331.42
359.384	333.45
359.766	358.99
360.148	328.93
360.53	355.6
360.912	322.38
361.294	342.72
361.676	330.29
362.057	336.16
362.439	327.58
362.821	309.72
363.203	336.16
363.584	324.19
363.966	309.95
364.348	308.37
364.729	321.25
365.111	319.21
365.493	311.98
365.874	316.73
366.256	313.79
366.637	323.73
367.019	313.34
367.4	300.23
367.781	313.11
368.163	293.68
368.544	319.21
368.925	322.15
369.306	315.37
369.688	323.73
370.069	303.17
370.45	306.56
370.831	336.84
371.212	308.82
371.593	309.05
371.974	301.59
372.355	300.23
372.736	295.71
373.117	316.5
373.498	322.38
373.879	318.99
374.26	317.63
374.641	316.73
375.021	300.01
375.402	329.16
375.783	326.67
376.163	307.46
376.544	316.95
376.925	340.23
377.305	336.62
377.686	323.96
378.066	308.14
378.447	327.12
378.827	323.28
379.208	323.51
379.588	321.47
379.968	310.63
380.349	321.7
380.729	334.36
381.109	322.83
381.489	330.74
381.87	317.63
382.25	317.41
382.63	340.91
383.01	328.25
383.39	346.11
383.77	358.54
384.15	322.6
384.53	338.65
384.91	339.33
385.29	347.46
385.67	332.32
386.049	351.76
386.429	346.11
386.809	337.97
387.189	351.76
387.568	322.15
387.948	344.07
388.328	351.53
388.707	354.69
389.087	341.36
389.466	337.97
389.846	348.82
390.225	361.02
390.605	365.54
390.984	357.63
391.363	364.86
391.743	368.93
392.122	369.16
392.501	371.64
392.881	373.9
393.26	359.89
393.639	370.51
394.018	391.76
394.397	381.13
394.776	381.81
395.155	378.42
395.534	381.36
395.913	373.22
396.292	372.09
396.671	375.26
397.05	383.62
397.429	400.79
397.808	400.34
398.186	387.69
398.565	385.65
398.944	393.11
399.323	395.6
399.701	412.32
400.08	396.5
400.458	409.16
400.837	388.59
401.215	394.92
401.594	405.54
401.972	408.25
402.351	403.28
402.729	417.52
403.107	420.23
403.486	442.15
403.864	452.09
404.242	430.17
404.62	435.14
404.999	411.87
405.377	436.95
405.755	428.14
406.133	438.99
406.511	422.94
406.889	441.25
407.267	447.8
407.645	432.21
408.023	454.13
408.401	457.06
408.779	457.74
409.156	470.62
409.534	476.95
409.912	488.93
410.29	515.82
410.667	529.38
411.045	516.72
411.422	500
411.8	533.67
412.178	559.66
412.555	525.09
412.933	556.5
413.31	542.71
413.687	567.57
414.065	573.22
414.442	565.31
414.819	579.32
415.197	578.87
415.574	587.23
415.951	590.85
416.328	585.42
416.705	593.11
417.082	620.22
417.46	613.44
417.837	629.49
418.214	608.7
418.591	639.43
418.967	646.66
419.344	649.15
419.721	655.7
420.098	679.88
420.475	671.07
420.852	669.04
421.228	681.24
421.605	702.48
421.982	733.89
422.358	732.09
422.735	742.03
423.111	737.06
423.488	764.85
423.864	765.76
424.241	758.98
424.617	801.01
424.994	792.2
425.37	796.26
425.746	827
426.123	814.57
426.499	850.73
426.875	835.36
427.251	861.8
427.627	890.5
428.003	876.71
428.379	868.8
428.756	885.08
429.132	911.74
429.507	924.62
429.883	922.59
430.259	928.46
430.635	930.72
431.011	959.2
431.387	986.54
431.763	994.45
432.138	958.75
432.514	1003.94
432.89	1032.64
433.265	1059.99
433.641	1022.02
434.016	1084.84
434.392	1087.56
434.767	1108.8
435.143	1116.48
435.518	1134.11
435.894	1139.31
436.269	1186.99
436.644	1194.22
437.02	1183.15
437.395	1212.75
437.77	1238.96
438.145	1253.65
438.52	1275.8
438.895	1289.58
439.271	1274.44
439.646	1322.58
440.021	1337.72
440.395	1334.1
440.77	1353.31
441.145	1407.1
441.52	1418.17
441.895	1401.45
442.27	1450.48
442.645	1446.19
443.019	1462.01
443.394	1486.87
443.769	1504.04
444.143	1486.64
444.518	1532.52
444.892	1522.57
445.267	1545.62
445.641	1551.95
446.016	1532.06
446.39	1582.23
446.764	1573.42
447.139	1589.01
447.513	1602.57
447.887	1620.42
448.262	1600.99
448.636	1628.33
449.01	1661.33
449.384	1673.76
449.758	1666.3
450.132	1718.95
450.506	1708.33
450.88	1729.12
451.254	1730.93
451.628	1780.42
452.002	1806.41
452.376	1798.95
452.75	1792.4
453.123	1818.61
453.497	1852.73
453.871	1867.42
454.244	1906.29
454.618	1916.69
454.992	1950.81
455.365	1944.71
455.739	1987.65
456.112	2000.75
456.486	2033.52
456.859	2069
457.232	2089.11
457.606	2069
457.979	2118.26
458.352	2188.54
458.725	2151.48
459.099	2208.66
459.472	2203.46
459.845	2294.3
460.218	2289.56
460.591	2313.74
460.964	2281.65
461.337	2370.91
461.71	2408.43
462.083	2448.65
462.456	2474.86
462.829	2458.37
463.201	2485.49
463.574	2525.94
463.947	2565.26
464.32	2585.37
464.692	2630.57
465.065	2650.68
465.438	2739.94
465.81	2752.6
466.183	2795.76
466.555	2840.5
466.928	2863.33
467.3	2867.17
467.672	2935.42
468.045	2995.53
468.417	3016.32
468.789	3047.5
469.161	3117.11
469.534	3117.56
469.906	3218.57
470.278	3195.98
470.65	3268.52
471.022	3354.16
471.394	3368.17
471.766	3449.75
472.138	3467.61
472.51	3568.17
472.882	3631.67
473.253	3643.65
473.625	3743.08
473.997	3826.24
474.369	3850.65
474.74	3904.21
475.112	3965.45
475.484	4024.2
475.855	4146.23
476.227	4159.57
476.598	4283.18
476.97	4353.68
477.341	4432.78
477.713	4526.34
478.084	4497.18
478.455	4672.55
478.827	4727.01
479.198	4849.94
479.569	4872.09
479.94	5032.09
480.311	5048.81
480.682	5199.09
481.053	5321.57
481.424	5436.37
481.795	5462.81
482.166	5554.78
482.537	5690.15
482.908	5818.73
483.279	5836.58
483.65	5971.27
484.021	6112.51
484.391	6199.74
484.762	6249.23
485.133	6346.4
485.503	6450.13
485.874	6629.78
486.244	6639.05
486.615	6798.59
486.985	6899.15
487.356	7044.91
487.726	7098.25
488.097	7245.81
488.467	7245.81
488.837	7463.89
489.207	7603.09
489.578	7743.65
489.948	7807.83
490.318	7891.22
490.688	7940.26
491.058	8062.74
491.428	8198.33
491.798	8212.57
492.168	8379.34
492.538	8460.02
492.908	8558.32
493.278	8624.53
493.648	8689.84
494.017	8832.66
494.387	8929.16
494.757	8907.24
495.126	9019.78
495.496	9107.01
495.866	9223.16
496.235	9277.4
496.605	9308.36
496.974	9402.14
497.344	9514.45
497.713	9577.73
498.082	9540.44
498.452	9681.23
498.821	9695.92
499.19	9696.37
499.559	9884.61
499.928	9938.4
500.298	9914.89
500.667	10034.89
501.036	9971.16
501.405	10144.95
501.774	10069.47
502.143	10212.97
502.512	10183.14
502.88	10313.75
503.249	10301.55
503.618	10396.24
503.987	10322.34
504.356	10500.42
504.724	10471.72
505.093	10418.16
505.462	10528.21
505.83	10593.52
506.199	10574.99
506.567	10714.65
506.936	10769.56
507.304	10846.17
507.672	10762.1
508.041	10855.43
508.409	10940.4
508.777	10986.5
509.145	11001.87
509.514	10939.27
509.882	11000.52
510.25	11083
510.618	11026.28
510.986	11012.27
511.354	11164.35
511.722	11194.86
512.09	11342.88
512.458	11209.1
512.826	11224.01
513.193	11304.91
513.561	11241.87
513.929	11360.73
514.297	11451.8
514.664	11428.98
515.032	11415.87
515.4	11464.01
515.767	11410.67
516.135	11525.02
516.502	11407.28
516.869	11513.5
517.237	11634.85
517.604	11481.41
517.972	11586.94
518.339	11647.73
518.706	11607.05
519.073	11578.35
519.44	11619.93
519.808	11651.57
520.175	11636.88
520.542	11760.5
520.909	11721.4
521.276	11696.32
521.643	11760.72
522.009	11722.76
522.376	11798.01
522.743	11789.87
523.11	11870.78
523.477	11864.9
523.843	11840.72
524.21	12007.04
524.577	12021.96
524.943	11937.44
525.31	11931.79
525.676	11969.3
526.043	11942.41
526.409	12057.21
526.776	12087.27
527.142	12019.47
527.508	12042.3
527.874	12060.37
528.241	12053.6
528.607	12021.28
528.973	12098.79
529.339	11918.01
529.705	12047.27
530.071	12080.04
530.437	12023.54
530.803	12036.42
531.169	12071.67
531.535	11933.15
531.901	11987.16
532.267	11926.14
532.632	11870.1
532.998	11773.15
533.364	11877.33
533.73	11877.33
534.095	11871.23
534.461	11888.18
534.826	11803.88
535.192	11800.49
535.557	11813.38
535.923	11747.61
536.288	11786.94
536.653	11615.64
537.019	11609.09
537.384	11628.97
537.749	11588.52
538.114	11571.35
538.479	11458.36
538.845	11495.19
539.21	11415.42
539.575	11424.23
539.94	11380.84
540.305	11405.7
540.67	11353.05
541.034	11296.1
541.399	11273.28
541.764	11231.7
542.129	11132.26
542.494	11135.88
542.858	11121.19
543.223	11044.81
543.587	11052.49
543.952	10962.55
544.316	10907.64
544.681	10963.91
545.045	10862.21
545.41	10862.67
545.774	10767.08
546.138	10808.88
546.503	10776.34
546.867	10676.46
547.231	10669
547.595	10574.76
547.959	10585.39
548.324	10492.51
548.688	10473.52
549.052	10505.61
549.416	10440.3
549.779	10436.46
550.143	10351.04
550.507	10412.28
550.871	10319.86
551.235	10273.3
551.599	10244.38
551.962	10248.22
552.326	10114.66
552.689	10146.98
553.053	10057.04
553.417	10029.69
553.78	10090.71
554.143	9991.05
554.507	9997.83
554.87	9913.09
555.234	9971.84
555.597	9915.12
555.96	9930.26
556.323	9858.85
556.686	9853.65
557.05	9878.29
557.413	9822.69
557.776	9824.73
558.139	9784.5
558.502	9752.41
558.865	9729.81
559.228	9719.87
559.59	9815.01
559.953	9744.5
560.316	9785.86
560.679	9691.62
561.041	9736.59
561.404	9674.22
561.767	9715.58
562.129	9648.91
562.492	9691.62
562.854	9611.85
563.217	9574.56
563.579	9616.82
563.941	9640.33
564.304	9652.98
564.666	9661.57
565.028	9624.96
565.39	9613.66
565.753	9722.58
566.115	9662.25
566.477	9672.19
566.839	9663.83
567.201	9709.48
567.563	9669.48
567.925	9711.06
568.287	9681.91
568.648	9705.41
569.01	9647.78
569.372	9746.54
569.734	9662.92
570.095	9694.56
570.457	9687.1
570.819	9680.78
571.18	9705.63
571.542	9754.45
571.903	9662.02
572.265	9697.5
572.626	9681.45
572.987	9724.84
573.349	9690.49
573.71	9753.32
574.071	9697.5
574.432	9725.07
574.794	9786.31
575.155	9749.93
575.516	9690.04
575.877	9691.62
576.238	9726.2
576.599	9796.48
576.96	9699.99
577.32	9758.29
577.681	9805.74
578.042	9756.71
578.403	9720.55
578.763	9730.04
579.124	9791.96
579.485	9771.4
579.845	9843.03
580.206	9726.2
580.566	9775.24
580.927	9702.24
581.287	9797.84
581.648	9669.7
582.008	9759.42
582.368	9734.11
582.728	9727.55
583.089	9690.95
583.449	9676.26
583.809	9681.23
584.169	9722.81
584.529	9676.26
584.889	9746.76
585.249	9631.29
585.609	9588.12
585.969	9696.6
586.329	9563.27
586.688	9642.81
587.048	9562.14
587.408	9593.1
587.768	9603.26
588.127	9601.68
588.487	9598.97
588.846	9557.84
589.206	9546.09
589.565	9521.68
589.925	9571.85
590.284	9539.54
590.643	9462.25
591.003	9542.93
591.362	9556.26
591.721	9475.58
592.08	9499.09
592.44	9475.81
592.799	9546.77
593.158	9485.08
593.517	9416.15
593.876	9458.64
594.235	9484.17
594.593	9459.09
594.952	9460.22
595.311	9455.02
595.67	9394.23
596.029	9463.38
596.387	9432.87
596.746	9475.13
597.104	9375.93
597.463	9427.45
597.822	9427
598.18	9428.58
598.538	9364.85
598.897	9475.81
599.255	9309.49
599.613	9425.42
599.972	9436.49
600.33	9423.38
600.688	9317.85
601.046	9351.97
601.404	9432.87
601.762	9368.69
602.12	9393.55
602.478	9361.01
602.836	9395.59
603.194	9300.22
603.552	9314.23
603.91	9323.95
604.268	9309.94
604.625	9319.88
604.983	9361.69
605.341	9289.6
605.698	9320.11
606.056	9343.61
606.413	9331.41
606.771	9384.51
607.128	9354.01
607.485	9330.73
607.843	9350.62
608.2	9386.32
608.557	9295.93
608.914	9365.53
609.272	9407.11
609.629	9350.84
609.986	9399.88
610.343	9351.97
610.7	9434
611.057	9389.26
611.414	9403.72
611.771	9391.52
612.127	9409.6
612.484	9445.3
612.841	9453.44
613.198	9439.2
613.554	9443.04
613.911	9432.87
614.267	9472.42
614.624	9412.76
614.98	9451.4
615.337	9494.57
615.693	9494.79
616.05	9452.99
616.406	9529.14
616.762	9532.31
617.118	9501.57
617.475	9457.51
617.831	9553.55
618.187	9455.92
618.543	9484.4
618.899	9554.23
619.255	9541.12
619.611	9543.6
619.967	9536.37
620.323	9620.89
620.678	9532.31
621.034	9525.3
621.39	9577.05
621.746	9516.26
622.101	9607.11
622.457	9575.69
622.812	9583.38
623.168	9569.82
623.523	9591.29
623.879	9641.46
624.234	9590.38
624.589	9549.03
624.945	9530.27
625.3	9522.59
625.655	9554.45
626.01	9568.92
626.365	9604.85
626.72	9500.44
627.075	9527.56
627.43	9546.77
627.785	9491.4
628.14	9476.04
628.495	9525.53
628.85	9543.83
629.205	9466.32
629.559	9557.39
629.914	9488.47
630.269	9502.93
630.623	9437.17
630.978	9401.46
631.332	9493.66
631.687	9442.14
632.041	9479.65
632.396	9434.91
632.75	9383.16
633.104	9470.84
633.459	9396.26
633.813	9342.25
634.167	9324.85
634.521	9273.56
634.875	9330.5
635.229	9307
635.583	9312.2
635.937	9255.7
636.291	9257.06
636.645	9283.72
636.999	9292.09
637.352	9322.82
637.706	9227.46
638.06	9246.21
638.413	9261.13
638.767	9198.53
639.121	9160.11
639.474	9158.53
639.828	9166.67
640.181	9168.47
640.534	9197.17
640.888	9133.45
641.241	9069.27
641.594	9153.33
641.947	9177.06
642.301	9139.77
642.654	9163.5
643.007	9140.68
643.36	9100.45
643.713	9175.93
644.066	9109.94
644.419	9085.76
644.771	9011.42
645.124	8910.18
645.477	8921.47
645.83	8872.66
646.182	8878.99
646.535	8865.2
646.888	8848.71
647.24	8843.51
647.593	8772.33
647.945	8839.22
648.298	8833.79
648.65	8733.46
649.002	8711.31
649.355	8764.87
649.707	8826.56
650.059	8847.13
650.411	8925.09
650.763	8916.95
651.115	9020.23
651.467	9033.56
651.819	9016.61
652.171	8996.05
652.523	8915.82
652.875	8961.93
653.227	8932.32
653.578	8976.39
653.93	8972.32
654.282	8929.16
654.633	8936.16
654.985	8938.2
655.337	8908.37
655.688	8957.86
656.039	9014.13
656.391	8982.72
656.742	8965.99
657.094	8974.81
657.445	8998.99
657.796	8976.61
658.147	8990.17
658.498	8959.21
658.849	9005.77
659.2	8983.62
659.551	8977.07
659.902	9014.58
660.253	8954.02
660.604	9041.47
660.955	9013.9
661.306	9061.36
661.656	9004.86
662.007	9019.78
662.358	9024.75
662.708	9035.82
663.059	9013.45
663.409	8981.81
663.76	9099.77
664.11	9001.02
664.461	9019.32
664.811	9031.53
665.161	9065.88
665.511	9026.78
665.862	9098.42
666.212	9076.27
666.562	9008.7
666.912	9084.63
667.262	9019.55
667.612	9008.7
667.962	9065.2
668.312	9066.1
668.662	9109.94
669.011	8976.16
669.361	8990.4
669.711	9032.43
670.06	9016.16
670.41	9031.3
670.76	9025.65
671.109	9013.45
671.459	9029.04
671.808	8981.13
672.157	9007.12
672.507	9038.76
672.856	8995.14
673.205	8958.99
673.554	9061.36
673.904	8952.89
674.253	8979.55
674.602	9024.97
674.951	8883.06
675.3	8841.7
675.649	8916.73
675.998	8981.81
676.346	8928.03
676.695	8932.1
677.044	8836.96
677.393	8913.79
677.741	8918.76
678.09	8823.85
678.438	8825.43
678.787	8806.9
679.135	8858.43
679.484	8744.76
679.832	8828.6
680.181	8766.45
680.529	8729.16
680.877	8691.42
681.225	8746.79
681.573	8742.04
681.922	8690.07
682.27	8717.19
682.618	8679.67
682.966	8622.5
683.314	8701.82
683.661	8660.69
684.009	8589.05
684.357	8629.73
684.705	8540.92
685.053	8590.64
685.4	8607.81
685.748	8515.38
686.095	8533.24
686.443	8389.51
686.79	8395.39
687.138	8441.04
687.485	8453.92
687.832	8422.05
688.18	8450.53
688.527	8364.2
688.874	8393.13
689.221	8371.88
689.568	8272.68
689.915	8307.25
690.262	8296.18
690.609	8206.01
690.956	8250.53
691.303	8203.53
691.65	8164.21
691.997	8150.87
692.344	8080.59
692.69	8060.93
693.037	8038.33
693.383	7997.2
693.73	8020.93
694.077	7903.42
694.423	7946.58
694.769	7934.61
695.116	7908.62
695.462	7866.36
695.808	7846.47
696.155	7808.28
696.501	7809.41
696.847	7727.16
697.193	7689.42
697.539	7687.38
697.885	7639.25
698.231	7536.65
698.577	7616.65
698.923	7586.14
699.269	7591.34
699.614	7470.21
699.96	7484
700.306	7458.46
700.651	7436.09
700.997	7406.49
701.342	7374.4
701.688	7378.01
702.033	7312.7
702.379	7361.97
702.724	7256.43
703.069	7307.51
703.415	7213.27
703.76	7188.41
704.105	7208.75
704.45	7167.62
704.795	7172.14
705.14	7093.5
705.485	7091.92
705.83	7042.43
706.175	7042.65
706.52	7038.13
706.865	7023.45
707.209	7003.11
707.554	6995.42
707.899	6934.86
708.243	6889.89
708.588	6903.9
708.932	6890.57
709.277	6894.86
709.621	6887.63
709.966	6824.35
710.31	6794.3
710.654	6806.28
710.998	6764.47
711.342	6791.81
711.687	6741.64
712.031	6714.75
712.375	6715.2
712.719	6740.51
713.063	6738.03
713.407	6673.17
713.75	6598.37
714.094	6638.37
714.438	6593.17
714.782	6608.31
715.125	6546.4
715.469	6564.25
715.812	6543.23
716.156	6517.92
716.499	6552.05
716.843	6575.55
717.186	6512.72
717.53	6522.44
717.873	6495.78
718.216	6510.01
718.559	6476.34
718.902	6475.89
719.246	6504.59
719.589	6451.26
719.932	6423.46
720.275	6458.71
720.617	6418.04
720.96	6445.38
721.303	6429.34
721.646	6403.57
721.989	6365.84
722.331	6360.41
722.674	6385.04
723.016	6378.49
723.359	6318.38
723.701	6401.54
724.044	6363.12
724.386	6347.98
724.729	6365.16
725.071	6398.15
725.413	6327.19
725.755	6334.65
726.097	6293.07
726.439	6289.91
726.782	6268.66
727.124	6272.5
727.465	6236.12
727.807	6304.14
728.149	6355.21
728.491	6251.26
728.833	6256.46
729.175	6264.14
729.516	6287.19
729.858	6275.67
730.199	6272.73
730.541	6237.48
730.882	6239.74
731.224	6285.61
731.565	6280.41
731.906	6252.17
732.248	6211.94
732.589	6230.92
732.93	6233.41
733.271	6290.58
733.612	6226.4
733.953	6307.31
734.294	6291.26
734.635	6247.19
734.976	6274.09
735.317	6266.18
735.658	6278.15
735.999	6273.41
736.339	6263.47
736.68	6293.29
737.021	6248.1
737.361	6277.93
737.702	6380.75
738.042	6282.22
738.383	6276.57
738.723	6347.08
739.063	6291.26
739.404	6357.47
739.744	6411.48
740.084	6316.35
740.424	6370.58
740.764	6378.94
741.104	6407.87
741.444	6345.72
741.784	6394.54
742.124	6446.29
742.464	6413.52
742.804	6473.63
743.143	6459.17
743.483	6481.31
743.823	6508.2
744.162	6465.49
744.502	6553.4
744.841	6550.24
745.181	6638.14
745.52	6625.04
745.86	6686.73
746.199	6698.71
746.538	6704.36
746.877	6752.27
747.216	6845.14
747.556	6851.47
747.895	6947.52
748.234	6918.14
748.573	6949.1
748.911	7022.99
749.25	7084.69
749.589	7135.08
749.928	7147.28
750.267	7260.28
750.605	7315.64
750.944	7338.92
751.283	7436.32
751.621	7588.85
751.96	7566.03
752.298	7696.42
752.636	7760.15
752.975	7839.47
753.313	7912.01
753.651	8091.44
753.989	8160.82
754.327	8244.2
754.666	8328.72
755.004	8428.83
755.342	8597.19
755.679	8666.11
756.017	8749.05
756.355	8949.72
756.693	9025.88
757.031	9228.81
757.368	9318.53
757.706	9484.62
758.044	9535.24
758.381	9770.49
758.719	9847.1
759.056	10085.74
759.394	10166.64
759.731	10332.06
760.068	10543.8
760.405	10657.25
760.743	10797.36
761.08	11020.18
761.417	11140.4
761.754	11157.12
762.091	11398.47
762.428	11561.63
762.765	11769.54
763.102	11920.72
763.438	12024.67
763.775	12197.55
764.112	12428.5
764.449	12511.89
764.785	12656.74
765.122	12807.25
765.458	12939.67
765.795	13147.58
766.131	13285.88
766.467	13440.45
766.804	13531.97
767.14	13622.59
767.476	13785.98
767.812	13816.26
768.148	14023.71
768.485	14198.4
768.821	14235.91
769.157	14355.68
769.492	14522.91
769.828	14672.96
770.164	14623.7
770.5	14885.61
770.836	15000.86
771.171	15113.63
771.507	15175.32
771.842	15139.39
772.178	15251.48
772.513	15420.06
772.849	15536.89
773.184	15536.67
773.519	15680.84
773.855	15721.97
774.19	15826.15
774.525	15806.04
774.86	15951.8
775.195	16044.23
775.53	16080.61
775.865	16073.83
776.2	16139.36
776.535	16118.57
776.87	16185.69
777.205	16265.24
777.539	16312.24
777.874	16378.45
778.209	16385.68
778.543	16464.1
778.878	16451.45
779.212	16514.04
779.547	16476.3
779.881	16561.95
780.215	16548.39
780.55	16615.96
780.884	16566.7
781.218	16524.44
781.552	16589.97
781.886	16633.59
782.22	16603.98
782.554	16618.45
782.888	16540.26
783.222	16586.13
783.556	16644.21
783.889	16625
784.223	16489.64
784.557	16567.38
784.89	16603.08
785.224	16588.62
785.557	16511.33
785.891	16461.84
786.224	16456.64
786.558	16524.21
786.891	16478.56
787.224	16350.43
787.557	16418.45
787.891	16447.83
788.224	16504.55
788.557	16424.33
788.89	16462.07
789.223	16505.23
789.556	16292.35
789.888	16405.8
790.221	16291.22
790.554	16251
790.887	16259.81
791.219	16182.75
791.552	16238.8
791.884	16171.23
792.217	16219.81
792.549	16138.23
792.882	16105.69
793.214	16034.51
793.546	16066.37
793.879	15921.06
794.211	15971.46
794.543	16056.43
794.875	15982.31
795.207	15994.51
795.539	15911.8
795.871	15821.41
796.203	15837.45
796.535	15642.65
796.867	15722.88
797.198	15672.03
797.53	15653.95
797.862	15585.25
798.193	15636.1
798.525	15565.59
798.856	15565.14
799.188	15539.83
799.519	15347.29
799.85	15362.89
800.182	15472.04
800.513	15355.43
800.844	15293.06
801.175	15375.99
801.506	15321.31
801.837	15226.62
802.168	15214.64
802.499	15180.97
802.83	15119.05
803.161	15103.23
803.491	15023.46
803.822	15127.86
804.153	15013.74
804.483	14950.92
804.814	14939.17
805.145	14790.25
805.475	14888.78
805.805	14864.82
806.136	14851.71
806.466	14850.58
806.796	14843.8
807.126	14738.27
807.457	14672.06
807.787	14685.16
808.117	14571.95
808.447	14558.39
808.777	14588.67
809.107	14461.44
809.436	14445.62
809.766	14464.38
810.096	14344.83
810.426	14370.37
810.755	14359.52
811.085	14308.9
811.414	14298.73
811.744	14233.88
812.073	14259.19
812.403	14207.66
812.732	14151.62
813.061	14178.29
813.39	14048.35
813.719	14096.48
814.049	14082.92
814.378	14133.31
814.707	14017.16
815.036	13992.75
815.365	13937.16
815.693	13838.86
816.022	13910.27
816.351	13826.66
816.68	13834.79
817.008	13839.09
817.337	13725.64
817.665	13709.15
817.994	13672.31
818.322	13760.22
818.651	13689.71
818.979	13595.93
819.307	13666.43
819.636	13624.18
819.964	13529.94
820.292	13651.07
820.62	13535.59
820.948	13635.25
821.276	13661.46
821.604	13552.54
821.932	13574.01
822.259	13562.71
822.587	13568.81
822.915	13634.12
823.243	13555.02
823.57	13541.01
823.898	13530.39
824.225	13503.5
824.553	13550.96
824.88	13571.07
825.207	13604.52
825.535	13571.75
825.862	13626.21
826.189	13500.11
826.516	13584.4
826.843	13554.8
827.17	13536.72
827.497	13572.88
827.824	13583.72
828.151	13655.14
828.478	13571.52
828.805	13690.61
829.131	13518.87
829.458	13512.09
829.785	13464.41
830.111	13526.33
830.438	13567.45
830.764	13577.17
831.09	13598.41
831.417	13583.27
831.743	13597.74
832.069	13566.1
832.395	13480.45
832.722	13640.22
833.048	13494.69
833.374	13510.05
833.7	13493.33
834.026	13491.52
834.351	13466.67
834.677	13501.24
835.003	13538.98
835.329	13425.08
835.654	13464.41
835.98	13416.72
836.306	13395.03
836.631	13320
836.956	13369.72
837.282	13379.66
837.607	13271.19
837.932	13231.42
838.258	13268.93
838.583	13261.47
838.908	13190.74
839.233	13235.94
839.558	13195.26
839.883	13194.58
840.208	13149.84
840.533	13140.12
840.858	13044.53
841.182	13046.79
841.507	13056.28
841.832	13095.83
842.156	13025.55
842.481	13000.24
842.805	12974.25
843.13	12951.65
843.454	13020.8
843.778	12869.85
844.103	12860.58
844.427	12742.16
844.751	12804.99
845.075	12697.87
845.399	12692
845.723	12679.12
846.047	12734.93
846.371	12590.76
846.695	12584.2
847.019	12498.78
847.343	12455.39
847.666	12380.59
847.99	12280.71
848.313	12296.98
848.637	12218.56
848.96	12277.77
849.284	12196.19
849.607	12150.54
849.931	12045.23
850.254	11959.13
850.577	11927.05
850.9	11823.32
851.223	11867.39
851.546	11842.98
851.869	11727.73
852.192	11785.81
852.515	11666.04
852.838	11596.66
853.161	11642.53
853.483	11574.29
853.806	11520.05
854.129	11498.13
854.451	11462.42
854.774	11437.11
855.096	11415.42
855.419	11362.54
855.741	11282.54
856.063	11280.28
856.385	11271.92
856.708	11218.82
857.03	11082.32
857.352	11161.42
857.674	11196.22
857.996	11051.81
858.318	11007.52
858.64	10993.06
858.961	10959.39
859.283	10942.21
859.605	10905.15
859.926	10914.87
860.248	10904.02
860.57	10842.1
860.891	10886.17
861.212	10788.09
861.534	10749.22
861.855	10741.09
862.176	10711.48
862.498	10716.46
862.819	10733.63
863.14	10669.9
863.461	10671.03
863.782	10582.22
864.103	10592.16
864.424	10529.12
864.745	10577.7
865.065	10505.16
865.386	10521.43
865.707	10520.98
866.027	10447.31
866.348	10462.22
866.668	10499.29
866.989	10457.25
867.309	10329.35
867.63	10436.01
867.95	10380.87
868.27	10269.69
868.59	10330.25
868.91	10331.38
869.23	10333.41
869.55	10184.27
869.87	10290.03
870.19	10249.12
870.51	10302.68
870.83	10191.27
871.15	10174.1
871.469	10231.95
871.789	10200.31
872.109	10182.91
872.428	10110.37
872.748	10148.11
873.067	10109.47
873.386	10179.07
873.706	10136.58
874.025	10110.82
874.344	10060.65
874.663	10079.18
874.982	9988.79
875.301	10006.87
875.62	9974.78
875.939	10017.94
876.258	9923.71
876.577	9964.84
876.896	9906.31
877.214	9883.26
877.533	9867.66
877.852	9860.21
878.17	9815.24
878.489	9848.91
878.807	9790.38
879.125	9796.93
879.444	9789.47
879.762	9738.63
880.08	9808.68
880.398	9758.29
880.716	9687.1
881.034	9734.33
881.352	9674.67
881.67	9688.23
881.988	9693.66
882.306	9652.53
882.624	9569.37
882.941	9596.26
883.259	9557.62
883.577	9530.05
883.894	9514.68
884.212	9475.58
884.529	9484.85
884.846	9409.82
885.164	9431.74
885.481	9371.63
885.798	9401.91
886.115	9321.46
886.432	9298.87
886.75	9278.53
887.067	9281.92
887.383	9219.09
887.7	9259.32
888.017	9178.64
888.334	9233.1
888.651	9244.63
888.967	9175.71
889.284	9093.45
889.6	9112.88
889.917	9072.88
890.233	9026.56
890.55	8994.01
890.866	9081.02
891.182	9002.38
891.498	8931.64
891.815	8990.85
892.131	8946.11
892.447	8879.44
892.763	8853.68
893.079	8821.36
893.395	8784.3
893.71	8809.61
894.026	8755.15
894.342	8797.64
894.657	8684.19
894.973	8644.42
895.289	8631.99
895.604	8648.04
895.92	8585.66
896.235	8513.12
896.55	8524.2
896.865	8486.68
897.181	8427.7
897.496	8462.05
897.811	8405.56
898.126	8412.11
898.441	8352.22
898.756	8312.22
899.071	8216.41
899.386	8268.38
899.7	8193.81
900.015	8160.14
900.33	8112.46
900.644	8130.08
900.959	8105.68
901.273	8051.89
901.588	8059.58
901.902	7979.35
902.216	8029.29
902.531	7997.43
902.845	7945
903.159	7883.08
903.473	7827.94
903.787	7824.33
904.101	7818
904.415	7728.74
904.729	7750.43
905.042	7717.89
905.356	7654.39
905.67	7664.56
905.984	7628.18
906.297	7608.51
906.611	7559.48
906.924	7517.22
907.237	7499.36
907.551	7412.14
907.864	7404.68
908.177	7442.42
908.491	7366.94
908.804	7324.68
909.117	7315.41
909.43	7260.5
909.743	7259.82
910.056	7255.53
910.368	7154.97
910.681	7151.8
910.994	7132.82
911.307	7105.48
911.619	7026.38
911.932	7109.09
912.244	7052.6
912.557	6986.84
912.869	6991.13
913.181	6882.66
913.494	6939.15
913.806	6875.43
914.118	6832.04
914.43	6834.98
914.742	6762.21
915.054	6742.32
915.366	6691.7
915.678	6760.4
915.99	6712.49
916.302	6667.97
916.613	6633.63
916.925	6631.37
917.236	6571.25
917.548	6555.21
917.859	6517.47
918.171	6505.27
918.482	6452.84
918.794	6430.24
919.105	6416.46
919.416	6348.43
919.727	6339.17
920.038	6340.07
920.349	6267.08
920.66	6294.88
920.971	6262.34
921.282	6258.04
921.593	6181.21
921.903	6177.59
922.214	6176.46
922.525	6169.23
922.835	6125.39
923.146	6049.69
923.456	6093.07
923.767	6052.4
924.077	6075.67
924.387	5995.9
924.697	5959.52
925.008	5971.72
925.318	5934.89
925.628	5902.57
925.938	5906.41
926.248	5823.02
926.558	5833.19
926.867	5832.06
927.177	5788.22
927.487	5724.5
927.796	5732.63
928.106	5715.46
928.416	5671.39
928.725	5693.99
929.034	5632.52
929.344	5618.51
929.653	5599.08
929.962	5538.06
930.271	5610.83
930.581	5586.87
930.89	5562.92
931.199	5445.63
931.508	5446.76
931.817	5468.68
932.125	5439.31
932.434	5391.85
932.743	5367.22
933.051	5310.72
933.36	5374
933.669	5309.82
933.977	5276.6
934.286	5284.96
934.594	5273.89
934.902	5218.29
935.21	5179.2
935.519	5210.84
935.827	5167.45
936.135	5108.47
936.443	5117.96
936.751	5053.78
937.059	5036.15
937.367	5052.42
937.674	5055.14
937.982	5010.16
938.29	4993.67
938.597	4935.59
938.905	4889.26
939.213	4917.06
939.52	4934.69
939.827	4928.36
940.135	4876.84
940.442	4898.3
940.749	4827.57
941.056	4815.14
941.363	4762.94
941.67	4781.7
941.977	4786.67
942.284	4738.99
942.591	4705.99
942.898	4701.02
943.205	4660.34
943.511	4645.43
943.818	4615.37
944.125	4584.64
944.431	4587.35
944.738	4554.58
945.044	4540.35
945.35	4502.16
945.657	4503.06
945.963	4508.03
946.269	4435.04
946.575	4453.34
946.881	4424.19
947.187	4418.09
947.493	4415.15
947.799	4381.48
948.105	4349.84
948.41	4359.79
948.716	4332.89
949.022	4310.3
949.327	4305.55
949.633	4264.42
949.938	4252.9
950.244	4223.97
950.549	4239.56
950.854	4174.93
951.16	4226.91
951.465	4170.86
951.77	4115.95
952.075	4106.69
952.38	4097.42
952.685	4146.46
952.99	4097.65
953.294	4059.46
953.599	4059.68
953.904	4037.08
954.209	4004.54
954.513	4003.64
954.818	3975.84
955.122	3920.02
955.426	3918.67
955.731	3925.45
956.035	3889.52
956.339	3892
956.643	3892.23
956.948	3831.44
957.252	3782.85
957.556	3830.53
957.86	3802.96
958.163	3810.42
958.467	3786.69
958.771	3788.28
959.075	3724.32
959.378	3724.77
959.682	3761.16
959.985	3724.1
960.289	3715.96
960.592	3645.45
960.896	3666.02
961.199	3650.88
961.502	3597.32
961.805	3588.06
962.108	3595.29
962.411	3530.88
962.714	3546.7
963.017	3517.55
963.32	3516.87
963.623	3517.77
963.926	3509.19
964.228	3465.8
964.531	3461.05
964.833	3484.1
965.136	3410.43
965.438	3439.58
965.741	3353.71
966.043	3388.74
966.345	3411.34
966.648	3365.91
966.95	3359.59
967.252	3304.22
967.554	3276.88
967.856	3325.46
968.158	3257.44
968.46	3234.39
968.761	3258.12
969.063	3235.52
969.365	3239.36
969.666	3220.61
969.968	3204.79
970.269	3180.83
970.571	3165.24
970.872	3153.72
971.174	3144.9
971.475	3133.6
971.776	3124.11
972.077	3074.4
972.378	3109.2
972.679	3079.59
972.98	3058.58
973.281	3072.36
973.582	3057.67
973.883	3050.67
974.183	2989.65
974.484	2999.37
974.785	2952.37
975.085	2989.65
975.386	2976.55
975.686	2927.06
975.986	2926.83
976.287	2911.91
976.587	2876.66
976.887	2902.65
977.187	2883.67
977.487	2884.8
977.787	2851.13
978.087	2846.83
978.387	2826.72
978.687	2818.36
978.987	2817.45
979.286	2788.75
979.586	2805.7
979.885	2784.23
980.185	2748.98
980.484	2733.61
980.784	2724.8
981.083	2747.4
981.382	2701.98
981.682	2713.95
981.981	2699.72
982.28	2683.67
982.579	2685.48
982.878	2694.97
983.177	2662.66
983.475	2664.46
983.774	2613.39
984.073	2595.99
984.372	2611.36
984.67	2583.11
984.969	2563.22
985.267	2583.11
985.566	2563.9
985.864	2551.25
986.162	2525.03
986.461	2506.28
986.759	2492.04
987.057	2506.73
987.355	2470.12
987.653	2484.13
987.951	2447.29
988.249	2451.81
988.547	2455.66
988.844	2464.7
989.142	2440.97
989.44	2405.49
989.737	2402.78
990.035	2388.31
990.332	2365.26
990.63	2325.49
990.927	2375.21
991.224	2322.55
991.521	2319.61
991.819	2338.6
992.116	2337.24
992.413	2299.73
992.71	2289.33
993.006	2265.83
993.303	2262.89
993.6	2252.72
993.897	2221.31
994.193	2257.69
994.49	2237.36
994.787	2197.13
995.083	2179.73
995.379	2204.36
995.676	2225.83
995.972	2153.52
996.268	2158.04
996.565	2128.88
996.861	2125.49
997.157	2125.04
997.453	2110.13
997.749	2111.71
998.044	2099.73
998.34	2099.28
998.636	2071.49
998.932	2069
999.227	2059.96
999.523	2053.18
999.818	2041.66
1000.114	2036.46
1000.409	2038.94
1000.704	2000.53
1001	1986.74
1001.295	1988.32
1001.59	2003.69
1001.885	1952.84
1002.18	1975.67
1002.475	1922.11
1002.77	1966.18
1003.065	1920.53
1003.359	1915.33
1003.654	1883.24
1003.949	1896.57
1004.243	1865.39
1004.538	1855.67
1004.832	1857.93
1005.127	1840.76
1005.421	1850.25
1005.715	1823.58
1006.009	1797.59
1006.304	1804.83
1006.598	1802.34
1006.892	1787.65
1007.186	1749.46
1007.48	1780.19
1007.773	1744.49
1008.067	1749.46
1008.361	1744.04
1008.655	1776.13
1008.948	1701.78
1009.242	1715.79
1009.535	1706.97
1009.829	1699.74
1010.122	1673.3
1010.415	1675.79
1010.708	1671.04
1011.001	1638.28
1011.295	1618.16
1011.588	1608.22
1011.881	1593.98
1012.173	1630.59
1012.466	1597.37
1012.759	1609.12
1013.052	1570.03
1013.344	1563.25
1013.637	1557.6
1013.93	1551.05
1014.222	1559.41
1014.514	1554.66
1014.807	1533.42
1015.099	1512.18
1015.391	1518.73
1015.683	1495.68
1015.976	1474.66
1016.268	1517.83
1016.56	1483.7
1016.851	1447.09
1017.143	1465.85
1017.435	1459.98
1017.727	1452.29
1018.018	1441.67
1018.31	1425.85
1018.602	1422.01
1018.893	1406.42
1019.185	1386.31
1019.476	1398.73
1019.767	1387.66
1020.058	1369.81
1020.35	1373.42
1020.641	1358.28
1020.932	1356.93
1021.223	1324.16
1021.514	1309.02
1021.804	1306.76
1022.095	1297.27
1022.386	1287.55
1022.677	1299.75
1022.967	1289.13
1023.258	1262.24
1023.548	1281.22
1023.839	1263.82
1024.129	1273.77
1024.419	1241.22
1024.709	1236.25
1025	1214.33
1025.29	1235.57
1025.58	1218.63
1025.87	1213.2
1026.16	1182.02
1026.449	1206.42
1026.739	1165.52
1027.029	1195.8
1027.319	1154.45
1027.608	1176.37
1027.898	1162.36
1028.187	1138.4
1028.477	1145.86
1028.766	1140.89
1029.055	1136.37
1029.344	1109.02
1029.634	1125.75
1029.923	1100.44
1030.212	1094.11
1030.501	1089.36
1030.79	1069.93
1031.078	1095.47
1031.367	1054.11
1031.656	1053.66
1031.945	1058.86
1032.233	1046.88
1032.522	1055.92
1032.81	1038.97
1033.099	1030.16
1033.387	1015.69
1033.675	1030.38
1033.963	1010.04
1034.251	1013.66
1034.54	988.12
1034.828	1001.68
1035.116	990.84
1035.403	970.5
1035.691	973.21
1035.979	958.29
1036.267	973.66
1036.554	949.93
1036.842	948.8
1037.129	955.58
1037.417	935.92
1037.704	920.55
1037.992	911.97
1038.279	934.57
1038.566	913.32
1038.853	913.32
1039.14	913.32
