Data from hue_190_FLMS001491_00077.txt Node
Date: Tue Feb 07 16:45:45 GMT 2017
User: dcchb
Spectrometer: FLMS00149
Trigger mode: 0
Integration Time (sec): 2.000000E-2
Scans to average: 10
Electric dark correction enabled: true
Nonlinearity correction enabled: false
Boxcar width: 0
XAxis mode: Wavelengths
Number of Pixels in Spectrum: 2048
>>>>>Begin Spectral Data<<<<<
341.393	-15
341.776	-15
342.16	-15
342.543	-43.25
342.927	-67.65
343.31	-73.08
343.693	-86.18
344.077	-88.44
344.46	-69.01
344.843	-46.19
345.226	-52.29
345.61	-31.95
345.993	-18.16
346.376	-5.51
346.759	6.69
347.142	45.34
347.525	52.12
347.908	74.26
348.291	55.28
348.674	107.26
349.057	129.86
349.44	116.3
349.823	127.82
350.206	155.84
350.588	185.9
350.971	195.39
351.354	254.82
351.737	255.5
352.119	247.14
352.502	267.03
352.884	287.82
353.267	285.33
353.65	299.12
354.032	308.16
354.414	310.87
354.797	314.26
355.179	322.84
355.562	315.16
355.944	339.12
356.326	317.87
356.709	340.25
357.091	328.04
357.473	333.92
357.855	317.2
358.238	324.2
358.62	335.95
359.002	337.08
359.384	347.7
359.766	344.76
360.148	334.82
360.53	313.81
360.912	354.71
361.294	325.56
361.676	326.46
362.057	313.13
362.439	318.1
362.821	310.64
363.203	324.2
363.584	308.83
363.966	306.12
364.348	313.58
364.729	314.94
365.111	314.71
365.493	306.57
365.874	312.45
366.256	314.48
366.637	292.56
367.019	306.57
367.4	308.16
367.781	300.02
368.163	297.99
368.544	313.13
368.925	300.02
369.306	301.38
369.688	318.78
370.069	302.28
370.45	294.6
370.831	303.41
371.212	305.9
371.593	299.34
371.974	306.12
372.355	320.36
372.736	326.01
373.117	283.52
373.498	301.38
373.879	293.01
374.26	304.31
374.641	307.93
375.021	289.63
375.402	304.99
375.783	295.05
376.163	324.65
376.544	328.04
376.925	320.81
377.305	319.91
377.686	295.27
378.066	315.16
378.447	334.37
378.827	317.65
379.208	334.82
379.588	329.85
379.968	313.81
380.349	319.45
380.729	314.48
381.109	314.94
381.489	339.34
381.87	332.11
382.25	346.57
382.63	325.33
383.01	330.98
383.39	332.79
383.77	352.22
384.15	345.44
384.53	337.76
384.91	344.31
385.29	334.37
385.67	336.86
386.049	334.14
386.429	338.21
386.809	336.18
387.189	333.69
387.568	343.64
387.948	341.15
388.328	335.05
388.707	354.26
389.087	350.64
389.466	354.48
389.846	364.2
390.225	357.87
390.605	357.87
390.984	353.35
391.363	326.91
391.743	354.93
392.122	365.78
392.501	370.53
392.881	389.96
393.26	374.37
393.639	373.46
394.018	370.53
394.397	386.57
394.776	379.34
395.155	396.97
395.534	389.96
395.913	361.94
396.292	380.47
396.671	378.21
397.05	373.92
397.429	376.4
397.808	373.24
398.186	392.22
398.565	395.39
398.944	376.63
399.323	389.06
399.701	377.08
400.08	386.12
400.458	419.57
400.837	397.87
401.215	387.02
401.594	408.49
401.972	423.18
402.351	425.67
402.729	433.8
403.107	407.14
403.486	417.76
403.864	415.05
404.242	410.53
404.62	424.08
404.999	430.64
405.377	412.33
405.755	435.61
406.133	450.07
406.511	445.33
406.889	455.5
407.267	450.75
407.645	470.41
408.023	469.28
408.401	471.32
408.779	471.54
409.156	485.33
409.534	468.15
409.912	496.85
410.29	507.47
410.667	492.33
411.045	495.27
411.422	504.99
411.8	517.19
412.178	547.92
412.555	543.86
412.933	561.71
413.31	548.38
413.687	568.49
414.065	576.85
414.442	558.54
414.819	576.17
415.197	594.25
415.574	608.94
415.951	591.31
416.328	626.57
416.705	624.76
417.082	622.95
417.46	613.91
417.837	646.68
418.214	649.84
418.591	650.75
418.967	648.71
419.344	680.8
419.721	680.35
420.098	712.21
420.475	696.17
420.852	712.21
421.228	752.66
421.605	746.11
421.982	727.81
422.358	774.36
422.735	776.17
423.111	771.42
423.488	776.17
423.864	813.23
424.241	792.89
424.617	810.97
424.994	844.19
425.37	841.93
425.746	892.1
426.123	872.43
426.499	877.41
426.875	922.15
427.251	899.1
427.627	910.85
428.003	955.6
428.379	959.66
428.756	979.32
429.132	969.16
429.507	1009.83
429.883	968.7
430.259	1013.45
430.635	1010.51
431.011	1021.13
431.387	1068.14
431.763	1051.64
432.138	1083.73
432.514	1107.46
432.89	1116.27
433.265	1132.77
433.641	1139.09
434.016	1156.72
434.392	1190.62
434.767	1210.96
435.143	1252.99
435.518	1245.08
435.894	1264.97
436.269	1275.36
436.644	1289.37
437.02	1316.26
437.395	1334.12
437.77	1361.24
438.145	1371.86
438.52	1431.29
438.895	1421.57
439.271	1442.14
439.646	1483.27
440.021	1507.67
440.395	1553.09
440.77	1505.41
441.145	1566.43
441.52	1547.67
441.895	1548.35
442.27	1607.33
442.645	1620.21
443.019	1661.79
443.394	1629.7
443.769	1671.96
444.143	1697.27
444.518	1710.38
444.892	1730.94
445.267	1735.69
445.641	1737.72
446.016	1748.57
446.39	1787.89
446.764	1804.16
447.139	1781.34
447.513	1819.75
447.887	1813.65
448.262	1839.64
448.636	1824.73
449.01	1909.02
449.384	1898.17
449.758	1891.84
450.132	1940.66
450.506	1935.46
450.88	1966.19
451.254	1974.1
451.628	2011.84
452.002	2023.14
452.376	2044.83
452.75	2045.74
453.123	2080.09
453.497	2116.47
453.871	2109.92
454.244	2176.58
454.618	2196.69
454.992	2212.29
455.365	2219.29
455.739	2266.3
456.112	2311.27
456.486	2289.12
456.859	2353.3
457.232	2412.51
457.606	2368.44
457.979	2425.39
458.352	2433.3
458.725	2486.4
459.099	2503.58
459.472	2547.64
459.845	2530.92
460.218	2596.01
460.591	2607.98
460.964	2593.29
461.337	2731.59
461.71	2739.5
462.083	2738.83
462.456	2772.05
462.829	2794.64
463.201	2820.41
463.574	2840.74
463.947	2879.39
464.32	2947.63
464.692	2973.17
465.065	3047.74
465.438	3043
465.81	3106.95
466.183	3150.79
466.555	3180.4
466.928	3221.07
467.3	3270.34
467.672	3288.87
468.045	3393.95
468.417	3386.72
468.789	3388.98
469.161	3458.81
469.534	3517.56
469.906	3580.39
470.278	3600.27
470.65	3661.51
471.022	3754.39
471.394	3792.58
471.766	3814.96
472.138	3908.74
472.51	3953.48
472.882	3988.51
473.253	4061.96
473.625	4149.41
473.997	4188.73
474.369	4214.95
474.74	4294.49
475.112	4411.78
475.484	4395.96
475.855	4552.11
476.227	4579.46
476.598	4734.48
476.97	4729.51
477.341	4847.47
477.713	4920.24
478.084	4983.51
478.455	5073.68
478.827	5123.62
479.198	5287.01
479.569	5355.48
479.94	5459.43
480.311	5510.05
480.682	5619.2
481.053	5760.22
481.424	5814.9
481.795	5901.91
482.166	5966.31
482.537	6085.86
482.908	6225.29
483.279	6240.43
483.65	6386.41
484.021	6531.27
484.391	6599.06
484.762	6575.11
485.133	6712.73
485.503	6782.11
485.874	6927.19
486.244	7028.43
486.615	7148.88
486.985	7227.3
487.356	7357.69
487.726	7428.19
488.097	7517.46
488.467	7618.92
488.837	7712.03
489.207	7817.79
489.578	7991.34
489.948	8001.74
490.318	8128.06
490.688	8181.17
491.058	8248.96
491.428	8428.85
491.798	8474.27
492.168	8616.64
492.538	8581.16
492.908	8714.49
493.278	8879.91
493.648	8838.55
494.017	8959.23
494.387	9096.85
494.757	9048.04
495.126	9222.27
495.496	9248.26
495.866	9274.25
496.235	9318.09
496.605	9351.99
496.974	9477.18
497.344	9547.46
497.713	9531.87
498.082	9613.22
498.452	9697.97
498.821	9722.6
499.19	9762.37
499.559	9813.67
499.928	9838.53
500.298	9926.21
500.667	9949.48
501.036	9917.62
501.405	10039.65
501.774	10033.32
502.143	10171.17
502.512	10156.48
502.88	10242.58
503.249	10172.76
503.618	10212.98
503.987	10224.05
504.356	10336.37
504.724	10311.28
505.093	10299.31
505.462	10359.64
505.83	10410.04
506.199	10494.55
506.567	10597.15
506.936	10525.74
507.304	10592.18
507.672	10671.27
508.041	10624.04
508.409	10725.73
508.777	10802.12
509.145	10825.85
509.514	10785.62
509.882	10799.86
510.25	10723.25
510.618	10764.6
510.986	10800.54
511.354	10839.63
511.722	10903.13
512.09	10985.84
512.458	10849.8
512.826	10899.74
513.193	11013.18
513.561	10972.06
513.929	11014.54
514.297	11130.92
514.664	11026.29
515.032	11067.19
515.4	11186.06
515.767	11087.99
516.135	11035.33
516.502	11012.73
516.869	11161.43
517.237	11029.46
517.604	11057.93
517.972	11130.02
518.339	11107.42
518.706	11128.44
519.073	11085.05
519.44	11156.46
519.808	11158.72
520.175	11172.5
520.542	11190.36
520.909	11235.55
521.276	11151.94
521.643	11298.38
522.009	11182.45
522.376	11207.08
522.743	11241.65
523.11	11249.56
523.477	11300.41
523.843	11326.4
524.21	11378.37
524.577	11285.27
524.943	11337.7
525.31	11392.16
525.676	11356.45
526.043	11376.57
526.409	11385.15
526.776	11496.56
527.142	11350.35
527.508	11353.97
527.874	11376.34
528.241	11391.48
528.607	11283.23
528.973	11363.23
529.339	11291.6
529.705	11267.42
530.071	11264.03
530.437	11286.85
530.803	11221.54
531.169	11306.51
531.535	11174.08
531.901	11103.58
532.267	11103.35
532.632	11155.1
532.998	11050.47
533.364	11123.46
533.73	10986.97
534.095	11054.09
534.461	11047.08
534.826	10953.75
535.192	10914.43
535.557	10924.83
535.923	10866.07
536.288	10777.03
536.653	10796.69
537.019	10777.03
537.384	10699.75
537.749	10649.13
538.114	10589.69
538.479	10539.98
538.845	10513.31
539.21	10408.23
539.575	10362.81
539.94	10377.95
540.305	10386.31
540.67	10292.07
541.034	10283.26
541.399	10235.35
541.764	10216.14
542.129	10157.84
542.494	10091.4
542.858	10102.02
543.223	10035.81
543.587	10009.37
543.952	9904.74
544.316	9871.29
544.681	9766.21
545.045	9786.78
545.41	9799.43
545.774	9695.25
546.138	9646.89
546.503	9580.45
546.867	9564.64
547.231	9523.05
547.595	9523.28
547.959	9475.15
548.324	9399.22
548.688	9291.65
549.052	9315.15
549.416	9260.24
549.779	9152.22
550.143	9171.43
550.507	9152.44
550.871	9127.13
551.235	9003.52
551.599	9021.37
551.962	8972.11
552.326	8919.91
552.689	8942.05
553.053	8857.08
553.417	8771.66
553.78	8873.81
554.143	8729.4
554.507	8764.2
554.87	8646.02
555.234	8700.7
555.597	8578.9
555.96	8568.73
556.323	8555.62
556.686	8551.78
557.05	8524.44
557.413	8530.09
557.776	8498
558.139	8533.48
558.502	8378.68
558.865	8376.87
559.228	8386.36
559.59	8293.03
559.953	8326.48
560.316	8332.8
560.679	8248.96
561.041	8259.81
561.404	8301.17
561.767	8331.45
562.129	8258.91
562.492	8296.87
562.854	8195.41
563.217	8232.24
563.579	8233.82
563.941	8240.15
564.304	8290.77
564.666	8234.28
565.028	8208.06
565.39	8207.38
565.753	8194.95
566.115	8176.88
566.477	8196.31
566.839	8189.08
567.201	8229.98
567.563	8201.96
567.925	8232.69
568.287	8146.37
568.648	8169.87
569.01	8182.07
569.372	8141.62
569.734	8150.89
570.095	8155.63
570.457	8172.58
570.819	8135.29
571.18	8134.39
571.542	8228.63
571.903	8226.14
572.265	8152.7
572.626	8138.01
572.987	8135.29
573.349	8147.72
573.71	8165.58
574.071	8138.01
574.432	8152.24
574.794	8148.85
575.155	8255.29
575.516	8131
575.877	8185.24
576.238	8165.58
576.599	8188.17
576.96	8109.98
577.32	8129.64
577.681	8147.05
578.042	8154.96
578.403	8116.99
578.763	8088.97
579.124	8089.19
579.485	8135.75
579.845	8062.08
580.206	8169.87
580.566	8077.22
580.927	8064.34
581.287	8151.11
581.648	8059.36
582.008	8119.93
582.368	8065.69
582.728	8117.67
583.089	8042.42
583.449	8079.7
583.809	8037.44
584.169	8090.32
584.529	7951.57
584.889	8050.1
585.249	8024.79
585.609	7886.71
585.969	8011.23
586.329	7959.48
586.688	7965.58
587.048	7927.62
587.408	7942.53
587.768	8000.83
588.127	7919.48
588.487	7890.1
588.846	7912.02
589.206	7904.11
589.565	7882.42
589.925	7933.27
590.284	7898.46
590.643	7921.06
591.003	7890.56
591.362	7923.77
591.721	7889.2
592.08	7851.46
592.44	7835.87
592.799	7910.22
593.158	7819.37
593.517	7812.37
593.876	7860.05
594.235	7798.81
594.593	7746.38
594.952	7836.55
595.311	7805.13
595.67	7789.99
596.029	7777.34
596.387	7801.74
596.746	7802.42
597.104	7785.93
597.463	7742.08
597.822	7747.06
598.18	7708.87
598.538	7717.9
598.897	7749.99
599.255	7704.12
599.613	7832.7
599.972	7694.4
600.33	7717.45
600.688	7689.88
601.046	7717.23
601.404	7765.59
601.762	7769.2
602.12	7752.71
602.478	7809.43
602.836	7714.97
603.194	7814.4
603.552	7662.31
603.91	7635.87
604.268	7728.75
604.625	7683.56
604.983	7684.23
605.341	7667.96
605.698	7710.22
606.056	7747.28
606.413	7682.2
606.771	7755.87
607.128	7724.68
607.485	7645.82
607.843	7663.44
608.2	7718.81
608.557	7760.16
608.914	7625.25
609.272	7745.47
609.629	7719.26
609.986	7767.17
610.343	7672.48
610.7	7795.42
611.057	7732.37
611.414	7781.63
611.771	7762.87
612.127	7713.38
612.484	7766.04
612.841	7758.81
613.198	7732.82
613.554	7726.72
613.911	7752.71
614.267	7825.02
614.624	7746.6
614.98	7793.61
615.337	7867.05
615.693	7777.56
616.05	7772.37
616.406	7775.08
616.762	7829.54
617.118	7772.37
617.475	7730.56
617.831	7793.61
618.187	7786.6
618.543	7829.54
618.899	7854.62
619.255	7830.44
619.611	7855.98
619.967	7877.67
620.323	7907.73
620.678	7821.63
621.034	7824.34
621.39	7811.24
621.746	7798.81
622.101	7879.48
622.457	7869.54
622.812	7866.15
623.168	7825.25
623.523	7842.65
623.879	7904.79
624.234	7813.72
624.589	7843.78
624.945	7878.58
625.3	7865.25
625.655	7833.61
626.01	7833.16
626.365	7774.63
626.72	7765.59
627.075	7849.2
627.43	7820.5
627.785	7748.86
628.14	7888.52
628.495	7799.94
628.85	7786.38
629.205	7800.16
629.559	7778.02
629.914	7786.38
630.269	7725.36
630.623	7773.72
630.978	7730.79
631.332	7715.19
631.687	7751.35
632.041	7726.49
632.396	7773.04
632.75	7719.03
633.104	7705.93
633.459	7656.89
633.813	7646.95
634.167	7654.18
634.521	7608.53
634.875	7728.75
635.229	7662.31
635.583	7596.1
635.937	7692.37
636.291	7637
636.645	7548.64
636.999	7566.5
637.352	7588.19
637.706	7568.98
638.06	7558.81
638.413	7580.05
638.767	7494.41
639.121	7524.01
639.474	7522.66
639.828	7570.11
640.181	7525.59
640.534	7477.91
640.888	7514.07
641.241	7483.11
641.594	7472.49
641.947	7510.9
642.301	7455.54
642.654	7510.68
643.007	7441.53
643.36	7462.54
643.713	7437.23
644.066	7465.93
644.419	7381.42
644.771	7362.21
645.124	7353.39
645.477	7305.94
645.83	7276.11
646.182	7272.49
646.535	7237.69
646.888	7224.13
647.24	7240.85
647.593	7246.05
647.945	7169.22
648.298	7127.86
648.65	7179.39
649.002	7198.37
649.355	7201.53
649.707	7098.49
650.059	7219.16
650.411	7222.1
650.763	7256.45
651.115	7363.56
651.467	7306.62
651.819	7355.2
652.171	7345.48
652.523	7333.06
652.875	7319.95
653.227	7338.48
653.578	7359.04
653.93	7306.39
654.282	7328.08
654.633	7367.41
654.985	7383.68
655.337	7336.9
655.688	7331.02
656.039	7403.56
656.391	7302.55
656.742	7324.24
657.094	7351.59
657.445	7335.77
657.796	7355.65
658.147	7311.14
658.498	7377.57
658.849	7326.95
659.2	7356.56
659.551	7346.39
659.902	7354.75
660.253	7380.29
660.604	7413.05
660.955	7368.54
661.306	7387.97
661.656	7384.58
662.007	7366.5
662.358	7305.71
662.708	7385.94
663.059	7384.35
663.409	7342.32
663.76	7439.27
664.11	7373.28
664.461	7405.82
664.811	7413.51
665.161	7399.72
665.511	7396.1
665.862	7404.24
666.212	7456.22
666.562	7486.05
666.912	7392.04
667.262	7384.58
667.612	7354.98
667.962	7379.38
668.312	7437.23
668.662	7458.93
669.011	7413.05
669.361	7330.34
669.711	7425.48
670.06	7398.59
670.41	7335.32
670.76	7299.84
671.109	7376.9
671.459	7389.55
671.808	7394.3
672.157	7341.42
672.507	7279.27
672.856	7321.53
673.205	7406.5
673.554	7325.6
673.904	7370.12
674.253	7366.5
674.602	7364.69
674.951	7283.57
675.3	7198.37
675.649	7361.53
675.998	7304.36
676.346	7319.5
676.695	7280.85
677.044	7305.26
677.393	7357.01
677.741	7334.41
678.09	7255.32
678.438	7150.01
678.787	7221.42
679.135	7313.17
679.484	7234.98
679.832	7217.58
680.181	7168.54
680.529	7246.73
680.877	7175.77
681.225	7168.77
681.573	7189.56
681.922	7114.98
682.27	7110.01
682.618	7086.96
682.966	7132.84
683.314	7113.4
683.661	7056.9
684.009	7074.53
684.357	6985.27
684.705	7024.36
685.053	7033.85
685.4	7026.4
685.748	7020.97
686.095	6909.11
686.443	6922.67
686.79	6937.59
687.138	6896.46
687.485	6960.41
687.832	6857.59
688.18	6838.15
688.527	6866.4
688.874	6827.53
689.221	6776.01
689.568	6776.01
689.915	6759.51
690.262	6791.6
690.609	6714.99
690.956	6701.43
691.303	6720.87
691.65	6718.83
691.997	6655.33
692.344	6618.95
692.69	6602.68
693.037	6603.13
693.383	6623.7
693.73	6528.11
694.077	6472.29
694.423	6452.85
694.769	6458.5
695.116	6424.83
695.462	6433.19
695.808	6374.44
696.155	6432.29
696.501	6331.27
696.847	6342.57
697.193	6355
697.539	6267.1
697.885	6223.71
698.231	6258.73
698.577	6266.19
698.923	6218.28
699.269	6145.97
699.614	6115.01
699.96	6140.54
700.306	6135.8
700.651	6099.42
700.997	6071.85
701.342	6058.51
701.688	6031.62
702.033	6030.94
702.379	5997.95
702.724	5956.37
703.069	6004.05
703.415	5908.91
703.76	5945.3
704.105	5908.69
704.45	5914.56
704.795	5821.68
705.14	5814
705.485	5777.39
705.83	5785.98
706.175	5859.2
706.52	5783.27
706.865	5710.73
707.209	5746.88
707.554	5697.84
707.899	5766.77
708.243	5670.05
708.588	5640.9
708.932	5661.69
709.277	5614.23
709.621	5641.57
709.966	5618.75
710.31	5589.6
710.654	5563.84
710.998	5523.84
711.342	5571.97
711.687	5546.89
712.031	5533.56
712.375	5516.38
712.719	5490.62
713.063	5460.79
713.407	5513.44
713.75	5466.89
714.094	5449.72
714.438	5451.75
714.782	5500.11
715.125	5452.43
715.469	5400.45
715.812	5409.94
716.156	5381.92
716.499	5407.91
716.843	5355.03
717.186	5375.82
717.53	5364.29
717.873	5416.5
718.216	5352.54
718.559	5334.46
718.902	5302.83
719.246	5339.66
719.589	5321.58
719.932	5323.62
720.275	5282.71
720.617	5324.97
720.96	5276.39
721.303	5283.62
721.646	5266.44
721.989	5282.71
722.331	5243.39
722.674	5276.61
723.016	5236.61
723.359	5263.73
723.701	5273.9
724.044	5244.75
724.386	5232.55
724.729	5239.33
725.071	5246.1
725.413	5212.43
725.755	5216.73
726.097	5219.67
726.439	5174.24
726.782	5189.16
727.124	5247.46
727.465	5160.46
727.807	5164.07
728.149	5214.47
728.491	5162.49
728.833	5203.39
729.175	5131.76
729.516	5232.32
729.858	5240.46
730.199	5147.12
730.541	5169.95
730.882	5197.52
731.224	5191.19
731.565	5211.08
731.906	5185.77
732.248	5198.2
732.589	5128.82
732.93	5142.6
733.271	5217.41
733.612	5172.89
733.953	5185.09
734.294	5199.33
734.635	5195.03
734.976	5171.98
735.317	5171.08
735.658	5202.94
735.999	5181.93
736.339	5164.07
736.68	5266.22
737.021	5213.56
737.361	5178.99
737.702	5222.38
738.042	5259.89
738.383	5243.62
738.723	5202.26
739.063	5220.12
739.404	5296.5
739.744	5244.3
740.084	5240
740.424	5283.62
740.764	5260.12
741.104	5317.97
741.444	5311.41
741.784	5285.2
742.124	5364.29
742.464	5353.45
742.804	5381.69
743.143	5414.24
743.483	5410.85
743.823	5432.31
744.162	5458.75
744.502	5467.34
744.841	5448.81
745.181	5534.23
745.52	5520
745.86	5563.16
746.199	5601.35
746.538	5638.64
746.877	5708.69
747.216	5694.23
747.556	5728.58
747.895	5788.92
748.234	5802.25
748.573	5839.54
748.911	5893.32
749.25	5955.24
749.589	5999.98
749.928	6101
750.267	6188
750.605	6156.82
750.944	6280.88
751.283	6328.34
751.621	6426.64
751.96	6460.76
752.298	6565.39
752.636	6683.13
752.975	6776.91
753.313	6794.31
753.651	6925.61
753.989	7072.05
754.327	7096.68
754.666	7209.44
755.004	7362.43
755.342	7512.71
755.679	7592.94
756.017	7726.04
756.355	7875.87
756.693	7934.4
757.031	8142.98
757.368	8230.43
757.706	8344.55
758.044	8509.07
758.381	8700.25
758.719	8851.43
759.056	8973.24
759.394	9149.05
759.731	9250.97
760.068	9368.48
760.405	9518.08
760.743	9719.66
761.08	9990.39
761.417	10067.9
761.754	10258.63
762.091	10393.77
762.428	10471.73
762.765	10679.63
763.102	10938.61
763.438	11023.58
763.775	11184.48
764.112	11335.44
764.449	11646.84
764.785	11711.47
765.122	11874.63
765.458	11985.14
765.795	12172.02
766.131	12447.27
766.467	12484.11
766.804	12681.16
767.14	12814.95
767.476	13035.28
767.812	13157.76
768.148	13378.55
768.485	13400.69
768.821	13493.12
769.157	13706
769.492	13789.16
769.828	14036.83
770.164	14010.62
770.5	14138.07
770.836	14339.43
771.171	14437.5
771.507	14496.71
771.842	14629.59
772.178	14711.84
772.513	14834.33
772.849	14917.26
773.184	14984.83
773.519	15195
773.855	15136.69
774.19	15248.55
774.525	15330.81
774.86	15375.1
775.195	15452.84
775.53	15513.63
775.865	15615.1
776.2	15586.85
776.535	15643.57
776.87	15734.87
777.205	15759.5
777.539	15853.96
777.874	16039.27
778.209	15928.76
778.543	15988.42
778.878	15902.55
779.212	16074.07
779.547	16036.1
779.881	16093.5
780.215	16109.1
780.55	16182.54
780.884	16152.71
781.218	16208.08
781.552	16279.49
781.886	16189.09
782.22	16219.38
782.554	16239.94
782.888	16170.11
783.222	16174.86
783.556	16207.17
783.889	16275.87
784.223	16243.1
784.557	16179.38
784.89	16225.7
785.224	16188.19
785.557	16125.82
785.891	16208.53
786.224	16248.75
786.558	16138.47
786.891	16163.33
787.224	16186.38
787.557	16145.25
787.891	16189.77
788.224	16194.74
788.557	16306.83
788.89	16081.53
789.223	16171.92
789.556	16093.05
789.888	16111.36
790.221	16033.39
790.554	16041.75
790.887	16016.9
791.219	15999.49
791.552	16028.87
791.884	15911.14
792.217	15961.98
792.549	15876.33
792.882	15835.66
793.214	15802.89
793.546	15867.07
793.879	15797.47
794.211	15731.48
794.543	15793.4
794.875	15704.36
795.207	15860.52
795.539	15719.5
795.871	15719.5
796.203	15569
796.535	15598.83
796.867	15505.5
797.198	15526.74
797.53	15526.96
797.862	15559.96
798.193	15489.23
798.525	15410.58
798.856	15400.41
799.188	15242
799.519	15246.52
799.85	15192.06
800.182	15226.18
800.513	15281.77
800.844	15169.01
801.175	15277.93
801.506	15223.02
801.837	15121.78
802.168	15077.03
802.499	15011.27
802.83	14972.4
803.161	14902.35
803.491	14992.06
803.822	14913.87
804.153	14913.65
804.483	14817.38
804.814	14773.31
805.145	14736.93
805.475	14696.48
805.805	14670.04
806.136	14638.17
806.466	14681.56
806.796	14717.27
807.126	14564.05
807.457	14560.89
807.787	14577.61
808.117	14496.71
808.447	14478.86
808.777	14426.65
809.107	14454
809.436	14304.4
809.766	14388.92
810.096	14333.78
810.426	14280.44
810.755	14331.97
811.085	14258.75
811.414	14259.88
811.744	14167.45
812.073	14142.37
812.403	14113.44
812.732	14116.83
813.061	14097.85
813.39	14032.31
813.719	13987.34
814.049	14053.56
814.378	14053.33
814.707	13896.5
815.036	13964.29
815.365	13902.83
815.693	13718.65
816.022	13781.7
816.351	13735.83
816.68	13753.68
817.008	13743.06
817.337	13646.56
817.665	13613.57
817.994	13690.4
818.322	13642.04
818.651	13611.99
818.979	13555.27
819.307	13654.92
819.636	13633.46
819.964	13500.13
820.292	13547.36
820.62	13501.71
820.948	13522.5
821.276	13472.56
821.604	13447.92
821.932	13557.52
822.259	13552.33
822.587	13551.65
822.915	13470.52
823.243	13441.37
823.57	13513.91
823.898	13430.3
824.225	13414.03
824.553	13442.95
824.88	13422.39
825.207	13542.84
825.535	13549.39
825.862	13503.97
826.189	13430.07
826.516	13571.76
826.843	13538.77
827.17	13526.34
827.497	13540.8
827.824	13495.38
828.151	13605.66
828.478	13582.61
828.805	13568.82
829.131	13496.28
829.458	13464.19
829.785	13438.88
830.111	13502.16
830.438	13550.52
830.764	13507.58
831.09	13557.98
831.417	13488.6
831.743	13450.86
832.069	13546.9
832.395	13414.7
832.722	13508.94
833.048	13529.28
833.374	13466.45
833.7	13409.96
834.026	13387.13
834.351	13481.14
834.677	13432.56
835.003	13412.9
835.329	13442.05
835.654	13430.75
835.98	13319.57
836.306	13351.43
836.631	13317.08
836.956	13341.71
837.282	13333.35
837.607	13299.9
837.932	13233.92
838.258	13308.72
838.583	13242.96
838.908	13089.06
839.233	13167.7
839.558	13151.43
839.883	13176.74
840.208	13071.66
840.533	13123.86
840.858	13140.36
841.182	13034.37
841.507	13042.06
841.832	12979.01
842.156	13045
842.481	13075.5
842.805	12906.69
843.13	12943.98
843.454	12918.67
843.778	12862.63
844.103	12833.48
844.427	12773.36
844.751	12804.55
845.075	12823.76
845.399	12767.72
845.723	12660.83
846.047	12616.31
846.371	12569.98
846.695	12506.03
847.019	12356.2
847.343	12393.94
847.666	12465.58
847.99	12309.42
848.313	12280.5
848.637	12132.93
848.96	12179.93
849.284	12226.71
849.607	12122.08
849.931	12015.42
850.254	12004.8
850.577	11999.15
850.9	11772.49
851.223	11856.1
851.546	11758.93
851.869	11645.48
852.192	11810.45
852.515	11617.91
852.838	11586.96
853.161	11573.4
853.483	11582.21
853.806	11516.67
854.129	11473.29
854.451	11462.44
854.774	11306.51
855.096	11380.18
855.419	11281.43
855.741	11286.85
856.063	11192.16
856.385	11206.4
856.708	11133.18
857.03	11139.96
857.352	11198.72
857.674	11021.09
857.996	11035.33
858.318	10914.88
858.64	10991.04
858.961	10991.72
859.283	10901.78
859.605	10823.13
859.926	10924.6
860.248	10896.58
860.57	10743.59
860.891	10835.56
861.212	10701.33
861.534	10730.48
861.855	10718.28
862.176	10664.95
862.498	10672.85
862.819	10716.24
863.14	10650.03
863.461	10598.51
863.782	10608
864.103	10568
864.424	10519.86
864.745	10584.95
865.065	10529.13
865.386	10407.78
865.707	10483.48
866.027	10471.28
866.348	10395.57
866.668	10407.55
866.989	10352.41
867.309	10317.16
867.63	10302.47
867.95	10325.52
868.27	10231.96
868.59	10303.83
868.91	10262.02
869.23	10282.81
869.55	10214.11
869.87	10251.17
870.19	10170.04
870.51	10209.59
870.83	10182.02
871.15	10103.83
871.469	10169.14
871.789	10214.79
872.109	10109.48
872.428	10043.94
872.748	10163.49
873.067	10065.64
873.386	10036.71
873.706	9979.77
874.025	10032.65
874.344	9977.73
874.663	9965.53
874.982	9984.06
875.301	9970.95
875.62	9929.15
875.939	9890.5
876.258	9970.05
876.577	9855.25
876.896	9928.24
877.214	9904.97
877.533	9847.34
877.852	9809.83
878.17	9819.09
878.489	9769.83
878.807	9803.27
879.125	9811.86
879.444	9723.5
879.762	9706.1
880.08	9661.58
880.398	9692.77
880.716	9653.22
881.034	9611.41
881.352	9652.77
881.67	9567.8
881.988	9619.78
882.306	9582.49
882.624	9513.11
882.941	9481.25
883.259	9478.08
883.577	9438.09
883.894	9426.79
884.212	9442.38
884.529	9389.72
884.846	9443.28
885.164	9377.3
885.481	9357.64
885.798	9387.01
886.115	9278.32
886.432	9244.64
886.75	9257.98
887.067	9303.4
887.383	9243.97
887.7	9249.84
888.017	9223.63
888.334	9235.6
888.651	9157.19
888.967	9156.96
889.284	9124.87
889.6	9025.67
889.917	9039.9
890.233	9009.85
890.55	8973.24
890.866	8986.12
891.182	8960.58
891.498	8922.62
891.815	8907.03
892.131	8923.07
892.447	8789.29
892.763	8784.54
893.079	8811.43
893.395	8747.71
893.71	8671.1
894.026	8726.24
894.342	8730.31
894.657	8582.29
894.973	8589.75
895.289	8587.94
895.604	8642.4
895.92	8524.66
896.235	8498.67
896.55	8482.4
896.865	8484.66
897.181	8417.1
897.496	8424.55
897.811	8371.67
898.126	8327.83
898.441	8325.12
898.756	8288.06
899.071	8249.19
899.386	8247.83
899.7	8198.12
900.015	8109.08
900.33	8096.88
900.644	8125.8
900.959	8027.05
901.273	8016.2
901.588	8002.64
901.902	8016.43
902.216	7975.75
902.531	7874.06
902.845	7901.63
903.159	7837.22
903.473	7821.63
903.787	7833.16
904.101	7817.79
904.415	7805.81
904.729	7690.11
905.042	7663.22
905.356	7628.64
905.67	7656.66
905.984	7623.67
906.297	7560.85
906.611	7595.65
906.924	7508.42
907.237	7469.55
907.551	7492.15
907.864	7464.35
908.177	7402.43
908.491	7382.09
908.804	7343.68
909.117	7340.97
909.43	7236.11
909.743	7199.73
910.056	7211.25
910.368	7196.11
910.681	7135.77
910.994	7100.75
911.307	7112.04
911.619	7017.81
911.932	6979.17
912.244	6973.29
912.557	6967.42
912.869	6923.35
913.181	6903.69
913.494	6871.6
913.806	6872.95
914.118	6827.76
914.43	6750.02
914.742	6788.21
915.054	6745.27
915.366	6744.82
915.678	6675.45
915.99	6703.02
916.302	6598.16
916.613	6579.4
916.925	6571.95
917.236	6590.25
917.548	6525.62
917.859	6512.51
918.171	6465.73
918.482	6410.14
918.794	6402.01
919.105	6416.92
919.416	6380.54
919.727	6357.04
920.038	6339.64
920.349	6298.51
920.66	6272.07
920.971	6258.28
921.282	6202.24
921.593	6213.76
921.903	6112.52
922.214	6154.56
922.525	6180.32
922.835	6086.76
923.146	6131.51
923.456	6014.9
923.767	6026.42
924.077	6015.8
924.387	5969.93
924.697	5939.87
925.008	5952.53
925.318	5935.8
925.628	5877.95
925.938	5837.95
926.248	5843.6
926.558	5795.24
926.867	5761.57
927.177	5753.21
927.487	5756.6
927.796	5658.07
928.106	5642.25
928.416	5642.25
928.725	5663.27
929.034	5642.48
929.344	5596.6
929.653	5616.04
929.962	5578.53
930.271	5541.92
930.581	5554.8
930.89	5499.43
931.199	5517.74
931.508	5434.57
931.817	5439.77
932.125	5390.28
932.434	5400.45
932.743	5392.09
933.051	5290.17
933.36	5323.17
933.669	5267.12
933.977	5258.53
934.286	5254.24
934.594	5235.03
934.902	5180.57
935.21	5196.16
935.519	5184.19
935.827	5195.94
936.135	5081.82
936.443	5080.69
936.751	5109.16
937.059	5077.75
937.367	5003.85
937.674	5047.01
937.982	5023.29
938.29	5014.47
938.597	4949.39
938.905	4909.62
939.213	4955.04
939.52	4881.37
939.827	4885.89
940.135	4849.96
940.442	4802.27
940.749	4868.94
941.056	4825.78
941.363	4753.69
941.67	4733.58
941.977	4691.54
942.284	4655.84
942.591	4692.22
942.898	4657.42
943.205	4684.09
943.511	4612.68
943.818	4616.74
944.125	4604.99
944.431	4606.12
944.738	4584.43
945.044	4548.72
945.35	4549.4
945.657	4485
945.963	4449.29
946.269	4444.77
946.575	4441.15
946.881	4390.99
947.187	4390.31
947.493	4390.08
947.799	4417.2
948.105	4332.68
948.41	4315.51
948.716	4324.32
949.022	4309.63
949.327	4290.2
949.633	4262.63
949.938	4261.27
950.244	4237.54
950.549	4212.23
950.854	4188.73
951.16	4193.03
951.465	4120.71
951.77	4155.96
952.075	4113.48
952.38	4081.62
952.685	4074.38
952.99	4090.43
953.294	4070.32
953.599	4004.78
953.904	3978.79
954.209	3957.78
954.513	4043.2
954.818	3948.06
955.122	3953.26
955.426	3906.93
955.731	3859.7
956.035	3862.86
956.339	3837.33
956.643	3875.97
956.948	3823.32
957.252	3803.43
957.556	3835.97
957.86	3798.01
958.163	3758.23
958.467	3769.08
958.771	3727.73
959.075	3714.85
959.378	3705.35
959.682	3723.21
959.985	3672.14
960.289	3669.88
960.592	3654.51
960.896	3646.83
961.199	3636.43
961.502	3588.97
961.805	3578.13
962.108	3624.9
962.411	3575.64
962.714	3557.79
963.017	3523.89
963.32	3549.2
963.623	3511.46
963.926	3481.41
964.228	3478.02
964.531	3447.06
964.833	3447.06
965.136	3433.05
965.438	3399.83
965.741	3377.91
966.043	3387.85
966.345	3354.86
966.648	3383.1
966.95	3350.11
967.252	3323.22
967.554	3327.29
967.856	3283.44
968.158	3285.7
968.46	3260.39
968.761	3227.18
969.063	3224.01
969.365	3224.24
969.666	3165.26
969.968	3195.09
970.269	3186.05
970.571	3140.62
970.872	3192.83
971.174	3151.24
971.475	3167.74
971.776	3130
972.077	3117.35
972.378	3110.79
972.679	3081.87
972.98	3092.04
973.281	3034.19
973.582	3041.87
973.883	3032.6
974.183	3029.67
974.484	2969.1
974.785	2983.79
975.085	2959.39
975.386	2943.79
975.686	2946.96
975.986	2952.15
976.287	2918.26
976.587	2912.38
976.887	2888.2
977.187	2868.77
977.487	2887.07
977.787	2807.98
978.087	2815.21
978.387	2810.69
978.687	2798.03
978.987	2820.63
979.286	2804.59
979.586	2798.94
979.885	2752.16
980.185	2763.46
980.484	2752.16
980.784	2732.05
981.083	2735.21
981.382	2716.23
981.682	2694.31
981.981	2715.32
982.28	2680.75
982.579	2687.75
982.878	2670.81
983.177	2648.21
983.475	2625.61
983.774	2596.68
984.073	2594.2
984.372	2574.99
984.67	2561.43
984.969	2539.06
985.267	2587.87
985.566	2544.48
985.864	2519.4
986.162	2513.3
986.461	2501.77
986.759	2486.18
987.057	2482.79
987.355	2461.55
987.653	2467.87
987.951	2431.72
988.249	2435.78
988.547	2417.48
988.844	2433.98
989.142	2434.88
989.44	2405.95
989.737	2400.3
990.035	2394.65
990.332	2361.44
990.63	2308.78
990.927	2352.85
991.224	2351.94
991.521	2330.25
991.819	2303.36
992.116	2323.7
992.413	2325.05
992.71	2291.83
993.006	2266.75
993.303	2260.42
993.6	2251.83
993.897	2252.06
994.193	2273.98
994.49	2247.09
994.787	2230.37
995.083	2193.98
995.379	2181.55
995.676	2179.29
995.972	2171.38
996.268	2155.56
996.565	2137.26
996.861	2148.33
997.157	2100.42
997.453	2111.72
997.749	2113.31
998.044	2095.91
998.34	2074.21
998.636	2073.31
998.932	2071.5
999.227	2050.71
999.523	2048.67
999.818	2045.51
1000.114	2023.14
1000.409	2018.62
1000.704	1992.63
1001	1997.83
1001.295	2013.87
1001.59	1952.86
1001.885	1988.11
1002.18	1940.66
1002.475	1934.78
1002.77	1911.05
1003.065	1906.31
1003.359	1928.9
1003.654	1906.31
1003.949	1908.79
1004.243	1873.99
1004.538	1828.57
1004.832	1885.06
1005.127	1873.54
1005.421	1827.21
1005.715	1822.24
1006.009	1821.56
1006.304	1821.56
1006.598	1798.74
1006.892	1770.04
1007.186	1778.4
1007.48	1774.78
1007.773	1764.16
1008.067	1716.03
1008.361	1728.91
1008.655	1730.94
1008.948	1744.05
1009.242	1711.73
1009.535	1706.54
1009.829	1679.42
1010.122	1671.06
1010.415	1691.85
1010.708	1648.46
1011.001	1666.31
1011.295	1589.7
1011.588	1624.73
1011.881	1572.3
1012.173	1602.13
1012.466	1591.74
1012.759	1596.03
1013.052	1581.34
1013.344	1575.47
1013.637	1575.69
1013.93	1570.95
1014.222	1550.61
1014.514	1538.41
1014.807	1549.93
1015.099	1529.14
1015.391	1489.14
1015.683	1505.41
1015.976	1495.47
1016.268	1505.41
1016.56	1466.54
1016.851	1447.33
1017.143	1452.31
1017.435	1440.1
1017.727	1444.4
1018.018	1413.44
1018.31	1406.88
1018.602	1430.61
1018.893	1430.39
1019.185	1409.82
1019.476	1401.91
1019.767	1378.86
1020.058	1369.82
1020.35	1350.84
1020.641	1376.15
1020.932	1321.69
1021.223	1324.4
1021.514	1342.48
1021.804	1292.08
1022.095	1308.13
1022.386	1309.94
1022.677	1314.23
1022.967	1301.12
1023.258	1276.49
1023.548	1261.58
1023.839	1276.49
1024.129	1285.53
1024.419	1252.31
1024.709	1220.9
1025	1236.27
1025.29	1246.21
1025.58	1229.49
1025.87	1211.41
1026.16	1199.88
1026.449	1202.82
1026.739	1182.71
1027.029	1163.27
1027.319	1161.24
1027.608	1179.77
1027.898	1140
1028.187	1150.39
1028.477	1132.54
1028.766	1125.76
1029.055	1128.47
1029.344	1140.9
1029.634	1110.85
1029.923	1097.97
1030.212	1069.94
1030.501	1114.91
1030.79	1086.21
1031.078	1085.99
1031.367	1066.1
1031.656	1064.97
1031.945	1068.36
1032.233	1052.99
1032.522	1067.68
1032.81	1060.23
1033.099	1026.1
1033.387	1024.52
1033.675	1035.82
1033.963	1011.64
1034.251	1021.13
1034.54	1012.32
1034.828	998.99
1035.116	996.27
1035.403	1011.19
1035.691	968.25
1035.979	963.51
1036.267	964.64
1036.554	975.71
1036.842	967.57
1037.129	950.4
1037.417	947.46
1037.704	923.28
1037.992	922.38
1038.279	931.42
1038.566	909.27
1038.853	909.27
1039.14	909.27
