Data from hue_40_FLMS001491_29.txt Node
Date: Mon Feb 06 15:07:40 GMT 2017
User: dcchb
Spectrometer: FLMS00149
Trigger mode: 0
Integration Time (sec): 2.000000E-2
Scans to average: 10
Electric dark correction enabled: true
Nonlinearity correction enabled: false
Boxcar width: 0
XAxis mode: Wavelengths
Number of Pixels in Spectrum: 2048
>>>>>Begin Spectral Data<<<<<
341.393	-13.64
341.776	-13.64
342.16	-13.64
342.543	-53.64
342.927	-74.43
343.31	-74.43
343.693	-59.97
344.077	-83.7
344.46	-74.21
344.843	-49.35
345.226	-42.8
345.61	-38.73
345.993	-6.19
346.376	5.34
346.759	5.34
347.142	25.23
347.525	39.46
347.908	80.14
348.291	60.48
348.674	86.92
349.057	126.47
349.44	140.48
349.823	144.54
350.206	141.15
350.588	198.78
350.971	220.93
351.354	236.29
351.737	223.86
352.119	253.69
352.502	253.02
352.884	267.48
353.267	260.25
353.65	276.52
354.032	290.53
354.414	304.54
354.797	314.03
355.179	310.42
355.562	325.33
355.944	331.21
356.326	334.82
356.709	331.88
357.091	337.31
357.473	342.05
357.855	348.61
358.238	335.27
358.62	361.04
359.002	344.99
359.384	340.02
359.766	332.11
360.148	335.73
360.53	342.96
360.912	346.8
361.294	340.25
361.676	327.14
362.057	340.02
362.439	346.8
362.821	337.76
363.203	319.68
363.584	341.83
363.966	334.6
364.348	342.28
364.729	319.23
365.111	310.42
365.493	338.44
365.874	307.48
366.256	324.2
366.637	295.95
367.019	323.75
367.4	323.3
367.781	328.95
368.163	329.17
368.544	314.48
368.925	303.64
369.306	333.47
369.688	334.14
370.069	297.53
370.45	314.71
370.831	301.83
371.212	333.01
371.593	321.94
371.974	301.6
372.355	322.84
372.736	324.65
373.117	327.82
373.498	319
373.879	304.54
374.26	310.19
374.641	325.78
375.021	326.01
375.402	318.32
375.783	332.79
376.163	319.23
376.544	315.61
376.925	318.55
377.305	334.14
377.686	305.9
378.066	333.47
378.447	342.05
378.827	334.82
379.208	336.63
379.588	337.99
379.968	341.83
380.349	340.25
380.729	331.21
381.109	346.35
381.489	356.74
381.87	354.26
382.25	366.01
382.63	360.81
383.01	340.47
383.39	337.53
383.77	363.97
384.15	333.47
384.53	356.74
384.91	360.36
385.29	356.97
385.67	342.28
386.049	335.27
386.429	353.13
386.809	342.05
387.189	327.82
387.568	352.22
387.948	371.2
388.328	356.97
388.707	366.23
389.087	355.39
389.466	368.95
389.846	381.37
390.225	365.78
390.605	359.23
390.984	377.53
391.363	369.17
391.743	363.97
392.122	387.02
392.501	380.47
392.881	365.56
393.26	366.23
393.639	387.02
394.018	389.28
394.397	391.32
394.776	363.3
395.155	407.59
395.534	382.28
395.913	388.38
396.292	401.26
396.671	386.35
397.05	399.23
397.429	391.54
397.808	402.16
398.186	382.73
398.565	416.85
398.944	405.78
399.323	400.81
399.701	401.71
400.08	402.62
400.458	404.2
400.837	409.17
401.215	408.49
401.594	415.95
401.972	389.96
402.351	412.56
402.729	417.53
403.107	425.21
403.486	415.72
403.864	410.07
404.242	422.05
404.62	446.68
404.999	434.48
405.377	442.16
405.755	424.76
406.133	432.22
406.511	440.58
406.889	437.64
407.267	443.97
407.645	428.15
408.023	430.64
408.401	445.33
408.779	446.91
409.156	463.63
409.534	442.16
409.912	471.54
410.29	481.71
410.667	468.38
411.045	473.58
411.422	480.58
411.8	472.45
412.178	469.51
412.555	474.71
412.933	475.38
413.31	499.56
413.687	507.92
414.065	495.27
414.442	521.71
414.819	490.3
415.197	486.23
415.574	490.98
415.951	509.28
416.328	487.13
416.705	507.7
417.082	514.25
417.46	522.16
417.837	524.87
418.214	511.54
418.591	516.74
418.967	541.6
419.344	521.94
419.721	527.36
420.098	551.54
420.475	553.35
420.852	542.05
421.228	553.57
421.605	546.34
421.982	559
422.358	587.24
422.735	592.67
423.111	588.15
423.488	550.64
423.864	566.91
424.241	562.39
424.617	588.6
424.994	582.27
425.37	570.97
425.746	580.24
426.123	576.4
426.499	594.48
426.875	588.6
427.251	612.55
427.627	614.36
428.003	599.67
428.379	636.06
428.756	601.93
429.132	608.71
429.507	620.46
429.883	629.96
430.259	650.75
430.635	667.02
431.011	650.29
431.387	661.14
431.763	665.89
432.138	662.27
432.514	660.46
432.89	676.28
433.265	713.79
433.641	714.7
434.016	700.01
434.392	703.85
434.767	711.99
435.143	724.42
435.518	686.22
435.894	717.41
436.269	745.21
436.644	744.98
437.02	726.68
437.395	750.4
437.77	774.58
438.145	763.51
438.52	775.71
438.895	753.12
439.271	781.14
439.646	783.4
440.021	801.25
440.395	806.67
440.77	769.61
441.145	786.11
441.52	800.12
441.895	803.74
442.27	810.29
442.645	810.97
443.019	831.76
443.394	831.76
443.769	818.65
444.143	829.5
444.518	822.72
444.892	845.32
445.267	864.53
445.641	859.55
446.016	841.02
446.39	842.83
446.764	863.85
447.139	872.66
447.513	873.34
447.887	863.85
448.262	876.28
448.636	881.25
449.01	891.64
449.384	898.87
449.758	899.33
450.132	897.97
450.506	915.15
450.88	906.78
451.254	922.6
451.628	938.65
452.002	951.98
452.376	942.49
452.75	947.01
453.123	951.98
453.497	979.32
453.871	984.3
454.244	993.34
454.618	994.01
454.992	1010.06
455.365	1013.9
455.739	1039.89
456.112	1028.81
456.486	1073.11
456.859	1066.55
457.232	1075.59
457.606	1088.93
457.979	1140.9
458.352	1114.24
458.725	1119.21
459.099	1139.32
459.472	1154.69
459.845	1156.27
460.218	1152.65
460.591	1185.65
460.964	1179.55
461.337	1224.97
461.71	1237.85
462.083	1204.4
462.456	1241.92
462.829	1230.17
463.201	1258.41
463.574	1286.21
463.947	1295.7
464.32	1316.94
464.692	1359.2
465.065	1323.5
465.438	1365.3
465.81	1390.39
466.183	1385.64
466.555	1424.96
466.928	1459.09
467.3	1460.22
467.672	1467
468.045	1519.65
468.417	1529.82
468.789	1538.41
469.161	1558.29
469.534	1591.51
469.906	1598.07
470.278	1622.25
470.65	1654.56
471.022	1704.96
471.394	1737.72
471.766	1771.39
472.138	1792.64
472.51	1824.5
472.882	1861.56
473.253	1869.24
473.625	1923.25
473.997	1987.89
474.369	1937.49
474.74	2009.58
475.112	2063.82
475.484	2095.91
475.855	2122.57
476.227	2179.52
476.598	2244.6
476.97	2301.1
477.341	2363.69
477.713	2382.23
478.084	2416.35
478.455	2511.49
478.827	2533.63
479.198	2634.42
479.569	2663.35
479.94	2747.87
480.311	2828.54
480.682	2887.75
481.053	2945.83
481.424	3062.89
481.795	3099.49
482.166	3163.67
482.537	3249.77
482.908	3345.14
483.279	3423.78
483.65	3503.55
484.021	3640.72
484.391	3684.11
484.762	3775.86
485.133	3837.78
485.503	3918.91
485.874	3998.91
486.244	4097.66
486.615	4233.7
486.985	4292.46
487.356	4448.16
487.726	4498.55
488.097	4630.08
488.467	4760.92
488.837	4849.05
489.207	4932.44
489.578	5079.1
489.948	5145.54
490.318	5312.54
490.688	5348.93
491.058	5470.96
491.428	5592.99
491.798	5691.07
492.168	5874.79
492.538	5943.04
492.908	6077.95
493.278	6197.49
493.648	6295.34
494.017	6398.84
494.387	6448.33
494.757	6574.66
495.126	6729.23
495.496	6861.66
495.866	6913.41
496.235	7046.74
496.605	7119.5
496.974	7172.61
497.344	7312.94
497.713	7373.05
498.082	7509.1
498.452	7722.88
498.821	7756.77
499.19	7803.78
499.559	7932.36
499.928	8043.32
500.298	8101.85
500.667	8225.69
501.036	8264.78
501.405	8390.43
501.774	8451.22
502.143	8539.58
502.512	8625.9
502.88	8707.71
503.249	8756.52
503.618	8883.3
503.987	8980.92
504.356	9094.82
504.724	9092.56
505.093	9216.85
505.462	9247.36
505.83	9401.02
506.199	9426.56
506.567	9664.97
506.936	9649.61
507.304	9762.14
507.672	9866.77
508.041	9890.5
508.409	10027.22
508.777	10068.58
509.145	10196.03
509.514	10201.23
509.882	10257.05
510.25	10353.77
510.618	10387.66
510.986	10472.86
511.354	10648
511.722	10708.79
512.09	10781.55
512.458	10809.57
512.826	10951.72
513.193	11006.86
513.561	11064.94
513.929	11086.18
514.297	11247.76
514.664	11302.89
515.032	11367.07
515.4	11471.25
515.767	11521.42
516.135	11680.29
516.502	11568.42
516.869	11807.06
517.237	11833.95
517.604	11886.38
517.972	11965.02
518.339	12034.18
518.706	12100.84
519.073	12155.53
519.44	12255.64
519.808	12424
520.175	12309.42
520.542	12588.06
520.909	12557.33
521.276	12555.52
521.643	12706.25
522.009	12781.5
522.376	12857.66
522.743	12899.01
523.11	13108.72
523.477	13171.55
523.843	13281.83
524.21	13356.63
524.577	13462.39
524.943	13540.12
525.31	13556.85
525.676	13734.24
526.043	13873.9
526.409	13886.78
526.776	14037.06
527.142	14053.78
527.508	14139.43
527.874	14251.52
528.241	14357.05
528.607	14348.46
528.973	14513.66
529.339	14563.15
529.705	14666.2
530.071	14725.63
530.437	14879.52
530.803	14873.2
531.169	14992.29
531.535	15011.05
531.901	15018.05
532.267	15113.19
532.632	15174.66
532.998	15283.13
533.364	15470.47
533.73	15423.69
534.095	15584.59
534.461	15555.44
534.826	15649.9
535.192	15793.62
535.557	15870.46
535.923	15967.41
536.288	16036.33
536.653	16076.33
537.019	16072.94
537.384	16072.49
537.749	16263.22
538.114	16192.26
538.479	16207.62
538.845	16279.04
539.21	16321.52
539.575	16447.17
539.94	16518.8
540.305	16585.24
540.67	16685.8
541.034	16615.98
541.399	16672.02
541.764	16797.89
542.129	16913.59
542.494	16975.06
542.858	17055.29
543.223	17094.61
543.587	17175.73
543.952	17130.76
544.316	17253.47
544.681	17214.83
545.045	17406.46
545.41	17427.48
545.774	17530.75
546.138	17536.4
546.503	17652.56
546.867	17565.33
547.231	17836.51
547.595	17854.14
547.959	17882.83
548.324	17871.54
548.688	17878.09
549.052	18057.52
549.416	18090.06
549.779	18059.78
550.143	18230.4
550.507	18240.79
550.871	18287.8
551.235	18338.42
551.599	18527.56
551.962	18475.14
552.326	18554
552.689	18660.67
553.053	18598.07
553.417	18739.99
553.78	19010.71
554.143	18783.15
554.507	19036.02
554.87	18977.5
555.234	19162.58
555.597	19090.71
555.96	19205.29
556.323	19233.31
556.686	19433.75
557.05	19409.57
557.413	19527.99
557.776	19679.62
558.139	19693.41
558.502	19668.55
558.865	19795.55
559.228	19897.47
559.59	19894.08
559.953	19913.06
560.316	20159.16
560.679	20098.37
561.041	20312.38
561.404	20278.7
561.767	20460.39
562.129	20420.62
562.492	20605.7
562.854	20572.93
563.217	20512.82
563.579	20748.52
563.941	20855.64
564.304	20928.63
564.666	21032.81
565.028	21071.23
565.39	21148.06
565.753	21299.92
566.115	21333.82
566.477	21430.09
566.839	21375.17
567.201	21628.27
567.563	21631.21
567.925	21781.26
568.287	21829.62
568.648	21940.36
569.01	21981.71
569.372	22134.02
569.734	22072.33
570.095	22181.93
570.457	22247.47
570.819	22377.86
571.18	22339.44
571.542	22560
571.903	22690.84
572.265	22700.11
572.626	22720.9
572.987	22845.19
573.349	22989.14
573.71	23083.38
574.071	23167.44
574.432	23246.99
574.794	23583.02
575.155	23601.55
575.516	23495.12
575.877	23666.64
576.238	23762.45
576.599	23952.05
576.96	23925.61
577.32	24093.75
577.681	24244.93
578.042	24393.17
578.403	24475.43
578.763	24480.4
579.124	24665.03
579.485	24836.78
579.845	24991.35
580.206	25085.58
580.566	25183.21
580.927	25378.23
581.287	25584.33
581.648	25589.98
582.008	25864.77
582.368	25985.67
582.728	26107.25
583.089	26187.25
583.449	26406.68
583.809	26535.49
584.169	26746.1
584.529	26914.24
584.889	27268.58
585.249	27303.83
585.609	27377.5
585.969	27678.28
586.329	27820.2
586.688	28016.13
587.048	28194.43
587.408	28207.54
587.768	28306.52
588.127	28716
588.487	28716.9
588.846	29193.05
589.206	29096.55
589.565	29291.57
589.925	29652.02
590.284	29770.66
590.643	30016.3
591.003	30236.86
591.362	30513.01
591.721	30666.23
592.08	30627.36
592.44	31039.33
592.799	31157.74
593.158	31253.1
593.517	31604.28
593.876	31825.52
594.235	31800.21
594.593	31988.9
594.952	32463.92
595.311	32372.62
595.67	32633.18
596.029	33026.62
596.387	33142.32
596.746	33210.79
597.104	33393.16
597.463	33498.7
597.822	33812.36
598.18	33844
598.538	33957.89
598.897	34335.51
599.255	34231.33
599.613	34768.04
599.972	34709.29
600.33	34936.85
600.688	34941.82
601.046	35266.78
601.404	35579.77
601.762	35467.01
602.12	35895.92
602.478	35951.29
602.836	35939.76
603.194	36151.28
603.552	36346.98
603.91	36248.23
604.268	36565.96
604.625	36527.09
604.983	36835.78
605.341	36776.8
605.698	37036
606.056	37268.99
606.413	37468.53
606.771	37494.97
607.128	37701.75
607.485	37516.67
607.843	37772.71
608.2	38062.87
608.557	38246.59
608.914	38213.15
609.272	38499.69
609.629	38661.72
609.986	38882.28
610.343	38612.91
610.7	39078.44
611.057	39051.32
611.414	39102.16
611.771	39240.01
612.127	39425.32
612.484	39393.68
612.841	39572.43
613.198	39525.66
613.554	39697.63
613.911	39900.79
614.267	39945.53
614.624	40040.44
614.98	40154.34
615.337	40355.46
615.693	40360.44
616.05	40296.48
616.406	40551.39
616.762	40670.48
617.118	40661.44
617.475	40702.12
617.831	40907.77
618.187	41059.63
618.543	41037.25
618.899	41250.13
619.255	41296.91
619.611	41322.22
619.967	41593.4
620.323	41674.53
620.678	41513.85
621.034	41411.48
621.39	41458.26
621.746	41524.25
622.101	41984.12
622.457	41705.03
622.812	41834.52
623.168	41963.78
623.523	41989.09
623.879	42208.97
624.234	41891.24
624.589	42161.29
624.945	42266.83
625.3	42123.55
625.655	42219.6
626.01	42284.23
626.365	42298.01
626.72	42336.43
627.075	42294.62
627.43	42506.82
627.785	42373.94
628.14	42509.98
628.495	42553.6
628.85	42496.42
629.205	42340.04
629.559	42454.62
629.914	42430.21
630.269	42452.36
630.623	42418.69
630.978	42412.59
631.332	42557.44
631.687	42554.73
632.041	42437.67
632.396	42601.96
632.75	42412.13
633.104	42527.84
633.459	42323.1
633.813	42375.75
634.167	42324.9
634.521	42406.03
634.875	42480.83
635.229	42344.34
635.583	42166.26
635.937	42183.66
636.291	42232.93
636.645	42284.23
636.999	42133.27
637.352	42321.74
637.706	42144.8
638.06	42284.91
638.413	42233.83
638.767	42065.02
639.121	42186.83
639.474	41982.31
639.828	41849.66
640.181	42161.07
640.534	42056.21
640.888	41949.09
641.241	41839.04
641.594	41924.24
641.947	42055.53
642.301	41942.77
642.654	41990.68
643.007	41994.07
643.36	41939.6
643.713	41773.28
644.066	41945.03
644.419	41721.08
644.771	41476.34
645.124	41121.09
645.477	41018.5
645.83	40706.64
646.182	40665.96
646.535	40481.11
646.888	40711.84
647.24	40454.44
647.593	40679.07
647.945	40485.4
648.298	40320.66
648.65	40313.21
649.002	40184.62
649.355	40406.76
649.707	40312.98
650.059	40551.62
650.411	41077.48
650.763	41004.26
651.115	41395.66
651.467	41203.58
651.819	41249
652.171	41117.48
652.523	41229.79
652.875	41218.49
653.227	40993.19
653.578	41204.93
653.93	41231.6
654.282	40958.61
654.633	40837.26
654.985	41030.47
655.337	40976.24
655.688	40950.93
656.039	41029.12
656.391	40749.13
656.742	40901.89
657.094	40873.87
657.445	41042
657.796	40711.84
658.147	40852.4
658.498	40792.97
658.849	40833.19
659.2	40891.27
659.551	40811.05
659.902	40947.09
660.253	40949.57
660.604	40822.8
660.955	40669.35
661.306	40856.92
661.656	40662.57
662.007	40653.31
662.358	40726.08
662.708	40662.12
663.059	40780.09
663.409	40381.23
663.76	40686.08
664.11	40653.31
664.461	40676.81
664.811	40565.63
665.161	40720.43
665.511	40530.83
665.862	40575.12
666.212	40723.59
666.562	40777.15
666.912	40733.99
667.262	40646.76
667.612	40649.02
667.962	40539.19
668.312	40576.7
668.662	40798.84
669.011	40543.71
669.361	40608.11
669.711	40449.93
670.06	40348.23
670.41	40419.42
670.76	40345.97
671.109	40627.32
671.459	40476.82
671.808	40372.19
672.157	40446.08
672.507	40115.92
672.856	40202.7
673.205	40330.83
673.554	40338.52
673.904	40217.84
674.253	40360.21
674.602	40245.64
674.951	39605.88
675.3	39517.97
675.649	40111.18
675.998	40236.82
676.346	40119.99
676.695	40163.15
677.044	39800.45
677.393	40064.17
677.741	40028.69
678.09	39985.3
678.438	39787.57
678.787	39997.06
679.135	39967.45
679.484	39823.27
679.832	39918.64
680.181	39698.76
680.529	39768.59
680.877	39636.16
681.225	39696.05
681.573	39842.94
681.922	39569.27
682.27	39315.04
682.618	39405.21
682.966	39263.97
683.314	39539.67
683.661	39375.38
684.009	39080.7
684.357	39133.58
684.705	38979.23
685.053	39021.26
685.4	39038.89
685.748	38829.4
686.095	38768.39
686.443	38639.13
686.79	38535.4
687.138	38701.95
687.485	38670.08
687.832	38515.96
688.18	38582.63
688.527	38334.05
688.874	38328.17
689.221	38332.92
689.568	38263.09
689.915	38081.4
690.262	37979.48
690.609	38047.28
690.956	37813.38
691.303	37779.49
691.65	37566.39
691.997	37696.55
692.344	37320.97
692.69	37450.68
693.037	37456.56
693.383	37090.01
693.73	37348.54
694.077	37063.8
694.423	37089.56
694.769	36900.87
695.116	36816.57
695.462	36774.77
695.808	36661.78
696.155	36694.54
696.501	36520.54
696.847	36540.88
697.193	36254.56
697.539	36338.62
697.885	35977.5
698.231	35959.2
698.577	35959.42
698.923	35872.87
699.269	35778.18
699.614	35602.14
699.96	35534.35
700.306	35618.19
700.651	35420.68
700.997	35396.27
701.342	35199.67
701.688	35252.55
702.033	35078.99
702.379	35100.91
702.724	34944.31
703.069	35102.27
703.415	34806.01
703.76	34642.85
704.105	34705.44
704.45	34451.44
704.795	34369.18
705.14	34231.33
705.485	34230.88
705.83	34187.04
706.175	34126.7
706.52	34035.63
706.865	34001.28
707.209	33936.2
707.554	33810.78
707.899	33995.63
708.243	33619.37
708.588	33618.92
708.932	33447.85
709.277	33517
709.621	33479.49
709.966	33226.16
710.31	33327.17
710.654	32877.69
710.998	33221.64
711.342	33061.42
711.687	33004.47
712.031	32801.76
712.375	32712.28
712.719	32734.65
713.063	32744.59
713.407	32804.25
713.75	32615.1
714.094	32674.54
714.438	32392.06
714.782	32463.69
715.125	32270.25
715.469	32263.93
715.812	32085.17
716.156	32199.75
716.499	31983.48
716.843	32060.09
717.186	31855.35
717.53	31986.42
717.873	32004.72
718.216	31947.1
718.559	31728.57
718.902	31589.82
719.246	31676.82
719.589	31526.54
719.932	31442.7
720.275	31475.02
720.617	31367.23
720.96	31289.94
721.303	31302.6
721.646	31372.88
721.989	31174.46
722.331	31277.51
722.674	31162.49
723.016	31033.68
723.359	31050.85
723.701	30976.5
724.044	30700.58
724.386	30738.54
724.729	30915.49
725.071	30705.1
725.413	30703.29
725.755	30699.45
726.097	30527.47
726.439	30386.23
726.782	30435.05
727.124	30542.16
727.465	30358.44
727.807	30234.6
728.149	30198.44
728.491	30256.97
728.833	30285.67
729.175	30044.32
729.516	30071.44
729.858	29980.6
730.199	30057.88
730.541	29882.97
730.882	29865.34
731.224	29949.41
731.565	29861.5
731.906	29710.09
732.248	29898.56
732.589	29637.33
732.93	29449.76
733.271	29517.56
733.612	29586.26
733.953	29584.22
734.294	29429.42
734.635	29351.91
734.976	29421.06
735.317	29298.58
735.658	29319.82
735.999	29170.22
736.339	29182.2
736.68	29204.8
737.021	29126.83
737.361	28939.49
737.702	29088.19
738.042	29126.16
738.383	29071.92
738.723	29041.64
739.063	28810.91
739.404	28922.54
739.744	28832.6
740.084	28686.39
740.424	28723
740.764	28577.47
741.104	28729.78
741.444	28567.3
741.784	28457.25
742.124	28542.44
742.464	28450.47
742.804	28334.99
743.143	28298.61
743.483	28390.36
743.823	28179.51
744.162	28221.09
744.502	28186.52
744.841	28061.78
745.181	28228.1
745.52	28067.88
745.86	28097.03
746.199	27984.94
746.538	28015.9
746.877	28053.41
747.216	27945.85
747.556	27920.09
747.895	27888
748.234	27771.39
748.573	27768.9
748.911	27715.34
749.25	27623.82
749.589	27534.11
749.928	27509.7
750.267	27675.12
750.605	27411.62
750.944	27494.11
751.283	27398.74
751.621	27440.1
751.96	27253.66
752.298	27203.72
752.636	27249.82
752.975	27110.16
753.313	27010.5
753.651	27145.19
753.989	26898.42
754.327	26940.68
754.666	26752.21
755.004	26789.04
755.342	26923.28
755.679	26770.96
756.017	26731.87
756.355	26701.36
756.693	26501.37
757.031	26538.88
757.368	26523.29
757.706	26343.18
758.044	26220.47
758.381	26326
758.719	26118.55
759.056	26236.74
759.394	26120.58
759.731	25842.4
760.068	25878.33
760.405	25764.21
760.743	25705.45
761.08	25779.12
761.417	25537.32
761.754	25590.65
762.091	25460.94
762.428	25433.14
762.765	25330.32
763.102	25272.92
763.438	25112.93
763.775	25068.41
764.112	24946.6
764.449	25011.91
764.785	24910.22
765.122	24872.71
765.458	24665.03
765.795	24682.2
766.131	24645.37
766.467	24569.89
766.804	24423.68
767.14	24384.13
767.476	24364.7
767.812	24269.56
768.148	24146.85
768.485	24072.05
768.821	24000.87
769.157	23975.1
769.492	23933.98
769.828	23715.45
770.164	23711.16
770.5	23656.47
770.836	23556.36
771.171	23411.28
771.507	23384.84
771.842	23169.93
772.178	23163.83
772.513	23084.05
772.849	23055.13
773.184	22955.7
773.519	22939.65
773.855	22988.69
774.19	22747.57
774.525	22586.21
774.86	22702.82
775.195	22605.2
775.53	22503.05
775.865	22428.25
776.2	22208.6
776.535	22167.69
776.87	22007.47
777.205	22067.13
777.539	21992.33
777.874	22032.56
778.209	21741.94
778.543	21703.3
778.878	21548.05
779.212	21556.18
779.547	21504.43
779.881	21520.71
780.215	21264.21
780.55	21338.56
780.884	21237.77
781.218	21087.04
781.552	21183.99
781.886	21049.98
782.22	20920.95
782.554	20876.43
782.888	20665.81
783.222	20537.68
783.556	20407.51
783.889	20494.97
784.223	20315.54
784.557	20193.51
784.89	20345.82
785.224	20125.04
785.557	20096.56
785.891	19946.51
786.224	19969.33
786.558	19951.71
786.891	19800.75
787.224	19708.32
787.557	19678.27
787.891	19612.28
788.224	19570.7
788.557	19569.8
788.89	19451.83
789.223	19388.33
789.556	19226.53
789.888	19250.03
790.221	19199.18
790.554	19062.69
790.887	19094.55
791.219	18902.7
791.552	18911.51
791.884	18749.25
792.217	18766.65
792.549	18714.9
792.882	18517.85
793.214	18485.76
793.546	18586.09
793.879	18443.27
794.211	18292.32
794.543	18413.89
794.875	18315.14
795.207	18307
795.539	18110.63
795.871	18178.19
796.203	18011.87
796.535	17961.02
796.867	17869.28
797.198	17839.45
797.53	17752.22
797.862	17726.91
798.193	17794.02
798.525	17627.7
798.856	17629.73
799.188	17476.29
799.519	17375.96
799.85	17327.14
800.182	17202.85
800.513	17294.38
800.844	17135.06
801.175	17278.33
801.506	17144.55
801.837	17112.01
802.168	17046.25
802.499	17001.05
802.83	16901.84
803.161	16935.74
803.491	16889.19
803.822	16842.18
804.153	16756.54
804.483	16611.46
804.814	16558.35
805.145	16517.22
805.475	16481.74
805.805	16409.88
806.136	16407.85
806.466	16462.99
806.796	16340.05
807.126	16265.25
807.457	16225.25
807.787	16218.7
808.117	16124.01
808.447	16124.01
808.777	16040.62
809.107	16096.44
809.436	15992.26
809.766	15931.25
810.096	15910.68
810.426	15812.83
810.755	15825.94
811.085	15754.3
811.414	15723.8
811.744	15662.33
812.073	15611.48
812.403	15625.72
812.732	15441.09
813.061	15518.15
813.39	15383.69
813.719	15345.5
814.049	15498.72
814.378	15355.9
814.707	15302.79
815.036	15298.5
815.365	15182.79
815.693	14940.77
816.022	15067.77
816.351	15049.24
816.68	14944.16
817.008	14981.44
817.337	14861.22
817.665	14818.73
817.994	14868
818.322	14858.96
818.651	14758.62
818.979	14675.01
819.307	14765.85
819.636	14698.06
819.964	14640.89
820.292	14686.53
820.62	14528.8
820.948	14549.59
821.276	14635.69
821.604	14630.49
821.932	14625.07
822.259	14538.06
822.587	14569.7
822.915	14490.61
823.243	14573.09
823.57	14433.89
823.898	14473.21
824.225	14425.52
824.553	14407.45
824.88	14484.05
825.207	14509.59
825.535	14407.45
825.862	14567.44
826.189	14529.48
826.516	14513.66
826.843	14467.56
827.17	14413.55
827.497	14470.95
827.824	14555.92
828.151	14547.56
828.478	14444.28
828.805	14623.03
829.131	14455.35
829.458	14468.46
829.785	14361.57
830.111	14420.33
830.438	14559.08
830.764	14531.51
831.09	14481.34
831.417	14386.43
831.743	14414.9
832.069	14467.11
832.395	14377.16
832.722	14411.97
833.048	14385.98
833.374	14363.61
833.7	14319.31
834.026	14354.11
834.351	14425.3
834.677	14336.26
835.003	14427.11
835.329	14341.23
835.654	14283.16
835.98	14199.32
836.306	14308.92
836.631	14222.82
836.956	14277.51
837.282	14257.17
837.607	14188.92
837.932	14151.63
838.258	14071.64
838.583	14040.9
838.908	14049.94
839.233	14086.32
839.558	13952.09
839.883	13920.91
840.208	13943.96
840.533	13856.05
840.858	13898.98
841.182	13891.53
841.507	13890.17
841.832	13781.7
842.156	13800.23
842.481	13791.87
842.805	13801.13
843.13	13645.43
843.454	13681.82
843.778	13589.16
844.103	13570.41
844.427	13567.02
844.751	13563.63
845.075	13491.99
845.399	13403.86
845.723	13403.86
846.047	13384.2
846.371	13266.01
846.695	13257.42
847.019	13176.97
847.343	13094.49
847.666	13013.81
847.99	12973.13
848.313	13056.07
848.637	12928.84
848.96	12867.37
849.284	12876.19
849.607	12733.14
849.931	12744.21
850.254	12711.45
850.577	12603.88
850.9	12535.4
851.223	12541.28
851.546	12437.78
851.869	12413.6
852.192	12406.82
852.515	12276.43
852.838	12232.81
853.161	12249.99
853.483	12152.14
853.806	12123.66
854.129	12146.04
854.451	11942.2
854.774	11955.99
855.096	11969.09
855.419	11910.34
855.741	11902.65
856.063	11867.4
856.385	11870.11
856.708	11779.27
857.03	11693.62
857.352	11739.27
857.674	11691.59
857.996	11661.76
858.318	11645.71
858.64	11602.77
858.961	11632.15
859.283	11495.66
859.605	11396.9
859.926	11452.04
860.248	11417.24
860.57	11309.67
860.891	11382.67
861.212	11397.36
861.534	11313.52
861.855	11248.66
862.176	11289.56
862.498	11219.51
862.819	11201.65
863.14	11117.59
863.461	11137.02
863.782	11133.41
864.103	11053.18
864.424	11060.87
864.745	11106.74
865.065	11064.94
865.386	11050.25
865.707	10961.43
866.027	11013.86
866.348	10968.89
866.668	11050.02
866.989	10929.35
867.309	10897.26
867.63	10954.43
867.95	10861.55
868.27	10771.84
868.59	10856.13
868.91	10876.01
869.23	10822.68
869.55	10740.65
869.87	10760.08
870.19	10734.1
870.51	10720.09
870.83	10727.54
871.15	10701.55
871.469	10716.47
871.789	10689.13
872.109	10685.06
872.428	10583.59
872.748	10640.99
873.067	10650.71
873.386	10518.73
873.706	10643.93
874.025	10470.83
874.344	10515.8
874.663	10527.1
874.982	10441.45
875.301	10438.96
875.62	10441.67
875.939	10399.42
876.258	10392.86
876.577	10345.86
876.896	10386.53
877.214	10337.95
877.533	10317.38
877.852	10289.14
878.17	10336.59
878.489	10313.09
878.807	10298.18
879.125	10313.32
879.444	10310.38
879.762	10263.6
880.08	10241.68
880.398	10228.8
880.716	10205.3
881.034	10144.96
881.352	10080.1
881.67	10073.77
881.988	10160.33
882.306	10050.95
882.624	10051.85
882.941	10013.44
883.259	9997.17
883.577	10023.83
883.894	9929.6
884.212	9881.69
884.529	9937.51
884.846	9892.99
885.164	9904.06
885.481	9823.84
885.798	9820
886.115	9767.34
886.432	9832.2
886.75	9768.25
887.067	9692.32
887.383	9712.2
887.7	9763.5
888.017	9624.75
888.334	9699.77
888.651	9553.79
888.967	9537.97
889.284	9521.02
889.6	9524.64
889.917	9401.48
890.233	9490.97
890.55	9405.09
890.866	9455.49
891.182	9410.74
891.498	9330.07
891.815	9330.07
892.131	9317.18
892.447	9319.9
892.763	9256.62
893.079	9214.59
893.395	9210.07
893.71	9179.79
894.026	9124.87
894.342	9102.95
894.657	9060.92
894.973	9060.02
895.289	9002.16
895.604	9015.5
895.92	8890.75
896.235	8880.59
896.55	8914.48
896.865	8846.01
897.181	8838.1
897.496	8808.27
897.811	8781.15
898.126	8721.04
898.441	8754.71
898.756	8728.73
899.071	8653.47
899.386	8740.02
899.7	8577.77
900.015	8568.5
900.33	8525.11
900.644	8500.71
900.959	8507.26
901.273	8466.36
901.588	8439.69
901.902	8363.99
902.216	8419.81
902.531	8354.05
902.845	8326.93
903.159	8250.32
903.473	8234.73
903.787	8238.12
904.101	8161.28
904.415	8174.84
904.729	8137.55
905.042	8010.78
905.356	8043.55
905.67	8022.08
905.984	7998.8
906.297	8057.1
906.611	7907.73
906.924	7929.88
907.237	7808.07
907.551	7859.14
907.864	7814.85
908.177	7780.73
908.491	7800.61
908.804	7768.52
909.117	7714.74
909.43	7652.6
909.743	7634.29
910.056	7566.5
910.368	7577.8
910.681	7546.84
910.994	7497.8
911.307	7524.24
911.619	7456.89
911.932	7433.62
912.244	7339.38
912.557	7389.1
912.869	7321.76
913.181	7281.76
913.494	7263.68
913.806	7232.27
914.118	7235.21
914.43	7159.95
914.742	7197.47
915.054	7116.56
915.366	7062.78
915.678	7048.32
915.99	7058.94
916.302	6968.77
916.613	7000.18
916.925	6958.6
917.236	6880.64
917.548	6800.64
917.859	6902.11
918.171	6769.45
918.482	6773.3
918.794	6749.34
919.105	6758.83
919.416	6705.95
919.727	6697.14
920.038	6649.68
920.349	6651.04
920.66	6555.45
920.971	6629.57
921.282	6570.14
921.593	6481.78
921.903	6461.21
922.214	6466.86
922.525	6455.56
922.835	6410.59
923.146	6339.86
923.456	6369.47
923.767	6377.37
924.077	6310.48
924.387	6302.12
924.697	6224.16
925.008	6228.23
925.318	6150.26
925.628	6179.41
925.938	6155.69
926.248	6141.45
926.558	6102.35
926.867	6084.28
927.177	6039.98
927.487	5987.55
927.796	5937.39
928.106	5986.88
928.416	5922.25
928.725	5945.07
929.034	5871.4
929.344	5879.31
929.653	5882.92
929.962	5801.12
930.271	5797.73
930.581	5740.33
930.89	5697.17
931.199	5714.34
931.508	5679.54
931.817	5668.69
932.125	5642.93
932.434	5641.57
932.743	5577.17
933.051	5556.38
933.36	5512.09
933.669	5487.91
933.977	5473.67
934.286	5460.79
934.594	5428.25
934.902	5408.59
935.21	5449.26
935.519	5364.07
935.827	5411.75
936.135	5287.69
936.443	5308.7
936.751	5273
937.059	5296.5
937.367	5216.05
937.674	5269.16
937.982	5215.6
938.29	5180.34
938.597	5192.32
938.905	5090.18
939.213	5070.29
939.52	5065.54
939.827	5097.63
940.135	5080.01
940.442	5032.55
940.749	5009.28
941.056	5065.09
941.363	4935.15
941.67	4913.91
941.977	4927.7
942.284	4925.66
942.591	4884.08
942.898	4866.23
943.205	4848.15
943.511	4780.13
943.818	4795.27
944.125	4765.67
944.431	4715.72
944.738	4700.58
945.044	4711.43
945.35	4652.22
945.657	4643.41
945.963	4630.3
946.269	4614.94
946.575	4602.73
946.881	4589.63
947.187	4576.74
947.493	4572
947.799	4564.99
948.105	4519.12
948.41	4474.15
948.716	4489.97
949.022	4499.01
949.327	4450.65
949.633	4390.53
949.938	4391.21
950.244	4385.11
950.549	4339.01
950.854	4334.26
951.16	4338.78
951.465	4332
951.77	4303.3
952.075	4231.22
952.38	4219.92
952.685	4244.78
952.99	4156.19
953.294	4208.84
953.599	4169.52
953.904	4141.28
954.209	4143.31
954.513	4110.54
954.818	4100.15
955.122	4048.17
955.426	4098.11
955.731	4035.97
956.035	4025.8
956.339	4001.39
956.643	4002.07
956.948	3982.41
957.252	3947.16
957.556	3938.12
957.86	3915.74
958.163	3864.22
958.467	3882.3
958.771	3865.35
959.075	3850.44
959.378	3863.32
959.682	3841.85
959.985	3808.63
960.289	3796.43
960.592	3783.09
960.896	3710.33
961.199	3771.12
961.502	3731.12
961.805	3699.7
962.108	3670.78
962.411	3720.72
962.714	3640.05
963.017	3641.18
963.32	3660.61
963.623	3570.67
963.926	3643.44
964.228	3547.84
964.531	3622.87
964.833	3585.36
965.136	3511.69
965.438	3517.56
965.741	3494.96
966.043	3462.2
966.345	3504.23
966.648	3413.61
966.95	3424.68
967.252	3416.1
967.554	3449.32
967.856	3385.36
968.158	3338.81
968.46	3334.97
968.761	3382.2
969.063	3341.07
969.365	3304.46
969.666	3334.52
969.968	3298.13
970.269	3274.86
970.571	3287.29
970.872	3264.46
971.174	3236.89
971.475	3208.87
971.776	3232.6
972.077	3211.36
972.378	3210.45
972.679	3212.94
972.98	3182.2
973.281	3149.89
973.582	3151.7
973.883	3141.75
974.183	3088.87
974.484	3107.4
974.785	3057.24
975.085	3105.14
975.386	3073.05
975.686	3042.32
975.986	3020.4
976.287	3004.58
976.587	3003
976.887	2981.08
977.187	2967.97
977.487	2988.31
977.787	2944.7
978.087	2934.08
978.387	2926.39
978.687	2917.35
978.987	2905.15
979.286	2831.93
979.586	2893.4
979.885	2842.1
980.185	2831.48
980.484	2856.79
980.784	2805.94
981.083	2798.26
981.382	2764.36
981.682	2810.91
981.981	2806.85
982.28	2735.44
982.579	2730.24
982.878	2746.51
983.177	2746.28
983.475	2703.8
983.774	2682.56
984.073	2663.35
984.372	2652.95
984.67	2679.39
984.969	2696.57
985.267	2629.45
985.566	2626.96
985.864	2631.94
986.162	2588.55
986.461	2562.11
986.759	2611.15
987.057	2560.07
987.355	2554.2
987.653	2559.85
987.951	2519.17
988.249	2546.51
988.547	2485.95
988.844	2515.33
989.142	2486.63
989.44	2453.18
989.737	2445.73
990.035	2438.27
990.332	2445.95
990.63	2443.69
990.927	2415.67
991.224	2384.26
991.521	2404.82
991.819	2385.16
992.116	2344.03
992.413	2351.72
992.71	2340.19
993.006	2347.88
993.303	2330.93
993.6	2349.46
993.897	2309.91
994.193	2283.7
994.49	2280.08
994.787	2272.17
995.083	2247.54
995.379	2277.82
995.676	2229.91
995.972	2238.5
996.268	2234.66
996.565	2254.09
996.861	2250.48
997.157	2194.21
997.453	2134.32
997.749	2191.95
998.044	2186.3
998.34	2148.56
998.636	2132.51
998.932	2126.86
999.227	2121.44
999.523	2096.58
999.818	2081.44
1000.114	2086.64
1000.409	2083.7
1000.704	2066.75
1001	2077.6
1001.295	2050.93
1001.59	2023.59
1001.885	2049.8
1002.18	2008.45
1002.475	1981.11
1002.77	1967.32
1003.065	1943.37
1003.359	1960.99
1003.654	1945.63
1003.949	1928.68
1004.243	1942.01
1004.538	1912.63
1004.832	1894.1
1005.127	1914.44
1005.421	1915.35
1005.715	1878.51
1006.009	1860.66
1006.304	1859.75
1006.598	1833.31
1006.892	1848.91
1007.186	1847.1
1007.48	1829.25
1007.773	1823.6
1008.067	1816.36
1008.361	1793.77
1008.655	1778.17
1008.948	1760.55
1009.242	1777.95
1009.535	1748.34
1009.829	1700.66
1010.122	1738.4
1010.415	1703.83
1010.708	1688.23
1011.001	1699.08
1011.295	1681.68
1011.588	1699.08
1011.881	1676.03
1012.173	1647.78
1012.466	1663.37
1012.759	1654.79
1013.052	1647.1
1013.344	1630.83
1013.637	1592.42
1013.93	1619.08
1014.222	1615.92
1014.514	1607.78
1014.807	1585.86
1015.099	1539.76
1015.391	1557.84
1015.683	1562.13
1015.976	1505.19
1016.268	1516.26
1016.56	1508.58
1016.851	1518.97
1017.143	1506.77
1017.435	1506.54
1017.727	1489.82
1018.018	1485.3
1018.31	1475.81
1018.602	1485.75
1018.893	1468.58
1019.185	1395.81
1019.476	1426.77
1019.767	1416.15
1020.058	1420.22
1020.35	1386.32
1020.641	1383.16
1020.932	1394
1021.223	1356.72
1021.514	1379.31
1021.804	1361.24
1022.095	1372.08
1022.386	1339.99
1022.677	1355.13
1022.967	1337.28
1023.258	1315.13
1023.548	1295.93
1023.839	1296.6
1024.129	1301.12
1024.419	1311.97
1024.709	1248.47
1025	1267
1025.29	1271.07
1025.58	1215.02
1025.87	1222.48
1026.16	1248.47
1026.449	1234.91
1026.739	1224.74
1027.029	1221.8
1027.319	1202.37
1027.608	1204.86
1027.898	1196.27
1028.187	1164.63
1028.477	1148.59
1028.766	1169.83
1029.055	1167.34
1029.344	1158.08
1029.634	1116.04
1029.923	1157.62
1030.212	1117.4
1030.501	1121.02
1030.79	1107.68
1031.078	1094.12
1031.367	1100.9
1031.656	1093.22
1031.945	1084.41
1032.233	1092.77
1032.522	1102.03
1032.81	1072.2
1033.099	1048.25
1033.387	1040.11
1033.675	1037.4
1033.963	1036.5
1034.251	1027.68
1034.54	1042.15
1034.828	1018.19
1035.116	1005.99
1035.403	1027.46
1035.691	1013
1035.979	1003.05
1036.267	980.68
1036.554	974.58
1036.842	976.39
1037.129	955.82
1037.417	970.74
1037.704	977.97
1037.992	924.41
1038.279	951.3
1038.566	916.73
1038.853	916.73
1039.14	916.73
