Data from hue_250_FLMS001491_00094.txt Node
Date: Tue Feb 07 16:01:45 GMT 2017
User: dcchb
Spectrometer: FLMS00149
Trigger mode: 0
Integration Time (sec): 2.000000E-2
Scans to average: 10
Electric dark correction enabled: true
Nonlinearity correction enabled: false
Boxcar width: 0
XAxis mode: Wavelengths
Number of Pixels in Spectrum: 2048
>>>>>Begin Spectral Data<<<<<
341.393	-17.01
341.776	-17.01
342.16	-17.01
342.543	-60.39
342.927	-67.63
343.31	-82.09
343.693	-53.39
344.077	-78.92
344.46	-48.87
344.843	-50.22
345.226	-30.56
345.61	-42.77
345.993	-33.5
346.376	-8.87
346.759	5.82
347.142	11.02
347.525	45.59
347.908	60.05
348.291	79.72
348.674	117.23
349.057	109.77
349.44	128.53
349.823	129.43
350.206	171.69
350.588	178.02
350.971	181.63
351.354	211.69
351.737	217.79
352.119	244.68
352.502	262.99
352.884	258.24
353.267	282.87
353.65	269.77
354.032	282.65
354.414	305.92
354.797	314.51
355.179	293.95
355.562	295.75
355.944	317.9
356.326	316.77
356.709	319.94
357.091	336.88
357.473	342.08
357.855	331.69
358.238	347.05
358.62	331.23
359.002	349.54
359.384	313.83
359.766	326.04
360.148	328.97
360.53	321.07
360.912	321.52
361.294	321.07
361.676	317.9
362.057	321.74
362.439	320.84
362.821	292.82
363.203	319.48
363.584	314.51
363.966	296.66
364.348	289.43
364.729	317
365.111	319.71
365.493	319.94
365.874	316.32
366.256	316.77
366.637	336.43
367.019	292.82
367.4	300.27
367.781	327.84
368.163	316.09
368.544	300.27
368.925	302.76
369.306	306.38
369.688	293.95
370.069	324.91
370.45	285.81
370.831	298.47
371.212	304.79
371.593	311.35
371.974	285.13
372.355	302.08
372.736	300.27
373.117	295.3
373.498	301.86
373.879	309.77
374.26	305.25
374.641	291.24
375.021	299.37
375.402	297.79
375.783	306.15
376.163	305.92
376.544	317.9
376.925	332.59
377.305	306.15
377.686	325.58
378.066	310.9
378.447	336.21
378.827	310.22
379.208	317.68
379.588	312.03
379.968	331.91
380.349	334.17
380.729	324.45
381.109	332.36
381.489	330.56
381.87	337.34
382.25	354.74
382.63	325.36
383.01	328.3
383.39	336.21
383.77	315.64
384.15	322.65
384.53	322.42
384.91	349.54
385.29	338.24
385.67	315.64
386.049	342.08
386.429	351.12
386.809	352.25
387.189	349.31
387.568	351.12
387.948	345.02
388.328	344.34
388.707	334.62
389.087	338.24
389.466	336.21
389.846	357.9
390.225	357.67
390.605	349.99
390.984	342.76
391.363	362.42
391.743	361.97
392.122	357.22
392.501	354.96
392.881	373.94
393.26	360.61
393.639	346.38
394.018	363.32
394.397	367.17
394.776	378.01
395.155	360.61
395.534	372.82
395.913	368.3
396.292	393.15
396.671	395.41
397.05	382.98
397.429	392.7
397.808	402.19
398.186	370.78
398.565	386.37
398.944	379.37
399.323	382.53
399.701	370.78
400.08	390.22
400.458	399.03
400.837	404.68
401.215	401.06
401.594	406.94
401.972	435.19
402.351	395.64
402.729	403.32
403.107	417.56
403.486	421.18
403.864	418.69
404.242	422.76
404.62	431.12
404.999	402.64
405.377	439.93
405.755	423.44
406.133	450.55
406.511	438.8
406.889	456.88
407.267	445.81
407.645	449.2
408.023	469.76
408.401	474.06
408.779	461.63
409.156	451.01
409.534	470.44
409.912	467.95
410.29	486.48
410.667	488.07
411.045	480.38
411.422	482.19
411.8	501.85
412.178	502.98
412.555	509.08
412.933	524.22
413.31	548.86
413.687	535.52
414.065	571.23
414.442	539.14
414.819	569.65
415.197	544.56
415.574	575.97
415.951	564
416.328	561.51
416.705	585.46
417.082	586.37
417.46	566.93
417.837	590.66
418.214	594.73
418.591	629.31
418.967	617.78
419.344	644.22
419.721	627.95
420.098	620.72
420.475	640.38
420.852	651.45
421.228	650.55
421.605	669.53
421.982	666.37
422.358	683.77
422.735	671.34
423.111	716.53
423.488	701.85
423.864	702.98
424.241	737.78
424.617	752.69
424.994	729.42
425.37	766.25
425.746	748.4
426.123	788.4
426.499	775.74
426.875	774.16
427.251	806.7
427.627	828.17
428.003	851.45
428.379	839.02
428.756	855.74
429.132	846.47
429.507	846.02
429.883	861.62
430.259	867.72
430.635	913.59
431.011	906.13
431.387	935.96
431.763	912.91
432.138	922.41
432.514	935.96
432.89	958.79
433.265	981.39
433.641	987.94
434.016	1003.08
434.392	1035.62
434.767	1032.68
435.143	1034.94
435.518	1064.55
435.894	1081.95
436.269	1085.11
436.644	1088.05
437.02	1127.6
437.395	1118.56
437.77	1150.42
438.145	1174.6
438.52	1164.66
438.895	1188.39
439.271	1186.13
439.646	1211.21
440.021	1225.9
440.395	1242.85
440.77	1247.82
441.145	1290.98
441.52	1296.86
441.895	1281.27
442.27	1296.63
442.645	1310.19
443.019	1325.11
443.394	1359.68
443.769	1360.36
444.143	1318.33
444.518	1373.01
444.892	1347.25
445.267	1391.55
445.641	1397.87
446.016	1402.39
446.39	1403.75
446.764	1429.51
447.139	1453.46
447.513	1427.93
447.887	1470.64
448.262	1453.46
448.636	1458.66
449.01	1523.07
449.384	1510.86
449.758	1507.02
450.132	1524.88
450.506	1554.93
450.88	1549.06
451.254	1567.81
451.628	1563.97
452.002	1563.74
452.376	1588.6
452.75	1593.35
453.123	1659.56
453.497	1636.96
453.871	1642.39
454.244	1680.8
454.618	1709.28
454.992	1725.1
455.365	1724.19
455.739	1769.61
456.112	1761.25
456.486	1774.36
456.859	1797.86
457.232	1838.54
457.606	1800.12
457.979	1838.54
458.352	1857.52
458.725	1926.9
459.099	1890.97
459.472	1942.04
459.845	1904.53
460.218	1958.08
460.591	2002.6
460.964	2009.38
461.337	2034.24
461.71	2043.28
462.083	2090.51
462.456	2070.4
462.829	2106.1
463.201	2138.64
463.574	2158.08
463.947	2166.44
464.32	2201.47
464.692	2223.61
465.065	2246.89
465.438	2275.14
465.81	2273.33
466.183	2323.95
466.555	2366.43
466.928	2382.03
467.3	2370.05
467.672	2400.78
468.045	2454.34
468.417	2490.95
468.789	2462.7
469.161	2492.99
469.534	2523.04
469.906	2564.4
470.278	2645.52
470.65	2627.22
471.022	2690.04
471.394	2739.98
471.766	2726.2
472.138	2758.52
472.51	2856.82
472.882	2865.4
473.253	2872.64
473.625	2880.32
473.997	2964.39
474.369	2942.47
474.74	3030.82
475.112	3049.58
475.484	3113.08
475.855	3162.8
476.227	3168.67
476.598	3262
476.97	3286.64
477.341	3299.97
477.713	3324.15
478.084	3373.87
478.455	3489.34
478.827	3504.26
479.198	3574.09
479.569	3553.3
479.94	3650.02
480.311	3669.23
480.682	3806.62
481.053	3819.96
481.424	3850.01
481.795	3918.48
482.166	3933.4
482.537	3974.3
482.908	4072.6
483.279	4062.44
483.65	4164.13
484.021	4251.58
484.391	4282.99
484.762	4271.24
485.133	4346.95
485.503	4408.64
485.874	4467.85
486.244	4518.69
486.615	4598.24
486.985	4601.18
487.356	4685.92
487.726	4693.38
488.097	4786.03
488.467	4786.94
488.837	4911.23
489.207	4907.39
489.578	4976.54
489.948	5016.08
490.318	5098.11
490.688	5090.88
491.058	5208.85
491.428	5239.81
491.798	5257.66
492.168	5353.93
492.538	5381.95
492.908	5412.23
493.278	5450.65
493.648	5471.44
494.017	5514.37
494.387	5545.11
494.757	5599.12
495.126	5650.87
495.496	5608.84
495.866	5665.11
496.235	5775.61
496.605	5792.11
496.974	5799.57
497.344	5837.76
497.713	5838.21
498.082	5934.7
498.452	5939.22
498.821	5974.48
499.19	5987.81
499.559	6050.18
499.928	6030.97
500.298	6044.53
500.667	6092.66
501.036	6134.92
501.405	6136.73
501.774	6126.34
502.143	6211.76
502.512	6227.12
502.88	6244.07
503.249	6290.4
503.618	6285.88
503.987	6353.67
504.356	6356.39
504.724	6396.84
505.093	6419.44
505.462	6391.87
505.83	6454.01
506.199	6509.6
506.567	6489.94
506.936	6494.91
507.304	6611.97
507.672	6638.64
508.041	6574.23
508.409	6614.68
508.777	6639.77
509.145	6676.38
509.514	6689.94
509.882	6730.84
510.25	6668.24
510.618	6694.46
510.986	6715.02
511.354	6802.02
511.722	6868.01
512.09	6877.73
512.458	6866.2
512.826	6852.87
513.193	6908.46
513.561	6875.92
513.929	6925.64
514.297	6956.37
514.664	7030.72
515.032	6986.2
515.4	6990.72
515.767	6990.49
516.135	7003.38
516.502	7027.56
516.869	7117.72
517.237	7111.17
517.604	7052.64
517.972	7129.47
518.339	7134.67
518.706	7123.37
519.073	7111.62
519.44	7233.65
519.808	7185.29
520.175	7191.62
520.542	7237.72
520.909	7308.9
521.276	7214.22
521.643	7310.26
522.009	7281.11
522.376	7296.47
522.743	7308
523.11	7413.53
523.477	7449.69
523.843	7418.51
524.21	7408.11
524.577	7480.65
524.943	7486.07
525.31	7472.52
525.676	7541.67
526.043	7507.99
526.409	7526.98
526.776	7603.13
527.142	7580.99
527.508	7532.85
527.874	7593.87
528.241	7625.05
528.607	7592.96
528.973	7687.65
529.339	7666.63
529.705	7656.01
530.071	7682.23
530.437	7758.38
530.803	7716.8
531.169	7718.61
531.535	7643.13
531.901	7656.47
532.267	7688.78
532.632	7682.68
532.998	7753.19
533.364	7740.53
533.73	7719.06
534.095	7769.91
534.461	7722.45
534.826	7756.12
535.192	7754.54
535.557	7831.15
535.923	7751.38
536.288	7745.05
536.653	7780.53
537.019	7712.51
537.384	7676.13
537.749	7743.24
538.114	7780.98
538.479	7715.9
538.845	7745.5
539.21	7660.08
539.575	7672.06
539.94	7693.98
540.305	7706.41
540.67	7672.74
541.034	7678.39
541.399	7681.32
541.764	7708.89
542.129	7658.95
542.494	7649.01
542.858	7663.02
543.223	7670.7
543.587	7661.44
543.952	7610.36
544.316	7612.4
544.681	7632.74
545.045	7678.84
545.41	7644.71
545.774	7584.15
546.138	7674.09
546.503	7594.77
546.867	7592.96
547.231	7614.88
547.595	7622.79
547.959	7617.37
548.324	7574.66
548.688	7603.13
549.052	7554.77
549.416	7614.43
549.779	7535.11
550.143	7537.37
550.507	7553.42
550.871	7551.16
551.235	7455.11
551.599	7549.8
551.962	7502.35
552.326	7553.19
552.689	7505.06
553.053	7499.18
553.417	7476.13
553.78	7571.5
554.143	7534.43
554.507	7515.45
554.87	7468.9
555.234	7605.62
555.597	7493.98
555.96	7541.44
556.323	7574.89
556.686	7483.81
557.05	7599.52
557.413	7532.4
557.776	7527.2
558.139	7551.61
558.502	7534.21
558.865	7608.11
559.228	7509.8
559.59	7645.39
559.953	7526.98
560.316	7612.85
560.679	7586.18
561.041	7677.48
561.404	7626.64
561.767	7659.4
562.129	7678.84
562.492	7664.37
562.854	7658.5
563.217	7708.44
563.579	7728.33
563.941	7705.28
564.304	7695.11
564.666	7689.46
565.028	7744.6
565.39	7801.77
565.753	7802.68
566.115	7837.48
566.477	7835.22
566.839	7818.49
567.201	7875.67
567.563	7888.1
567.925	7926.29
568.287	7895.33
568.648	7892.17
569.01	7969
569.372	8009.9
569.734	7963.58
570.095	8078.83
570.457	8079.96
570.819	8051.26
571.18	8075.89
571.542	8088.09
571.903	8039.28
572.265	8098.94
572.626	8122.67
572.987	8102.33
573.349	8132.16
573.71	8215.55
574.071	8225.94
574.432	8180.97
574.794	8242.89
575.155	8234.53
575.516	8190.01
575.877	8287.41
576.238	8287.41
576.599	8248.31
576.96	8328.99
577.32	8273.4
577.681	8288.54
578.042	8350.91
578.403	8393.85
578.763	8321.08
579.124	8390.91
579.485	8475.2
579.845	8450.12
580.206	8413.28
580.566	8475.43
580.927	8427.52
581.287	8500.74
581.648	8446.95
582.008	8546.84
582.368	8513.62
582.728	8552.71
583.089	8477.01
583.449	8604.46
583.809	8573.96
584.169	8597.68
584.529	8568.31
584.889	8646.04
585.249	8583.67
585.609	8622.54
585.969	8719.94
586.329	8658.47
586.688	8679.94
587.048	8718.58
587.408	8689.88
587.768	8719.49
588.127	8740.73
588.487	8654.41
588.846	8773.95
589.206	8719.94
589.565	8760.39
589.925	8812.37
590.284	8825.7
590.643	8809.66
591.003	8797.23
591.362	8850.33
591.721	8775.31
592.08	8822.31
592.44	8843.1
592.799	8841.52
593.158	8874.74
593.517	8891.01
593.876	8881.74
594.235	8872.25
594.593	8828.19
594.952	8915.87
595.311	8818.02
595.67	8853.72
596.029	8944.79
596.387	8898.92
596.746	8954.51
597.104	8915.87
597.463	8939.14
597.822	8908.18
598.18	8886.49
598.538	8909.99
598.897	8935.53
599.255	8898.01
599.613	8989.54
599.972	8941.4
600.33	8942.08
600.688	8973.94
601.046	8970.1
601.404	9068.63
601.762	9054.17
602.12	9021.4
602.478	9044.68
602.836	9052.13
603.194	9020.72
603.552	9067.95
603.91	9043.32
604.268	9118.8
604.625	8997.22
604.983	9000.84
605.341	9013.04
605.698	8982.08
606.056	9094.39
606.413	9004.68
606.771	9082.42
607.128	9142.08
607.485	9066.37
607.843	9065.92
608.2	9168.74
608.557	9134.84
608.914	9103.66
609.272	9136.43
609.629	9199.48
609.986	9178.69
610.343	9214.62
610.7	9177.33
611.057	9211.68
611.414	9157.44
611.771	9149.76
612.127	9272.47
612.484	9167.84
612.841	9213.71
613.198	9241.73
613.554	9240.15
613.911	9246.25
614.267	9250.55
614.624	9237.21
614.98	9224.79
615.337	9322.86
615.693	9252.36
616.05	9255.29
616.406	9327.83
616.762	9327.83
617.118	9266.37
617.475	9291.9
617.831	9365.12
618.187	9349.3
618.543	9333.03
618.899	9415.74
619.255	9394.72
619.611	9421.62
619.967	9373.48
620.323	9403.54
620.678	9347.27
621.034	9350.66
621.39	9334.84
621.746	9276.54
622.101	9425.46
622.457	9443.99
622.812	9418.23
623.168	9440.15
623.523	9411
623.879	9359.47
624.234	9338
624.589	9457.77
624.945	9422.75
625.3	9340.04
625.655	9408.28
626.01	9369.87
626.365	9417.55
626.72	9288.74
627.075	9363.54
627.43	9390.43
627.785	9336.42
628.14	9329.64
628.495	9382.07
628.85	9359.02
629.205	9334.84
629.559	9387.04
629.914	9311.56
630.269	9310.66
630.623	9316.08
630.978	9269.98
631.332	9271.11
631.687	9343.43
632.041	9328.06
632.396	9296.2
632.75	9245.35
633.104	9301.62
633.459	9246.48
633.813	9250.32
634.167	9161.96
634.521	9235.63
634.875	9200.15
635.229	9180.72
635.583	9124.9
635.937	9160.38
636.291	9135.75
636.645	9155.41
636.999	9131.68
637.352	9101.63
637.706	9066.82
638.06	9153.38
638.413	9113.83
638.767	9112.47
639.121	9076.54
639.474	9022.31
639.828	9008.75
640.181	9069.31
640.534	9046.49
640.888	9002.42
641.241	8906.83
641.594	8978.69
641.947	9006.71
642.301	8962.42
642.654	9030.67
643.007	8926.04
643.36	8972.36
643.713	8940.73
644.066	8894.85
644.419	8860.05
644.771	8837
645.124	8813.05
645.477	8760.39
645.83	8654.18
646.182	8657.34
646.535	8651.92
646.888	8644.69
647.24	8660.28
647.593	8662.54
647.945	8629.32
648.298	8637.23
648.65	8647.4
649.002	8589.77
649.355	8590.9
649.707	8611.47
650.059	8614.41
650.411	8781.63
650.763	8788.19
651.115	8874.29
651.467	8807.85
651.819	8825.47
652.171	8832.93
652.523	8762.88
652.875	8766.72
653.227	8800.84
653.578	8822.99
653.93	8787.28
654.282	8741.41
654.633	8759.49
654.985	8735.31
655.337	8728.08
655.688	8755.42
656.039	8819.15
656.391	8762.88
656.742	8763.78
657.094	8724.91
657.445	8746.61
657.796	8787.28
658.147	8742.76
658.498	8800.16
658.849	8807.4
659.2	8740.96
659.551	8718.13
659.902	8798.13
660.253	8707.29
660.604	8728.3
660.955	8722.88
661.306	8809.66
661.656	8725.82
662.007	8721.3
662.358	8793.16
662.708	8772.14
663.059	8719.49
663.409	8713.84
663.76	8799.03
664.11	8758.13
664.461	8806.72
664.811	8733.05
665.161	8711.58
665.511	8823.21
665.862	8813.95
666.212	8792.25
666.562	8838.81
666.912	8819.6
667.262	8761.97
667.612	8740.28
667.962	8752.93
668.312	8808.07
668.662	8786.83
669.011	8763.78
669.361	8727.17
669.711	8811.24
670.06	8764.23
670.41	8672.48
670.76	8693.95
671.109	8789.99
671.459	8691.01
671.808	8663.9
672.157	8719.49
672.507	8658.7
672.856	8634.29
673.205	8689.21
673.554	8686.72
673.904	8669.32
674.253	8700.51
674.602	8672.03
674.951	8554.29
675.3	8550.68
675.649	8597.46
675.998	8623.9
676.346	8598.14
676.695	8675.42
677.044	8580.96
677.393	8606.72
677.741	8601.3
678.09	8568.76
678.438	8556.33
678.787	8555.65
679.135	8634.74
679.484	8504.35
679.832	8560.17
680.181	8531.92
680.529	8572.15
680.877	8487.4
681.225	8479.27
681.573	8507.06
681.922	8482.43
682.27	8430.68
682.618	8445.6
682.966	8363.79
683.314	8421.87
683.661	8446.73
684.009	8367.63
684.357	8333.06
684.705	8237.92
685.053	8280.86
685.4	8275.43
685.748	8306.17
686.095	8258.48
686.443	8261.42
686.79	8204.93
687.138	8260.97
687.485	8180.07
687.832	8162.21
688.18	8161.99
688.527	8132.61
688.874	8144.59
689.221	8164.7
689.568	8069.79
689.915	8060.07
690.262	8035.89
690.609	8007.19
690.956	8014.87
691.303	7919.51
691.65	7927.64
691.997	7903.24
692.344	7909.34
692.69	7887.65
693.037	7889.23
693.383	7758.38
693.73	7810.13
694.077	7782.34
694.423	7760.64
694.769	7741.43
695.116	7683.81
695.462	7675
695.808	7652.62
696.155	7717.71
696.501	7630.48
696.847	7564.94
697.193	7473.19
697.539	7609.23
697.885	7437.04
698.231	7463.93
698.577	7473.65
698.923	7411.95
699.269	7328.11
699.614	7352.07
699.96	7318.4
700.306	7295.8
700.651	7331.73
700.997	7271.62
701.342	7295.8
701.688	7211.28
702.033	7225.06
702.379	7188.46
702.724	7123.37
703.069	7138.06
703.415	7097.84
703.76	7128.34
704.105	7084.73
704.45	7112.98
704.795	6986.88
705.14	7023.94
705.485	6993.66
705.83	6989.36
706.175	6924.96
706.52	6967.67
706.865	6940.55
707.209	6908.69
707.554	6876.15
707.899	6908.01
708.243	6825.98
708.588	6847.45
708.932	6793.89
709.277	6758.41
709.621	6774.45
709.966	6739.43
710.31	6749.37
710.654	6682.03
710.998	6696.49
711.342	6708.47
711.687	6689.49
712.031	6602.48
712.375	6651.52
712.719	6623.72
713.063	6579.66
713.407	6579.43
713.75	6527.23
714.094	6563.16
714.438	6527.23
714.782	6546.21
715.125	6496.27
715.469	6564.74
715.812	6507.34
716.156	6455.14
716.499	6493.11
716.843	6513.44
717.186	6445.65
717.53	6440.23
717.873	6448.59
718.216	6440.68
718.559	6407.46
718.902	6396.84
719.246	6337.18
719.589	6378.53
719.932	6334.69
720.275	6311.87
720.617	6346.22
720.96	6314.13
721.303	6343.05
721.646	6305.99
721.989	6252.66
722.331	6343.28
722.674	6265.99
723.016	6327.91
723.359	6281.81
723.701	6303.05
724.044	6182.61
724.386	6250.4
724.729	6276.39
725.071	6211.31
725.413	6240.01
725.755	6224.41
726.097	6173.57
726.439	6198.88
726.782	6216.28
727.124	6187.35
727.465	6229.16
727.807	6194.13
728.149	6169.95
728.491	6165.43
728.833	6177.41
729.175	6183.28
729.516	6178.31
729.858	6174.47
730.199	6167.69
730.541	6192.55
730.882	6133.57
731.224	6163.85
731.565	6159.1
731.906	6111.2
732.248	6187.8
732.589	6141.93
732.93	6101.03
733.271	6139.44
733.612	6146.9
733.953	6149.84
734.294	6093.34
734.635	6114.36
734.976	6138.09
735.317	6073
735.658	6085.89
735.999	6129.5
736.339	6132.21
736.68	6132.44
737.021	6034.81
737.361	6066
737.702	6148.71
738.042	6129.73
738.383	6084.98
738.723	6133.79
739.063	6114.58
739.404	6130.18
739.744	6166.11
740.084	6111.42
740.424	6147.35
740.764	6112.33
741.104	6206.79
741.444	6162.49
741.784	6177.41
742.124	6182.38
742.464	6209.95
742.804	6197.29
743.143	6195.49
743.483	6157.07
743.823	6173.79
744.162	6203.17
744.502	6284.75
744.841	6224.64
745.181	6280.46
745.52	6345.54
745.86	6287.24
746.199	6364.07
746.538	6382.83
746.877	6402.49
747.216	6426.22
747.556	6486.1
747.895	6524.52
748.234	6543.5
748.573	6516.83
748.911	6603.84
749.25	6594.57
749.589	6638.86
749.928	6660.56
750.267	6738.75
750.605	6733.33
750.944	6826.88
751.283	6874.79
751.621	6951.63
751.96	6919.31
752.298	6999.76
752.636	7112.52
752.975	7122.24
753.313	7169.25
753.651	7275.68
753.989	7309.81
754.327	7334.89
754.666	7417.83
755.004	7558.84
755.342	7606.52
755.679	7716.58
756.017	7724.49
756.355	7853.52
756.693	7937.81
757.031	8017.81
757.368	8144.59
757.706	8211.25
758.044	8286.73
758.381	8367.18
758.719	8445.82
759.056	8558.81
759.394	8713.16
759.731	8759.26
760.068	8756.78
760.405	8938.92
760.743	8975.07
761.08	9176.2
761.417	9205.13
761.754	9376.19
762.091	9461.16
762.428	9515.17
762.765	9548.17
763.102	9737.09
763.438	9794.71
763.775	9903.64
764.112	9969.17
764.449	10084.2
764.785	10233.8
765.122	10231.09
765.458	10321.93
765.795	10421.14
766.131	10464.75
766.467	10617.97
766.804	10730.73
767.14	10772.32
767.476	10850.73
767.812	10878.98
768.148	11023.16
768.485	11069.48
768.821	11154.45
769.157	11186.77
769.492	11277.16
769.828	11361.45
770.164	11308.35
770.5	11331.85
770.836	11543.82
771.171	11511.73
771.507	11489.13
771.842	11552.86
772.178	11642.8
772.513	11716.47
772.849	11732.52
773.184	11754.44
773.519	11791.27
773.855	11819.29
774.19	11935.45
774.525	11863.81
774.86	11980.65
775.195	12011.83
775.53	12008.22
775.865	12019.51
776.2	11995.33
776.535	11932.74
776.87	12059.51
777.205	12005.96
777.539	12050.25
777.874	12148.32
778.209	12038.72
778.543	12060.64
778.878	12046.63
779.212	12079.63
779.547	12111.26
779.881	12091.83
780.215	12047.31
780.55	12140.64
780.884	12130.92
781.218	12171.83
781.552	12178.83
781.886	12079.85
782.22	12127.08
782.554	12033.07
782.888	12033.3
783.222	12019.51
783.556	12022.9
783.889	11961.21
784.223	11890.93
784.557	11922.57
784.89	12033.53
785.224	11963.24
785.557	11891.83
785.891	12003.7
786.224	11885.73
786.558	11885.96
786.891	11806.64
787.224	11864.49
787.557	11829.01
787.891	11891.61
788.224	11813.19
788.557	11816.36
788.89	11769.35
789.223	11808.45
789.556	11700.43
789.888	11765.28
790.221	11707.66
790.554	11671.05
790.887	11659.52
791.219	11684.38
791.552	11581.33
791.884	11545.85
792.217	11514.67
792.549	11566.19
792.882	11465.4
793.214	11416.59
793.546	11462.47
793.879	11486.65
794.211	11398.51
794.543	11372.3
794.875	11372.75
795.207	11427.89
795.539	11348.57
795.871	11348.35
796.203	11263.6
796.535	11154.23
796.867	11180.44
797.198	11169.82
797.53	11124.17
797.862	11113.32
798.193	11142.25
798.525	11005.98
798.856	11031.29
799.188	10941.35
799.519	10969.82
799.85	11004.17
800.182	10961.01
800.513	10955.59
800.844	10874.01
801.175	10861.13
801.506	10926.21
801.837	10712.2
802.168	10782.94
802.499	10718.31
802.83	10727.12
803.161	10658.65
803.491	10723.05
803.822	10653.22
804.153	10629.04
804.483	10573
804.814	10613.68
805.145	10554.92
805.475	10549.27
805.805	10467.24
806.136	10565.77
806.466	10566.22
806.796	10437.18
807.126	10394.25
807.457	10410.74
807.787	10374.13
808.117	10354.93
808.447	10307.02
808.777	10353.12
809.107	10259.56
809.436	10296.62
809.766	10286.23
810.096	10208.04
810.426	10208.04
810.755	10159.9
811.085	10198.77
811.414	10179.79
811.744	10054.37
812.073	10079.45
812.403	10102.73
812.732	10011.21
813.061	10028.15
813.39	9944.09
813.719	10002.62
814.049	10050.53
814.378	9934.37
814.707	9892.56
815.036	9895.95
815.365	9893.02
815.693	9862.96
816.022	9781.61
816.351	9864.54
816.68	9754.72
817.008	9752.91
817.337	9657.54
817.665	9701.84
817.994	9704.77
818.322	9716.07
818.651	9620.71
818.979	9618.9
819.307	9676.98
819.636	9649.63
819.964	9528.05
820.292	9636.53
820.62	9630.88
820.948	9525.12
821.276	9592.23
821.604	9542.07
821.932	9593.59
822.259	9570.77
822.587	9563.31
822.915	9585.45
823.243	9559.47
823.57	9575.74
823.898	9605.79
824.225	9514.5
824.553	9516.98
824.88	9501.16
825.207	9540.26
825.535	9541.16
825.862	9554.72
826.189	9505.68
826.516	9568.28
826.843	9614.15
827.17	9551.78
827.497	9595.85
827.824	9553.36
828.151	9542.97
828.478	9564.89
828.805	9642.4
829.131	9551.56
829.458	9528.96
829.785	9599.69
830.111	9530.09
830.438	9584.32
830.764	9641.05
831.09	9571.67
831.417	9572.8
831.743	9576.19
832.069	9563.76
832.395	9499.35
832.722	9514.5
833.048	9447.15
833.374	9534.38
833.7	9450.09
834.026	9498.68
834.351	9524.21
834.677	9496.64
835.003	9531.22
835.329	9436.76
835.654	9426.36
835.98	9425.68
836.306	9424.78
836.631	9414.61
836.956	9392.92
837.282	9440.37
837.607	9374.39
837.932	9323.31
838.258	9406.25
838.583	9380.26
838.908	9273.6
839.233	9291.22
839.558	9328.29
839.883	9260.94
840.208	9299.59
840.533	9234.73
840.858	9293.94
841.182	9245.8
841.507	9221.17
841.832	9156.76
842.156	9230.44
842.481	9176.88
842.805	9098.69
843.13	9150.66
843.454	9072.02
843.778	9096.2
844.103	9060.72
844.427	9080.16
844.751	9044.23
845.075	9033.38
845.399	8995.64
845.723	8923.1
846.047	8947.96
846.371	8900.73
846.695	8885.59
847.019	8831.35
847.343	8829.32
847.666	8737.34
847.99	8720.17
848.313	8710.67
848.637	8676.78
848.96	8588.87
849.284	8627.97
849.607	8509.1
849.931	8541.87
850.254	8449.21
850.577	8430
850.9	8384.58
851.223	8332.83
851.546	8278.6
851.869	8256
852.192	8336.22
852.515	8273.17
852.838	8253.74
853.161	8255.09
853.483	8166.51
853.806	8197.24
854.129	8160.18
854.451	8128.54
854.774	8012.84
855.096	8007.87
855.419	8041.09
855.741	8084.7
856.063	7980.52
856.385	7977.13
856.708	7983.46
857.03	7916.12
857.352	7927.19
857.674	7846.06
857.996	7855.1
858.318	7808.33
858.64	7863.24
858.961	7783.92
859.283	7751.38
859.605	7739.85
859.926	7720.87
860.248	7703.02
860.57	7658.5
860.891	7709.12
861.212	7638.61
861.534	7601.55
861.855	7544.15
862.176	7562.23
862.498	7627.54
862.819	7607.88
863.14	7609.91
863.461	7551.61
863.782	7555.45
864.103	7542.57
864.424	7505.06
864.745	7510.71
865.065	7449.24
865.386	7472.29
865.707	7415.79
866.027	7396.13
866.348	7422.57
866.668	7512.51
866.989	7393.87
867.309	7352.07
867.63	7362.01
867.95	7343.48
868.27	7285.85
868.59	7357.94
868.91	7332.18
869.23	7274.78
869.55	7295.8
869.87	7274.78
870.19	7259.19
870.51	7263.03
870.83	7291.05
871.15	7227.32
871.469	7212.41
871.789	7203.37
872.109	7267.78
872.428	7171.96
872.748	7194.78
873.067	7205.4
873.386	7174.9
873.706	7149.59
874.025	7084.05
874.344	7110.27
874.663	7164.95
874.982	7176.03
875.301	7101
875.62	7052.87
875.939	7045.18
876.258	7083.37
876.577	7082.92
876.896	6994.11
877.214	7020.1
877.533	7031.85
877.852	7001.34
878.17	7017.39
878.489	7006.31
878.807	7008.12
879.125	6964.51
879.444	6980.32
879.762	6927.67
880.08	6889.71
880.398	6883.15
880.716	6882.47
881.034	6861.01
881.352	6877.95
881.67	6899.2
881.988	6869.59
882.306	6869.14
882.624	6775.81
882.941	6814.45
883.259	6751.4
883.577	6791.4
883.894	6787.56
884.212	6700.78
884.529	6656.94
884.846	6684.06
885.164	6707.11
885.481	6670.28
885.798	6656.94
886.115	6614.91
886.432	6605.65
886.75	6609.04
887.067	6664.4
887.383	6575.14
887.7	6548.02
888.017	6547.34
888.334	6511.64
888.651	6531.3
888.967	6507.34
889.284	6471.41
889.6	6436.84
889.917	6424.18
890.233	6459.21
890.55	6376.5
890.866	6383.73
891.182	6383.05
891.498	6342.6
891.815	6297.18
892.131	6299.44
892.447	6324.52
892.763	6302.15
893.079	6289.04
893.395	6270.51
893.71	6208.14
894.026	6211.08
894.342	6214.7
894.657	6190.52
894.973	6131.76
895.289	6145.09
895.604	6107.81
895.92	6098.99
896.235	6071.65
896.55	6059.45
896.865	6074.81
897.181	6021.03
897.496	5970.63
897.811	5993.68
898.126	6010.41
898.441	5967.24
898.756	5932.22
899.071	5917.98
899.386	5918.88
899.7	5866
900.015	5876.85
900.33	5772.67
900.644	5753.46
900.959	5755.5
901.273	5795.27
901.588	5785.55
901.902	5723.41
902.216	5711.43
902.531	5746.23
902.845	5691.32
903.159	5595.05
903.473	5594.82
903.787	5591.89
904.101	5600.25
904.415	5589.18
904.729	5501.49
905.042	5516.86
905.356	5530.87
905.67	5468.27
905.984	5511.89
906.297	5389.63
906.611	5459.91
906.924	5433.92
907.237	5402.06
907.551	5392.34
907.864	5372.23
908.177	5288.84
908.491	5298.79
908.804	5280.71
909.117	5279.13
909.43	5214.27
909.743	5238.68
910.056	5228.51
910.368	5183.08
910.681	5157.32
910.994	5141.28
911.307	5103.31
911.619	5055.18
911.932	5095.63
912.244	5063.31
912.557	5005.24
912.869	5044.33
913.181	4994.39
913.494	4988.06
913.806	4958.68
914.118	4965.91
914.43	4871
914.742	4889.98
915.054	4901.74
915.366	4861.28
915.678	4891.79
915.99	4834.84
916.302	4761.4
916.613	4821.51
916.925	4786.26
917.236	4755.07
917.548	4713.04
917.859	4726.6
918.171	4702.42
918.482	4656.09
918.794	4625.81
919.105	4671.23
919.416	4602.08
919.727	4620.61
920.038	4610.22
920.349	4556.66
920.66	4541.52
920.971	4532.25
921.282	4563.89
921.593	4515.98
921.903	4475.76
922.214	4432.6
922.525	4456.32
922.835	4432.82
923.146	4370.45
923.456	4426.27
923.767	4355.31
924.077	4362.31
924.387	4307.17
924.697	4325.25
925.008	4359.83
925.318	4247.06
925.628	4297.23
925.938	4267.85
926.248	4208.42
926.558	4194.41
926.867	4206.39
927.177	4199.83
927.487	4215.43
927.796	4130.23
928.106	4173.85
928.416	4193.96
928.725	4127.74
929.034	4117.58
929.344	4135.88
929.653	4117.8
929.962	4057.46
930.271	4051.59
930.581	4013.17
930.89	4007.97
931.199	3929.56
931.508	3996.9
931.817	3963.91
932.125	3975.88
932.434	3997.58
932.743	3853.18
933.051	3889.33
933.36	3872.16
933.669	3851.59
933.977	3811.82
934.286	3776.34
934.594	3816.57
934.902	3776.34
935.21	3780.86
935.519	3771.37
935.827	3758.26
936.135	3727.08
936.443	3733.63
936.751	3714.2
937.059	3687.76
937.367	3654.76
937.674	3687.3
937.982	3675.78
938.29	3612.5
938.597	3611.37
938.905	3581.54
939.213	3554.88
939.52	3570.02
939.827	3525.5
940.135	3522.79
940.442	3481.66
940.749	3487.99
941.056	3498.16
941.363	3462.68
941.67	3415.67
941.977	3461.1
942.284	3419.51
942.591	3437.14
942.898	3363.02
943.205	3401.66
943.511	3376.35
943.818	3371.15
944.125	3318.95
944.431	3339.74
944.738	3319.4
945.044	3328.9
945.35	3293.87
945.657	3297.71
945.963	3269.24
946.269	3263.81
946.575	3230.14
946.881	3207.54
947.187	3232.63
947.493	3189.92
947.799	3199.63
948.105	3178.62
948.41	3188.56
948.716	3117.15
949.022	3139.07
949.327	3119.64
949.633	3100.43
949.938	3108.34
950.244	3105.17
950.549	3068.34
950.854	3094.1
951.16	3053.42
951.465	3062.24
951.77	3038.51
952.075	3019.75
952.38	3024.04
952.685	2960.77
952.99	2963.26
953.294	2982.24
953.599	2939.3
953.904	2941.79
954.209	2953.09
954.513	2897.72
954.818	2885.97
955.122	2917.83
955.426	2843.48
955.731	2880.09
956.035	2849.36
956.339	2852.75
956.643	2809.36
956.948	2828.8
957.252	2804.39
957.556	2803.26
957.86	2812.75
958.163	2788.8
958.467	2757.39
958.771	2766.2
959.075	2741.79
959.378	2752.87
959.682	2723.94
959.985	2716.03
960.289	2709.25
960.592	2668.57
960.896	2701.12
961.199	2637.61
961.502	2643.72
961.805	2643.94
962.108	2652.53
962.411	2627.22
962.714	2572.31
963.017	2567.33
963.32	2566.88
963.623	2555.13
963.926	2554.9
964.228	2559.65
964.531	2557.84
964.833	2522.59
965.136	2512.19
965.438	2516.04
965.741	2484.4
966.043	2507
966.345	2471.06
966.648	2445.08
966.95	2464.29
967.252	2440.78
967.554	2441.01
967.856	2425.87
968.158	2433.33
968.46	2443.95
968.761	2401.69
969.063	2399.2
969.365	2371.18
969.666	2353.1
969.968	2363.95
970.269	2375.47
970.571	2377.06
970.872	2351.97
971.174	2319.88
971.475	2336.83
971.776	2331.63
972.077	2312.43
972.378	2290.73
972.679	2260.45
972.98	2299.77
973.281	2281.47
973.582	2284.4
973.883	2205.08
974.183	2267.91
974.484	2215.93
974.785	2185.42
975.085	2214.8
975.386	2218.42
975.686	2206.67
975.986	2192.88
976.287	2179.1
976.587	2189.26
976.887	2140.68
977.187	2137.74
977.487	2149.72
977.787	2146.33
978.087	2107.46
978.387	2072.66
978.687	2095.03
978.987	2089.83
979.286	2048.03
979.586	2055.93
979.885	2062.94
980.185	2064.97
980.484	2010.06
980.784	2068.14
981.083	2016.84
981.382	2023.62
981.682	1996.5
981.981	2010.96
982.28	2003.05
982.579	1959.89
982.878	1997.18
983.177	1973.9
983.475	1954.92
983.774	1961.25
984.073	1931.42
984.372	1931.42
984.67	1908.59
984.969	1946.33
985.267	1934.58
985.566	1921.25
985.864	1891.19
986.162	1877.18
986.461	1873.11
986.759	1869.95
987.057	1846
987.355	1863.62
987.653	1852.32
987.951	1858.88
988.249	1817.97
988.547	1829.05
988.844	1810.29
989.142	1815.94
989.44	1833.34
989.737	1792.21
990.035	1755.38
990.332	1781.82
990.63	1767.58
990.927	1769.84
991.224	1743.4
991.521	1762.61
991.819	1758.09
992.116	1726
992.413	1710.18
992.71	1729.16
993.006	1712.21
993.303	1715.6
993.6	1691.2
993.897	1688.94
994.193	1703.85
994.49	1681.93
994.787	1703.85
995.083	1660.69
995.379	1634.02
995.676	1651.2
995.972	1653.01
996.268	1622.95
996.565	1627.92
996.861	1625.21
997.157	1624.53
997.453	1584.99
997.749	1610.75
998.044	1577.3
998.34	1580.01
998.636	1568.04
998.932	1569.62
999.227	1562.39
999.523	1568.04
999.818	1536.63
1000.114	1499.57
1000.409	1515.16
1000.704	1531.65
1001	1508.38
1001.295	1479.68
1001.59	1493.01
1001.885	1504.08
1002.18	1455.05
1002.475	1470.19
1002.77	1446.91
1003.065	1420.25
1003.359	1461.83
1003.654	1441.49
1003.949	1409.17
1004.243	1428.61
1004.538	1408.04
1004.832	1419.12
1005.127	1403.97
1005.421	1415.05
1005.715	1394.71
1006.009	1407.82
1006.304	1392.45
1006.598	1389.74
1006.892	1384.77
1007.186	1347.25
1007.48	1359.23
1007.773	1299.12
1008.067	1315.39
1008.361	1328.04
1008.655	1321.72
1008.948	1311.32
1009.242	1315.84
1009.535	1304.32
1009.829	1277.88
1010.122	1263.19
1010.415	1270.19
1010.708	1304.09
1011.001	1267.71
1011.295	1277.2
1011.588	1253.02
1011.881	1265.67
1012.173	1229.29
1012.466	1241.72
1012.759	1262.74
1013.052	1234.26
1013.344	1212.12
1013.637	1210.76
1013.93	1206.01
1014.222	1188.39
1014.514	1201.04
1014.807	1203.53
1015.099	1186.35
1015.391	1169.63
1015.683	1167.37
1015.976	1142.74
1016.268	1141.61
1016.56	1149.97
1016.851	1132.8
1017.143	1139.35
1017.435	1133.02
1017.727	1086.69
1018.018	1102.29
1018.31	1116.07
1018.602	1099.12
1018.893	1112.23
1019.185	1085.34
1019.476	1088.73
1019.767	1081.72
1020.058	1076.53
1020.35	1054.61
1020.641	1044.21
1020.932	1038.33
1021.223	1035.62
1021.514	1041.5
1021.804	1045.11
1022.095	1022.29
1022.386	1007.6
1022.677	1024.55
1022.967	1017.54
1023.258	996.98
1023.548	994.27
1023.839	986.36
1024.129	1011.44
1024.419	982.52
1024.709	967.38
1025	982.74
1025.29	976.19
1025.58	980.26
1025.87	946.36
1026.16	970.09
1026.449	952.46
1026.739	922.63
1027.029	939.58
1027.319	939.81
1027.608	930.09
1027.898	892.12
1028.187	903.42
1028.477	890.09
1028.766	911.11
1029.055	889.64
1029.344	888.28
1029.634	879.69
1029.923	884.89
1030.212	893.48
1030.501	871.78
1030.79	882.63
1031.078	847.38
1031.367	854.38
1031.656	857.77
1031.945	843.54
1032.233	825.46
1032.522	864.33
1032.81	852.12
1033.099	827.72
1033.387	832.69
1033.675	833.37
1033.963	804.22
1034.251	781.84
1034.54	779.36
1034.828	799.7
1035.116	801.73
1035.403	795.63
1035.691	775.06
1035.979	782.07
1036.267	785.23
1036.554	764.9
1036.842	755.86
1037.129	776.87
1037.417	748.85
1037.704	740.04
1037.992	732.13
1038.279	737.78
1038.566	756.99
1038.853	756.99
1039.14	756.99
