Data from hue_20_FLMS001491_11.txt Node
Date: Mon Feb 06 15:33:40 GMT 2017
User: dcchb
Spectrometer: FLMS00149
Trigger mode: 0
Integration Time (sec): 2.000000E-2
Scans to average: 10
Electric dark correction enabled: true
Nonlinearity correction enabled: false
Boxcar width: 0
XAxis mode: Wavelengths
Number of Pixels in Spectrum: 2048
>>>>>Begin Spectral Data<<<<<
341.393	-27.7
341.776	-27.7
342.16	-27.7
342.543	-76.74
342.927	-70.86
343.31	-60.46
343.693	-74.48
344.077	-65.66
344.46	-64.53
344.843	-65.44
345.226	-45.1
345.61	-38.54
345.993	-26.34
346.376	-5.78
346.759	6.43
347.142	32.19
347.525	53.66
347.908	69.7
348.291	87.55
348.674	92.98
349.057	103.82
349.44	141.79
349.823	132.75
350.206	154.45
350.588	184.95
350.971	200.55
351.354	215.46
351.737	224.95
352.119	241.9
352.502	271.05
352.884	273.99
353.267	286.19
353.65	293.2
354.032	278.28
354.414	305.85
354.797	273.09
355.179	304.95
355.562	310.83
355.944	335.68
356.326	339.07
356.709	339.3
357.091	336.81
357.473	339.3
357.855	337.72
358.238	338.17
358.62	325.51
359.002	350.15
359.384	333.65
359.766	336.36
360.148	329.81
360.53	337.94
360.912	341.78
361.294	336.14
361.676	343.59
362.057	329.58
362.439	335.23
362.821	325.29
363.203	319.41
363.584	317.83
363.966	315.12
364.348	313.08
364.729	321.67
365.111	334.55
365.493	310.37
365.874	317.6
366.256	306.31
366.637	299.3
367.019	309.02
367.4	323.48
367.781	294.33
368.163	325.51
368.544	284.39
368.925	289.58
369.306	324.61
369.688	310.6
370.069	318.51
370.45	311.96
370.831	321.45
371.212	309.02
371.593	323.93
371.974	317.6
372.355	310.83
372.736	320.99
373.117	339.3
373.498	299.75
373.879	307.44
374.26	328.23
374.641	330.26
375.021	331.16
375.402	332.29
375.783	312.41
376.163	317.83
376.544	331.62
376.925	337.04
377.305	332.97
377.686	335.46
378.066	332.29
378.447	323.71
378.827	340.43
379.208	338.17
379.588	321.9
379.968	323.93
380.349	313.08
380.729	293.42
381.109	333.42
381.489	355.8
381.87	319.41
382.25	325.06
382.63	338.4
383.01	351.95
383.39	352.86
383.77	336.81
384.15	335.68
384.53	332.97
384.91	343.37
385.29	347.43
385.67	325.29
386.049	336.59
386.429	326.64
386.809	342.91
387.189	362.12
387.568	333.2
387.948	362.12
388.328	342.01
388.707	344.27
389.087	382.01
389.466	358.06
389.846	357.83
390.225	363.71
390.605	343.82
390.984	337.04
391.363	335.91
391.743	360.09
392.122	350.6
392.501	344.5
392.881	336.81
393.26	350.15
393.639	380.2
394.018	344.04
394.397	381.11
394.776	370.26
395.155	370.26
395.534	387.66
395.913	386.76
396.292	369.13
396.671	370.94
397.05	403.93
397.429	377.49
397.808	380.43
398.186	361.22
398.565	374.55
398.944	384.95
399.323	377.04
399.701	378.17
400.08	378.39
400.458	383.82
400.837	384.27
401.215	369.13
401.594	396.47
401.972	395.57
402.351	369.35
402.729	391.73
403.107	368
403.486	398.28
403.864	388.11
404.242	422.01
404.62	422.91
404.999	382.01
405.377	386.98
405.755	391.73
406.133	420.43
406.511	392.63
406.889	412.52
407.267	421.33
407.645	442.12
408.023	400.09
408.401	422.91
408.779	419.97
409.156	414.78
409.534	424.27
409.912	396.92
410.29	434.89
410.667	428.34
411.045	436.92
411.422	419.52
411.8	442.57
412.178	455.23
412.555	429.69
412.933	447.77
413.31	418.39
413.687	457.71
414.065	441.67
414.442	446.19
414.819	445.96
415.197	471.95
415.574	463.82
415.951	480.31
416.328	445.06
416.705	448.67
417.082	455.23
417.46	472.18
417.837	499.52
418.214	488.22
418.591	455.45
418.967	487.77
419.344	492.06
419.721	467.88
420.098	495.23
420.475	485.28
420.852	513.31
421.228	502.01
421.605	512.4
421.982	497.71
422.358	501.55
422.735	520.99
423.111	506.75
423.488	505.4
423.864	511.27
424.241	535.68
424.617	507.43
424.994	535.9
425.37	501.55
425.746	527.99
426.123	522.35
426.499	531.16
426.875	530.25
427.251	513.98
427.627	551.27
428.003	528.67
428.379	550.37
428.756	565.06
429.132	560.76
429.507	549.69
429.883	558.73
430.259	587.43
430.635	579.52
431.011	585.39
431.387	588.56
431.763	599.63
432.138	591.5
432.514	587.65
432.89	556.69
433.265	584.72
433.641	581.1
434.016	592.4
434.392	606.18
434.767	633.98
435.143	607.09
435.518	633.98
435.894	629.91
436.269	623.59
436.644	644.83
437.02	634.88
437.395	633.75
437.77	657.48
438.145	660.87
438.52	644.6
438.895	669.91
439.271	649.12
439.646	665.62
440.021	656.58
440.395	669.23
440.77	672.62
441.145	696.58
441.52	691.61
441.895	697.71
442.27	719.18
442.645	690.48
443.019	703.81
443.394	684.6
443.769	708.55
444.143	709.68
444.518	718.05
444.892	751.27
445.267	747.65
445.641	737.93
446.016	709.68
446.39	736.12
446.764	756.24
447.139	746.97
447.513	755.79
447.887	753.75
448.262	749.23
448.636	765.5
449.01	774.09
449.384	746.97
449.758	774.54
450.132	776.35
450.506	786.07
450.88	771.83
451.254	763.24
451.628	802.56
452.002	809.12
452.376	795.11
452.75	828.1
453.123	802.56
453.497	824.94
453.871	814.99
454.244	826.74
454.618	841.88
454.992	861.77
455.365	877.14
455.739	894.76
456.112	880.3
456.486	870.58
456.859	887.53
457.232	901.32
457.606	900.87
457.979	913.52
458.352	896.35
458.725	934.54
459.099	923.92
459.472	959.17
459.845	948.1
460.218	952.62
460.591	969.34
460.964	954.88
461.337	948.1
461.71	1024.7
462.083	1036.91
462.456	1013.63
462.829	1038.49
463.201	1031.71
463.574	1042.56
463.947	1065.83
464.32	1064.48
464.692	1054.31
465.065	1086.62
465.438	1121.2
465.81	1109.67
466.183	1116.23
466.555	1138.6
466.928	1139.73
467.3	1161.65
467.672	1161.65
468.045	1183.8
468.417	1196.23
468.789	1198.49
469.161	1238.03
469.534	1227.19
469.906	1306.51
470.278	1256.34
470.65	1248.88
471.022	1288.43
471.394	1336.33
471.766	1321.65
472.138	1354.41
472.51	1373.4
472.882	1406.16
473.253	1404.36
473.625	1445.71
473.997	1482.32
474.369	1461.53
474.74	1490
475.112	1522.54
475.484	1537.01
475.855	1575.65
476.227	1590.34
476.598	1608.87
476.97	1648.64
477.341	1661.98
477.713	1659.04
478.084	1692.71
478.455	1727.74
478.827	1799.37
479.198	1829.66
479.569	1814.74
479.94	1892.93
480.311	1910.11
480.682	1956.66
481.053	1975.64
481.424	2031.01
481.795	2049.76
482.166	2099.7
482.537	2109.65
482.908	2175.86
483.279	2152.81
483.65	2221.51
484.021	2280.94
484.391	2299.25
484.762	2318.68
485.133	2365.01
485.503	2365.91
485.874	2418.57
486.244	2474.38
486.615	2506.47
486.985	2569.3
487.356	2622.4
487.726	2638
488.097	2672.12
488.467	2699.69
488.837	2763.42
489.207	2782.85
489.578	2855.84
489.948	2869.18
490.318	2933.58
490.688	2990.3
491.058	2987.59
491.428	3051.54
491.798	3092.22
492.168	3121.6
492.538	3129.51
492.908	3168.38
493.278	3222.16
493.648	3266.23
494.017	3322.95
494.387	3307.13
494.757	3353.23
495.126	3393.23
495.496	3430.29
495.866	3447.24
496.235	3468.26
496.605	3534.02
496.974	3545.09
497.344	3612.66
497.713	3612.43
498.082	3580.12
498.452	3616.5
498.821	3717.29
499.19	3679.55
499.559	3741.47
499.928	3748.93
500.298	3774.69
500.667	3832.99
501.036	3823.95
501.405	3820.79
501.774	3875.93
502.143	3925.87
502.512	3898.3
502.88	3949.15
503.249	3964.06
503.618	4009.26
503.987	4030.28
504.356	4030.73
504.724	4083.83
505.093	4058.07
505.462	4067.56
505.83	4115.02
506.199	4119.09
506.567	4237.95
506.936	4145.53
507.304	4227.78
507.672	4213.55
508.041	4253.55
508.409	4300.32
508.777	4328.8
509.145	4322.25
509.514	4362.02
509.882	4359.31
510.25	4398.85
510.618	4441.34
510.986	4415.35
511.354	4444.5
511.722	4495.12
512.09	4484.73
512.458	4534.44
512.826	4487.21
513.193	4525.4
513.561	4586.42
513.929	4560.43
514.297	4643.59
514.664	4660.77
515.032	4692.18
515.4	4700.31
515.767	4691.5
516.135	4720.43
516.502	4686.76
516.869	4726.3
517.237	4779.18
517.604	4739.64
517.972	4822.34
518.339	4831.38
518.706	4815.57
519.073	4851.5
519.44	4860.08
519.808	4880.42
520.175	4865.28
520.542	4910.25
520.909	4927.65
521.276	4926.52
521.643	5018.27
522.009	5026.86
522.376	5020.76
522.743	5032.96
523.11	5178.04
523.477	5170.81
523.843	5169.68
524.21	5194.76
524.577	5218.04
524.943	5211.71
525.31	5240.64
525.676	5302.56
526.043	5317.7
526.409	5343.01
526.776	5374.87
527.142	5384.59
527.508	5405.83
527.874	5450.13
528.241	5488.54
528.607	5531.25
528.973	5576.22
529.339	5528.32
529.705	5597.24
530.071	5650.35
530.437	5672.94
530.803	5745.71
531.169	5747.07
531.535	5735.99
531.901	5768.76
532.267	5772.6
532.632	5786.39
532.998	5743.22
533.364	5882.66
533.73	5871.58
534.095	5904.8
534.461	5991.13
534.826	5952.48
535.192	6005.36
535.557	5997.23
535.923	6034.97
536.288	6107.51
536.653	6071.58
537.019	6102.09
537.384	6053.27
537.749	6137.34
538.114	6218.69
538.479	6188.86
538.845	6214.85
539.21	6157.68
539.575	6177.79
539.94	6265.7
540.305	6304.79
540.67	6296.2
541.034	6297.56
541.399	6352.7
541.764	6386.6
542.129	6406.03
542.494	6436.09
542.858	6435.64
543.223	6430.89
543.587	6511.79
543.952	6516.76
544.316	6542.3
544.681	6591.34
545.045	6594.05
545.41	6627.72
545.774	6636.53
546.138	6627.72
546.503	6759.24
546.867	6662.75
547.231	6728.06
547.595	6777.55
547.959	6801.95
548.324	6790.2
548.688	6839.69
549.052	6842.63
549.416	6868.62
549.779	6944.1
550.143	6898
550.507	6997.65
550.871	6994.94
551.235	7005.11
551.599	7077.2
551.962	7099.8
552.326	7145.9
552.689	7097.77
553.053	7086.01
553.417	7080.59
553.78	7174.6
554.143	7173.92
554.507	7196.75
554.87	7183.64
555.234	7344.54
555.597	7205.56
555.96	7227.93
556.323	7352
556.686	7360.13
557.05	7403.75
557.413	7443.29
557.776	7355.39
558.139	7448.72
558.502	7511.99
558.865	7456.85
559.228	7515.83
559.59	7462.5
559.953	7539.79
560.316	7617.3
560.679	7628.15
561.041	7610.07
561.404	7643.97
561.767	7743.17
562.129	7762.83
562.492	7815.49
562.854	7871.08
563.217	7806.22
563.579	7861.36
563.941	7923.51
564.304	7872.21
564.666	7969.15
565.028	7956.95
565.39	8013.45
565.753	8081.92
566.115	8057.97
566.477	8115.59
566.839	8124.86
567.201	8188.13
567.563	8164.18
567.925	8184.52
568.287	8249.6
568.648	8280.79
569.01	8322.37
569.372	8345.19
569.734	8376.15
570.095	8365.98
570.457	8454.79
570.819	8455.47
571.18	8504.28
571.542	8495.02
571.903	8586.54
572.265	8649.81
572.626	8675.8
572.987	8735.69
573.349	8793.31
573.71	8705.18
574.071	8810.04
574.432	8911.05
574.794	8958.51
575.155	8955.34
575.516	8994.44
575.877	9112.18
576.238	9084.61
576.599	9275.34
576.96	9270.36
577.32	9315.79
577.681	9448.89
578.042	9561.2
578.403	9542.22
578.763	9618.6
579.124	9736.79
579.485	9746.74
579.845	9841.2
580.206	9940.18
580.566	10063.11
580.927	10191.02
581.287	10300.62
581.648	10371.35
582.008	10552.82
582.368	10629.2
582.728	10781.51
583.089	10818.57
583.449	10997.55
583.809	11171.33
584.169	11297.43
584.529	11451.32
584.889	11705.1
585.249	11723.41
585.609	11916.17
585.969	12278.87
586.329	12330.62
586.688	12545.53
587.048	12762.93
587.408	12985.29
587.768	13155.23
588.127	13361.56
588.487	13459.18
588.846	13782.79
589.206	13994.53
589.565	14173.29
589.925	14516.1
590.284	14702.54
590.643	14969.42
591.003	15242.64
591.362	15520.14
591.721	15747.71
592.08	16037.42
592.44	16380.69
592.799	16605.31
593.158	16897.51
593.517	17146.99
593.876	17423.14
594.235	17666.75
594.593	18072.62
594.952	18321.43
595.311	18483
595.67	18852.48
596.029	19299.7
596.387	19545.57
596.746	19871.44
597.104	20066.24
597.463	20345.78
597.822	20641.14
598.18	20903.28
598.538	21163.16
598.897	21540.1
599.255	21675.01
599.613	22304.15
599.972	22444.93
600.33	22703.68
600.688	22998.59
601.046	23321.97
601.404	23773.26
601.762	23890.77
602.12	24147.71
602.478	24493.92
602.836	24759.9
603.194	24883.51
603.552	25309.94
603.91	25472.2
604.268	25891.4
604.625	25991.51
604.983	26364.6
605.341	26517.14
605.698	26927.75
606.056	27351.7
606.413	27360.96
606.771	27729.54
607.128	28035.29
607.485	28016.76
607.843	28398.9
608.2	28819.68
608.557	28996.17
608.914	29092.44
609.272	29491.98
609.629	29702.82
609.986	29968.12
610.343	30027.11
610.7	30419.19
611.057	30609.46
611.414	30778.72
611.771	30975.1
612.127	31268.43
612.484	31422.1
612.841	31753.61
613.198	31878.36
613.554	32059.14
613.911	32316.09
614.267	32571.9
614.624	32522.63
614.98	32940.48
615.337	33171.2
615.693	33277.42
616.05	33285.78
616.406	33555.37
616.762	33688.48
617.118	33839.89
617.475	34042.82
617.831	34199.2
618.187	34427.22
618.543	34601.22
618.899	34793.31
619.255	34902.23
619.611	34903.14
619.967	35213.18
620.323	35417.7
620.678	35300.19
621.034	35409.56
621.39	35519.39
621.746	35604.81
622.101	36002.54
622.457	35858.82
622.812	36089.77
623.168	36174.51
623.523	36395.07
623.879	36461.51
624.234	36228.75
624.589	36740.15
624.945	36673.48
625.3	36816.08
625.655	36972.23
626.01	36961.16
626.365	37019.46
626.72	37127.03
627.075	37083.42
627.43	37077.54
627.785	37072.57
628.14	37347.14
628.495	37360.25
628.85	37455.61
629.205	37416.52
629.559	37587.81
629.914	37497.87
630.269	37698.99
630.623	37641.6
630.978	37640.47
631.332	37831.19
631.687	37875.49
632.041	37781.7
632.396	37883.62
632.75	37759.56
633.104	37848.37
633.459	37767.47
633.813	37750.74
634.167	37927.24
634.521	37872.78
634.875	37933.79
635.229	37822.61
635.583	37797.75
635.937	37806.79
636.291	37784.64
636.645	37861.93
636.999	37845.21
637.352	38021.92
637.706	37733.57
638.06	38103.05
638.413	37946.67
638.767	37807.69
639.121	37977.18
639.474	37833
639.828	37820.35
640.181	37930.4
640.534	37922.94
640.888	37777.41
641.241	37698.09
641.594	37848.82
641.947	37899.44
642.301	37805.21
642.654	37767.24
643.007	38012.88
643.36	37918.2
643.713	37831.87
644.066	37936.28
644.419	37684.08
644.771	37488.83
645.124	37188.27
645.477	37171.55
645.83	36954.83
646.182	36792.58
646.535	36643.2
646.888	36965.23
647.24	36694.95
647.593	36920.26
647.945	36741.96
648.298	36686.59
648.65	36629.19
649.002	36612.47
649.355	36711
649.707	36727.27
650.059	36781.96
650.411	37219.69
650.763	37367.25
651.115	37655.61
651.467	37541.71
651.819	37577.64
652.171	37558.43
652.523	37361.83
652.875	37496.51
653.227	37473.46
653.578	37519.79
653.93	37452.9
654.282	37261.94
654.633	37172.91
654.985	37307.14
655.337	37416.06
655.688	37284.99
656.039	37408.15
656.391	37060.37
656.742	37277.54
657.094	37280.02
657.445	37425.1
657.796	37247.48
658.147	37101.72
658.498	37165.68
658.849	37353.24
659.2	37217.43
659.551	37085.9
659.902	37315.73
660.253	37275.05
660.604	37334.03
660.955	37136.3
661.306	37243.19
661.656	37283.41
662.007	37259.68
662.358	37274.37
662.708	37174.49
663.059	37306.69
663.409	36983.53
663.76	37264.43
664.11	37218.1
664.461	37273.02
664.811	37297.42
665.161	37210.87
665.511	37123.42
665.862	37213.36
666.212	37242.06
666.562	37291.32
666.912	37321.6
667.262	37212.45
667.612	37106.02
667.962	37207.48
668.312	37211.32
668.662	37267.82
669.011	37235.05
669.361	37046.36
669.711	37134.04
670.06	37144.88
670.41	37024.66
670.76	36975.4
671.109	37201.15
671.459	37146.24
671.808	37100.14
672.157	37112.57
672.507	36871.9
672.856	37108.28
673.205	37075.73
673.554	37073.02
673.904	36866.93
674.253	37184.88
674.602	37096.75
674.951	36510.55
675.3	36391.91
675.649	36945.79
675.998	36841.39
676.346	36847.49
676.695	37068.5
677.044	36680.72
677.393	36943.31
677.741	36892.91
678.09	36845.68
678.438	36886.81
678.787	36912.8
679.135	36838.9
679.484	36682.07
679.832	36814.05
680.181	36507.16
680.529	36696.08
680.877	36621.28
681.225	36434.4
681.573	36811.33
681.922	36671
682.27	36471.23
682.618	36548.06
682.966	36369.54
683.314	36390.1
683.661	36288.86
684.009	36161.41
684.357	36127.74
684.705	36000.28
685.053	36166.83
685.4	35902.21
685.748	35947.18
686.095	35845.94
686.443	35720.29
686.79	35805.71
687.138	35833.73
687.485	35838.93
687.832	35635.77
688.18	35628.09
688.527	35472.39
688.874	35516.91
689.221	35462.67
689.568	35361.43
689.915	35264.93
690.262	35297.93
690.609	35128.67
690.956	35178.61
691.303	35089.57
691.65	34902.91
691.997	34926.86
692.344	34747.43
692.69	34673.09
693.037	34772.07
693.383	34538.63
693.73	34497.72
694.077	34420.66
694.423	34458.85
694.769	34241.91
695.116	34197.39
695.462	34121.24
695.808	34051.63
696.155	34123.95
696.501	33770.51
696.847	33881.24
697.193	33740.91
697.539	33721.47
697.885	33514.02
698.231	33516.05
698.577	33452.33
698.923	33396.28
699.269	33209.4
699.614	33029.29
699.96	33089.85
700.306	32935.5
700.651	32882.62
700.997	32868.39
701.342	32877.43
701.688	32686.92
702.033	32556.76
702.379	32624.78
702.724	32415.07
703.069	32568.73
703.415	32180.04
703.76	32283.77
704.105	32317.44
704.45	32156.99
704.795	32051.91
705.14	31846.72
705.485	31942.54
705.83	31869.32
706.175	31924.46
706.52	31646.05
706.865	31654.63
707.209	31630
707.554	31414.41
707.899	31499.84
708.243	31393.4
708.588	31323.12
708.932	31079.28
709.277	31137.36
709.621	31140.3
709.966	30920.87
710.31	31074.31
710.654	30769.23
710.998	30787.99
711.342	30767.88
711.687	30717.03
712.031	30606.3
712.375	30542.57
712.719	30472.29
713.063	30437.94
713.407	30630.71
713.75	30383.48
714.094	30309.36
714.438	30186.88
714.782	30225.52
715.125	30168.12
715.469	30201.56
715.812	30003.6
716.156	29842.03
716.499	29894.68
716.843	29905.98
717.186	29656.95
717.53	29750.05
717.873	29875.7
718.216	29730.39
718.559	29585.31
718.902	29400.46
719.246	29532.2
719.589	29344.41
719.932	29382.15
720.275	29308.93
720.617	29316.16
720.96	29244.08
721.303	29202.27
721.646	29218.54
721.989	29063.74
722.331	29116.4
722.674	29018.77
723.016	28931.54
723.359	28983.74
723.701	28946.46
724.044	28665.11
724.386	28727.48
724.729	28769.29
725.071	28662.85
725.413	28696.75
725.755	28603.87
726.097	28593.47
726.439	28470.08
726.782	28489.52
727.124	28605.9
727.465	28442.06
727.807	28298.11
728.149	28294.27
728.491	28292.91
728.833	28362.29
729.175	28220.37
729.516	28072.13
729.858	28122.75
730.199	28134.95
730.541	28113.94
730.882	27908.74
731.224	27955.07
731.565	27903.77
731.906	27891.34
732.248	27849.31
732.589	27714.62
732.93	27646.83
733.271	27584.46
733.612	27750.56
733.953	27676.89
734.294	27536.55
734.635	27501.07
734.976	27561.41
735.317	27431.47
735.658	27324.35
735.999	27440.73
736.339	27278.48
736.68	27418.81
737.021	27304.47
737.361	27124.36
737.702	27331.81
738.042	27160.29
738.383	27082.55
738.723	27151.93
739.063	26957.13
739.404	27031.03
739.744	27044.81
740.084	26888.66
740.424	26907.87
740.764	26893.86
741.104	26857.92
741.444	26719.17
741.784	26648.89
742.124	26810.69
742.464	26737.25
742.804	26598.04
743.143	26593.3
743.483	26657.93
743.823	26455.67
744.162	26602.79
744.502	26537.93
744.841	26454.54
745.181	26565.05
745.52	26410.25
745.86	26366.19
746.199	26359.18
746.538	26229.69
746.877	26325.73
747.216	26349.24
747.556	26217.49
747.895	26242.8
748.234	26043.26
748.573	26107.44
748.911	26108.11
749.25	25938.85
749.589	25873.99
749.928	25940.21
750.267	25897.95
750.605	25878.74
750.944	25802.13
751.283	25636.94
751.621	25646.88
751.96	25695.47
752.298	25633.55
752.636	25582.48
752.975	25412.09
753.313	25336.61
753.651	25426.1
753.989	25347
754.327	25285.54
754.666	25264.52
755.004	25167.8
755.342	25259.77
755.679	25110.85
756.017	25040.57
756.355	25132.09
756.693	25037.63
757.031	25114.69
757.368	24842.16
757.706	24958.31
758.044	24765.32
758.381	24929.39
758.719	24595.84
759.056	24683.29
759.394	24586.12
759.731	24540.7
760.068	24376.18
760.405	24467.7
760.743	24352.45
761.08	24393.58
761.417	24358.78
761.754	24146.36
762.091	24077.43
762.428	24006.47
762.765	23963.31
763.102	23952.92
763.438	23785.91
763.775	23786.37
764.112	23755.41
764.449	23649.65
764.785	23610.1
765.122	23401.29
765.458	23418.69
765.795	23328.3
766.131	23331.46
766.467	23259.83
766.804	23104.8
767.14	23015.99
767.476	22994.97
767.812	22888.99
768.148	23026.16
768.485	22785.71
768.821	22639.5
769.157	22688.77
769.492	22622.1
769.828	22529.9
770.164	22322.22
770.5	22332.84
770.836	22292.85
771.171	22133.08
771.507	22127.88
771.842	21837.94
772.178	21956.13
772.513	21897.6
772.849	21774.44
773.184	21684.27
773.519	21678.85
773.855	21560.44
774.19	21545.52
774.525	21570.61
774.86	21446.77
775.195	21414
775.53	21333.1
775.865	21105.08
776.2	21022.82
776.535	20918.19
776.87	20868.7
777.205	20820.57
777.539	20697.41
777.874	20745.32
778.209	20595.94
778.543	20539.45
778.878	20475.72
779.212	20285.89
779.547	20338.77
779.881	20316.17
780.215	20162.96
780.55	20208.16
780.884	20054.71
781.218	20068.05
781.552	20037.54
781.886	19844.77
782.22	19811.78
782.554	19714.38
782.888	19538.34
783.222	19579.25
783.556	19409.98
783.889	19355.97
784.223	19321.17
784.557	19125.25
784.89	19243.66
785.224	19150.78
785.557	18972.71
785.891	18985.59
786.224	18847.29
786.558	18872.82
786.891	18744.01
787.224	18785.14
787.557	18597.58
787.891	18590.8
788.224	18557.58
788.557	18515.32
788.89	18445.04
789.223	18393.06
789.556	18288.88
789.888	18168.66
790.221	18144.25
790.554	18003.02
790.887	18031.04
791.219	17881.44
791.552	17968.89
791.884	17731.16
792.217	17711.05
792.549	17723.93
792.882	17625.62
793.214	17512.41
793.546	17503.59
793.879	17445.52
794.211	17348.57
794.543	17448.91
794.875	17334.33
795.207	17293.66
795.539	17188.57
795.871	17253.88
796.203	17104.51
796.535	16915.81
796.867	16930.73
797.198	16934.12
797.53	16920.11
797.862	16828.36
798.193	16808.92
798.525	16636.27
798.856	16747
799.188	16542.71
799.519	16490.96
799.85	16339.56
800.182	16393.11
800.513	16501.13
800.844	16262.5
801.175	16254.81
801.506	16343.4
801.837	16285.77
802.168	16067.47
802.499	16031.99
802.83	16049.85
803.161	15959.45
803.491	15958.78
803.822	15932.11
804.153	15881.26
804.483	15678.78
804.814	15735.05
805.145	15625.22
805.475	15625.9
805.805	15543.64
806.136	15573.02
806.466	15509.75
806.796	15534.38
807.126	15409.64
807.457	15320.83
807.787	15359.47
808.117	15268.62
808.447	15215.97
808.777	15294.16
809.107	15187.27
809.436	15181.85
809.766	15116.99
810.096	15081.28
810.426	14971.91
810.755	14958.35
811.085	14891.23
811.414	14909.09
811.744	14794.96
812.073	14829.09
812.403	14713.61
812.732	14778.47
813.061	14686.04
813.39	14603.78
813.719	14459.38
814.049	14562.65
814.378	14559.49
814.707	14437.23
815.036	14494.63
815.365	14359.04
815.693	14254.19
816.022	14319.04
816.351	14246.96
816.68	14191.14
817.008	14269.1
817.337	14057.36
817.665	14079.05
817.994	14117.69
818.322	14063.68
818.651	13991.14
818.979	13964.25
819.307	13964.25
819.636	13979.62
819.964	13846.74
820.292	13940.75
820.62	13845.16
820.948	13799.96
821.276	13839.73
821.604	13828.44
821.932	13835.22
822.259	13796.12
822.587	13807.42
822.915	13743.01
823.243	13813.75
823.57	13788.21
823.898	13765.39
824.225	13814.2
824.553	13769.45
824.88	13768.78
825.207	13721.77
825.535	13690.59
825.862	13825.5
826.189	13761.77
826.516	13755.22
826.843	13856.68
827.17	13773.3
827.497	13740.75
827.824	13849
828.151	13829.57
828.478	13727.87
828.805	13805.84
829.131	13716.8
829.458	13710.25
829.785	13620.31
830.111	13686.52
830.438	13752.05
830.764	13737.82
831.09	13666.86
831.417	13641.32
831.743	13697.14
832.069	13635.67
832.395	13620.31
832.722	13662.34
833.048	13541.21
833.374	13671.83
833.7	13542.79
834.026	13577.14
834.351	13614.43
834.677	13567.65
835.003	13578.5
835.329	13547.09
835.654	13467.09
835.98	13402.01
836.306	13526.3
836.631	13396.81
836.956	13505.05
837.282	13413.98
837.607	13420.54
837.932	13408.11
838.258	13365.4
838.583	13277.94
838.908	13246.76
839.233	13270.71
839.558	13287.66
839.883	13177.15
840.208	13124.27
840.533	13165.4
840.858	13198.17
841.182	13138.06
841.507	13112.07
841.832	13054.22
842.156	13066.87
842.481	13057.38
842.805	12969.02
843.13	12889.93
843.454	12891.96
843.778	12881.34
844.103	12885.64
844.427	12790.95
844.751	12869.14
845.075	12815.36
845.399	12763.83
845.723	12665.3
846.047	12730.16
846.371	12625.08
846.695	12592.99
847.019	12571.52
847.343	12478.87
847.666	12384.63
847.99	12333.11
848.313	12289.72
848.637	12233
848.96	12169.04
849.284	12177.18
849.607	12055.83
849.931	12103.51
850.254	12045.21
850.577	12010.63
850.9	11873.23
851.223	11849.96
851.546	11767.25
851.869	11764.31
852.192	11808.38
852.515	11610.19
852.838	11614.71
853.161	11617.19
853.483	11554.15
853.806	11539.23
854.129	11517.99
854.451	11348.28
854.774	11396.86
855.096	11342.4
855.419	11347.37
855.741	11372.68
856.063	11229.63
856.385	11198.45
856.708	11118.9
857.03	11175.85
857.352	11110.32
857.674	11090.88
857.996	11039.58
858.318	10985.57
858.64	10999.81
858.961	10980.15
859.283	10859.47
859.605	10806.82
859.926	10844.56
860.248	10811.57
860.57	10762.3
860.891	10792.13
861.212	10772.02
861.534	10660.84
861.855	10713.49
862.176	10704.68
862.498	10655.64
862.819	10674.39
863.14	10603.89
863.461	10611.12
863.782	10537.9
864.103	10533.16
864.424	10505.59
864.745	10515.98
865.065	10416.77
865.386	10459.94
865.707	10448.86
866.027	10428.98
866.348	10422.42
866.668	10401.18
866.989	10327.96
867.309	10370.9
867.63	10306.04
867.95	10337.45
868.27	10256.33
868.59	10304.69
868.91	10244.8
869.23	10241.64
869.55	10182.66
869.87	10314.18
870.19	10225.37
870.51	10266.72
870.83	10184.24
871.15	10182.2
871.469	10134.75
871.789	10155.09
872.109	10151.47
872.428	10109.21
872.748	10084.58
873.067	10059.04
873.386	10063.56
873.706	10084.13
874.025	10023.11
874.344	9946.05
874.663	9916.9
874.982	9914.87
875.301	9930.91
875.62	9896.79
875.939	9874.19
876.258	9943.57
876.577	9890.01
876.896	9892.49
877.214	9803.68
877.533	9793.74
877.852	9776.34
878.17	9744.25
878.489	9733.63
878.807	9817.02
879.125	9758.94
879.444	9765.49
879.762	9674.42
880.08	9646.17
880.398	9600.75
880.716	9703.35
881.034	9606.85
881.352	9623.35
881.67	9586.74
881.988	9577.02
882.306	9578.38
882.624	9541.32
882.941	9494.09
883.259	9480.08
883.577	9464.71
883.894	9450.47
884.212	9389.91
884.529	9462
884.846	9375.67
885.164	9451.83
885.481	9235.56
885.798	9345.84
886.115	9204.6
886.432	9284.15
886.75	9220.42
887.067	9233.98
887.383	9214.55
887.7	9222.46
888.017	9184.04
888.334	9161.89
888.651	9122.12
888.967	9080.54
889.284	9010.71
889.6	9028.79
889.917	8982.69
890.233	8933.42
890.55	9018.84
890.866	8969.58
891.182	8887.77
891.498	8918.28
891.815	8812.3
892.131	8826.53
892.447	8789.47
892.763	8801.68
893.079	8749.25
893.395	8764.84
893.71	8702.02
894.026	8696.37
894.342	8666.54
894.657	8598.06
894.973	8654.11
895.289	8578.18
895.604	8568.01
895.92	8441.01
896.235	8496.82
896.55	8458.86
896.865	8435.81
897.181	8398.97
897.496	8398.52
897.811	8361.46
898.126	8366.88
898.441	8328.24
898.756	8295.02
899.071	8215.7
899.386	8214.57
899.7	8162.37
900.015	8123.28
900.33	8089.15
900.644	8033.11
900.959	8099.77
901.273	8087.8
901.588	7959.66
901.902	7954.92
902.216	7934.58
902.531	7896.61
902.845	7910.63
903.159	7847.12
903.473	7809.39
903.787	7756.51
904.101	7735.26
904.415	7809.39
904.729	7684.19
905.042	7650.97
905.356	7607.36
905.67	7636.06
905.984	7607.81
906.297	7594.7
906.611	7550.86
906.924	7491.2
907.237	7475.83
907.551	7458.43
907.864	7429.96
908.177	7362.62
908.491	7352.9
908.804	7324.88
909.117	7336.4
909.43	7305.9
909.743	7211.21
910.056	7227.25
910.368	7187.71
910.681	7190.42
910.994	7166.24
911.307	7098.67
911.619	7069.29
911.932	7064.09
912.244	7022.29
912.557	7021.61
912.869	6951.1
913.181	6895.74
913.494	6984.1
913.806	6898.45
914.118	6865.46
914.43	6760.83
914.742	6792.91
915.054	6750.43
915.366	6698
915.678	6692.58
915.99	6682.86
916.302	6625.91
916.613	6655.07
916.925	6635.63
917.236	6633.37
917.548	6547.72
917.859	6473.15
918.171	6484
918.482	6484
918.794	6426.6
919.105	6409.42
919.416	6396.54
919.727	6339.82
920.038	6348.86
920.349	6303.66
920.66	6265.02
920.971	6224.57
921.282	6223.21
921.593	6165.13
921.903	6139.82
922.214	6182.08
922.525	6178.47
922.835	6081.07
923.146	6086.94
923.456	6043.78
923.767	6007.4
924.077	6000.62
924.387	5972.6
924.697	5965.37
925.008	5949.09
925.318	5941.19
925.628	5866.61
925.938	5881.07
926.248	5794.97
926.558	5779.38
926.867	5723.79
927.177	5744.35
927.487	5733.06
927.796	5695.77
928.106	5682.66
928.416	5712.49
928.725	5672.49
929.034	5583.23
929.344	5630.01
929.653	5564.25
929.962	5536.9
930.271	5498.26
930.581	5475.21
930.89	5442.67
931.199	5406.28
931.508	5467.53
931.817	5401.99
932.125	5387.3
932.434	5333.52
932.743	5311.37
933.051	5296.46
933.36	5258.72
933.669	5265.5
933.977	5198.61
934.286	5177.14
934.594	5162.45
934.902	5110.7
935.21	5112.05
935.519	5106.63
935.827	5096.46
936.135	5059.17
936.443	4982.34
936.751	5065.5
937.059	5023.02
937.367	4981.66
937.674	4976.47
937.982	4984.15
938.29	4951.38
938.597	4893.53
938.905	4895.79
939.213	4842.23
939.52	4799.29
939.827	4867.77
940.135	4768.56
940.442	4761.33
940.749	4788
941.056	4769.01
941.363	4695.57
941.67	4687.21
941.977	4659.41
942.284	4657.38
942.591	4658.73
942.898	4653.08
943.205	4583.48
943.511	4585.06
943.818	4578.51
944.125	4541.67
944.431	4521.56
944.738	4520.21
945.044	4467.33
945.35	4493.31
945.657	4438.63
945.963	4454.45
946.269	4387.55
946.575	4412.64
946.881	4379.19
947.187	4406.76
947.493	4367.22
947.799	4332.64
948.105	4296.71
948.41	4271.62
948.716	4243.38
949.022	4254.68
949.327	4245.86
949.633	4217.84
949.938	4171.51
950.244	4180.78
950.549	4109.37
950.854	4139.88
951.16	4049.03
951.465	4122.48
951.77	4107.34
952.075	4014.68
952.38	4048.13
952.685	3998.86
952.99	4021.24
953.294	3983.04
953.599	3963.16
953.904	3936.49
954.209	3972.2
954.513	3901.01
954.818	3877.29
955.122	3912.09
955.426	3876.38
955.731	3880.22
956.035	3844.97
956.339	3804.07
956.643	3764.52
956.948	3780.79
957.252	3785.76
957.556	3739.21
957.86	3738.98
958.163	3755.03
958.467	3683.17
958.771	3698.98
959.075	3746.67
959.378	3651.53
959.682	3674.8
959.985	3681.36
960.289	3622.6
960.592	3621.02
960.896	3566.56
961.199	3593.45
961.502	3559.33
961.805	3548.93
962.108	3487.69
962.411	3555.94
962.714	3466
963.017	3530.4
963.32	3497.41
963.623	3443.17
963.926	3427.58
964.228	3411.99
964.531	3416.28
964.833	3400.69
965.136	3372.21
965.438	3376.96
965.741	3381.93
966.043	3375.38
966.345	3306.45
966.648	3335.38
966.95	3305.32
967.252	3275.49
967.554	3323.4
967.856	3291.09
968.158	3199.79
968.46	3251.99
968.761	3236.62
969.063	3205.21
969.365	3135.16
969.666	3183.52
969.968	3140.13
970.269	3099.45
970.571	3128.38
970.872	3114.14
971.174	3101.71
971.475	3098.1
971.776	3091.54
972.077	3061.26
972.378	3041.6
972.679	3029.17
972.98	3042.28
973.281	2981.26
973.582	3032.79
973.883	2986.91
974.183	2955.28
974.484	2923.19
974.785	2934.94
975.085	2911.66
975.386	2935.84
975.686	2873.24
975.986	2868.95
976.287	2854.04
976.587	2800.93
976.887	2830.31
977.187	2835.28
977.487	2833.7
977.787	2802.29
978.087	2755.28
978.387	2792.79
978.687	2745.56
978.987	2787.82
979.286	2720.48
979.586	2744.89
979.885	2727.94
980.185	2710.08
980.484	2692.68
980.784	2682.29
981.083	2693.59
981.382	2672.12
981.682	2684.55
981.981	2646.81
982.28	2629.86
982.579	2575.62
982.878	2629.63
983.177	2623.31
983.475	2590.54
983.774	2555.74
984.073	2575.17
984.372	2543.31
984.67	2569.52
984.969	2562.52
985.267	2534.04
985.566	2497.21
985.864	2501.28
986.162	2431.9
986.461	2505.12
986.759	2470.09
987.057	2443.2
987.355	2443.42
987.653	2404.78
987.951	2418.34
988.249	2442.52
988.547	2368.17
988.844	2385.35
989.142	2403.2
989.44	2368.4
989.737	2369.08
990.035	2338.57
990.332	2355.97
990.63	2331.56
990.927	2341.96
991.224	2297.21
991.521	2292.47
991.819	2297.67
992.116	2251.79
992.413	2234.39
992.71	2254.95
993.006	2255.63
993.303	2237.78
993.6	2227.38
993.897	2192.81
994.193	2184.22
994.49	2158.69
994.787	2177.22
995.083	2174.5
995.379	2137.44
995.676	2147.39
995.972	2142.19
996.268	2115.3
996.565	2110.33
996.861	2084.34
997.157	2068.75
997.453	2091.57
997.749	2072.81
998.044	2056.77
998.34	2032.14
998.636	2033.27
998.932	2031.01
999.227	2013.38
999.523	2000.72
999.818	2018.8
1000.114	1962.99
1000.409	1987.84
1000.704	1935.19
1001	1957.11
1001.295	1949.65
1001.59	1944.23
1001.885	1925.47
1002.18	1918.24
1002.475	1912.59
1002.77	1901.97
1003.065	1875.76
1003.359	1887.51
1003.654	1868.52
1003.949	1848.41
1004.243	1849.77
1004.538	1821.29
1004.832	1816.77
1005.127	1799.15
1005.421	1817.9
1005.715	1772.03
1006.009	1813.38
1006.304	1780.39
1006.598	1772.48
1006.892	1754.85
1007.186	1731.58
1007.48	1706.72
1007.773	1691.13
1008.067	1712.14
1008.361	1736.1
1008.655	1703.78
1008.948	1685.93
1009.242	1680.05
1009.535	1669.21
1009.829	1668.98
1010.122	1655.2
1010.415	1655.87
1010.708	1642.32
1011.001	1632.37
1011.295	1631.24
1011.588	1598.25
1011.881	1600.28
1012.173	1593.28
1012.466	1599.83
1012.759	1572.03
1013.052	1581.98
1013.344	1551.02
1013.637	1544.01
1013.93	1547.85
1014.222	1519.61
1014.514	1540.85
1014.807	1519.15
1015.099	1523.22
1015.391	1526.84
1015.683	1492.94
1015.976	1484.13
1016.268	1454.3
1016.56	1450.46
1016.851	1450.68
1017.143	1428.76
1017.435	1438.48
1017.727	1433.51
1018.018	1407.29
1018.31	1419.27
1018.602	1410.68
1018.893	1391.93
1019.185	1378.37
1019.476	1384.47
1019.767	1384.02
1020.058	1375.43
1020.35	1358.93
1020.641	1345.83
1020.932	1336.56
1021.223	1314.19
1021.514	1328.43
1021.804	1306.73
1022.095	1300.86
1022.386	1288.88
1022.677	1287.07
1022.967	1278.71
1023.258	1281.42
1023.548	1254.53
1023.839	1255.89
1024.129	1240.74
1024.419	1234.19
1024.709	1236.9
1025	1238.71
1025.29	1207.3
1025.58	1206.17
1025.87	1209.11
1026.16	1181.76
1026.449	1180.86
1026.739	1176.79
1027.029	1174.98
1027.319	1159.84
1027.608	1154.87
1027.898	1145.61
1028.187	1120.07
1028.477	1116.68
1028.766	1119.39
1029.055	1113.06
1029.344	1093.4
1029.634	1117.13
1029.923	1096.57
1030.212	1083.23
1030.501	1077.58
1030.79	1064.93
1031.078	1081.65
1031.367	1049.79
1031.656	1049.79
1031.945	1063.57
1032.233	1064.7
1032.522	1025.83
1032.81	1032.39
1033.099	1033.07
1033.387	999.39
1033.675	1000.98
1033.963	993.29
1034.251	1013.41
1034.54	975.44
1034.828	978.38
1035.116	965.05
1035.403	961.2
1035.691	966.18
1035.979	963.69
1036.267	977.93
1036.554	964.82
1036.842	963.92
1037.129	936.12
1037.417	916.01
1037.704	922.79
1037.992	931.37
1038.279	927.08
1038.566	909.45
1038.853	909.45
1039.14	909.45
