Data from hue_90_FLMS001491_85.txt Node
Date: Mon Feb 06 15:25:48 GMT 2017
User: dcchb
Spectrometer: FLMS00149
Trigger mode: 0
Integration Time (sec): 2.000000E-2
Scans to average: 10
Electric dark correction enabled: true
Nonlinearity correction enabled: false
Boxcar width: 0
XAxis mode: Wavelengths
Number of Pixels in Spectrum: 2048
>>>>>Begin Spectral Data<<<<<
341.393	-18.49
341.776	-18.49
342.16	-18.49
342.543	-59.39
342.927	-80.41
343.31	-62.33
343.693	-60.97
344.077	-65.72
344.46	-37.7
344.843	-70.01
345.226	-35.89
345.61	-36.79
345.993	-35.89
346.376	-20.97
346.759	8.18
347.142	26.48
347.525	46.14
347.908	57.89
348.291	74.62
348.674	86.14
349.057	126.82
349.44	132.24
349.823	139.02
350.206	138.8
350.588	191.9
350.971	218.57
351.354	219.02
351.737	247.72
352.119	270.09
352.502	264.22
352.884	284.1
353.267	293.82
353.65	294.72
354.032	316.42
354.414	300.37
354.797	315.51
355.179	305.35
355.562	329.98
355.944	323.42
356.326	325.01
356.709	346.02
357.091	345.12
357.473	358.23
357.855	339.24
358.238	340.37
358.62	324.78
359.002	335.85
359.384	346.7
359.766	338.79
360.148	328.4
360.53	332.69
360.912	351.22
361.294	357.77
361.676	327.49
362.057	312.12
362.439	345.12
362.821	316.64
363.203	327.27
363.584	305.8
363.966	337.89
364.348	328.4
364.729	335.63
365.111	317.55
365.493	334.95
365.874	306.25
366.256	311.45
366.637	309.41
367.019	318.23
367.4	306.7
367.781	323.2
368.163	315.06
368.544	328.85
368.925	309.19
369.306	327.49
369.688	306.47
370.069	314.84
370.45	309.41
370.831	312.8
371.212	322.75
371.593	304.44
371.974	290.2
372.355	320.94
372.736	332.01
373.117	316.42
373.498	323.65
373.879	314.84
374.26	314.16
374.641	312.58
375.021	301.73
375.402	315.29
375.783	302.18
376.163	323.88
376.544	335.4
376.925	323.65
377.305	329.53
377.686	325.68
378.066	305.35
378.447	334.72
378.827	324.55
379.208	328.62
379.588	342.86
379.968	349.86
380.349	328.17
380.729	327.72
381.109	347.6
381.489	353.48
381.87	334.95
382.25	336.3
382.63	331.79
383.01	351.9
383.39	355.29
383.77	364.55
384.15	329.07
384.53	350.77
384.91	359.13
385.29	356.42
385.67	336.08
386.049	343.31
386.429	350.54
386.809	340.15
387.189	341.5
387.568	359.58
387.948	353.48
388.328	372.46
388.707	367.04
389.087	359.13
389.466	372.01
389.846	363.42
390.225	378.79
390.605	371.11
390.984	381.5
391.363	360.94
391.743	383.31
392.122	383.99
392.501	375.4
392.881	398.22
393.26	363.42
393.639	388.05
394.018	379.47
394.397	396.87
394.776	389.18
395.155	388.73
395.534	395.06
395.913	373.82
396.292	406.13
396.671	376.76
397.05	406.59
397.429	394.38
397.808	398.22
398.186	410.43
398.565	396.19
398.944	408.17
399.323	403.2
399.701	402.97
400.08	386.92
400.458	432.8
400.837	408.62
401.215	380.15
401.594	413.82
401.972	409.07
402.351	410.2
402.729	423.08
403.107	430.09
403.486	417.88
403.864	423.08
404.242	415.85
404.62	435.06
404.999	434.16
405.377	437.32
405.755	466.02
406.133	443.19
406.511	448.17
406.889	443.87
407.267	473.7
407.645	438.9
408.023	439.35
408.401	460.6
408.779	459.92
409.156	463.98
409.534	466.92
409.912	471.89
410.29	481.39
410.667	491.1
411.045	486.13
411.422	512.35
411.8	483.19
412.178	494.94
412.555	483.42
412.933	495.4
413.31	517.77
413.687	517.77
414.065	494.72
414.442	495.85
414.819	527.49
415.197	529.75
415.574	525.9
415.951	532.68
416.328	520.71
416.705	516.64
417.082	522.74
417.46	510.09
417.837	529.29
418.214	523.64
418.591	522.74
418.967	548.05
419.344	543.98
419.721	565.23
420.098	541.27
420.475	557.54
420.852	563.19
421.228	555.06
421.605	561.61
421.982	551.89
422.358	576.07
422.735	594.6
423.111	592.8
423.488	589.18
423.864	567.49
424.241	605.9
424.617	593.47
424.994	606.35
425.37	612.91
425.746	610.42
426.123	613.81
426.499	628.73
426.875	615.17
427.251	626.69
427.627	625.11
428.003	618.78
428.379	646.35
428.756	652.23
429.132	641.16
429.507	645.22
429.883	626.92
430.259	666.69
430.635	668.73
431.011	663.98
431.387	684.54
431.763	701.04
432.138	701.49
432.514	676.63
432.89	719.8
433.265	724.54
433.641	714.83
434.016	732
434.392	751.44
434.767	764.32
435.143	739.23
435.518	743.3
435.894	742.17
436.269	762.51
436.644	788.5
437.02	806.35
437.395	780.36
437.77	795.28
438.145	791.89
438.52	814.71
438.895	831.66
439.271	799.57
439.646	837.31
440.021	844.99
440.395	828.04
440.77	822.85
441.145	832.34
441.52	866.91
441.895	837.31
442.27	860.58
442.645	865.33
443.019	872.11
443.394	892.22
443.769	873.24
444.143	881.38
444.518	882.51
444.892	899.91
445.267	901.71
445.641	908.72
446.016	910.75
446.39	917.98
446.764	930.64
447.139	920.92
447.513	946.91
447.887	948.72
448.262	940.81
448.636	948.27
449.01	969.96
449.384	969.51
449.758	1024.2
450.132	992.56
450.506	979.68
450.88	990.98
451.254	1013.8
451.628	997.53
452.002	1024.42
452.376	1047.02
452.75	1017.19
453.123	1057.19
453.497	1064.42
453.871	1076.17
454.244	1076.17
454.618	1090.64
454.992	1103.06
455.365	1081.37
455.739	1157.98
456.112	1148.03
456.486	1140.35
456.859	1167.02
457.232	1185.55
457.606	1193.46
457.979	1211.31
458.352	1186.45
458.725	1205.21
459.099	1249.95
459.472	1272.78
459.845	1270.74
460.218	1284.53
460.591	1318.2
460.964	1307.8
461.337	1345.32
461.71	1387.8
462.083	1379.22
462.456	1402.49
462.829	1405.66
463.201	1435.71
463.574	1427.58
463.947	1462.15
464.32	1478.65
464.692	1479.55
465.065	1503.28
465.438	1538.08
465.81	1567.23
466.183	1556.61
466.555	1587.35
466.928	1614.01
467.3	1625.54
467.672	1650.17
468.045	1686.78
468.417	1701.92
468.789	1730.39
469.161	1768.13
469.534	1810.39
469.906	1797.96
470.278	1847.68
470.65	1858.3
471.022	1896.26
471.394	1954.34
471.766	1989.82
472.138	1996.37
472.51	2059.65
472.882	2089.48
473.253	2101.68
473.625	2179.65
473.997	2232.75
474.369	2267.55
474.74	2289.25
475.112	2353.65
475.484	2386.19
475.855	2451.5
476.227	2508.9
476.598	2527.89
476.97	2593.19
477.341	2668.45
477.713	2756.13
478.084	2760.42
478.455	2891.27
478.827	2920.64
479.198	3032.96
479.569	3031.38
479.94	3213.97
480.311	3205.61
480.682	3320.18
481.053	3427.52
481.424	3515.88
481.795	3626.39
482.166	3634.75
482.537	3770.34
482.908	3878.13
483.279	3942.76
483.65	4072.03
484.021	4199.25
484.391	4293.04
484.762	4329.65
485.133	4495.52
485.503	4539.58
485.874	4690.09
486.244	4785.91
486.615	4899.8
486.985	5003.75
487.356	5167.36
487.726	5265.89
488.097	5363.07
488.467	5435.83
488.837	5651.87
489.207	5788.59
489.578	5916.5
489.948	6022.71
490.318	6162.37
490.688	6263.38
491.058	6397.16
491.428	6531.17
491.798	6674.44
492.168	6821.78
492.538	6961.22
492.908	7090.93
493.278	7199.63
493.648	7275.11
494.017	7476.23
494.387	7553.52
494.757	7675.77
495.126	7903.11
495.496	7856.56
495.866	8058.14
496.235	8162.54
496.605	8325.7
496.974	8353.27
497.344	8538.35
497.713	8644.56
498.082	8730.89
498.452	8859.47
498.821	8933.82
499.19	9043.19
499.559	9158.22
499.928	9228.5
500.298	9360.93
500.667	9519.11
501.036	9513.24
501.405	9648.15
501.774	9660.58
502.143	9794.36
502.512	9968.14
502.88	10005.43
503.249	10088.59
503.618	10137.85
503.987	10220.79
504.356	10276.38
504.724	10396.15
505.093	10437.73
505.462	10569.03
505.83	10663.94
506.199	10742.13
506.567	10838.85
506.936	10883.82
507.304	11060.54
507.672	11055.12
508.041	11108.45
508.409	11213.76
508.777	11272.29
509.145	11357.48
509.514	11446.75
509.882	11566.74
510.25	11533.75
510.618	11604.71
510.986	11614.65
511.354	11772.84
511.722	11894.64
512.09	12011.7
512.458	11888.32
512.826	11971.48
513.193	12028.2
513.561	12158.14
513.929	12172.15
514.297	12330.34
514.664	12354.07
515.032	12424.8
515.4	12379.6
515.767	12454.18
516.135	12533.5
516.502	12436.78
516.869	12684.23
517.237	12752.25
517.604	12729.43
517.972	12816.2
518.339	12805.13
518.706	12831.12
519.073	12831.8
519.44	12912.7
519.808	13002.41
520.175	12984.79
520.542	13173.26
520.909	13217.32
521.276	13127.15
521.643	13286.92
522.009	13328.05
522.376	13390.2
522.743	13347.71
523.11	13451.89
523.477	13602.85
523.843	13578.67
524.21	13697.99
524.577	13745.44
524.943	13706.35
525.31	13681.49
525.676	13838.1
526.043	13803.97
526.409	13958.55
526.776	13886.68
527.142	13924.42
527.508	13922.39
527.874	14055.72
528.241	14128.71
528.607	14046.45
528.973	14123.74
529.339	14060.69
529.705	14201.93
530.071	14320.57
530.437	14252.32
530.803	14301.81
531.169	14358.08
531.535	14204.64
531.901	14350.4
532.267	14366.44
532.632	14273.34
532.998	14333
533.364	14336.16
533.73	14284.86
534.095	14302.94
534.461	14370.29
534.826	14447.8
535.192	14335.26
535.557	14359.44
535.923	14281.7
536.288	14364.86
536.653	14409.83
537.019	14233.11
537.384	14316.28
537.749	14307.91
538.114	14224.08
538.479	14341.81
538.845	14311.53
539.21	14166
539.575	14202.38
539.94	14232.66
540.305	14260.68
540.67	14231.53
541.034	14163.51
541.399	14228.82
541.764	14173
542.129	14177.97
542.494	14171.65
542.858	14186.56
543.223	14063.18
543.587	14135.26
543.952	14046
544.316	14033.8
544.681	14003.52
545.045	14049.62
545.41	13965.55
545.774	13900.47
546.138	13981.14
546.503	14011.65
546.867	13959.9
547.231	14045.55
547.595	13926.23
547.959	13851.66
548.324	13928.94
548.688	13890.52
549.052	13834.71
549.416	13870.19
549.779	13824.09
550.143	13735.73
550.507	13824.09
550.871	13799.45
551.235	13684.65
551.599	13721.04
551.962	13741.15
552.326	13644.43
552.689	13687.14
553.053	13625.45
553.417	13581.61
553.78	13819.79
554.143	13609.4
554.507	13658.44
554.87	13663.64
555.234	13763.07
555.597	13543.19
555.96	13630.64
556.323	13626.35
556.686	13620.93
557.05	13639.23
557.413	13627.71
557.776	13711.32
558.139	13662.96
558.502	13687.82
558.865	13673.58
559.228	13731.66
559.59	13653.47
559.953	13611.44
560.316	13763.75
560.679	13705.44
561.041	13802.62
561.404	13758.78
561.767	13752.22
562.129	13740.02
562.492	13761.49
562.854	13780.7
563.217	13761.04
563.579	13832
563.941	13850.07
564.304	13839
564.666	13855.05
565.028	13867.25
565.39	13927.81
565.753	13987.02
566.115	13970.52
566.477	13995.15
566.839	13992.67
567.201	14108.15
567.563	14012.33
567.925	13975.04
568.287	14078.77
568.648	14050.29
569.01	14144.76
569.372	14098.65
569.734	14075.38
570.095	14171.2
570.457	14174.58
570.819	14199.44
571.18	14201.48
571.542	14283.96
571.903	14234.47
572.265	14292.77
572.626	14286.22
572.987	14277.18
573.349	14338.42
573.71	14330.51
574.071	14378.65
574.432	14342.26
574.794	14510.62
575.155	14474.46
575.516	14343.62
575.877	14517.63
576.238	14435.37
576.599	14537.97
576.96	14516.04
577.32	14458.87
577.681	14482.15
578.042	14492.09
578.403	14523.05
578.763	14559.89
579.124	14473.79
579.485	14521.24
579.845	14573.44
580.206	14533.9
580.566	14504.52
580.927	14508.81
581.287	14587.23
581.648	14526.21
582.008	14589.72
582.368	14623.16
582.728	14628.13
583.089	14590.39
583.449	14586.78
583.809	14549.04
584.169	14667
584.529	14565.08
584.889	14618.64
585.249	14550.17
585.609	14429.27
585.969	14550.62
586.329	14461.58
586.688	14475.59
587.048	14468.59
587.408	14466.55
587.768	14429.49
588.127	14457.52
588.487	14331.42
588.846	14513.56
589.206	14351.76
589.565	14389.72
589.925	14369.38
590.284	14333.45
590.643	14432.43
591.003	14430.17
591.362	14429.27
591.721	14436.27
592.08	14380
592.44	14432.66
592.799	14451.64
593.158	14388.59
593.517	14362.38
593.876	14424.75
594.235	14420.45
594.593	14346.56
594.952	14413
595.311	14232.44
595.67	14349.5
596.029	14413.45
596.387	14456.61
596.746	14405.54
597.104	14340.91
597.463	14349.04
597.822	14351.76
598.18	14251.19
598.538	14295.49
598.897	14312.66
599.255	14234.24
599.613	14395.82
599.972	14317.41
600.33	14365.09
600.688	14299.33
601.046	14330.06
601.404	14388.14
601.762	14400.34
602.12	14474.46
602.478	14399.66
602.836	14438.08
603.194	14369.83
603.552	14318.99
603.91	14341.36
604.268	14434.92
604.625	14335.48
604.983	14386.78
605.341	14269.05
605.698	14376.16
606.056	14389.04
606.413	14369.16
606.771	14381.81
607.128	14422.94
607.485	14426.78
607.843	14353.79
608.2	14383.17
608.557	14456.39
608.914	14358.99
609.272	14452.09
609.629	14497.06
609.986	14455.03
610.343	14494.35
610.7	14635.82
611.057	14506.1
611.414	14463.16
611.771	14532.99
612.127	14552.88
612.484	14546.78
612.841	14607.79
613.198	14559.66
613.554	14556.95
613.911	14639.66
614.267	14641.69
614.624	14538.64
614.98	14655.48
615.337	14611.86
615.693	14728.69
616.05	14679.43
616.406	14637.62
616.762	14714.91
617.118	14711.29
617.475	14697.06
617.831	14808.01
618.187	14704.51
618.543	14708.81
618.899	14815.47
619.255	14750.84
619.611	14783.16
619.967	14829.26
620.323	14942.47
620.678	14809.82
621.034	14715.59
621.39	14682.82
621.746	14714.46
622.101	14923.72
622.457	14803.95
622.812	14856.6
623.168	14803.72
623.523	14917.84
623.879	14871.06
624.234	14785.64
624.589	14817.96
624.945	14850.95
625.3	14908.35
625.655	14827.22
626.01	14819.09
626.365	14794.68
626.72	14773.67
627.075	14761.91
627.43	14775.02
627.785	14752.42
628.14	14832.65
628.495	14797.39
628.85	14780.9
629.205	14737.96
629.559	14866.09
629.914	14728.92
630.269	14769.37
630.623	14695.48
630.978	14654.35
631.332	14697.06
631.687	14777.51
632.041	14686.66
632.396	14675.81
632.75	14633.1
633.104	14659.32
633.459	14597.4
633.813	14567.57
634.167	14588.81
634.521	14602.82
634.875	14618.19
635.229	14532.77
635.583	14434.01
635.937	14605.99
636.291	14504.75
636.645	14410.96
636.999	14327.58
637.352	14431.75
637.706	14388.36
638.06	14505.2
638.413	14408.93
638.767	14383.84
639.121	14405.99
639.474	14223.62
639.828	14311.3
640.181	14193.12
640.534	14313.56
640.888	14253.45
641.241	14168.03
641.594	14299.33
641.947	14285.32
642.301	14199.44
642.654	14259.1
643.007	14227.46
643.36	14201.48
643.713	14114.93
644.066	14184.08
644.419	14061.14
644.771	14153.34
645.124	13973.69
645.477	13913.35
645.83	13784.09
646.182	13740.02
646.535	13706.35
646.888	13793.8
647.24	13598.33
647.593	13675.84
647.945	13720.36
648.298	13567.14
648.65	13614.6
649.002	13485.56
649.355	13619.35
649.707	13616.18
650.059	13645.56
650.411	13808.94
650.763	13894.37
651.115	14011.2
651.467	13926.91
651.819	13991.99
652.171	13983.63
652.523	13938.21
652.875	13951.99
653.227	13789.06
653.578	13974.36
653.93	13977.98
654.282	13843.29
654.633	13778.44
654.985	13928.04
655.337	13893.69
655.688	13924.87
656.039	13987.47
656.391	13829.96
656.742	13824.99
657.094	13926.68
657.445	14002.61
657.796	13903.86
658.147	13906.34
658.498	13910.41
658.849	14023.18
659.2	13905.21
659.551	13921.48
659.902	13990.63
660.253	13894.37
660.604	13991.76
660.955	13942.05
661.306	13942.73
661.656	13903.18
662.007	13966.68
662.358	13954.7
662.708	13959.68
663.059	13914.03
663.409	13859.56
663.76	14013.01
664.11	14001.03
664.461	13926
664.811	13881.94
665.161	13958.55
665.511	13975.95
665.862	13979.34
666.212	14030.41
666.562	14009.17
666.912	13989.51
667.262	13970.07
667.612	13939.56
667.962	13981.6
668.312	13994.02
668.662	14036.96
669.011	13915.61
669.361	13933.24
669.711	13943.86
670.06	13876.06
670.41	13890.3
670.76	13836.29
671.109	13758.55
671.459	13875.84
671.808	13816.4
672.157	13840.58
672.507	13720.36
672.856	13794.03
673.205	13757.19
673.554	13773.92
673.904	13813.01
674.253	13864.76
674.602	13760.36
674.951	13636.97
675.3	13517.43
675.649	13750.42
675.998	13664.77
676.346	13720.59
676.695	13740.7
677.044	13724.2
677.393	13679.68
677.741	13739.57
678.09	13665.67
678.438	13594.71
678.787	13687.82
679.135	13644.43
679.484	13548.16
679.832	13630.19
680.181	13568.5
680.529	13568.27
680.877	13493.25
681.225	13583.19
681.573	13588.39
681.922	13472.23
682.27	13424.77
682.618	13425.45
682.966	13398.79
683.314	13373.25
683.661	13397.43
684.009	13245.12
684.357	13205.34
684.705	13193.14
685.053	13171.45
685.4	13197.66
685.748	13113.6
686.095	13064.56
686.443	13042.19
686.79	13055.07
687.138	13044.67
687.485	13069.76
687.832	12982.3
688.18	12923.77
688.527	12866.6
688.874	12940.95
689.221	12884
689.568	12836.54
689.915	12846.03
690.262	12771.91
690.609	12752.02
690.956	12620.73
691.303	12712.02
691.65	12608.07
691.997	12616.43
692.344	12586.38
692.69	12517.68
693.037	12486.49
693.383	12354.07
693.73	12439.26
694.077	12370.34
694.423	12340.73
694.769	12299.83
695.116	12277.69
695.462	12210.34
695.808	12160.4
696.155	12177.12
696.501	12070.46
696.847	12049.44
697.193	11983.23
697.539	12011.48
697.885	11857.81
698.231	11849.22
698.577	11896
698.923	11820.97
699.269	11713.41
699.614	11756.34
699.96	11654.88
700.306	11670.24
700.651	11566.07
700.997	11535.11
701.342	11546.18
701.688	11449.23
702.033	11518.61
702.379	11424.15
702.724	11376.47
703.069	11470.25
703.415	11291.27
703.76	11279.97
704.105	11275.9
704.45	11212.63
704.795	11181.67
705.14	11121.33
705.485	11136.92
705.83	11066.64
706.175	11077.94
706.52	10992.07
706.865	10885.41
707.209	10980.09
707.554	10898.96
707.899	10879.98
708.243	10865.75
708.588	10800.66
708.932	10735.81
709.277	10772.87
709.621	10719.08
709.966	10713.88
710.31	10724.28
710.654	10639.76
710.998	10633.89
711.342	10611.06
711.687	10597.73
712.031	10503.27
712.375	10495.81
712.719	10458.52
713.063	10500.33
713.407	10509.37
713.75	10462.14
714.094	10462.82
714.438	10328.81
714.782	10326.32
715.125	10322.48
715.469	10306.66
715.812	10348.7
716.156	10209.72
716.499	10212.66
716.843	10287
717.186	10262.6
717.53	10281.13
717.873	10225.08
718.216	10219.66
718.559	10161.13
718.902	10123.39
719.246	10107.8
719.589	10156.16
719.932	10072.55
720.275	10092.88
720.617	10077.74
720.96	10062.6
721.303	10028.25
721.646	10077.07
721.989	9967.46
722.331	10055.15
722.674	9974.7
723.016	10006.56
723.359	9925.43
723.701	9876.17
724.044	9925.66
724.386	9907.35
724.729	9939.22
725.071	9881.59
725.413	9913
725.755	9893.12
726.097	9836.85
726.439	9749.39
726.782	9820.12
727.124	9825.32
727.465	9812.44
727.807	9740.8
728.149	9760.46
728.491	9702.39
728.833	9809.5
729.175	9703.97
729.516	9718.88
729.858	9729.73
730.199	9741.93
730.541	9700.35
730.882	9715.04
731.224	9753.46
731.565	9701.03
731.906	9696.51
732.248	9790.75
732.589	9659.22
732.93	9704.87
733.271	9602.5
733.612	9706
733.953	9711.43
734.294	9607.7
734.635	9698.54
734.976	9705.32
735.317	9643.4
735.658	9652.44
735.999	9598.66
736.339	9708.26
736.68	9739.45
737.021	9651.54
737.361	9622.16
737.702	9641.37
738.042	9719.11
738.383	9688.15
738.723	9622.61
739.063	9627.13
739.404	9678.43
739.744	9661.94
740.084	9637.98
740.424	9677.75
740.764	9716.17
741.104	9735.61
741.444	9643.86
741.784	9694.02
742.124	9769.05
742.464	9702.61
742.804	9747.13
743.143	9707.36
743.483	9803.63
743.823	9820.58
744.162	9868.03
744.502	9895.83
744.841	9800.24
745.181	9928.37
745.52	9901.48
745.86	9958.2
746.199	10003.17
746.538	10022.6
746.877	9983.73
747.216	10103.28
747.556	10092.88
747.895	10173.56
748.234	10190.96
748.573	10209.04
748.911	10265.08
749.25	10356.38
749.589	10314.35
749.928	10413.33
750.267	10456.49
750.605	10505.3
750.944	10592.08
751.283	10624.17
751.621	10703.26
751.96	10693.09
752.298	10868.91
752.636	10958.62
752.975	10976.7
753.313	10978.06
753.651	11124.95
753.989	11280.65
754.327	11321.1
754.666	11349.57
755.004	11538.5
755.342	11642.22
755.679	11756.12
756.017	11797.25
756.355	11941.2
756.693	12046.28
757.031	12116.33
757.368	12224.35
757.706	12347.97
758.044	12459.15
758.381	12591.12
758.719	12759.93
759.056	12881.96
759.394	12954.5
759.731	13093.71
760.068	13262.97
760.405	13334.61
760.743	13425
761.08	13583.87
761.417	13710.19
761.754	13825.22
762.091	14005.55
762.428	14081.25
762.765	14215.49
763.102	14347.91
763.438	14427.01
763.775	14570.28
764.112	14720.11
764.449	14857.96
764.785	15019.53
765.122	14954.45
765.458	15154.22
765.795	15266.76
766.131	15422.24
766.467	15560.99
766.804	15602.34
767.14	15641.44
767.476	15773.19
767.812	15925.95
768.148	16071.94
768.485	16108.55
768.821	16179.96
769.157	16245.26
769.492	16421.31
769.828	16439.38
770.164	16453.62
770.5	16593.73
770.836	16654.52
771.171	16686.61
771.507	16719.38
771.842	16691.81
772.178	16904.91
772.513	17028.97
772.849	17118.91
773.184	17126.82
773.519	17169.76
773.855	17173.83
774.19	17142.42
774.525	17236.2
774.86	17388.74
775.195	17391.22
775.53	17311.9
775.865	17313.94
776.2	17367.27
776.535	17323.2
776.87	17361.39
777.205	17357.33
777.539	17443.65
777.874	17483.65
778.209	17426.02
778.543	17419.47
778.878	17360.04
779.212	17415.4
779.547	17381.28
779.881	17556.64
780.215	17468.51
780.55	17468.96
780.884	17448.85
781.218	17448.85
781.552	17553.25
781.886	17423.31
782.22	17409.53
782.554	17347.16
782.888	17297.89
783.222	17342.19
783.556	17287.27
783.889	17351.45
784.223	17283.2
784.557	17281.85
784.89	17384.22
785.224	17206.14
785.557	17243.43
785.891	17246.82
786.224	17168.63
786.558	17179.93
786.891	16991.91
787.224	17108.29
787.557	17019.93
787.891	17019.71
788.224	17016.32
788.557	17078.69
788.89	17103.55
789.223	17027.62
789.556	16904.46
789.888	16877.34
790.221	16845.48
790.554	16654.52
790.887	16777.68
791.219	16782.65
791.552	16761.41
791.884	16627.85
792.217	16710.34
792.549	16565.26
792.882	16501.76
793.214	16409.55
793.546	16556.44
793.879	16466.28
794.211	16345.83
794.543	16488.42
794.875	16401.87
795.207	16420.63
795.539	16320.29
795.871	16367.52
796.203	16180.18
796.535	16135.21
796.867	16040.98
797.198	16152.61
797.53	16070.58
797.862	16001.88
798.193	16057.25
798.525	15943.58
798.856	15956.91
799.188	15782.45
799.519	15774.54
799.85	15671.95
800.182	15737.03
800.513	15695.22
800.844	15547.43
801.175	15682.12
801.506	15619.07
801.837	15468.79
802.168	15563.7
802.499	15396.47
802.83	15340.2
803.161	15288.68
803.491	15361.45
803.822	15386.08
804.153	15273.99
804.483	15178.85
804.814	15143.15
805.145	15092.3
805.475	15141.79
805.805	15066.76
806.136	15018.18
806.466	14961.46
806.796	15049.59
807.126	14957.62
807.457	14795.36
807.787	14922.81
808.117	14839.2
808.447	14709.94
808.777	14876.71
809.107	14703.84
809.436	14738.64
809.766	14777.73
810.096	14736.6
810.426	14677.85
810.755	14636.27
811.085	14673.33
811.414	14489.83
811.744	14513.56
812.073	14475.37
812.403	14471.98
812.732	14312.89
813.061	14366.22
813.39	14248.26
813.719	14241.48
814.049	14402.38
814.378	14248.71
814.707	14168.94
815.036	14224.08
815.365	14150.63
815.693	14007.81
816.022	13963.52
816.351	14027.02
816.68	13899.11
817.008	14013.69
817.337	13921.26
817.665	13849.85
817.994	13853.69
818.322	13846.46
818.651	13829.74
818.979	13740.47
819.307	13818.44
819.636	13782.5
819.964	13742.05
820.292	13746.35
820.62	13652.11
820.948	13728.04
821.276	13673.81
821.604	13704.99
821.932	13718.33
822.259	13695.28
822.587	13725.78
822.915	13625.22
823.243	13675.39
823.57	13608.5
823.898	13581.83
824.225	13575.28
824.553	13633.13
824.88	13657.08
825.207	13627.25
825.535	13655.5
825.862	13602.62
826.189	13584.09
826.516	13686.01
826.843	13739.12
827.17	13701.6
827.497	13696.63
827.824	13640.59
828.151	13692.79
828.478	13671.77
828.805	13726.24
829.131	13653.69
829.458	13643.75
829.785	13606.01
830.111	13639.91
830.438	13692.79
830.764	13606.24
831.09	13625.45
831.417	13587.71
831.743	13651.89
832.069	13657.76
832.395	13491.67
832.722	13604.88
833.048	13548.84
833.374	13548.39
833.7	13497.77
834.026	13485.34
834.351	13551.32
834.677	13520.82
835.003	13577.54
835.329	13555.17
835.654	13467.26
835.98	13450.76
836.306	13459.35
836.631	13362.85
836.956	13508.39
837.282	13480.14
837.607	13423.64
837.932	13399.69
838.258	13397.2
838.583	13331.44
838.908	13303.65
839.233	13311.1
839.558	13283.08
839.883	13283.31
840.208	13169.41
840.533	13198.57
840.858	13239.02
841.182	13206.25
841.507	13203.54
841.832	13126.02
842.156	13074.05
842.481	13040.83
842.805	12982.07
843.13	12988.4
843.454	13060.04
843.778	12943.43
844.103	12856.43
844.427	12897.78
844.751	12844.68
845.075	12823.89
845.399	12771.01
845.723	12694.85
846.047	12790.44
846.371	12724.91
846.695	12522.2
847.019	12573.72
847.343	12507.06
847.666	12366.72
847.99	12389.32
848.313	12402.2
848.637	12269.55
848.96	12264.58
849.284	12225.03
849.607	12164.24
849.931	12191.59
850.254	12060.06
850.577	12010.8
850.9	11828.66
851.223	11931.48
851.546	11884.02
851.869	11773.52
852.192	11772.84
852.515	11747.3
852.838	11705.27
853.161	11637.7
853.483	11592.96
853.806	11492.62
854.129	11546.18
854.451	11467.31
854.774	11375.56
855.096	11404.94
855.419	11422.11
855.741	11328.56
856.063	11307.32
856.385	11326.75
856.708	11217.83
857.03	11133.99
857.352	11183.93
857.674	11124.04
857.996	11066.87
858.318	11120.88
858.64	11010.6
858.961	11009.47
859.283	10976.48
859.605	10906.2
859.926	10941.68
860.248	10895.12
860.57	10870.04
860.891	10819.42
861.212	10776.93
861.534	10722.92
861.855	10715.24
862.176	10799.08
862.498	10788.46
862.819	10684.51
863.14	10628.01
863.461	10631.18
863.782	10580.56
864.103	10665.3
864.424	10564.74
864.745	10571.29
865.065	10532.42
865.386	10492.2
865.707	10482.03
866.027	10447.68
866.348	10489.94
866.668	10454.46
866.989	10405.64
867.309	10379.43
867.63	10439.99
867.95	10370.62
868.27	10390.5
868.59	10348.02
868.91	10377.85
869.23	10324.29
869.55	10255.59
869.87	10339.66
870.19	10294.23
870.51	10296.72
870.83	10287.23
871.15	10269.83
871.469	10218.98
871.789	10258.53
872.109	10196.84
872.428	10118.87
872.748	10123.39
873.067	10198.42
873.386	10124.07
873.706	10137.18
874.025	10049.04
874.344	10024.86
874.663	10084.75
874.982	10022.6
875.301	10080.91
875.62	9993.23
875.939	9972.66
876.258	9944.41
876.577	9881.59
876.896	9940.35
877.214	9889.27
877.533	9899.9
877.852	9917.52
878.17	9853.34
878.489	9906.22
878.807	9849.05
879.125	9803.4
879.444	9773.12
879.762	9809.95
880.08	9746
880.398	9704.87
880.716	9711.65
881.034	9670.97
881.352	9718.88
881.67	9677.98
881.988	9638.43
882.306	9668.49
882.624	9579.68
882.941	9579.68
883.259	9621.03
883.577	9532
883.894	9459.45
884.212	9499
884.529	9492
884.846	9489.74
885.164	9468.04
885.481	9444.77
885.798	9471.21
886.115	9279.12
886.432	9309.4
886.75	9328.38
887.067	9282.06
887.383	9177.65
887.7	9265.56
888.017	9210.65
888.334	9226.47
888.651	9233.47
888.967	9165.9
889.284	9073.93
889.6	9121.38
889.917	9048.84
890.233	9094.49
890.55	9052.23
890.866	9043.42
891.182	8944.44
891.498	9020.6
891.815	8940.82
892.131	8880.94
892.447	8825.35
892.763	8896.98
893.079	8786.25
893.395	8752.58
893.71	8752.81
894.026	8739.47
894.342	8728.63
894.657	8640.27
894.973	8647.95
895.289	8593.26
895.604	8618.12
895.92	8535.41
896.235	8552.81
896.55	8521.4
896.865	8526.82
897.181	8430.78
897.496	8418.35
897.811	8356.43
898.126	8359.6
898.441	8350.11
898.756	8327.51
899.071	8309.65
899.386	8255.19
899.7	8209.54
900.015	8193.95
900.33	8116.44
900.644	8123.67
900.959	8158.7
901.273	8124.57
901.588	8038.7
901.902	8017.23
902.216	7951.7
902.531	7962.32
902.845	7975.88
903.159	7892.94
903.473	7861.98
903.787	7838.48
904.101	7786.96
904.415	7747.18
904.729	7753.51
905.042	7699.95
905.356	7700.63
905.67	7696.56
905.984	7656.56
906.297	7659.5
906.611	7611.59
906.924	7549.22
907.237	7568.2
907.551	7500.86
907.864	7489.11
908.177	7466.96
908.491	7413.63
908.804	7370.24
909.117	7351.94
909.43	7337.25
909.743	7232.62
910.056	7206.18
910.368	7206.63
910.681	7202.11
910.994	7129.12
911.307	7123.92
911.619	7034.89
911.932	7082.57
912.244	7023.13
912.557	7007.77
912.869	6980.2
913.181	6948.56
913.494	6937.26
913.806	6845.74
914.118	6855.91
914.43	6835.12
914.742	6877.15
915.054	6713.09
915.366	6765.06
915.678	6743.37
915.99	6678.51
916.302	6664.73
916.613	6634.22
916.925	6645.07
917.236	6599.19
917.548	6553.32
917.859	6548.34
918.171	6558.06
918.482	6476.71
918.794	6432.87
919.105	6423.38
919.416	6427.9
919.727	6358.52
920.038	6389.93
920.349	6338.86
920.66	6289.37
920.971	6272.42
921.282	6224.51
921.593	6225.19
921.903	6194.23
922.214	6172.54
922.525	6123.27
922.835	6151.97
923.146	6064.52
923.456	6095.48
923.767	6083.95
924.077	6027.45
924.387	6054.57
924.697	5977.29
925.008	6000.79
925.318	5962.15
925.628	5961.69
925.938	5931.19
926.248	5860.68
926.558	5849.15
926.867	5794.69
927.177	5786.1
927.487	5833.11
927.796	5703.4
928.106	5740
928.416	5757.18
928.725	5677.63
929.034	5688.03
929.344	5675.15
929.653	5660.68
929.962	5561.48
930.271	5602.38
930.581	5549.95
930.89	5502.72
931.199	5497.52
931.508	5458.43
931.817	5558.77
932.125	5435.61
932.434	5390.86
932.743	5400.13
933.051	5318.55
933.36	5305.21
933.669	5323.29
933.977	5302.05
934.286	5279.68
934.594	5217.98
934.902	5222.96
935.21	5180.02
935.519	5193.58
935.827	5188.61
936.135	5124.65
936.443	5104.31
936.751	5098.67
937.059	5086.46
937.367	5090.08
937.674	4967.6
937.982	5072.9
938.29	4995.84
938.597	4943.19
938.905	4935.51
939.213	4913.59
939.52	4878.56
939.827	4920.14
940.135	4890.08
940.442	4845.56
940.749	4787.94
941.056	4843.53
941.363	4769.63
941.67	4763.31
941.977	4753.14
942.284	4700.94
942.591	4706.81
942.898	4667.72
943.205	4648.28
943.511	4640.82
943.818	4609.41
944.125	4569.64
944.431	4613.25
944.738	4563.99
945.044	4575.97
945.35	4505.23
945.657	4483.99
945.963	4507.49
946.269	4483.99
946.575	4443.32
946.881	4426.59
947.187	4471.79
947.493	4412.36
947.799	4411.68
948.105	4335.3
948.41	4355.41
948.716	4349.31
949.022	4292.81
949.327	4259.37
949.633	4287.84
949.938	4291.23
950.244	4267.05
950.549	4217.33
950.854	4210.55
951.16	4157.22
951.465	4126.26
951.77	4110.67
952.075	4133.27
952.38	4136.43
952.685	4058.01
952.99	4069.99
953.294	4079.03
953.599	4055.98
953.904	4032.03
954.209	3982.08
954.513	3986.38
954.818	4005.36
955.122	3952.93
955.426	3962.42
955.731	3915.42
956.035	3872.26
956.339	3853.5
956.643	3873.16
956.948	3834.07
957.252	3814.63
957.556	3838.81
957.86	3809.66
958.163	3722.66
958.467	3797.46
958.771	3748.19
959.075	3708.65
959.378	3723.56
959.682	3757.23
959.985	3689.44
960.289	3698.7
960.592	3659.16
960.896	3663
961.199	3652.83
961.502	3613.05
961.805	3603.79
962.108	3574.19
962.411	3592.72
962.714	3526.96
963.017	3536.22
963.32	3564.47
963.623	3525.15
963.926	3487.86
964.228	3477.01
964.531	3440.4
964.833	3441.53
965.136	3441.08
965.438	3431.82
965.741	3434.08
966.043	3413.96
966.345	3378.03
966.648	3345.27
966.95	3341.42
967.252	3377.58
967.554	3339.84
967.856	3328.99
968.158	3298.94
968.46	3289.9
968.761	3267.3
969.063	3237.02
969.365	3223.46
969.666	3243.35
969.968	3219.17
970.269	3185.95
970.571	3140.75
970.872	3165.83
971.174	3157.25
971.475	3112.95
971.776	3140.52
972.077	3076.57
972.378	3096.68
972.679	3052.62
972.98	3061.66
973.281	3021.21
973.582	3065.95
973.883	3082.9
974.183	3013.3
974.484	3011.26
974.785	2959.06
975.085	2964.71
975.386	2972.39
975.686	2969.91
975.986	2931.04
976.287	2952.73
976.587	2907.76
976.887	2888.1
977.187	2862.79
977.487	2874.54
977.787	2875.22
978.087	2838.61
978.387	2867.76
978.687	2853.98
978.987	2815.79
979.286	2763.59
979.586	2786.41
979.885	2777.37
980.185	2783.92
980.484	2736.69
980.784	2761.78
981.083	2721.78
981.382	2744.38
981.682	2710.25
981.981	2677.03
982.28	2711.84
982.579	2645.17
982.878	2686.75
983.177	2616.24
983.475	2676.58
983.774	2609.24
984.073	2613.98
984.372	2600.43
984.67	2589.58
984.969	2581.67
985.267	2581.67
985.566	2607.66
985.864	2543.03
986.162	2570.14
986.461	2540.54
986.759	2534.21
987.057	2512.52
987.355	2472.97
987.653	2471.16
987.951	2472.75
988.249	2416.7
988.547	2422.13
988.844	2449.24
989.142	2441.11
989.44	2443.59
989.737	2387.1
990.035	2368.57
990.332	2363.6
990.63	2381.9
990.927	2349.13
991.224	2354.1
991.521	2352.75
991.819	2322.02
992.116	2348.91
992.413	2340.09
992.71	2293.09
993.006	2285.86
993.303	2262.81
993.6	2262.81
993.897	2254.67
994.193	2247.89
994.49	2224.62
994.787	2221.23
995.083	2214.9
995.379	2202.92
995.676	2187.56
995.972	2192.75
996.268	2165.18
996.565	2162.47
996.861	2140.55
997.157	2121.79
997.453	2129.25
997.749	2119.31
998.044	2100.1
998.34	2096.71
998.636	2080.67
998.932	2070.95
999.227	2064.62
999.523	2056.71
999.818	1997.73
1000.114	2028.46
1000.409	2024.85
1000.704	1995.47
1001	2019.65
1001.295	1989.59
1001.59	1983.72
1001.885	1941.69
1002.18	1946.88
1002.475	1949.37
1002.77	1934.68
1003.065	1892.2
1003.359	1919.77
1003.654	1887
1003.949	1899.43
1004.243	1885.19
1004.538	1881.57
1004.832	1874.8
1005.127	1884.06
1005.421	1836.6
1005.715	1823.27
1006.009	1797.06
1006.304	1809.71
1006.598	1796.61
1006.892	1815.81
1007.186	1761.35
1007.48	1797.28
1007.773	1777.17
1008.067	1764.06
1008.361	1729.94
1008.655	1725.42
1008.948	1749.6
1009.242	1718.64
1009.535	1704.4
1009.829	1711.41
1010.122	1697.4
1010.415	1675.93
1010.708	1658.08
1011.001	1648.81
1011.295	1650.39
1011.588	1624.63
1011.881	1649.04
1012.173	1642.49
1012.466	1620.11
1012.759	1595.71
1013.052	1608.59
1013.344	1596.61
1013.637	1587.8
1013.93	1564.52
1014.222	1529.72
1014.514	1544.41
1014.807	1540.79
1015.099	1536.05
1015.391	1512.32
1015.683	1513.67
1015.976	1517.06
1016.268	1464.18
1016.56	1476.61
1016.851	1479.78
1017.143	1458.08
1017.435	1456.05
1017.727	1462.38
1018.018	1444.98
1018.31	1457.86
1018.602	1443.85
1018.893	1429.16
1019.185	1411.08
1019.476	1406.11
1019.767	1395.71
1020.058	1386.9
1020.35	1359.33
1020.641	1343.74
1020.932	1355.03
1021.223	1350.29
1021.514	1342.38
1021.804	1319.33
1022.095	1352.32
1022.386	1312.1
1022.677	1296.96
1022.967	1290.86
1023.258	1285.21
1023.548	1289.27
1023.839	1251.76
1024.129	1291.08
1024.419	1278.2
1024.709	1258.77
1025	1245.66
1025.29	1216.73
1025.58	1230.97
1025.87	1183.06
1026.16	1210.41
1026.449	1213.8
1026.739	1180.8
1027.029	1169.73
1027.319	1165.89
1027.608	1185.55
1027.898	1137.64
1028.187	1152.55
1028.477	1155.04
1028.766	1147.58
1029.055	1138.77
1029.344	1121.37
1029.634	1124.76
1029.923	1103.74
1030.212	1121.14
1030.501	1087.47
1030.79	1077.3
1031.078	1103.97
1031.367	1076.85
1031.656	1055.38
1031.945	1071.43
1032.233	1068.26
1032.522	1071.65
1032.81	1068.04
1033.099	1030.98
1033.387	1026.91
1033.675	1032.78
1033.963	1023.07
1034.251	1015.61
1034.54	1004.54
1034.828	1009.06
1035.116	1001.15
1035.403	974.25
1035.691	982.39
1035.979	963.41
1036.267	962.95
1036.554	963.41
1036.842	971.54
1037.129	957.53
1037.417	948.72
1037.704	929.96
1037.992	947.14
1038.279	927.48
1038.566	926.57
1038.853	926.57
1039.14	926.57
