Data from hue_210_FLMS001491_00028.txt Node
Date: Tue Feb 07 16:40:58 GMT 2017
User: dcchb
Spectrometer: FLMS00149
Trigger mode: 0
Integration Time (sec): 2.000000E-2
Scans to average: 10
Electric dark correction enabled: true
Nonlinearity correction enabled: false
Boxcar width: 0
XAxis mode: Wavelengths
Number of Pixels in Spectrum: 2048
>>>>>Begin Spectral Data<<<<<
341.393	-4.43
341.776	-4.43
342.16	-4.43
342.543	-47.15
342.927	-50.54
343.31	-67.94
343.693	-62.51
344.077	-79.01
344.46	-55.28
344.843	-64.09
345.226	-40.82
345.61	-39.91
345.993	-10.76
346.376	-10.31
346.759	27.65
347.142	26.52
347.525	52.29
347.908	51.83
348.291	80.76
348.674	70.82
349.057	120.76
349.44	139.97
349.823	153.98
350.206	148.78
350.588	188.78
350.971	197.37
351.354	227.65
351.737	224.26
352.119	273.52
352.502	254.99
352.884	276.69
353.267	269.68
353.65	294.09
354.032	279.4
354.414	306.07
354.797	309.91
355.179	308.55
355.562	314.43
355.944	319.85
356.326	330.7
356.709	339.51
357.091	320.98
357.473	342.9
357.855	337.7
358.238	328.21
358.62	330.47
359.002	345.84
359.384	350.36
359.766	351.49
360.148	347.87
360.53	333.86
360.912	347.42
361.294	336.35
361.676	323.01
362.057	330.25
362.439	336.8
362.821	320.75
363.203	308.78
363.584	314.88
363.966	309.91
364.348	336.8
364.729	320.53
365.111	332.05
365.493	313.52
365.874	329.12
366.256	313.75
366.637	320.98
367.019	312.17
367.4	318.72
367.781	316.46
368.163	309.46
368.544	316.23
368.925	313.52
369.306	293.86
369.688	299.96
370.069	302
370.45	330.92
370.831	312.84
371.212	293.41
371.593	315.78
371.974	296.35
372.355	295.67
372.736	325.5
373.117	299.51
373.498	311.94
373.879	295.9
374.26	311.94
374.641	303.58
375.021	294.99
375.402	323.47
375.783	313.75
376.163	335.9
376.544	314.2
376.925	328.89
377.305	306.29
377.686	317.14
378.066	327.76
378.447	337.93
378.827	331.38
379.208	337.03
379.588	320.08
379.968	325.73
380.349	357.82
380.729	350.81
381.109	319.85
381.489	333.18
381.87	333.64
382.25	326.63
382.63	343.35
383.01	337.48
383.39	334.99
383.77	321.21
384.15	328.89
384.53	346.06
384.91	335.67
385.29	338.83
385.67	351.94
386.049	349.68
386.429	338.83
386.809	367.08
387.189	334.77
387.568	333.41
387.948	352.84
388.328	355.56
388.707	359.85
389.087	356.23
389.466	361.66
389.846	355.56
390.225	363.01
390.605	348.1
390.984	376.35
391.363	359.17
391.743	367.76
392.122	349.45
392.501	353.97
392.881	356.91
393.26	366.18
393.639	372.96
394.018	397.36
394.397	384.71
394.776	371.6
395.155	383.58
395.534	360.3
395.913	388.32
396.292	370.92
396.671	370.7
397.05	385.39
397.429	390.81
397.808	410.7
398.186	381.77
398.565	383.8
398.944	388.32
399.323	390.58
399.701	391.26
400.08	405.27
400.458	405.72
400.837	399.85
401.215	399.62
401.594	428.55
401.972	417.7
402.351	429.68
402.729	423.12
403.107	418.15
403.486	401.2
403.864	434.88
404.242	430.81
404.62	439.4
404.999	444.82
405.377	426.97
405.755	455.67
406.133	445.95
406.511	452.95
406.889	473.97
407.267	468.1
407.645	470.81
408.023	492.5
408.401	454.99
408.779	467.64
409.156	499.05
409.534	506.51
409.912	508.77
410.29	520.98
410.667	524.59
411.045	532.05
411.422	542.9
411.8	520.3
412.178	557.81
412.555	542.9
412.933	575.66
413.31	589.45
413.687	591.48
414.065	586.74
414.442	624.93
414.819	617.24
415.197	622.67
415.574	620.63
415.951	646.17
416.328	653.17
416.705	649.56
417.082	674.42
417.46	660.18
417.837	675.32
418.214	664.93
418.591	699.5
418.967	713.29
419.344	713.06
419.721	735.21
420.098	714.87
420.475	725.04
420.852	759.84
421.228	772.72
421.605	769.33
421.982	759.61
422.358	810.23
422.735	819.27
423.111	813.62
423.488	846.39
423.864	852.72
424.241	864.24
424.617	859.05
424.994	916.67
425.37	905.15
425.746	896.11
426.123	908.99
426.499	936.11
426.875	944.24
427.251	970.45
427.627	991.02
428.003	1015.65
428.379	1018.59
428.756	1016.78
429.132	1021.3
429.507	1052.26
429.883	1052.26
430.259	1070.57
430.635	1089.77
431.011	1092.71
431.387	1130.68
431.763	1135.42
432.138	1170.68
432.514	1145.82
432.89	1172.94
433.265	1174.52
433.641	1216.1
434.016	1254.29
434.392	1257.9
434.767	1314.17
435.143	1309.2
435.518	1340.16
435.894	1326.83
436.269	1364.12
436.644	1397.79
437.02	1434.62
437.395	1431.23
437.77	1447.05
438.145	1510.78
438.52	1495.64
438.895	1544.9
439.271	1526.15
439.646	1592.36
440.021	1617.67
440.395	1635.07
440.77	1621.06
441.145	1650.66
441.52	1686.59
441.895	1697.44
442.27	1729.76
442.645	1707.84
443.019	1741.51
443.394	1748.06
443.769	1810.21
444.143	1815.18
444.518	1820.83
444.892	1824.44
445.267	1855.18
445.641	1887.72
446.016	1902.41
446.39	1900.37
446.764	1910.32
447.139	1906.7
447.513	1935.4
447.887	1985.12
448.262	1951.67
448.636	2026.7
449.01	2007.49
449.384	2010.88
449.758	2014.5
450.132	2036.64
450.506	2026.7
450.88	2079.13
451.254	2077.54
451.628	2131.78
452.002	2134.04
452.376	2175.85
452.75	2160.48
453.123	2173.81
453.497	2235.73
453.871	2250.87
454.244	2307.59
454.618	2283.41
454.992	2368.84
455.365	2320.7
455.739	2333.36
456.112	2393.02
456.486	2418.78
456.859	2425.78
457.232	2443.18
457.606	2458.33
457.979	2527.48
458.352	2548.04
458.725	2600.24
459.099	2582.16
459.472	2611.77
459.845	2691.31
460.218	2664.2
460.591	2704.42
460.964	2720.24
461.337	2796.85
461.71	2794.81
462.083	2846.11
462.456	2867.81
462.829	2906
463.201	2936.05
463.574	2935.6
463.947	2965.2
464.32	3070.06
464.692	3057.18
465.065	3051.53
465.438	3106.9
465.81	3191.64
466.183	3197.74
466.555	3254.69
466.928	3292.2
467.3	3247.01
467.672	3356.38
468.045	3388.24
468.417	3404.97
468.789	3445.42
469.161	3473.89
469.534	3493.55
469.906	3590.5
470.278	3569.48
470.65	3654.68
471.022	3709.37
471.394	3792.53
471.766	3762.25
472.138	3843.15
472.51	3892.64
472.882	3950.72
473.253	4004.05
473.625	4023.71
473.997	4111.84
474.369	4128.56
474.74	4169.47
475.112	4244.27
475.484	4320.42
475.855	4317.26
476.227	4394.32
476.598	4543.02
476.97	4534.65
477.341	4639.74
477.713	4629.12
478.084	4706.4
478.455	4861.2
478.827	4874.76
479.198	4983
479.569	5038.37
479.94	5086.05
480.311	5182.77
480.682	5263.45
481.053	5372.15
481.424	5466.61
481.795	5463.9
482.166	5528.3
482.537	5578.92
482.908	5713.15
483.279	5684
483.65	5819.37
484.021	5923.09
484.391	5990.89
484.762	6010.1
485.133	6103.88
485.503	6168.06
485.874	6253.25
486.244	6290.54
486.615	6434.27
486.985	6506.35
487.356	6568.95
487.726	6586.13
488.097	6724.2
488.467	6750.19
488.837	6900.69
489.207	6875.84
489.578	7008.71
489.948	7004.87
490.318	7099.33
490.688	7151.76
491.058	7246.67
491.428	7284.64
491.798	7362.6
492.168	7581.58
492.538	7542.03
492.908	7629.71
493.278	7671.75
493.648	7652.31
494.017	7754.91
494.387	7828.13
494.757	7883.72
495.126	7968.69
495.496	7928.01
495.866	8027.9
496.235	8082.13
496.605	8140.89
496.974	8151.73
497.344	8196.25
497.713	8257.04
498.082	8303.82
498.452	8372.97
498.821	8440.77
499.19	8356.93
499.559	8484.83
499.928	8498.17
500.298	8541.33
500.667	8576.36
501.036	8535
501.405	8631.04
501.774	8626.75
502.143	8690.93
502.512	8667.88
502.88	8739.29
503.249	8732.51
503.618	8747.43
503.987	8806.63
504.356	8835.56
504.724	8890.7
505.093	8849.12
505.462	8961.88
505.83	8939.51
506.199	8990.81
506.567	9028.1
506.936	8997.59
507.304	9136.79
507.672	9089.34
508.041	9090.47
508.409	9158.26
508.777	9239.39
509.145	9200.97
509.514	9252.5
509.882	9222.22
510.25	9220.18
510.618	9279.16
510.986	9262.67
511.354	9329.1
511.722	9373.85
512.09	9383.79
512.458	9388.76
512.826	9407.3
513.193	9414.98
513.561	9426.05
513.929	9429.89
514.297	9442.32
514.664	9495.65
515.032	9520.06
515.4	9556.44
515.767	9515.99
516.135	9627.63
516.502	9559.38
516.869	9593.96
517.237	9594.63
517.604	9581.98
517.972	9621.07
518.339	9608.65
518.706	9706.5
519.073	9650.68
519.44	9656.33
519.808	9662.88
520.175	9628.31
520.542	9758.92
520.909	9701.98
521.276	9673.5
521.643	9736.1
522.009	9761.64
522.376	9713.95
522.743	9745.37
523.11	9799.83
523.477	9818.36
523.843	9865.14
524.21	9960.05
524.577	9902.88
524.943	9890.22
525.31	9940.16
525.676	9963.21
526.043	9904.46
526.409	9935.19
526.776	9998.69
527.142	10005.92
527.508	9981.07
527.874	9975.64
528.241	9987.84
528.607	9981.74
528.973	9972.03
529.339	9937.45
529.705	10092.25
530.071	10027.39
530.437	10048.41
530.803	10038.46
531.169	10004.12
531.535	9932.93
531.901	9890.9
532.267	9906.94
532.632	9991.23
532.998	9902.42
533.364	9878.7
533.73	9910.11
534.095	9896.1
534.461	9942.87
534.826	9865.36
535.192	9919.15
535.557	9951.69
535.923	9895.87
536.288	9870.56
536.653	9816.55
537.019	9703.78
537.384	9792.6
537.749	9786.27
538.114	9740.62
538.479	9708.53
538.845	9682.99
539.21	9636.67
539.575	9662.88
539.94	9607.74
540.305	9609.78
540.67	9636.89
541.034	9480.29
541.399	9576.1
541.764	9467.63
542.129	9494.52
542.494	9450.23
542.858	9489.55
543.223	9398.71
543.587	9426.96
543.952	9390.8
544.316	9341.53
544.681	9281.65
545.045	9291.14
545.41	9260.63
545.774	9265.38
546.138	9238.94
546.503	9198.49
546.867	9134.08
547.231	9172.72
547.595	9156
547.959	9132.73
548.324	9065.84
548.688	9048.21
549.052	9111.71
549.416	8990.81
549.779	8928.89
550.143	8955.1
550.507	8950.58
550.871	8882.79
551.235	8872.62
551.599	8917.59
551.962	8877.82
552.326	8810.02
552.689	8796.01
553.053	8740.87
553.417	8699.97
553.78	8793.07
554.143	8708.78
554.507	8700.65
554.87	8626.07
555.234	8789.68
555.597	8677.82
555.96	8607.32
556.323	8665.85
556.686	8588.56
557.05	8557.83
557.413	8631.27
557.776	8592.4
558.139	8581.33
558.502	8525.06
558.865	8510.6
559.228	8618.84
559.59	8574.77
559.953	8527.32
560.316	8641.89
560.679	8589.69
561.041	8490.26
561.404	8485.96
561.767	8507.21
562.129	8540.88
562.492	8563.25
562.854	8545.17
563.217	8555.34
563.579	8497.26
563.941	8495.91
564.304	8569.35
564.666	8607.99
565.028	8589.92
565.39	8523.02
565.753	8583.14
566.115	8595.11
566.477	8566.19
566.839	8560.31
567.201	8610.48
567.563	8652.51
567.925	8649.35
568.287	8603.7
568.648	8612.29
569.01	8732.96
569.372	8711.72
569.734	8661.33
570.095	8708.1
570.457	8630.82
570.819	8717.14
571.18	8744.71
571.542	8751.95
571.903	8685.96
572.265	8731.15
572.626	8718.05
572.987	8666.98
573.349	8733.19
573.71	8762.34
574.071	8763.92
574.432	8710.59
574.794	8819.97
575.155	8799.4
575.516	8830.59
575.877	8795.33
576.238	8784.03
576.599	8805.73
576.96	8840.08
577.32	8880.3
577.681	8916.23
578.042	8863.58
578.403	8841.43
578.763	8848.44
579.124	8937.7
579.485	8945.84
579.845	8942.67
580.206	8923.69
580.566	9014.09
580.927	8956.69
581.287	8985.84
581.648	8980.64
582.008	9012.05
582.368	8974.31
582.728	8984.48
583.089	8980.87
583.449	8979.96
583.809	8998.94
584.169	8997.36
584.529	9032.16
584.889	9094.99
585.249	9059.28
585.609	8990.36
585.969	9056.12
586.329	9055.21
586.688	9043.91
587.048	9077.36
587.408	9091.37
587.768	8984.48
588.127	9025.84
588.487	8970.7
588.846	9100.86
589.206	9100.64
589.565	9122.1
589.925	9133.18
590.284	9123.23
590.643	9081.65
591.003	9183.12
591.362	9137.25
591.721	9180.86
592.08	9098.83
592.44	9175.66
592.799	9196.91
593.158	9180.41
593.517	9171.6
593.876	9139.28
594.235	9160.97
594.593	9158.94
594.952	9143.8
595.311	9203.01
595.67	9093.86
596.029	9314.19
596.387	9236
596.746	9211.82
597.104	9248.43
597.463	9150.13
597.822	9179.28
598.18	9146.06
598.538	9130.92
598.897	9220.41
599.255	9080.98
599.613	9234.87
599.972	9253.85
600.33	9225.15
600.688	9226.28
601.046	9260.63
601.404	9264.47
601.762	9196.91
602.12	9305.15
602.478	9273.51
602.836	9245.49
603.194	9232.84
603.552	9221.09
603.91	9214.31
604.268	9289.78
604.625	9188.09
604.983	9300.41
605.341	9228.77
605.698	9245.94
606.056	9301.76
606.413	9278.71
606.771	9331.36
607.128	9273.06
607.485	9270.8
607.843	9255.43
608.2	9302.89
608.557	9322.33
608.914	9344.02
609.272	9358.48
609.629	9339.5
609.986	9383.11
610.343	9318.26
610.7	9368.65
611.057	9380.18
611.414	9337.24
611.771	9381.08
612.127	9447.52
612.484	9427.63
612.841	9440.97
613.198	9428.99
613.554	9379.73
613.911	9440.29
614.267	9433.74
614.624	9438.48
614.98	9464.92
615.337	9501.08
615.693	9467.41
616.05	9470.57
616.406	9575.88
616.762	9513.05
617.118	9450.68
617.475	9511.7
617.831	9549.44
618.187	9529.33
618.543	9537.69
618.899	9529.1
619.255	9544.69
619.611	9571.58
619.967	9549.66
620.323	9554.64
620.678	9496.56
621.034	9485.03
621.39	9494.98
621.746	9502.43
622.101	9591.02
622.457	9540.62
622.812	9554.41
623.168	9486.39
623.523	9515.77
623.879	9538.59
624.234	9526.84
624.589	9493.17
624.945	9513.96
625.3	9503.11
625.655	9545.82
626.01	9498.14
626.365	9520.06
626.72	9494.52
627.075	9509.44
627.43	9581.3
627.785	9525.03
628.14	9543.79
628.495	9573.62
628.85	9511.25
629.205	9539.27
629.559	9509.89
629.914	9523.68
630.269	9468.31
630.623	9402.32
630.978	9511.93
631.332	9501.3
631.687	9471.93
632.041	9390.8
632.396	9437.58
632.75	9421.53
633.104	9361.87
633.459	9343.34
633.813	9341.76
634.167	9346.05
634.521	9351.48
634.875	9340.4
635.229	9362.78
635.583	9278.26
635.937	9277.58
636.291	9259.95
636.645	9270.12
636.999	9269.45
637.352	9279.84
637.706	9243.01
638.06	9199.84
638.413	9235.1
638.767	9215.66
639.121	9172.27
639.474	9214.31
639.828	9190.35
640.181	9205.27
640.534	9169.34
640.888	9198.49
641.241	9167.08
641.594	9172.5
641.947	9188.54
642.301	9099.05
642.654	9112.61
643.007	9115.78
643.36	9158.26
643.713	9106.29
644.066	9197.81
644.419	9046.17
644.771	9036.23
645.124	8918.27
645.477	8977.02
645.83	8902.45
646.182	8813.41
646.535	8825.84
646.888	8861.77
647.24	8771.83
647.593	8816.58
647.945	8731.61
648.298	8766.18
648.65	8721.66
649.002	8725.96
649.355	8822
649.707	8806.18
650.059	8824.94
650.411	8941.54
650.763	8949.45
651.115	9000.98
651.467	9017.25
651.819	9008.44
652.171	9020.86
652.523	8968.44
652.875	8965.05
653.227	8970.7
653.578	8999.62
653.93	8925.95
654.282	8916.23
654.633	9006.4
654.985	9066.51
655.337	8960.98
655.688	8997.81
656.039	9055.89
656.391	8948.55
656.742	8948.32
657.094	8956.01
657.445	9022.67
657.796	8986.52
658.147	9013.86
658.498	8929.12
658.849	9015.21
659.2	8998.94
659.551	9012.5
659.902	9053.86
660.253	9054.76
660.604	9077.36
660.955	9022.67
661.306	9010.92
661.656	9018.38
662.007	9096.57
662.358	8982.9
662.708	9001.43
663.059	9076
663.409	9042.11
663.76	9108.77
664.11	9062.67
664.461	9088.43
664.811	9124.36
665.161	9053.41
665.511	9057.7
665.862	9044.82
666.212	9139.73
666.562	9063.58
666.912	9017.25
667.262	9088.89
667.612	9027.87
667.962	9075.33
668.312	9073.97
668.662	9100.41
669.011	9043.46
669.361	9059.06
669.711	9024.25
670.06	9050.69
670.41	9069
670.76	9010.7
671.109	9085.5
671.459	9006.63
671.808	9010.7
672.157	9074.87
672.507	9012.05
672.856	8960.08
673.205	8978.38
673.554	9010.47
673.904	8980.19
674.253	9019.96
674.602	8963.46
674.951	8849.8
675.3	8812.51
675.649	8960.98
675.998	8926.4
676.346	8860.64
676.695	8967.76
677.044	8831.49
677.393	8830.81
677.741	8888.44
678.09	8923.69
678.438	8855.9
678.787	8810.25
679.135	8805.28
679.484	8753.75
679.832	8879.63
680.181	8766.41
680.529	8791.27
680.877	8780.64
681.225	8748.1
681.573	8766.63
681.922	8711.72
682.27	8705.39
682.618	8771.61
682.966	8654.32
683.314	8678.95
683.661	8677.6
684.009	8579.97
684.357	8575.23
684.705	8559.41
685.053	8602.8
685.4	8565.96
685.748	8515.57
686.095	8526.19
686.443	8471.27
686.79	8549.46
687.138	8461.33
687.485	8529.8
687.832	8449.58
688.18	8398.06
688.527	8425.17
688.874	8384.72
689.221	8289.36
689.568	8316.02
689.915	8329.13
690.262	8274.22
690.609	8242.58
690.956	8170.04
691.303	8243.03
691.65	8181.34
691.997	8116.26
692.344	8157.84
692.69	8076.93
693.037	8072.87
693.383	7996.26
693.73	8082.36
694.077	7974.79
694.423	8003.04
694.769	7917.39
695.116	7942.7
695.462	7844.85
695.808	7853.89
696.155	7842.36
696.501	7810.27
696.847	7788.58
697.193	7688.24
697.539	7746.32
697.885	7685.98
698.231	7637.17
698.577	7671.3
698.923	7623.84
699.269	7613.22
699.614	7515.82
699.96	7555.82
700.306	7457.52
700.651	7466.1
700.997	7404.41
701.342	7440.34
701.688	7413.68
702.033	7353.11
702.379	7374.81
702.724	7299.78
703.069	7331.87
703.415	7271.98
703.76	7260.01
704.105	7205.09
704.45	7176.62
704.795	7171.42
705.14	7150.86
705.485	7165.55
705.83	7069.73
706.175	7042.61
706.52	7026.57
706.865	7007.36
707.209	6995.16
707.554	7036.51
707.899	6998.09
708.243	7002.84
708.588	6944.53
708.932	6900.24
709.277	6895.72
709.621	6861.15
709.966	6831.54
710.31	6808.49
710.654	6765.1
710.998	6743.64
711.342	6777.31
711.687	6756.74
712.031	6692.34
712.375	6727.59
712.719	6690.53
713.063	6694.82
713.407	6712.68
713.75	6628.39
714.094	6632.9
714.438	6615.96
714.782	6627.71
715.125	6623.64
715.469	6607.59
715.812	6579.8
716.156	6584.54
716.499	6551.55
716.843	6567.14
717.186	6497.77
717.53	6601.04
717.873	6546.81
718.216	6514.94
718.559	6483.76
718.902	6493.93
719.246	6510.87
719.589	6448.95
719.932	6418
720.275	6471.55
720.617	6480.14
720.96	6452.8
721.303	6461.16
721.646	6475.85
721.989	6408.05
722.331	6403.76
722.674	6359.47
723.016	6421.84
723.359	6372.35
723.701	6424.1
724.044	6401.72
724.386	6374.61
724.729	6389.52
725.071	6402.85
725.413	6367.37
725.755	6323.53
726.097	6382.06
726.439	6308.17
726.782	6377.32
727.124	6367.37
727.465	6313.59
727.807	6355.17
728.149	6333.93
728.491	6299.58
728.833	6344.32
729.175	6295.29
729.516	6297.77
729.858	6299.13
730.199	6346.81
730.541	6288.96
730.882	6311.11
731.224	6336.64
731.565	6314.72
731.906	6281.05
732.248	6314.72
732.589	6286.7
732.93	6272.46
733.271	6290.09
733.612	6269.3
733.953	6322.63
734.294	6244.89
734.635	6335.51
734.976	6273.37
735.317	6281.5
735.658	6258.9
735.999	6321.27
736.339	6235.4
736.68	6304.78
737.021	6300.94
737.361	6335.29
737.702	6333.93
738.042	6326.92
738.383	6354.49
738.723	6362.18
739.063	6366.92
739.404	6335.96
739.744	6382.52
740.084	6346.58
740.424	6427.49
740.764	6450.31
741.104	6407.37
741.444	6440.59
741.784	6358.79
742.124	6445.34
742.464	6469.52
742.804	6493.93
743.143	6443.98
743.483	6552.68
743.823	6522.85
744.162	6562.4
744.502	6557.2
744.841	6632.23
745.181	6657.31
745.52	6603.53
745.86	6715.16
746.199	6700.7
746.538	6773.92
746.877	6814.37
747.216	6864.54
747.556	6906.57
747.895	6916.29
748.234	6947.25
748.573	7021.14
748.911	7092.33
749.25	7108.37
749.589	7128.94
749.928	7231.98
750.267	7320.12
750.605	7388.82
750.944	7381.59
751.283	7435.37
751.621	7575.48
751.96	7690.28
752.298	7675.36
752.636	7780.22
752.975	7843.72
753.313	7882.14
753.651	8042.81
753.989	8145.41
754.327	8189.47
754.666	8329.58
755.004	8477.83
755.342	8550.59
755.679	8675.56
756.017	8821.32
756.355	8976.35
756.693	9099.73
757.031	9283.23
757.368	9268.99
757.706	9443.23
758.044	9551.47
758.381	9738.13
758.719	9816.78
759.056	10010.67
759.394	10187.84
759.731	10316.65
760.068	10506.93
760.405	10563.2
760.743	10723.19
761.08	10982.39
761.417	11081.15
761.754	11254.48
762.091	11468.48
762.428	11559.33
762.765	11617.86
763.102	11959.32
763.438	12017.4
763.775	12223.94
764.112	12385.52
764.449	12540.77
764.785	12696.93
765.122	12843.59
765.458	12931.5
765.795	13165.84
766.131	13313.86
766.467	13474.53
766.804	13591.14
767.14	13738.48
767.476	13891.7
767.812	13974.63
768.148	14142.31
768.485	14302.53
768.821	14431.8
769.157	14533.26
769.492	14637.67
769.828	14827.72
770.164	14845.34
770.5	14956.08
770.836	15218.89
771.171	15267.93
771.507	15415.72
771.842	15384.09
772.178	15602.16
772.513	15586.79
772.849	15631.99
773.184	15721.93
773.519	15936.16
773.855	15900.91
774.19	16011.87
774.525	16082.15
774.86	16210.73
775.195	16222.71
775.53	16309.49
775.865	16300.22
776.2	16375.93
776.535	16343.16
776.87	16392.2
777.205	16486.88
777.539	16571.17
777.874	16583.38
778.209	16660.21
778.543	16650.49
778.878	16606.65
779.212	16750.6
779.547	16652.08
779.881	16747.44
780.215	16822.92
780.55	16871.05
780.884	16886.42
781.218	16944.27
781.552	16956.25
781.886	16897.27
782.22	16879.41
782.554	16829.25
782.888	16871.51
783.222	16793.32
783.556	16827.66
783.889	16810.26
784.223	16808.46
784.557	16816.14
784.89	16968.45
785.224	16777.95
785.557	16746.09
785.891	16744.28
786.224	16827.89
786.558	16923.93
786.891	16733.43
787.224	16746.54
787.557	16692.08
787.891	16796.71
788.224	16765.52
788.557	16716.71
788.89	16805.74
789.223	16793.32
789.556	16698.18
789.888	16644.62
790.221	16599.42
790.554	16577.5
790.887	16638.52
791.219	16470.84
791.552	16530.95
791.884	16500.22
792.217	16544.28
792.549	16478.52
792.882	16379.32
793.214	16369.82
793.546	16457.28
793.879	16324.85
794.211	16220.22
794.543	16402.37
794.875	16261.8
795.207	16330.95
795.539	16264.52
795.871	16256.15
796.203	16090.96
796.535	16073.56
796.867	16072.43
797.198	16112.43
797.53	16014.58
797.862	15933.23
798.193	16029.72
798.525	15846.67
798.856	15896.16
799.188	15817.07
799.519	15711.08
799.85	15666.57
800.182	15703.85
800.513	15741.59
800.844	15580.24
801.175	15655.94
801.506	15695.49
801.837	15579.56
802.168	15595.38
802.499	15430.19
802.83	15393.13
803.161	15464.76
803.491	15483.97
803.822	15482.84
804.153	15383.86
804.483	15367.14
804.814	15258.67
805.145	15255.73
805.475	15220.48
805.805	15156.07
806.136	15165.34
806.466	15204.88
806.796	15229.06
807.126	15032.91
807.457	15038.56
807.787	14980.71
808.117	15019.8
808.447	14974.61
808.777	14976.87
809.107	14848.73
809.436	14802.86
809.766	14949.3
810.096	14847.83
810.426	14742.3
810.755	14773.48
811.085	14659.81
811.414	14732.35
811.744	14588.4
812.073	14634.28
812.403	14573.03
812.732	14439.25
813.061	14500.04
813.39	14484.22
813.719	14422.08
814.049	14504.34
814.378	14415.07
814.707	14370.78
815.036	14358.8
815.365	14247.85
815.693	14228.19
816.022	14232.7
816.351	14236.32
816.68	14119.94
817.008	14175.98
817.337	14100.5
817.665	14090.56
817.994	14133.95
818.322	14027.29
818.651	13987.51
818.979	13895.09
819.307	14018.02
819.636	14024.35
819.964	13978.47
820.292	13930.11
820.62	13885.6
820.948	13944.58
821.276	13907.29
821.604	13946.84
821.932	13862.09
822.259	13910.23
822.587	13955.88
822.915	13819.16
823.243	13859.16
823.57	13877.01
823.898	13909.1
824.225	13847.63
824.553	13868.87
824.88	13928.31
825.207	13949.1
825.535	13930.57
825.862	13943.22
826.189	13870.23
826.516	13961.98
826.843	13991.36
827.17	13986.84
827.497	13982.77
827.824	13916.55
828.151	13974.86
828.478	13891.02
828.805	13974.63
829.131	14003.11
829.458	13941.19
829.785	13953.62
830.111	13847.86
830.438	13919.72
830.764	13920.85
831.09	14046.72
831.417	13887.4
831.743	13976.67
832.069	13905.48
832.395	13835.88
832.722	13924.92
833.048	13864.13
833.374	13851.7
833.7	13757.69
834.026	13806.95
834.351	13823.9
834.677	13854.64
835.003	13873.84
835.329	13762.21
835.654	13919.27
835.98	13718.37
836.306	13777.58
836.631	13720.85
836.956	13718.82
837.282	13726.05
837.607	13615.32
837.932	13679.5
838.258	13644.47
838.583	13661.87
838.908	13560.63
839.233	13557.92
839.558	13562.67
839.883	13459.39
840.208	13417.36
840.533	13482.22
840.858	13455.55
841.182	13436.79
841.507	13449
841.832	13383.01
842.156	13332.62
842.481	13355.89
842.805	13232.28
843.13	13309.57
843.454	13296.46
843.778	13214.2
844.103	13138.27
844.427	13150.47
844.751	13173.75
845.075	13092.62
845.399	13053.07
845.723	12916.81
846.047	13028.89
846.371	12860.99
846.695	12933.76
847.019	12788
847.343	12831.39
847.666	12730.15
847.99	12650.83
848.313	12606.76
848.637	12557.27
848.96	12539.64
849.284	12541.9
849.607	12444.5
849.931	12363.38
850.254	12223.94
850.577	12201.12
850.9	12208.58
851.223	12114.12
851.546	12070.28
851.869	12013.55
852.192	12061.69
852.515	11956.15
852.838	11913.22
853.161	11912.09
853.483	11873.22
853.806	11771.75
854.129	11680.68
854.451	11721.58
854.774	11647.46
855.096	11679.1
855.419	11678.42
855.741	11623.51
856.063	11497.64
856.385	11481.59
856.708	11491.53
857.03	11477.3
857.352	11455.38
857.674	11360.92
857.996	11325.66
858.318	11261.71
858.64	11372.22
858.961	11265.1
859.283	11245.89
859.605	11109.62
859.926	11175.84
860.248	11181.71
860.57	11059.45
860.891	11170.86
861.212	11014.03
861.534	11042.28
861.855	11025.78
862.176	11031.43
862.498	10987.14
862.819	10964.77
863.14	10946.46
863.461	10939.68
863.782	10888.84
864.103	10891.1
864.424	10893.81
864.745	10779.01
865.065	10785.11
865.386	10736.75
865.707	10690.88
866.027	10768.16
866.348	10649.3
866.668	10687.26
866.989	10743.53
867.309	10609.07
867.63	10653.82
867.95	10622.63
868.27	10543.08
868.59	10574.27
868.91	10583.76
869.23	10564.1
869.55	10544.44
869.87	10537.66
870.19	10489.75
870.51	10481.17
870.83	10558
871.15	10379.25
871.469	10495.4
871.789	10495.63
872.109	10400.49
872.428	10359.81
872.748	10376.31
873.067	10383.77
873.386	10353.03
873.706	10360.94
874.025	10249.98
874.344	10269.19
874.663	10275.52
874.982	10269.87
875.301	10297.67
875.62	10173.38
875.939	10271
876.258	10198.91
876.577	10211.34
876.896	10159.37
877.214	10149.65
877.533	10160.27
877.852	10131.8
878.17	10054.74
878.489	10090.89
878.807	10133.6
879.125	10077.11
879.444	9995.75
879.762	10010.22
880.08	10035.08
880.398	9951.46
880.716	9934.29
881.034	9857
881.352	10007.28
881.67	9832.14
881.988	9919.37
882.306	9785.59
882.624	9864.68
882.941	9850.45
883.259	9741.98
883.577	9714.63
883.894	9742.65
884.212	9711.92
884.529	9678.47
884.846	9694.29
885.164	9711.47
885.481	9598.25
885.798	9660.85
886.115	9600.06
886.432	9593.73
886.75	9500.4
887.067	9536.56
887.383	9476.45
887.7	9508.54
888.017	9440.74
888.334	9419.27
888.651	9416.79
888.967	9414.07
889.284	9378.14
889.6	9325.04
889.917	9255.66
890.233	9279.16
890.55	9241.42
890.866	9235.77
891.182	9229.9
891.498	9077.81
891.815	9125.72
892.131	9091.37
892.447	9033.29
892.763	9048.89
893.079	9066.74
893.395	9015.89
893.71	8984.71
894.026	8952.84
894.342	8918.49
894.657	8818.84
894.973	8866.74
895.289	8838.95
895.604	8850.02
895.92	8726.63
896.235	8680.53
896.55	8715.34
896.865	8708.33
897.181	8683.7
897.496	8662.46
897.811	8579.29
898.126	8572.97
898.441	8492.52
898.756	8493.65
899.071	8425.4
899.386	8424.5
899.7	8408.9
900.015	8407.77
900.33	8231.51
900.644	8304.05
900.959	8318.96
901.273	8298.85
901.588	8286.87
901.902	8200.77
902.216	8168.46
902.531	8127.78
902.845	8079.87
903.159	8043.49
903.473	7998.97
903.787	7989.25
904.101	7973.66
904.415	7896.37
904.729	7942.25
905.042	7910.84
905.356	7864.28
905.67	7836.04
905.984	7847.34
906.297	7767.79
906.611	7712.2
906.924	7711.52
907.237	7656.83
907.551	7683.5
907.864	7587
908.177	7584.07
908.491	7545.2
908.804	7548.13
909.117	7492.09
909.43	7473.33
909.743	7389.49
910.056	7435.14
910.368	7398.31
910.681	7340.68
910.994	7309.05
911.307	7299.78
911.619	7256.39
911.932	7245.09
912.244	7211.65
912.557	7149.73
912.869	7118.32
913.181	7047.36
913.494	7080.58
913.806	6993.57
914.118	6977.3
914.43	6955.61
914.742	6918.55
915.054	6917.42
915.366	6907.47
915.678	6920.13
915.99	6873.35
916.302	6719.46
916.613	6831.54
916.925	6808.04
917.236	6764.65
917.548	6742.96
917.859	6704.99
918.171	6681.94
918.482	6636.07
918.794	6562.4
919.105	6581.61
919.416	6540.93
919.727	6508.16
920.038	6500.93
920.349	6421.16
920.66	6443.31
920.971	6394.49
921.282	6419.13
921.593	6364.66
921.903	6291.22
922.214	6340.93
922.525	6302.52
922.835	6298.45
923.146	6229.98
923.456	6225.01
923.767	6197.21
924.077	6196.53
924.387	6143.65
924.697	6066.82
925.008	6060.49
925.318	6017.78
925.628	6024.56
925.938	6074.05
926.248	5938.23
926.558	5999.02
926.867	5950.44
927.177	5891.91
927.487	5850.55
927.796	5839.25
928.106	5853.26
928.416	5839.93
928.725	5769.65
929.034	5735.08
929.344	5761.06
929.653	5796.99
929.962	5687.39
930.271	5641.74
930.581	5635.64
930.89	5614.85
931.199	5598.58
931.508	5601.07
931.817	5552.48
932.125	5570.33
932.434	5558.13
932.743	5490.56
933.051	5442.2
933.36	5431.58
933.669	5466.83
933.977	5426.16
934.286	5390.9
934.594	5399.72
934.902	5326.72
935.21	5300.96
935.519	5276.78
935.827	5278.82
936.135	5231.36
936.443	5215.09
936.751	5239.95
937.059	5225.26
937.367	5130.8
937.674	5126.5
937.982	5159.05
938.29	5078.14
938.597	5094.64
938.905	5028.43
939.213	5007.86
939.52	4990.69
939.827	5032.49
940.135	4928.77
940.442	4946.17
940.749	4911.37
941.056	4916.57
941.363	4889.67
941.67	4881.31
941.977	4881.76
942.284	4821.65
942.591	4840.64
942.898	4808.09
943.205	4769
943.511	4780.98
943.818	4765.84
944.125	4705.72
944.431	4668.44
944.738	4693.52
945.044	4669.11
945.35	4648.78
945.657	4599.74
945.963	4559.74
946.269	4586.63
946.575	4581.21
946.881	4528.33
947.187	4522.68
947.493	4510.25
947.799	4462.34
948.105	4425.28
948.41	4442.68
948.716	4441.55
949.022	4387.54
949.327	4384.15
949.633	4385.51
949.938	4348.22
950.244	4358.84
950.549	4258.28
950.854	4263.02
951.16	4294.66
951.465	4263.93
951.77	4250.82
952.075	4199.97
952.38	4177.38
952.685	4181.67
952.99	4177.83
953.294	4149.58
953.599	4158.39
953.904	4078.85
954.209	4063.71
954.513	4054.22
954.818	4050.83
955.122	4014.22
955.426	4051.96
955.731	4004.73
956.035	3995.23
956.339	4013.54
956.643	3950.26
956.948	3937.16
957.252	3931.96
957.556	3906.65
957.86	3889.25
958.163	3898.06
958.467	3827.78
958.771	3835.24
959.075	3824.84
959.378	3774
959.682	3833.2
959.985	3780.1
960.289	3789.14
960.592	3752.3
960.896	3726.09
961.199	3746.2
961.502	3697.61
961.805	3682.02
962.108	3662.81
962.411	3643.83
962.714	3614.45
963.017	3628.01
963.32	3628.24
963.623	3558.64
963.926	3598.41
964.228	3532.87
964.531	3510.5
964.833	3503.27
965.136	3483.61
965.438	3530.61
965.741	3459.88
966.043	3444.97
966.345	3419.88
966.648	3449.49
966.95	3441.12
967.252	3341.92
967.554	3403.16
967.856	3383.05
968.158	3384.4
968.46	3335.82
968.761	3370.62
969.063	3312.54
969.365	3311.41
969.666	3284.97
969.968	3287.46
970.269	3246.78
970.571	3233.22
970.872	3256.5
971.174	3210.62
971.475	3216.95
971.776	3210.85
972.077	3192.09
972.378	3167.91
972.679	3106.22
972.98	3139.44
973.281	3127.69
973.582	3107.12
973.883	3106.67
974.183	3099.44
974.484	3023.06
974.785	3070.74
975.085	3021.93
975.386	3030.29
975.686	3010.63
975.986	3000.68
976.287	2991.42
976.587	2970.63
976.887	2955.94
977.187	2962.94
977.487	2935.83
977.787	2917.97
978.087	2929.73
978.387	2921.14
978.687	2870.97
978.987	2874.36
979.286	2862.16
979.586	2842.27
979.885	2816.73
980.185	2795.04
980.484	2797.07
980.784	2782.16
981.083	2796.85
981.382	2798.88
981.682	2766.79
981.981	2734.02
982.28	2758.88
982.579	2678.88
982.878	2733.57
983.177	2699.45
983.475	2684.76
983.774	2669.85
984.073	2636.4
984.372	2675.27
984.67	2650.64
984.969	2647.47
985.267	2610.19
985.566	2583.75
985.864	2600.47
986.162	2558.44
986.461	2544.88
986.759	2570.19
987.057	2553.69
987.355	2527.25
987.653	2546.01
987.951	2521.15
988.249	2495.39
988.547	2507.59
988.844	2500.13
989.142	2466.23
989.44	2451.55
989.737	2433.24
990.035	2403.19
990.332	2429.85
990.63	2396.63
990.927	2413.58
991.224	2374.03
991.521	2399.8
991.819	2412.22
992.116	2357.99
992.413	2355.28
992.71	2329.74
993.006	2295.17
993.303	2339.01
993.6	2327.93
993.897	2296.52
994.193	2278.67
994.49	2256.3
994.787	2223.53
995.083	2261.72
995.379	2254.71
995.676	2279.57
995.972	2210.65
996.268	2237.77
996.565	2194.15
996.861	2174.49
997.157	2172.68
997.453	2171.78
997.749	2138.11
998.044	2141.5
998.34	2136.98
998.636	2096.98
998.932	2081.61
999.227	2115.51
999.523	2082.74
999.818	2107.15
1000.114	2056.98
1000.409	2066.02
1000.704	2064.44
1001	2063.99
1001.295	2053.59
1001.59	2072.57
1001.885	2033.7
1002.18	1962.07
1002.475	1981.05
1002.77	1988.96
1003.065	1942.18
1003.359	1954.84
1003.654	1950.32
1003.949	1937.43
1004.243	1883.65
1004.538	1915.06
1004.832	1919.13
1005.127	1882.97
1005.421	1885.01
1005.715	1821.28
1006.009	1855.63
1006.304	1847.04
1006.598	1828.96
1006.892	1783.99
1007.186	1781.05
1007.48	1798.68
1007.773	1805.46
1008.067	1805.24
1008.361	1777.67
1008.655	1773.82
1008.948	1773.37
1009.242	1734.28
1009.535	1751
1009.829	1753.26
1010.122	1701.06
1010.415	1671.68
1010.708	1659.48
1011.001	1681.4
1011.295	1697.89
1011.588	1656.76
1011.881	1645.92
1012.173	1619.7
1012.466	1640.95
1012.759	1631.68
1013.052	1619.48
1013.344	1616.99
1013.637	1594.17
1013.93	1611.79
1014.222	1592.13
1014.514	1598.46
1014.807	1572.7
1015.099	1577.44
1015.391	1557.33
1015.683	1563.43
1015.976	1501.29
1016.268	1528.41
1016.56	1530.67
1016.851	1509.42
1017.143	1484.11
1017.435	1471.91
1017.727	1460.84
1018.018	1444.57
1018.31	1447.5
1018.602	1438.69
1018.893	1424.23
1019.185	1418.13
1019.476	1400.95
1019.767	1411.57
1020.058	1407.51
1020.35	1381.29
1020.641	1393.49
1020.932	1357.11
1021.223	1377
1021.514	1361.18
1021.804	1370.44
1022.095	1341.74
1022.386	1325.93
1022.677	1302.2
1022.967	1306.49
1023.258	1306.27
1023.548	1317.11
1023.839	1300.39
1024.129	1264.91
1024.419	1267.62
1024.709	1260.16
1025	1247.51
1025.29	1241.18
1025.58	1248.87
1025.87	1222.43
1026.16	1222.2
1026.449	1190.34
1026.739	1210.22
1027.029	1189.66
1027.319	1188.08
1027.608	1167.74
1027.898	1171.35
1028.187	1163.22
1028.477	1202.76
1028.766	1142.65
1029.055	1148.98
1029.344	1164.35
1029.634	1134.74
1029.923	1118.7
1030.212	1121.19
1030.501	1086.84
1030.79	1087.74
1031.078	1102.88
1031.367	1100.39
1031.656	1073.73
1031.945	1058.14
1032.233	1090
1032.522	1088.87
1032.81	1069.66
1033.099	1059.94
1033.387	1070.79
1033.675	1056.78
1033.963	1017.91
1034.251	1021.75
1034.54	1023.33
1034.828	1011.81
1035.116	1012.26
1035.403	996.89
1035.691	992.6
1035.979	978.36
1036.267	965.03
1036.554	964.35
1036.842	950.12
1037.129	924.58
1037.417	932.72
1037.704	934.3
1037.992	928.42
1038.279	926.61
1038.566	937.01
1038.853	937.01
1039.14	937.01
