Data from hue_130_FLMS001491_00078.txt Node
Date: Tue Feb 07 16:58:05 GMT 2017
User: dcchb
Spectrometer: FLMS00149
Trigger mode: 0
Integration Time (sec): 2.000000E-2
Scans to average: 10
Electric dark correction enabled: true
Nonlinearity correction enabled: false
Boxcar width: 0
XAxis mode: Wavelengths
Number of Pixels in Spectrum: 2048
>>>>>Begin Spectral Data<<<<<
341.393	-29.08
341.776	-29.08
342.16	-29.08
342.543	-65.69
342.927	-77.44
343.31	-87.61
343.693	-55.75
344.077	-62.07
344.46	-66.59
344.843	-50.78
345.226	-38.57
345.61	-29.76
345.993	-14.84
346.376	-23.43
346.759	11.82
347.142	47.3
347.525	26.06
347.908	67.87
348.291	69
348.674	84.14
349.057	123.23
349.44	122.1
349.823	118.26
350.206	141.99
350.588	187.64
350.971	215.88
351.354	211.14
351.737	229.44
352.119	246.62
352.502	260.63
352.884	278.93
353.267	280.06
353.65	275.09
354.032	292.04
354.414	308.76
354.797	310.12
355.179	302.66
355.562	301.53
355.944	341.76
356.326	336.56
356.709	328.42
357.091	331.81
357.473	326.84
357.855	335.88
358.238	323.68
358.62	319.16
359.002	345.6
359.384	337.01
359.766	339.72
360.148	342.66
360.53	347.41
360.912	323.23
361.294	331.36
361.676	326.62
362.057	308.54
362.439	342.89
362.821	334.53
363.203	311.93
363.584	330.91
363.966	314.41
364.348	308.09
364.729	328.42
365.111	296.56
365.493	318.48
365.874	309.22
366.256	297.01
366.637	294.53
367.019	315.77
367.4	320.51
367.781	317.8
368.163	279.84
368.544	304.7
368.925	284.13
369.306	321.42
369.688	314.86
370.069	304.02
370.45	316.9
370.831	321.87
371.212	330.91
371.593	269.44
371.974	293.85
372.355	305.15
372.736	321.87
373.117	322.77
373.498	311.93
373.879	296.79
374.26	308.76
374.641	312.15
375.021	332.04
375.402	321.87
375.783	337.01
376.163	341.76
376.544	329.55
376.925	306.73
377.305	326.84
377.686	311.7
378.066	307.86
378.447	325.26
378.827	328.88
379.208	326.84
379.588	315.54
379.968	324.81
380.349	330.23
380.729	315.77
381.109	306.73
381.489	336.56
381.87	324.81
382.25	344.47
382.63	341.53
383.01	305.6
383.39	341.08
383.77	337.01
384.15	337.01
384.53	346.73
384.91	353.73
385.29	330.23
385.67	323.9
386.049	347.18
386.429	349.89
386.809	338.59
387.189	329.78
387.568	350.12
387.948	341.76
388.328	360.51
388.707	368.42
389.087	344.47
389.466	353.73
389.846	351.93
390.225	350.57
390.605	362.09
390.984	355.09
391.363	344.47
391.743	350.34
392.122	379.95
392.501	360.74
392.881	347.63
393.26	376.78
393.639	385.82
394.018	386.5
394.397	364.35
394.776	386.5
395.155	374.3
395.534	383.34
395.913	363
396.292	372.72
396.671	362.32
397.05	382.43
397.429	369.1
397.808	377.69
398.186	383.79
398.565	360.29
398.944	377.91
399.323	393.05
399.701	389.66
400.08	377.69
400.458	389.44
400.837	391.25
401.215	412.04
401.594	382.66
401.972	393.73
402.351	385.37
402.729	409.1
403.107	391.92
403.486	393.05
403.864	407.07
404.242	406.16
404.62	393.73
404.999	421.75
405.377	400.29
405.755	390.34
406.133	440.51
406.511	412.49
406.889	408.65
407.267	406.39
407.645	446.61
408.023	420.62
408.401	424.01
408.779	417.46
409.156	429.89
409.534	414.3
409.912	426.5
410.29	428.53
410.667	441.87
411.045	457.91
411.422	468.08
411.8	440.51
412.178	448.42
412.555	459.72
412.933	469.66
413.31	448.87
413.687	486.16
414.065	472.83
414.442	467.4
414.819	483.45
415.197	470.57
415.574	477.35
415.951	496.33
416.328	492.26
416.705	500.17
417.082	480.06
417.46	481.87
417.837	505.37
418.214	520.96
418.591	482.09
418.967	503.33
419.344	504.01
419.721	508.08
420.098	501.07
420.475	529.1
420.852	517.57
421.228	521.64
421.605	527.29
421.982	523.9
422.358	533.16
422.735	517.35
423.111	533.62
423.488	545.82
423.864	529.55
424.241	558.7
424.617	546.27
424.994	565.48
425.37	565.71
425.746	573.39
426.123	579.04
426.499	549.66
426.875	550.11
427.251	566.84
427.627	557.34
428.003	590.79
428.379	564.8
428.756	584.46
429.132	591.92
429.507	600.28
429.883	574.29
430.259	614.52
430.635	593.5
431.011	625.36
431.387	631.01
431.763	647.06
432.138	639.38
432.514	628.75
432.89	622.2
433.265	650.9
433.641	644.57
434.016	656.1
434.392	648.42
434.767	652.26
435.143	682.54
435.518	704.01
435.894	684.12
436.269	688.19
436.644	711.01
437.02	688.64
437.395	715.53
437.77	715.98
438.145	721.86
438.52	715.31
438.895	733.38
439.271	741.07
439.646	742.65
440.021	738.13
440.395	741.52
440.77	739.26
441.145	758.24
441.52	783.33
441.895	783.55
442.27	765.02
442.645	767.96
443.019	782.65
443.394	784.68
443.769	809.77
444.143	781.52
444.518	800.5
444.892	800.95
445.267	803.44
445.641	813.16
446.016	846.38
446.39	834.85
446.764	838.01
447.139	819.94
447.513	836.21
447.887	816.77
448.262	833.95
448.636	846.83
449.01	849.77
449.384	881.4
449.758	880.05
450.132	874.4
450.506	887.5
450.88	866.71
451.254	908.3
451.628	882.76
452.002	918.01
452.376	955.98
452.75	919.59
453.123	919.82
453.497	923.44
453.871	931.8
454.244	971.34
454.618	952.36
454.992	999.59
455.365	973.6
455.739	990.1
456.112	997.33
456.486	1013.15
456.859	1039.14
457.232	1024
457.606	1027.16
457.979	1038.69
458.352	1068.07
458.725	1099.25
459.099	1100.15
459.472	1113.49
459.845	1115.07
460.218	1143.54
460.591	1143.54
460.964	1127.27
461.337	1168.18
461.71	1192.13
462.083	1222.41
462.456	1216.08
462.829	1223.77
463.201	1226.48
463.574	1228.74
463.947	1277.78
464.32	1294.73
464.692	1337.89
465.065	1342.86
465.438	1360.26
465.81	1364.78
466.183	1385.12
466.555	1401.16
466.928	1412.46
467.3	1420.37
467.672	1464.44
468.045	1462.41
468.417	1508.96
468.789	1535.4
469.161	1527.94
469.534	1558
469.906	1634.38
470.278	1659.69
470.65	1650.42
471.022	1705.56
471.394	1701.04
471.766	1771.1
472.138	1783.07
472.51	1849.74
472.882	1877.54
473.253	1867.82
473.625	1919.34
473.997	1990.07
474.369	2009.96
474.74	2043.86
475.112	2098.09
475.484	2143.97
475.855	2236.62
476.227	2223.29
476.598	2304.87
476.97	2344.64
477.341	2422.38
477.713	2470.97
478.084	2512.32
478.455	2585.77
478.827	2654.92
479.198	2768.81
479.569	2761.58
479.94	2858.07
480.311	2973.1
480.682	3034.34
481.053	3165.19
481.424	3228.46
481.795	3318.18
482.166	3412.18
482.537	3466.19
482.908	3601.78
483.279	3625.06
483.65	3731.05
484.021	3863.92
484.391	3973.07
484.762	4028.21
485.133	4138.49
485.503	4268.88
485.874	4361.99
486.244	4457.58
486.615	4620.51
486.985	4724.69
487.356	4835.2
487.726	4962.88
488.097	5085.13
488.467	5166.26
488.837	5298.01
489.207	5429.98
489.578	5572.13
489.948	5726.25
490.318	5846.24
490.688	5881.72
491.058	6093.92
491.428	6160.13
491.798	6312
492.168	6516.74
492.538	6606.22
492.908	6738.88
493.278	6870.85
493.648	6954.01
494.017	7135.7
494.387	7220.9
494.757	7345.64
495.126	7469.25
495.496	7537.95
495.866	7707.44
496.235	7805.97
496.605	7934.78
496.974	8076.69
497.344	8171.83
497.713	8212.06
498.082	8343.81
498.452	8530.69
498.821	8552.39
499.19	8671.93
499.559	8803.91
499.928	8883.68
500.298	9005.48
500.667	9096.55
501.036	9155.54
501.405	9360.73
501.774	9354.85
502.143	9513.27
502.512	9469.65
502.88	9658.12
503.249	9658.8
503.618	9800.04
503.987	9814.5
504.356	9990.54
504.724	10068.28
505.093	10085
505.462	10162.06
505.83	10230.76
506.199	10317.77
506.567	10416.29
506.936	10340.36
507.304	10560.02
507.672	10566.57
508.041	10640.92
508.409	10795.04
508.777	10868.94
509.145	10967.92
509.514	10959.56
509.882	10996.39
510.25	11023.51
510.618	11171.98
510.986	11156.16
511.354	11300.34
511.722	11356.83
512.09	11376.72
512.458	11368.59
512.826	11517.96
513.193	11525.64
513.561	11473.22
513.929	11632.31
514.297	11628.01
514.664	11764.73
515.032	11781
515.4	11877.05
515.767	11826.65
516.135	11904.62
516.502	11830.49
516.869	11994.11
517.237	12011.51
517.604	11995.46
517.972	12129.7
518.339	12117.49
518.706	12153.65
519.073	12172.41
519.44	12191.84
519.808	12348.45
520.175	12235.91
520.542	12325.4
520.909	12355
521.276	12353.64
521.643	12416.92
522.009	12471.83
522.376	12491.49
522.743	12514.77
523.11	12653.07
523.477	12687.42
523.843	12638.61
524.21	12732.39
524.577	12790.92
524.943	12836.8
525.31	12779.4
525.676	12869.11
526.043	12904.36
526.409	12886.06
526.776	12980.75
527.142	13025.72
527.508	12958.37
527.874	13056.22
528.241	12976.9
528.607	13070.91
528.973	13081.76
529.339	13063.23
529.705	13146.39
530.071	13088.54
530.437	13059.84
530.803	13126.51
531.169	13194.53
531.535	13118.82
531.901	13082.89
532.267	13110.23
532.632	13139.84
532.998	13097.58
533.364	13150.23
533.73	13091.03
534.095	13163.11
534.461	13067.98
534.826	13201.76
535.192	13102.55
535.557	13145.26
535.923	12992.5
536.288	13068.88
536.653	13026.85
537.019	12987.3
537.384	12999.28
537.749	12943.69
538.114	12965.38
538.479	12889.22
538.845	12900.3
539.21	12781.66
539.575	12840.86
539.94	12820.07
540.305	12869.34
540.67	12829.11
541.034	12794.76
541.399	12719.74
541.764	12702.34
542.129	12695.56
542.494	12693.3
542.858	12634.99
543.223	12534.66
543.587	12649.46
543.952	12543.7
544.316	12566.07
544.681	12519.29
545.045	12481.55
545.41	12567.65
545.774	12444.26
546.138	12410.59
546.503	12411.04
546.867	12307.77
547.231	12378.05
547.595	12286.53
547.959	12287.21
548.324	12184.38
548.688	12152.75
549.052	12206.08
549.416	12138.73
549.779	12017.38
550.143	12109.13
550.507	12075.69
550.871	12111.62
551.235	12005.4
551.599	12017.61
551.962	11999.53
552.326	11985.29
552.689	12004.95
553.053	11849.7
553.417	11828.91
553.78	11900.1
554.143	11892.41
554.507	11868.23
554.87	11802.02
555.234	11854.9
555.597	11682.48
555.96	11731.74
556.323	11806.77
556.686	11699.42
557.05	11768.35
557.413	11683.15
557.776	11724.51
558.139	11717.73
558.502	11701.01
558.865	11639.09
559.228	11710.05
559.59	11732.19
559.953	11720.67
560.316	11686.09
560.679	11696.26
561.041	11736.26
561.404	11740.1
561.767	11756.37
562.129	11702.81
562.492	11750.95
562.854	11741.91
563.217	11689.03
563.579	11679.99
563.941	11815.81
564.304	11798.18
564.666	11809.03
565.028	11756.82
565.39	11732.64
565.753	11785.07
566.115	11731.51
566.477	11851.51
566.839	11782.13
567.201	11917.72
567.563	11826.88
567.925	11879.98
568.287	11840.89
568.648	11866.88
569.01	11884.5
569.372	11917.05
569.734	11796.6
570.095	11860.78
570.457	11908.68
570.819	11914.56
571.18	11968.12
571.542	11985.97
571.903	11924.28
572.265	11996.59
572.626	11985.29
572.987	11972.19
573.349	12034.33
573.71	11966.54
574.071	11984.61
574.432	12061.45
574.794	12129.47
575.155	12112.07
575.516	12005.63
575.877	12023.71
576.238	12061.9
576.599	12101.9
576.96	12069.13
577.32	12101.9
577.681	12135.8
578.042	12101
578.403	12075.69
578.763	12067.32
579.124	12036.82
579.485	12182.58
579.845	12122.24
580.206	12067.78
580.566	12105.97
580.927	12060.54
581.287	12065.29
581.648	12063.93
582.008	12072.07
582.368	12084.5
582.728	12123.59
583.089	12059.64
583.449	12123.59
583.809	12103.48
584.169	12078.17
584.529	12077.72
584.889	12121.79
585.249	12021.45
585.609	12020.32
585.969	12124.05
586.329	11975.57
586.688	12039.53
587.048	11974.22
587.408	11906.65
587.768	11937.84
588.127	11857.39
588.487	11958.63
588.846	12016.48
589.206	11923.37
589.565	11890.15
589.925	11966.31
590.284	11872.75
590.643	11950.26
591.003	11889.02
591.362	11908.46
591.721	11889.93
592.08	11857.61
592.44	11863.71
592.799	11962.24
593.158	11865.07
593.517	11832.75
593.876	11889.25
594.235	11865.52
594.593	11863.26
594.952	11905.29
595.311	11814.9
595.67	11821.45
596.029	11879.08
596.387	11888.8
596.746	11835.01
597.104	11894.22
597.463	11866.88
597.822	11887.89
598.18	11777.61
598.538	11800.66
598.897	11830.04
599.255	11744.62
599.613	11851.06
599.972	11782.81
600.33	11792.98
600.688	11732.42
601.046	11829.36
601.404	11862.36
601.762	11782.81
602.12	11844.96
602.478	11794.56
602.836	11864.17
603.194	11731.97
603.552	11784.17
603.91	11753.66
604.268	11822.13
604.625	11826.43
604.983	11860.55
605.341	11729.93
605.698	11843.15
606.056	11818.74
606.413	11759.31
606.771	11841.79
607.128	11808.8
607.485	11793.21
607.843	11782.81
608.2	11865.3
608.557	11830.72
608.914	11820.55
609.272	11923.82
609.629	11908.46
609.986	11941
610.343	11809.7
610.7	11967.44
611.057	11945.75
611.414	11861.68
611.771	11839.76
612.127	11960.89
612.484	11882.24
612.841	11966.31
613.198	11936.71
613.554	11943.94
613.911	12064.84
614.267	11995.46
614.624	11948.91
614.98	12012.64
615.337	11993.65
615.693	12038.62
616.05	12049.25
616.406	12063.71
616.762	12040.88
617.118	11983.94
617.475	12096.7
617.831	12068.91
618.187	12095.57
618.543	12171.05
618.899	12154.33
619.255	12153.2
619.611	12107.77
619.967	12180.09
620.323	12185.96
620.678	12101.22
621.034	12082.01
621.39	12079.75
621.746	12136.93
622.101	12228.22
622.457	12202.46
622.812	12113.65
623.168	12219.64
623.523	12182.8
623.879	12206.08
624.234	12195.68
624.589	12119.75
624.945	12086.53
625.3	12120.2
625.655	12154.55
626.01	12139.19
626.365	12090.15
626.72	12042.92
627.075	12085.63
627.43	12164.5
627.785	12067.32
628.14	12051.28
628.495	12113.65
628.85	12108
629.205	12025.29
629.559	12114.33
629.914	12049.02
630.269	12157.49
630.623	12073.88
630.978	11960.21
631.332	12037.27
631.687	12108.23
632.041	11986.87
632.396	11985.74
632.75	11924.28
633.104	11964.73
633.459	11971.06
633.813	11970.38
634.167	12025.52
634.521	11986.42
634.875	11921.11
635.229	11968.57
635.583	11869.36
635.937	11856.26
636.291	11827.1
636.645	11869.36
636.999	11846.54
637.352	11902.58
637.706	11808.57
638.06	11806.31
638.413	11734.9
638.767	11779.65
639.121	11807.9
639.474	11669.14
639.828	11714.79
640.181	11693.55
640.534	11737.39
640.888	11698.52
641.241	11644.51
641.594	11637.05
641.947	11695.58
642.301	11606.77
642.654	11603.16
643.007	11623.95
643.36	11585.08
643.713	11665.3
644.066	11583.27
644.419	11566.09
644.771	11504.85
645.124	11374.01
645.477	11406.78
645.83	11310.73
646.182	11286.33
646.535	11345.54
646.888	11227.35
647.24	11218.31
647.593	11308.25
647.945	11190.51
648.298	11214.01
648.65	11289.49
649.002	11139.21
649.355	11166.1
649.707	11256.27
650.059	11276.16
650.411	11372.2
650.763	11453.33
651.115	11505.53
651.467	11527.45
651.819	11476.15
652.171	11517.28
652.523	11491.07
652.875	11452.65
653.227	11364.29
653.578	11553.21
653.93	11466.66
654.282	11465.08
654.633	11433.44
654.985	11466.89
655.337	11385.99
655.688	11433.89
656.039	11525.64
656.391	11378.3
656.742	11479.99
657.094	11489.71
657.445	11534.23
657.796	11454.46
658.147	11443.61
658.498	11524.51
658.849	11457.4
659.2	11450.17
659.551	11418.08
659.902	11470.73
660.253	11473.22
660.604	11536.72
660.955	11483.16
661.306	11515.7
661.656	11485.64
662.007	11553.89
662.358	11585.08
662.708	11562.7
663.059	11551.18
663.409	11438.64
663.76	11556.6
664.11	11520.45
664.461	11565.19
664.811	11597.05
665.161	11519.99
665.511	11536.04
665.862	11588.24
666.212	11597.96
666.562	11535.13
666.912	11476.83
667.262	11498.98
667.612	11479.99
667.962	11617.62
668.312	11486.32
668.662	11584.4
669.011	11503.27
669.361	11521.35
669.711	11522.48
670.06	11461.92
670.41	11531.97
670.76	11462.59
671.109	11544.85
671.459	11522.03
671.808	11521.8
672.157	11566.09
672.507	11474.12
672.856	11421.92
673.205	11420.34
673.554	11536.94
673.904	11465.53
674.253	11519.54
674.602	11503.5
674.951	11334.24
675.3	11226.22
675.649	11413.1
675.998	11331.07
676.346	11383.05
676.695	11361.35
677.044	11333.56
677.393	11312.54
677.741	11342.15
678.09	11259.44
678.438	11222.83
678.787	11284.29
679.135	11328.81
679.484	11210.4
679.832	11179.21
680.181	11190.51
680.529	11212.21
680.877	11226.89
681.225	11164.3
681.573	11310.96
681.922	11175.82
682.27	11043.62
682.618	11161.36
682.966	11108.25
683.314	11078.42
683.661	11038.2
684.009	11061.7
684.357	10970.63
684.705	10895.6
685.053	10926.56
685.4	10959.33
685.748	10887.24
686.095	10872.55
686.443	10805.44
686.79	10766.34
687.138	10804.31
687.485	10733.35
687.832	10817.64
688.18	10692.44
688.527	10710.3
688.874	10724.53
689.221	10645.67
689.568	10629.17
689.915	10632.33
690.262	10620.58
690.609	10588.72
690.956	10563.63
691.303	10490.19
691.65	10413.13
691.997	10435.95
692.344	10306.24
692.69	10340.82
693.037	10397.31
693.383	10225.79
693.73	10290.87
694.077	10189.63
694.423	10123.19
694.769	10190.76
695.116	10175.17
695.462	10145.79
695.808	10023.31
696.155	10051.11
696.501	9934.05
696.847	9955.06
697.193	9889.53
697.539	9925.46
697.885	9821.28
698.231	9792.36
698.577	9819.7
698.923	9779.7
699.269	9656.77
699.614	9689.31
699.96	9633.04
700.306	9596.88
700.651	9590.78
700.997	9514.62
701.342	9469.2
701.688	9456.09
702.033	9472.59
702.379	9439.82
702.724	9343.33
703.069	9418.35
703.415	9302.42
703.76	9314.18
704.105	9202.99
704.45	9214.52
704.795	9229.21
705.14	9189.21
705.485	9242.99
705.83	9144.46
706.175	9169.77
706.52	9102.88
706.865	9083.45
707.209	8972.94
707.554	8995.99
707.899	8997.8
708.243	8966.39
708.588	8880.97
708.932	8892.04
709.277	8823.12
709.621	8826.73
709.966	8805.49
710.31	8860.85
710.654	8699.73
710.998	8774.76
711.342	8773.63
711.687	8695.44
712.031	8703.12
712.375	8675.77
712.719	8599.17
713.063	8620.63
713.407	8591.94
713.75	8556.91
714.094	8579.05
714.438	8551.03
714.782	8576.12
715.125	8487.08
715.469	8516.46
715.812	8494.76
716.156	8436.46
716.499	8455.22
716.843	8464.71
717.186	8338.61
717.53	8455.89
717.873	8403.47
718.216	8386.06
718.559	8352.62
718.902	8335.9
719.246	8328.44
719.589	8332.96
719.932	8280.98
720.275	8248.67
720.617	8308.1
720.96	8275.11
721.303	8252.51
721.646	8266.75
721.989	8198.27
722.331	8270.59
722.674	8253.41
723.016	8279.17
723.359	8199.86
723.701	8257.71
724.044	8215.9
724.386	8189.69
724.729	8208.22
725.071	8183.36
725.413	8163.02
725.755	8125.73
726.097	8098.84
726.439	8120.54
726.782	8147.2
727.124	8111.5
727.465	8093.87
727.807	8139.52
728.149	8110.82
728.491	8120.31
728.833	8086.19
729.175	8105.62
729.516	8073.3
729.858	8061.1
730.199	8110.59
730.541	8053.87
730.882	8083.47
731.224	8073.98
731.565	8047.99
731.906	8051.84
732.248	8076.69
732.589	8043.47
732.93	8013.65
733.271	8002.57
733.612	8070.59
733.953	8094.1
734.294	8016.13
734.635	8006.87
734.976	8042.57
735.317	8030.37
735.658	7989.47
735.999	8008
736.339	7991.95
736.68	8039.18
737.021	8053.42
737.361	8015.68
737.702	8011.84
738.042	8020.88
738.383	8073.53
738.723	8054.77
739.063	8053.42
739.404	8086.41
739.744	8156.01
740.084	8133.87
740.424	8164.83
740.764	8076.92
741.104	8179.97
741.444	8158.27
741.784	8153.75
742.124	8238.72
742.464	8233.75
742.804	8215
743.143	8200.53
743.483	8259.74
743.823	8236.92
744.162	8312.85
744.502	8344.26
744.841	8314.88
745.181	8336.57
745.52	8453.41
745.86	8447.98
746.199	8481.88
746.538	8541.99
746.877	8577.02
747.216	8666.28
747.556	8634.19
747.895	8753.74
748.234	8703.8
748.573	8750.35
748.911	8832.83
749.25	8874.64
749.589	8903.57
749.928	8985.37
750.267	9031.25
750.605	9118.02
750.944	9207.51
751.283	9218.81
751.621	9362.54
751.96	9423.33
752.298	9515.75
752.636	9610.21
752.975	9711
753.313	9708.74
753.651	9824.45
753.989	9891.11
754.327	10043.65
754.666	10145.57
755.004	10235.51
755.342	10415.84
755.679	10514.82
756.017	10636.85
756.355	10722.27
756.693	10860.12
757.031	11007.46
757.368	11130.17
757.706	11219.21
758.044	11446.55
758.381	11520.22
758.719	11599.54
759.056	11834.56
759.394	12005.18
759.731	12029.36
760.068	12242.69
760.405	12371.72
760.743	12499.4
761.08	12707.76
761.417	12814.65
761.754	12945.94
762.091	13133.74
762.428	13298.48
762.765	13361.98
763.102	13599.94
763.438	13702.08
763.775	13793.83
764.112	14112.47
764.449	14176.2
764.785	14309.3
765.122	14450.31
765.458	14562.85
765.795	14651.66
766.131	14885.55
766.467	14915.38
766.804	15090.97
767.14	15223.4
767.476	15371.64
767.812	15507.69
768.148	15668.13
768.485	15636.04
768.821	15778.86
769.157	15857.96
769.492	16073.77
769.828	16181.79
770.164	16183.6
770.5	16234.67
770.836	16335.69
771.171	16454.33
771.507	16479.86
771.842	16497.04
772.178	16698.39
772.513	16812.74
772.849	16854.32
773.184	16966.86
773.519	17005.95
773.855	16981.55
774.19	17100.41
774.525	17067.19
774.86	17278.26
775.195	17319.16
775.53	17297.02
775.865	17301.08
776.2	17224.7
776.535	17249.56
776.87	17345.15
777.205	17384.92
777.539	17446.39
777.874	17485.03
778.209	17402.55
778.543	17469.67
778.878	17483.45
779.212	17541.53
779.547	17534.75
779.881	17644.35
780.215	17468.54
780.55	17563.22
780.884	17555.77
781.218	17568.42
781.552	17599.61
781.886	17586.05
782.22	17562.55
782.554	17515.32
782.888	17506.95
783.222	17491.59
783.556	17428.99
783.889	17487.75
784.223	17343.34
784.557	17461.31
784.89	17429.67
785.224	17407.07
785.557	17363.91
785.891	17252.05
786.224	17326.62
786.558	17352.83
786.891	17281.2
787.224	17289.79
787.557	17290.01
787.891	17293.4
788.224	17231.93
788.557	17228.32
788.89	17253.85
789.223	17245.94
789.556	17191.71
789.888	17138.15
790.221	17150.58
790.554	16969.79
790.887	16900.64
791.219	16952.85
791.552	16958.95
791.884	16927.99
792.217	16823.13
792.549	16798.5
792.882	16794.21
793.214	16648.45
793.546	16839.18
793.879	16746.3
794.211	16606.19
794.543	16756.24
794.875	16591.95
795.207	16677.82
795.539	16596.92
795.871	16534.78
796.203	16484.16
796.535	16356.48
796.867	16379.98
797.198	16376.82
797.53	16350.6
797.862	16288.68
798.193	16332.3
798.525	16232.41
798.856	16157.61
799.188	16022.7
799.519	16069.93
799.85	15988.12
800.182	15949.26
800.513	16004.62
800.844	15876.49
801.175	15882.82
801.506	15934.57
801.837	15867.68
802.168	15750.16
802.499	15736.15
802.83	15714.01
803.161	15635.37
803.491	15679.21
803.822	15652.77
804.153	15558.53
804.483	15485.77
804.814	15387.46
805.145	15535.26
805.475	15386.78
805.805	15343.4
806.136	15344.53
806.466	15411.87
806.796	15311.31
807.126	15290.29
807.457	15234.47
807.787	15186.56
808.117	15119.9
808.447	15124.87
808.777	15064.31
809.107	15074.93
809.436	14995.83
809.766	14974.82
810.096	14927.36
810.426	14832
810.755	14864.54
811.085	14770.76
811.414	14789.96
811.744	14654.37
812.073	14767.37
812.403	14779.34
812.732	14653.92
813.061	14660.48
813.39	14588.84
813.719	14503.64
814.049	14655.73
814.378	14605.11
814.707	14518.56
815.036	14515.62
815.365	14465
815.693	14340.48
816.022	14339.58
816.351	14285.34
816.68	14301.16
817.008	14302.29
817.337	14186.36
817.665	14135.29
817.994	14180.71
818.322	14122.19
818.651	14066.37
818.979	14023.88
819.307	14078.34
819.636	14063.88
819.964	14044.67
820.292	14100.04
820.62	14052.58
820.948	13977.1
821.276	14054.39
821.604	13938.46
821.932	13991.79
822.259	14026.59
822.587	13924
822.915	13916.77
823.243	13918.8
823.57	13963.09
823.898	13914.96
824.225	13884
824.553	13910.44
824.88	13954.28
825.207	13960.61
825.535	13922.64
825.862	14049.87
826.189	13904.11
826.516	14018.01
826.843	13995.63
827.17	14013.04
827.497	14021.62
827.824	14077.21
828.151	14030.44
828.478	14025.24
828.805	14054.84
829.131	13985.69
829.458	14001.51
829.785	13905.92
830.111	13994.05
830.438	14059.36
830.764	14047.61
831.09	13958.8
831.417	13956.09
831.743	14014.17
832.069	13919.03
832.395	13898.01
832.722	14018.01
833.048	13924.22
833.374	13970.55
833.7	13809.65
834.026	13866.15
834.351	13844
834.677	13786.15
835.003	13936.43
835.329	13844.23
835.654	13785.7
835.98	13737.11
836.306	13782.53
836.631	13787.73
836.956	13813.04
837.282	13752.48
837.607	13695.3
837.932	13685.59
838.258	13704.34
838.583	13650.79
838.908	13616.66
839.233	13597.23
839.558	13559.94
839.883	13535.99
840.208	13485.82
840.533	13552.26
840.858	13534.4
841.182	13519.26
841.507	13456.67
841.832	13406.05
842.156	13362.43
842.481	13427.51
842.805	13372.6
843.13	13340.06
843.454	13235.88
843.778	13187.07
844.103	13175.09
844.427	13198.37
844.751	13157.69
845.075	13168.31
845.399	13100.29
845.723	13013.51
846.047	13061.42
846.371	13016.45
846.695	12900.3
847.019	12811.49
847.343	12770.81
847.666	12744.37
847.99	12660.08
848.313	12684.71
848.637	12590.47
848.96	12538.27
849.284	12561.77
849.607	12445.39
849.931	12337.15
850.254	12335.11
850.577	12301.44
850.9	12113.65
851.223	12189.35
851.546	12123.37
851.869	12055.12
852.192	12167.66
852.515	11966.54
852.838	11957.04
853.161	11895.8
853.483	11757.05
853.806	11777.84
854.129	11776.26
854.451	11826.2
854.774	11745.07
855.096	11686.77
855.419	11572.65
855.741	11525.64
856.063	11504.4
856.385	11477.06
856.708	11474.35
857.03	11426.89
857.352	11385.08
857.674	11362.03
857.996	11349.83
858.318	11269.38
858.64	11237.52
858.961	11230.51
859.283	11215.37
859.605	11227.57
859.926	11223.5
860.248	11133.79
860.57	11142.83
860.891	11134.24
861.212	11071.42
861.534	10992.1
861.855	11005.88
862.176	11019.22
862.498	10966.79
862.819	10953
863.14	10913.23
863.461	10932.21
863.782	10866.23
864.103	10865.77
864.424	10796.62
864.745	10831.88
865.065	10770.41
865.386	10705.55
865.707	10747.36
866.027	10708.72
866.348	10717.53
866.668	10761.6
866.989	10696.74
867.309	10603.63
867.63	10618.1
867.95	10591.88
868.27	10500.36
868.59	10603.18
868.91	10569.51
869.23	10565.22
869.55	10524.31
869.87	10572.67
870.19	10444.09
870.51	10474.82
870.83	10504.88
871.15	10499.46
871.469	10392.34
871.789	10506.69
872.109	10467.82
872.428	10352.34
872.748	10390.53
873.067	10405.67
873.386	10388.95
873.706	10333.81
874.025	10302.62
874.344	10284.32
874.663	10239.8
874.982	10225.11
875.301	10250.2
875.62	10209.75
875.939	10219.91
876.258	10219.01
876.577	10192.34
876.896	10189.86
877.214	10065.57
877.533	10130.43
877.852	10070.09
878.17	10116.87
878.489	10045.91
878.807	10057.89
879.125	10053.82
879.444	10050.88
879.762	9994.61
880.08	9994.84
880.398	9865.35
880.716	10028.73
881.034	9972.92
881.352	9912.58
881.67	9863.99
881.988	9885.46
882.306	9860.6
882.624	9824.9
882.941	9758.91
883.259	9795.29
883.577	9791.9
883.894	9715.97
884.212	9705.13
884.529	9694.96
884.846	9715.75
885.164	9640.95
885.481	9652.47
885.798	9612.25
886.115	9550.55
886.432	9554.85
886.75	9604.11
887.067	9547.84
887.383	9512.14
887.7	9483.21
888.017	9477.79
888.334	9433.49
888.651	9427.62
888.967	9392.82
889.284	9341.97
889.6	9379.71
889.917	9249.77
890.233	9288.41
890.55	9247.06
890.866	9260.17
891.182	9234.18
891.498	9179.94
891.815	9138.36
892.131	9086.16
892.447	9063.56
892.763	9032.83
893.079	9043.22
893.395	9019.72
893.71	8927.07
894.026	8959.61
894.342	8893.4
894.657	8897.92
894.973	8857.01
895.289	8834.87
895.604	8819.95
895.92	8765.72
896.235	8751.93
896.55	8736.79
896.865	8697.7
897.181	8655.21
897.496	8656.11
897.811	8554.65
898.126	8554.65
898.441	8553.07
898.756	8564.37
899.071	8457.7
899.386	8410.24
899.7	8370.92
900.015	8377.48
900.33	8337.25
900.644	8304.71
900.959	8275.79
901.273	8248.89
901.588	8194.66
901.902	8146.52
902.216	8166.18
902.531	8091.61
902.845	8113.53
903.159	8077.15
903.473	8115.79
903.787	8044.15
904.101	7973.87
904.415	7976.81
904.729	7945.17
905.042	7844.38
905.356	7870.37
905.67	7809.58
905.984	7813.2
906.297	7784.5
906.611	7755.12
906.924	7760.32
907.237	7731.84
907.551	7659.98
907.864	7611.4
908.177	7615.69
908.491	7569.59
908.804	7527.33
909.117	7468.12
909.43	7407.56
909.743	7473.09
910.056	7456.37
910.368	7419.99
910.681	7340.89
910.994	7353.55
911.307	7306.09
911.619	7224.06
911.932	7271.74
912.244	7183.16
912.557	7112.43
912.869	7155.36
913.181	7138.64
913.494	7049.83
913.806	7045.54
914.118	7046.21
914.43	6992.43
914.742	7024.52
915.054	6874.24
915.366	6902.71
915.678	6896.39
915.99	6907.46
916.302	6801.25
916.613	6782.04
916.925	6848.48
917.236	6774.58
917.548	6710.85
917.859	6652.1
918.171	6680.35
918.482	6667.01
918.794	6579.11
919.105	6592.67
919.416	6535.27
919.727	6556.28
920.038	6485.78
920.349	6448.26
920.66	6437.64
920.971	6428.38
921.282	6404.65
921.593	6393.57
921.903	6325.78
922.214	6289.17
922.525	6333.46
922.835	6290.98
923.146	6269.28
923.456	6223.41
923.767	6248.49
924.077	6185.9
924.387	6126.01
924.697	6121.94
925.008	6096.18
925.318	6081.04
925.628	6041.49
925.938	6033.13
926.248	5964.21
926.558	5953.81
926.867	5966.47
927.177	5898.67
927.487	5893.7
927.796	5854.61
928.106	5840.82
928.416	5814.61
928.725	5746.13
929.034	5759.92
929.344	5708.17
929.653	5719.02
929.962	5700.03
930.271	5644.67
930.581	5651.22
930.89	5649.64
931.199	5642.86
931.508	5634.95
931.817	5577.33
932.125	5524.9
932.434	5555.86
932.743	5494.62
933.051	5466.59
933.36	5409.42
933.669	5377.1
933.977	5347.95
934.286	5424.33
934.594	5364.45
934.902	5348.86
935.21	5335.75
935.519	5344.34
935.827	5260.72
936.135	5258.69
936.443	5167.62
936.751	5238.8
937.059	5149.31
937.367	5168.52
937.674	5184.12
937.982	5134.17
938.29	5122.87
938.597	5103.89
938.905	5030.22
939.213	5022.09
939.52	5010.33
939.827	5007.17
940.135	5014.4
940.442	4942.54
940.749	4941.86
941.056	4961.07
941.363	4880.62
941.67	4932.14
941.977	4820.96
942.284	4804.92
942.591	4810.11
942.898	4783.67
943.205	4758.59
943.511	4718.59
943.818	4731.47
944.125	4714.75
944.431	4647.86
944.738	4684.69
945.044	4634.75
945.35	4625.49
945.657	4620.74
945.963	4600.85
946.269	4551.14
946.575	4561.53
946.881	4537.58
947.187	4500.97
947.493	4532.38
947.799	4500.07
948.105	4465.72
948.41	4429.33
948.716	4383.46
949.022	4460.97
949.327	4426.39
949.633	4351.14
949.938	4379.62
950.244	4361.99
950.549	4291.03
950.854	4267.3
951.16	4258.94
951.465	4261.2
951.77	4216.68
952.075	4159.51
952.38	4160.87
952.685	4171.94
952.99	4127.42
953.294	4157.48
953.599	4090.13
953.904	4085.61
954.209	4052.39
954.513	4082.45
954.818	4015.11
955.122	4049.91
955.426	3969.46
955.731	3990.93
956.035	3953.86
956.339	3904.15
956.643	3953.64
956.948	3908.67
957.252	3885.84
957.556	3905.05
957.86	3908.44
958.163	3877.71
958.467	3907.99
958.771	3842.91
959.075	3826.18
959.378	3804.49
959.682	3771.04
959.985	3795.68
960.289	3776.02
960.592	3739.63
960.896	3713.42
961.199	3678.84
961.502	3669.35
961.805	3661.9
962.108	3673.87
962.411	3653.31
962.714	3619.41
963.017	3608.56
963.32	3576.02
963.623	3587.09
963.926	3557.04
964.228	3570.15
964.531	3505.06
964.833	3530.6
965.136	3503.26
965.438	3487.21
965.741	3451.51
966.043	3459.64
966.345	3452.86
966.648	3418.74
966.95	3421.68
967.252	3399.3
967.554	3389.59
967.856	3372.41
968.158	3364.95
968.46	3353.43
968.761	3362.47
969.063	3312.07
969.365	3293.77
969.666	3295.8
969.968	3283.37
970.269	3221.68
970.571	3218.74
970.872	3239.99
971.174	3223.04
971.475	3230.27
971.776	3199.76
972.077	3125.41
972.378	3163.15
972.679	3144.39
972.98	3121.57
973.281	3139.88
973.582	3112.98
973.883	3088.35
974.183	3049.03
974.484	3088.13
974.785	3012.19
975.085	3057.39
975.386	3046.09
975.686	3027.56
975.986	2967
976.287	3006.09
976.587	2927.45
976.887	2964.06
977.187	2961.35
977.487	2903.27
977.787	2928.13
978.087	2905.76
978.387	2880.22
978.687	2866.66
978.987	2851.07
979.286	2872.76
979.586	2800.45
979.885	2776.04
980.185	2849.26
980.484	2840.67
980.784	2788.47
981.083	2780.34
981.382	2767.46
981.682	2710.06
981.981	2760.45
982.28	2721.58
982.579	2723.39
982.878	2696.95
983.177	2705.54
983.475	2687.01
983.774	2674.12
984.073	2644.97
984.372	2666.22
984.67	2635.71
984.969	2630.28
985.267	2610.4
985.566	2590.06
985.864	2614.69
986.162	2611.08
986.461	2554.35
986.759	2558.42
987.057	2525.43
987.355	2546.44
987.653	2524.75
987.951	2494.24
988.249	2503.06
988.547	2478.88
988.844	2451.98
989.142	2484.98
989.44	2442.49
989.737	2447.92
990.035	2416.28
990.332	2421.7
990.63	2407.46
990.927	2386.22
991.224	2360.01
991.521	2377.86
991.819	2361.14
992.116	2342.38
992.413	2338.09
992.71	2345.32
993.006	2285.43
993.303	2321.37
993.6	2333.12
993.897	2279.33
994.193	2283.4
994.49	2253.8
994.787	2204.98
995.083	2223.74
995.379	2184.87
995.676	2230.75
995.972	2228.71
996.268	2189.17
996.565	2162.5
996.861	2140.35
997.157	2168.15
997.453	2150.07
997.749	2104.87
998.044	2110.3
998.34	2146.45
998.636	2138.09
998.932	2083.86
999.227	2099.22
999.523	2101.03
999.818	2041.37
1000.114	2044.99
1000.409	2057.87
1000.704	2032.33
1001	2042.5
1001.295	1990.07
1001.59	1991.66
1001.885	1994.14
1002.18	1961.37
1002.475	1945.1
1002.77	1967.48
1003.065	1940.13
1003.359	1944.88
1003.654	1967.02
1003.949	1894.71
1004.243	1926.35
1004.538	1911.66
1004.832	1904.88
1005.127	1892.9
1005.421	1867.59
1005.715	1859
1006.009	1843.86
1006.304	1838.89
1006.598	1828.5
1006.892	1818.33
1007.186	1814.49
1007.48	1794.83
1007.773	1804.09
1008.067	1767.03
1008.361	1761.61
1008.655	1777.65
1008.948	1739.01
1009.242	1740.36
1009.535	1732.68
1009.829	1695.39
1010.122	1711.89
1010.415	1699.46
1010.708	1706.01
1011.001	1673.25
1011.295	1654.26
1011.588	1684.32
1011.881	1666.47
1012.173	1623.98
1012.466	1647.48
1012.759	1635.28
1013.052	1607.71
1013.344	1587.37
1013.637	1588.5
1013.93	1596.86
1014.222	1561.16
1014.514	1592.12
1014.807	1569.75
1015.099	1533.14
1015.391	1547.37
1015.683	1537.43
1015.976	1510.99
1016.268	1503.31
1016.56	1495.4
1016.851	1483.42
1017.143	1503.76
1017.435	1472.57
1017.727	1478.22
1018.018	1442.07
1018.31	1446.59
1018.602	1437.55
1018.893	1427.83
1019.185	1442.97
1019.476	1400.03
1019.767	1400.03
1020.058	1393.93
1020.35	1397.77
1020.641	1369.3
1020.932	1342.63
1021.223	1346.7
1021.514	1349.41
1021.804	1335.4
1022.095	1326.59
1022.386	1330.88
1022.677	1331.56
1022.967	1320.94
1023.258	1286.59
1023.548	1298.34
1023.839	1288.17
1024.129	1274.61
1024.419	1256.08
1024.709	1289.53
1025	1263.99
1025.29	1211.79
1025.58	1221.51
1025.87	1221.96
1026.16	1225.8
1026.449	1221.73
1026.739	1200.27
1027.029	1196.65
1027.319	1161.17
1027.608	1198.91
1027.898	1179.02
1028.187	1124.79
1028.477	1150.32
1028.766	1153.71
1029.055	1153.03
1029.344	1121.85
1029.634	1119.82
1029.923	1103.32
1030.212	1089.31
1030.501	1116.43
1030.79	1100.15
1031.078	1077.33
1031.367	1101.51
1031.656	1076.88
1031.945	1074.39
1032.233	1055.64
1032.522	1058.8
1032.81	1043.66
1033.099	1019.03
1033.387	1026.48
1033.675	1013.6
1033.963	1035.3
1034.251	1007.73
1034.54	1006.15
1034.828	1000.72
1035.116	994.62
1035.403	969.54
1035.691	988.75
1035.979	983.32
1036.267	954.4
1036.554	967.5
1036.842	950.55
1037.129	953.49
1037.417	955.53
1037.704	956.2
1037.992	971.34
1038.279	954.62
1038.566	921.63
1038.853	921.63
1039.14	921.63
