Data from hue_240_FLMS001491_00097.txt Node
Date: Tue Feb 07 16:36:12 GMT 2017
User: dcchb
Spectrometer: FLMS00149
Trigger mode: 0
Integration Time (sec): 2.000000E-2
Scans to average: 10
Electric dark correction enabled: true
Nonlinearity correction enabled: false
Boxcar width: 0
XAxis mode: Wavelengths
Number of Pixels in Spectrum: 2048
>>>>>Begin Spectral Data<<<<<
341.393	-18.95
341.776	-18.95
342.16	-18.95
342.543	-69.8
342.927	-57.6
343.31	-58.28
343.693	-70.48
344.077	-76.58
344.46	-53.53
344.843	-39.29
345.226	-61.89
345.61	-38.16
345.993	-4.04
346.376	-1.1
346.759	4.55
347.142	47.26
347.525	26.47
347.908	71.89
348.291	68.95
348.674	79.8
349.057	104.43
349.44	129.06
349.823	153.02
350.206	149.4
350.588	172
350.971	204.77
351.354	230.53
351.737	240.47
352.119	253.58
352.502	266.91
352.884	277.99
353.267	285.44
353.65	274.37
354.032	303.52
354.414	308.95
354.797	309.62
355.179	317.76
355.562	320.47
355.944	312.11
356.326	315.73
356.709	344.65
357.091	314.82
357.473	341.94
357.855	344.65
358.238	341.49
358.62	333.58
359.002	346.01
359.384	322.28
359.766	327.25
360.148	321.38
360.53	329.29
360.912	306.91
361.294	310.3
361.676	316.4
362.057	326.35
362.439	322.28
362.821	330.19
363.203	321.6
363.584	309.62
363.966	304.2
364.348	320.02
364.729	326.8
365.111	309.62
365.493	302.17
365.874	289.96
366.256	300.36
366.637	294.94
367.019	310.98
367.4	325.67
367.781	318.66
368.163	296.74
368.544	283.41
368.925	303.3
369.306	304.88
369.688	294.26
370.069	299.23
370.45	311.66
370.831	314.14
371.212	324.99
371.593	305.1
371.974	303.07
372.355	292.45
372.736	329.96
373.117	318.44
373.498	311.66
373.879	332.22
374.26	323.64
374.641	320.02
375.021	307.59
375.402	320.47
375.783	327.48
376.163	318.66
376.544	307.82
376.925	310.98
377.305	323.86
377.686	313.92
378.066	322.96
378.447	318.89
378.827	328.38
379.208	330.64
379.588	329.74
379.968	311.88
380.349	315.05
380.729	339.68
381.109	334.71
381.489	331.09
381.87	327.7
382.25	333.8
382.63	335.84
383.01	350.3
383.39	342.62
383.77	331.09
384.15	336.29
384.53	341.26
384.91	339.23
385.29	348.49
385.67	362.05
386.049	344.43
386.429	334.93
386.809	352.34
387.189	345.56
387.568	376.29
387.948	351.43
388.328	352.11
388.707	347.14
389.087	344.65
389.466	371.09
389.846	339.45
390.225	356.18
390.605	373.13
390.984	366.57
391.363	366.35
391.743	355.73
392.122	376.52
392.501	380.36
392.881	355.05
393.26	374.93
393.639	366.8
394.018	362.73
394.397	369.74
394.776	372.22
395.155	392.79
395.534	375.61
395.913	374.71
396.292	388.49
396.671	410.86
397.05	389.62
397.429	401.6
397.808	403.86
398.186	387.59
398.565	408.61
398.944	396.4
399.323	387.59
399.701	397.76
400.08	404.54
400.458	413.8
400.837	401.6
401.215	414.03
401.594	402.73
401.972	423.29
402.351	440.02
402.729	417.64
403.107	420.58
403.486	436.17
403.864	435.5
404.242	434.82
404.62	423.52
404.999	434.59
405.377	426.01
405.755	426.46
406.133	439.34
406.511	452.9
406.889	441.15
407.267	446.57
407.645	461.71
408.023	468.04
408.401	455.84
408.779	491.09
409.156	472.33
409.534	479.79
409.912	487.7
410.29	491.54
410.667	508.04
411.045	512.78
411.422	521.37
411.8	523.86
412.178	522.05
412.555	552.78
412.933	535.38
413.31	556.17
413.687	545.55
414.065	553.69
414.442	550.52
414.819	544.19
415.197	594.36
415.574	572.44
415.951	608.37
416.328	587.13
416.705	600.24
417.082	606.79
417.46	583.52
417.837	587.36
418.214	627.81
418.591	657.19
418.967	629.62
419.344	643.18
419.721	648.37
420.098	658.77
420.475	649.05
420.852	647.24
421.228	663.97
421.605	692.89
421.982	698.54
422.358	710.52
422.735	706.45
423.111	718.88
423.488	720.24
423.864	734.92
424.241	723.85
424.617	757.3
424.994	753.45
425.37	766.11
425.746	789.39
426.123	783.28
426.499	791.87
426.875	804.3
427.251	805.88
427.627	832.32
428.003	845.2
428.379	858.31
428.756	858.99
429.132	861.02
429.507	879.55
429.883	892.43
430.259	890.85
430.635	901.47
431.011	928.59
431.387	912.77
431.763	942.38
432.138	943.05
432.514	980.57
432.89	964.3
433.265	977.86
433.641	992.09
434.016	1002.26
434.392	1014.92
434.767	1060.57
435.143	1081.36
435.518	1066.89
435.894	1086.55
436.269	1114.58
436.644	1115.25
437.02	1122.03
437.395	1139.21
437.77	1166.33
438.145	1183.5
438.52	1194.35
438.895	1186.44
439.271	1193.9
439.646	1228.92
440.021	1227.57
440.395	1246.78
440.77	1260.33
441.145	1276.83
441.52	1329.48
441.895	1308.47
442.27	1308.24
442.645	1307.79
443.019	1357.28
443.394	1342.59
443.769	1358.86
444.143	1344.63
444.518	1364.06
444.892	1369.71
445.267	1411.97
445.641	1380.33
446.016	1398.18
446.39	1406.32
446.764	1430.27
447.139	1432.31
447.513	1428.92
447.887	1447.67
448.262	1442.48
448.636	1478.18
449.01	1480.67
449.384	1494
449.758	1536.03
450.132	1528.58
450.506	1532.19
450.88	1571.74
451.254	1542.81
451.628	1574.45
452.002	1606.09
452.376	1607.9
452.75	1636.14
453.123	1634.56
453.497	1630.95
453.871	1661.68
454.244	1672.07
454.618	1695.8
454.992	1703.49
455.365	1722.47
455.739	1761.11
456.112	1767.67
456.486	1789.81
456.859	1776.03
457.232	1819.87
457.606	1810.83
457.979	1863.26
458.352	1916.59
458.725	1898.28
459.099	1902.58
459.472	1965.63
459.845	1957.04
460.218	1958.17
460.591	2038.62
460.964	2043.82
461.337	2050.37
461.71	2052.63
462.083	2111.16
462.456	2127.2
462.829	2123.36
463.201	2134.21
463.574	2169.46
463.947	2169.46
464.32	2231.16
464.692	2223.47
465.065	2249.69
465.438	2300.98
465.81	2317.71
466.183	2388.44
466.555	2404.26
466.928	2415.33
467.3	2354.54
467.672	2433.41
468.045	2495.1
468.417	2524.03
468.789	2513.86
469.161	2524.48
469.534	2574.65
469.906	2644.7
470.278	2652.84
470.65	2667.75
471.022	2671.14
471.394	2760.41
471.766	2811.71
472.138	2831.37
472.51	2822.1
472.882	2856.45
473.253	2909.78
473.625	2926.5
473.997	2981.19
474.369	3025.71
474.74	3066.16
475.112	3072.26
475.484	3111.58
475.855	3168.76
476.227	3221.64
476.598	3290.11
476.97	3312.26
477.341	3390
477.713	3418.47
478.084	3391.58
478.455	3542.31
478.827	3530.56
479.198	3666.82
479.569	3621.85
479.94	3713.83
480.311	3770.78
480.682	3823.2
481.053	3916.99
481.424	3942.07
481.795	3941.85
482.166	4030.88
482.537	4082.63
482.908	4166.92
483.279	4212.35
483.65	4249.63
484.021	4333.7
484.391	4330.76
484.762	4429.52
485.133	4417.99
485.503	4498.44
485.874	4622.96
486.244	4600.13
486.615	4674.03
486.985	4730.07
487.356	4816.4
487.726	4844.42
488.097	4918.77
488.467	4966
488.837	5048.94
489.207	5087.8
489.578	5109.27
489.948	5118.54
490.318	5187.01
490.688	5223.17
491.058	5347.91
491.428	5415.48
491.798	5404.18
492.168	5553.1
492.538	5539.09
492.908	5634.46
493.278	5636.04
493.648	5662.48
494.017	5730.27
494.387	5799.88
494.757	5769.37
495.126	5871.29
495.496	5849.37
495.866	5911.96
496.235	5973.2
496.605	6008.68
496.974	6000.77
497.344	6072.41
497.713	6161
498.082	6212.52
498.452	6219.07
498.821	6202.58
499.19	6229.92
499.559	6271.95
499.928	6340.2
500.298	6341.78
500.667	6347.88
501.036	6386.3
501.405	6440.08
501.774	6385.17
502.143	6533.42
502.512	6524.6
502.88	6558.95
503.249	6586.3
503.618	6570.7
503.987	6644.83
504.356	6673.75
504.724	6671.49
505.093	6643.92
505.462	6730.7
505.83	6664.03
506.199	6853.63
506.567	6819.28
506.936	6850.7
507.304	6916.46
507.672	6932.5
508.041	6963.91
508.409	6949
508.777	7036.91
509.145	7053.18
509.514	7044.36
509.882	7066.06
510.25	7114.42
510.618	7115.55
510.986	7092.72
511.354	7195.09
511.722	7194.19
512.09	7247.52
512.458	7260.85
512.826	7308.99
513.193	7248.43
513.561	7282.32
513.929	7344.47
514.297	7392.15
514.664	7420.62
515.032	7371.81
515.4	7490.23
515.767	7471.02
516.135	7518.02
516.502	7431.47
516.869	7545.37
517.237	7550.56
517.604	7537.68
517.972	7667.17
518.339	7628.75
518.706	7609.32
519.073	7665.59
519.44	7656.32
519.808	7695.87
520.175	7715.53
520.542	7755.76
520.909	7811.57
521.276	7795.3
521.643	7841.63
522.009	7844.34
522.376	7858.58
522.743	7911.91
523.11	7926.6
523.477	7945.81
523.843	7935.64
524.21	8037.33
524.577	8050.66
524.943	8092.02
525.31	8075.97
525.676	8177.21
526.043	8126.82
526.409	8229.64
526.776	8222.64
527.142	8261.51
527.508	8245.46
527.874	8298.12
528.241	8261.51
528.607	8292.47
528.973	8353.93
529.339	8290.88
529.705	8366.59
530.071	8405.23
530.437	8405
530.803	8400.71
531.169	8461.95
531.535	8377.89
531.901	8378.11
532.267	8406.36
532.632	8453.37
532.998	8397.32
533.364	8439.58
533.73	8445.68
534.095	8507.6
534.461	8508.51
534.826	8562.51
535.192	8524.78
535.557	8573.14
535.923	8544.21
536.288	8543.31
536.653	8559.58
537.019	8540.37
537.384	8594.83
537.749	8571.78
538.114	8578.79
538.479	8555.28
538.845	8479.81
539.21	8573.81
539.575	8564.55
539.94	8497.21
540.305	8540.14
540.67	8513.93
541.034	8535.4
541.399	8510.09
541.764	8469.64
542.129	8532.46
542.494	8486.58
542.858	8525.45
543.223	8496.3
543.587	8551.44
543.952	8517.77
544.316	8493.14
544.681	8448.85
545.045	8537.66
545.41	8506.25
545.774	8539.24
546.138	8450.65
546.503	8522.74
546.867	8424.21
547.231	8532.01
547.595	8525.45
547.959	8485.68
548.324	8499.69
548.688	8480.03
549.052	8527.71
549.416	8505.12
549.779	8527.04
550.143	8509.18
550.507	8501.27
550.871	8568.39
551.235	8461.5
551.599	8509.18
551.962	8488.62
552.326	8483.65
552.689	8570.88
553.053	8428.96
553.417	8433.93
553.78	8545.11
554.143	8489.3
554.507	8492.01
554.87	8449.52
555.234	8647.71
555.597	8498.56
555.96	8527.49
556.323	8532.69
556.686	8548.05
557.05	8565.45
557.413	8570.42
557.776	8580.37
558.139	8609.29
558.502	8641.61
558.865	8573.36
559.228	8544.89
559.59	8666.02
559.953	8568.39
560.316	8788.72
560.679	8669.18
561.041	8783.3
561.404	8700.14
561.767	8765.22
562.129	8789.85
562.492	8811.55
562.854	8809.29
563.217	8798.89
563.579	8854.94
563.941	8796.18
564.304	8828.27
564.666	8893.81
565.028	8961.83
565.39	8899.23
565.753	8993.24
566.115	8926.12
566.477	8962.05
566.839	8975.16
567.201	9076.4
567.563	9040.02
567.925	9054.48
568.287	9073.69
568.648	9154.82
569.01	9159.56
569.372	9146.23
569.734	9115.72
570.095	9240.01
570.457	9225.1
570.819	9258.09
571.18	9245.21
571.542	9314.36
571.903	9329.27
572.265	9371.31
572.626	9411.98
572.987	9388.26
573.349	9393.91
573.71	9418.76
574.071	9433.68
574.432	9503.28
574.794	9540.79
575.155	9533.79
575.516	9503.06
575.877	9543.73
576.238	9557.52
576.599	9557.07
576.96	9634.58
577.32	9635.93
577.681	9593.45
578.042	9680
578.403	9718.19
578.763	9675.48
579.124	9668.47
579.485	9800.45
579.845	9804.52
580.206	9822.82
580.566	9784.86
580.927	9798.19
581.287	9806.1
581.648	9809.71
582.008	9870.5
582.368	9836.83
582.728	9891.07
583.089	9832.54
583.449	9870.5
583.809	9875.93
584.169	9941.01
584.529	9918.41
584.889	9956.15
585.249	9870.5
585.609	9935.13
585.969	10003.38
586.329	9966.55
586.688	10051.29
587.048	9976.26
587.408	9919.54
587.768	10034.57
588.127	10007.45
588.487	9974.91
588.846	10041.57
589.206	9982.36
589.565	10044.74
589.925	10038.41
590.284	10010.84
590.643	10087.22
591.003	10128.8
591.362	10169.7
591.721	10124.51
592.08	10079.09
592.44	10077.28
592.799	10088.8
593.158	10072.76
593.517	10108.91
593.876	10104.17
594.235	10129.03
594.593	10076.37
594.952	10080.44
595.311	10131.06
595.67	10168.57
596.029	10173.09
596.387	10183.26
596.746	10154.34
597.104	10091.97
597.463	10185.07
597.822	10169.48
598.18	10162.25
598.538	10188.46
598.897	10260.78
599.255	10063.49
599.613	10319.3
599.972	10191.17
600.33	10194.11
600.688	10269.36
601.046	10239.08
601.404	10355.69
601.762	10268.91
602.12	10259.65
602.478	10269.81
602.836	10351.39
603.194	10223.94
603.552	10292.86
603.91	10254.9
604.268	10344.62
604.625	10278.63
604.983	10301.68
605.341	10289.25
605.698	10342.36
606.056	10342.81
606.413	10283.6
606.771	10426.65
607.128	10346.87
607.485	10294.45
607.843	10313.2
608.2	10394.56
608.557	10373.99
608.914	10334.9
609.272	10411.05
609.629	10473.2
609.986	10491.96
610.343	10409.02
610.7	10538.51
611.057	10430.71
611.414	10452.41
611.771	10407.44
612.127	10543.25
612.484	10585.96
612.841	10512.29
613.198	10518.62
613.554	10533.76
613.911	10625.06
614.267	10526.76
614.624	10516.81
614.98	10535.12
615.337	10600.65
615.693	10581.22
616.05	10597.26
616.406	10597.04
616.762	10532.86
617.118	10580.99
617.475	10611.27
617.831	10607.66
618.187	10655.12
618.543	10612.18
618.899	10742.8
619.255	10740.31
619.611	10674.32
619.967	10674.78
620.323	10740.54
620.678	10757.49
621.034	10716.13
621.39	10680.88
621.746	10656.47
622.101	10709.13
622.457	10673.65
622.812	10685.17
623.168	10696.7
623.523	10703.48
623.879	10740.54
624.234	10614.21
624.589	10713.19
624.945	10747.54
625.3	10771.72
625.655	10642.91
626.01	10712.74
626.365	10656.25
626.72	10702.35
627.075	10647.43
627.43	10672.74
627.785	10601.78
628.14	10621.22
628.495	10664.38
628.85	10616.7
629.205	10636.36
629.559	10638.39
629.914	10614.89
630.269	10642.23
630.623	10649.24
630.978	10600.43
631.332	10583.03
631.687	10616.25
632.041	10547.1
632.396	10621.67
632.75	10508.23
633.104	10532.18
633.459	10472.97
633.813	10484.05
634.167	10480.2
634.521	10468
634.875	10511.84
635.229	10421
635.583	10400.21
635.937	10453.31
636.291	10445.4
636.645	10387.33
636.999	10350.49
637.352	10375.8
637.706	10313.66
638.06	10403.6
638.413	10324.05
638.767	10312.3
639.121	10329.02
639.474	10302.36
639.828	10248.12
640.181	10342.81
640.534	10283.83
640.888	10227.78
641.241	10237.27
641.594	10271.85
641.947	10284.28
642.301	10254.45
642.654	10240.66
643.007	10210.61
643.36	10226.88
643.713	10210.38
644.066	10262.58
644.419	10212.64
644.771	10150.72
645.124	10047.45
645.477	9927.68
645.83	10000.67
646.182	9928.81
646.535	9805.19
646.888	9894.68
647.24	9735.14
647.593	9849.03
647.945	9828.02
648.298	9789.38
648.65	9758.64
649.002	9775.14
649.355	9761.58
649.707	9848.13
650.059	9838.19
650.411	9971.52
650.763	9984.62
651.115	10055.58
651.467	9990.5
651.819	10038.41
652.171	10014.68
652.523	9984.17
652.875	9949.37
653.227	9928.81
653.578	10039.76
653.93	9982.14
654.282	9946.66
654.633	9893.1
654.985	9884.51
655.337	9907.79
655.688	9965.42
656.039	9977.39
656.391	9873.89
656.742	9949.82
657.094	9877.73
657.445	9978.75
657.796	9936.49
658.147	9991.18
658.498	9916.38
658.849	9891.52
659.2	9909.6
659.551	9915.93
659.902	9952.31
660.253	9929.48
660.604	9957.51
660.955	9906.89
661.306	10002.7
661.656	9916.6
662.007	9957.73
662.358	9907.11
662.708	9929.48
663.059	9864.85
663.409	9844.52
663.76	9860.56
664.11	9967
664.461	9891.29
664.811	9938.3
665.161	9928.58
665.511	9897.17
665.862	9874.34
666.212	9894.23
666.562	9968.58
666.912	9863.27
667.262	9917.73
667.612	9912.99
667.962	9912.31
668.312	9924.51
668.662	9971.74
669.011	9905.98
669.361	9904.85
669.711	9835.7
670.06	9891.75
670.41	9882.71
670.76	9881.8
671.109	9904.4
671.459	9888.13
671.808	9872.09
672.157	9899.43
672.507	9759.55
672.856	9765.42
673.205	9767.23
673.554	9847.45
673.904	9775.82
674.253	9821.46
674.602	9856.94
674.951	9682.26
675.3	9632.09
675.649	9784.18
675.998	9786.66
676.346	9796.61
676.695	9797.06
677.044	9672.54
677.393	9765.42
677.741	9651.3
678.09	9681.81
678.438	9681.36
678.787	9712.09
679.135	9734.69
679.484	9595.26
679.832	9652.88
680.181	9651.3
680.529	9633.45
680.877	9605.65
681.225	9591.64
681.573	9635.26
681.922	9539.89
682.27	9560.68
682.618	9576.95
682.966	9486.56
683.314	9508.7
683.661	9518.65
684.009	9439.55
684.357	9416.73
684.705	9421.25
685.053	9355.04
685.4	9361.14
685.748	9344.42
686.095	9306.68
686.443	9260.35
686.79	9296.28
687.138	9282.04
687.485	9239.33
687.832	9255.38
688.18	9249.95
688.527	9231.42
688.874	9202.27
689.221	9106
689.568	9161.82
689.915	9112.11
690.262	9106.46
690.609	9061.26
690.956	9030.98
691.303	9008.38
691.65	8921.15
691.997	8928.61
692.344	8885.67
692.69	8913.92
693.037	8896.29
693.383	8842.96
693.73	8866.91
694.077	8764.77
694.423	8835.05
694.769	8720.25
695.116	8678.67
695.462	8684.55
695.808	8682.96
696.155	8660.59
696.501	8567.03
696.847	8626.24
697.193	8539.69
697.539	8581.5
697.885	8521.61
698.231	8419.24
698.577	8471.22
698.923	8485
699.269	8356.19
699.614	8426.47
699.96	8333.82
700.306	8299.25
700.651	8279.58
700.997	8271.9
701.342	8274.39
701.688	8184.9
702.033	8180.15
702.379	8178.8
702.724	8210.43
703.069	8156.42
703.415	8036.43
703.76	8100.83
704.105	8071
704.45	8076.2
704.795	7990.33
705.14	7980.16
705.485	7933.38
705.83	7917.11
706.175	7942.64
706.52	7891.57
706.865	7845.25
707.209	7812.03
707.554	7889.54
707.899	7849.99
708.243	7812.48
708.588	7821.52
708.932	7688.19
709.277	7718.7
709.621	7727.96
709.966	7719.6
710.31	7640.96
710.654	7650
710.998	7595.53
711.342	7556.89
711.687	7549.43
712.031	7555.76
712.375	7529.77
712.719	7542.2
713.063	7556.21
713.407	7553.05
713.75	7438.25
714.094	7476.89
714.438	7507.4
714.782	7495.2
715.125	7453.39
715.469	7422.21
715.812	7400.74
716.156	7274.41
716.499	7348.76
716.843	7341.76
717.186	7320.74
717.53	7291.14
717.873	7337.01
718.216	7314.19
718.559	7302.44
718.902	7257.92
719.246	7230.57
719.589	7224.47
719.932	7244.81
720.275	7247.97
720.617	7265.15
720.96	7250.01
721.303	7208.2
721.646	7234.64
721.989	7161.65
722.331	7133.63
722.674	7120.97
723.016	7149.22
723.359	7172.04
723.701	7192.38
724.044	7149.22
724.386	7085.94
724.729	7128.43
725.071	7101.76
725.413	7075.55
725.755	7089.11
726.097	7018.37
726.439	7025.15
726.782	7047.3
727.124	6999.62
727.465	6995.78
727.807	7003.69
728.149	7015.66
728.491	7019.96
728.833	6981.31
729.175	6949.9
729.516	6955.33
729.858	7000.3
730.199	6991.48
730.541	6962.11
730.882	6945.16
731.224	6981.77
731.565	6970.92
731.906	6985.61
732.248	6991.93
732.589	6888.21
732.93	6881.88
733.271	6914.42
733.612	6915.55
733.953	6918.72
734.294	6906.97
734.635	6947.64
734.976	6993.52
735.317	6889.79
735.658	6941.77
735.999	6879.4
736.339	6910.13
736.68	6958.94
737.021	6913.97
737.361	6897.25
737.702	7021.99
738.042	6910.81
738.383	6886.85
738.723	6938.15
739.063	6891.6
739.404	6931.37
739.744	6978.38
740.084	6932.05
740.424	6911.03
740.764	6891.6
741.104	6961.2
741.444	6910.58
741.784	6852.28
742.124	6906.29
742.464	6932.73
742.804	6987.19
743.143	6998.94
743.483	6986.06
743.823	6943.8
744.162	6973.18
744.502	6999.62
744.841	6968.88
745.181	7096.34
745.52	7065.38
745.86	7065.83
746.199	7097.24
746.538	7069.22
746.877	7112.61
747.216	7167.52
747.556	7137.47
747.895	7277.35
748.234	7183.79
748.573	7243.68
748.911	7244.36
749.25	7302.21
749.589	7353.96
749.928	7385.37
750.267	7430.34
750.605	7440.96
750.944	7450
751.283	7542.2
751.621	7591.47
751.96	7612.26
752.298	7602.99
752.636	7760.28
752.975	7796.89
753.313	7777
753.651	7956.2
753.989	7963.21
754.327	7985.36
754.666	8002.53
755.004	8123.43
755.342	8211.34
755.679	8250.43
756.017	8281.17
756.355	8433.03
756.693	8507.15
757.031	8583.53
757.368	8582.63
757.706	8704.88
758.044	8718.44
758.381	8870.98
758.719	8917.76
759.056	9068.04
759.394	9091.09
759.731	9169.5
760.068	9357.97
760.405	9329.95
760.743	9428.25
761.08	9545.09
761.417	9570.62
761.754	9723.39
762.091	9802.71
762.428	9843.39
762.765	9945.3
763.102	10057.62
763.438	10113.43
763.775	10152.53
764.112	10313.2
764.449	10421.68
764.785	10502.12
765.122	10525.4
765.458	10557.94
765.795	10633.19
766.131	10794.09
766.467	10799.74
766.804	10782.34
767.14	10898.5
767.476	10989.12
767.812	11006.29
768.148	11126.97
768.485	11104.14
768.821	11201.09
769.157	11191.37
769.492	11293.97
769.828	11388.2
770.164	11378.49
770.5	11346.85
770.836	11473.62
771.171	11512.95
771.507	11503.91
771.842	11502.78
772.178	11596.11
772.513	11667.52
772.849	11728.08
773.184	11696.22
773.519	11700.51
773.855	11725.14
774.19	11797.91
774.525	11846.72
774.86	11861.19
775.195	11906.16
775.53	11808.98
775.865	11877.23
776.2	11820.96
776.535	11819.83
776.87	11833.16
777.205	11871.58
777.539	11888.76
777.874	11961.97
778.209	11813.28
778.543	11908.42
778.878	11851.47
779.212	11962.2
779.547	11860.28
779.881	11962.88
780.215	11900.28
780.55	11886.72
780.884	11925.36
781.218	11845.14
781.552	11840.39
781.886	11850.56
782.22	11857.57
782.554	11728.99
782.888	11728.08
783.222	11748.42
783.556	11753.84
783.889	11732.83
784.223	11692.83
784.557	11713.39
784.89	11759.72
785.224	11635.65
785.557	11608.54
785.891	11631.36
786.224	11612.83
786.558	11615.99
786.891	11626.39
787.224	11520.18
787.557	11556.56
787.891	11534.19
788.224	11499.16
788.557	11497.81
788.89	11471.37
789.223	11552.72
789.556	11371.03
789.888	11441.54
790.221	11346.4
790.554	11298.26
790.887	11329.22
791.219	11258.94
791.552	11255.55
791.884	11199.73
792.217	11211.03
792.549	11235.89
792.882	11157.47
793.214	11143.92
793.546	11169.45
793.879	11098.49
794.211	11058.04
794.543	11122.22
794.875	11071.38
795.207	11081.09
795.539	11010.81
795.871	11022.79
796.203	10917.93
796.535	10910.02
796.867	10886.97
797.198	10876.35
797.53	10885.62
797.862	10840.2
798.193	10824.6
798.525	10786.64
798.856	10726.98
799.188	10639.3
799.519	10566.3
799.85	10667.77
800.182	10572.86
800.513	10580.54
800.844	10536.02
801.175	10627.55
801.506	10470.49
801.837	10521.79
802.168	10464.16
802.499	10421.68
802.83	10423.71
803.161	10359.98
803.491	10385.07
803.822	10368.34
804.153	10353.2
804.483	10256.71
804.814	10276.14
805.145	10251.51
805.475	10223.04
805.805	10185.3
806.136	10172.42
806.466	10191.17
806.796	10162.02
807.126	10093.55
807.457	10051.52
807.787	10101.91
808.117	10015.58
808.447	9955.25
808.777	10032.31
809.107	9995.25
809.436	9938.75
809.766	9955.7
810.096	9887
810.426	9894.91
810.755	9868.02
811.085	9807.68
811.414	9880.67
811.744	9778.08
812.073	9678.19
812.403	9717.06
812.732	9652.2
813.061	9670.51
813.39	9592.32
813.719	9581.25
814.049	9730.39
814.378	9607.46
814.707	9630.74
815.036	9621.24
815.365	9560.91
815.693	9462.15
816.022	9497.86
816.351	9507.8
816.68	9436.62
817.008	9412.66
817.337	9420.8
817.665	9359.56
817.994	9383.51
818.322	9370.18
818.651	9350.29
818.979	9312.1
819.307	9392.32
819.636	9310.29
819.964	9268.94
820.292	9307.58
820.62	9325.21
820.948	9258.77
821.276	9325.88
821.604	9291.08
821.932	9270.29
822.259	9286.56
822.587	9244.3
822.915	9198.2
823.243	9282.27
823.57	9222.84
823.898	9250.41
824.225	9232.78
824.553	9234.59
824.88	9208.83
825.207	9258.54
825.535	9287.69
825.862	9301.03
826.189	9200.92
826.516	9269.62
826.843	9269.39
827.17	9328.14
827.497	9275.26
827.824	9258.32
828.151	9334.92
828.478	9192.55
828.805	9298.31
829.131	9283.85
829.458	9226.68
829.785	9226.45
830.111	9295.6
830.438	9284.76
830.764	9283.4
831.09	9267.58
831.417	9179.9
831.743	9310.29
832.069	9205.44
832.395	9213.12
832.722	9277.98
833.048	9297.18
833.374	9248.6
833.7	9196.85
834.026	9171.09
834.351	9234.59
834.677	9220.12
835.003	9181.26
835.329	9167.92
835.654	9212.67
835.98	9142.39
836.306	9164.31
836.631	9114.36
836.956	9181.03
837.282	9186.91
837.607	9148.71
837.932	9053.58
838.258	9037.76
838.583	9085.21
838.908	9025.33
839.233	8995.05
839.558	9019.9
839.883	9001.83
840.208	8934.71
840.533	8988.72
840.858	8921.83
841.182	8936.06
841.507	8946.01
841.832	8876.18
842.156	8909.62
842.481	8854.94
842.805	8826.46
843.13	8790.08
843.454	8765.67
843.778	8734.26
844.103	8735.62
844.427	8761.61
844.751	8699.23
845.075	8626.92
845.399	8610.65
845.723	8672.79
846.047	8688.61
846.371	8536.3
846.695	8572.46
847.019	8536.07
847.343	8468.05
847.666	8420.37
847.99	8419.47
848.313	8417.21
848.637	8283.65
848.96	8315.52
849.284	8388.96
849.607	8294.5
849.931	8227.83
850.254	8260.15
850.577	8121.4
850.9	8165.46
851.223	8122.3
851.546	8071
851.869	8058.57
852.192	8061.74
852.515	7951.68
852.838	7980.84
853.161	7974.51
853.483	7875.98
853.806	7875.3
854.129	7871.91
854.451	7831.46
854.774	7745.36
855.096	7768.64
855.419	7741.75
855.741	7795.98
856.063	7719.37
856.385	7698.81
856.708	7605.48
857.03	7649.32
857.352	7622.65
857.674	7609.55
857.996	7647.06
858.318	7509.21
858.64	7498.59
858.961	7523.45
859.283	7477.12
859.605	7462.66
859.926	7488.42
860.248	7421.98
860.57	7352.6
860.891	7430.79
861.212	7393.51
861.534	7346.73
861.855	7336.33
862.176	7298.82
862.498	7318.25
862.819	7332.04
863.14	7264.24
863.461	7297.69
863.782	7283.9
864.103	7311.7
864.424	7212.04
864.745	7251.14
865.065	7204.13
865.386	7155.77
865.707	7163.23
866.027	7230.12
866.348	7144.93
866.668	7165.04
866.989	7128.88
867.309	7118.71
867.63	7086.4
867.95	7103.57
868.27	7067.19
868.59	7095.66
868.91	7061.31
869.23	7086.4
869.55	7051.82
869.87	7098.6
870.19	7021.76
870.51	7043.01
870.83	7037.13
871.15	7026.06
871.469	6963.91
871.789	6999.62
872.109	7021.99
872.428	6973.86
872.748	6972.05
873.067	6938.15
873.386	6929.34
873.706	6944.7
874.025	6863.35
874.344	6894.99
874.663	6931.15
874.982	6871.49
875.301	6926.63
875.62	6844.14
875.939	6813.86
876.258	6873.52
876.577	6800.08
876.896	6812.96
877.214	6836.23
877.533	6835.1
877.852	6781.54
878.17	6762.79
878.489	6743.13
878.807	6739.51
879.125	6723.69
879.444	6741.77
879.762	6741.32
880.08	6719.4
880.398	6726.63
880.716	6659.29
881.034	6699.97
881.352	6710.13
881.67	6618.39
881.988	6642.34
882.306	6618.84
882.624	6608.22
882.941	6577.93
883.259	6562.57
883.577	6545.84
883.894	6551.49
884.212	6516.02
884.529	6521.89
884.846	6508.33
885.164	6445.06
885.481	6450.03
885.798	6444.83
886.115	6403.93
886.432	6392.4
886.75	6417.71
887.067	6460.42
887.383	6408.45
887.7	6398.05
888.017	6347.66
888.334	6382.69
888.651	6349.24
888.967	6376.81
889.284	6305.17
889.6	6333.87
889.917	6272.86
890.233	6274.67
890.55	6173.65
890.866	6269.24
891.182	6199.41
891.498	6176.81
891.815	6131.39
892.131	6134.78
892.447	6162.35
892.763	6096.59
893.079	6076.48
893.395	6088.91
893.71	6051.62
894.026	5985.63
894.342	5980.44
894.657	5993.54
894.973	5969.14
895.289	5956.26
895.604	5974.33
895.92	5930.27
896.235	5887.33
896.55	5861.34
896.865	5903.38
897.181	5868.35
897.496	5782.48
897.811	5789.93
898.126	5798.29
898.441	5794.45
898.756	5764.17
899.071	5762.36
899.386	5691.86
899.7	5668.81
900.015	5702.7
900.33	5634.23
900.644	5636.49
900.959	5618.64
901.273	5593.78
901.588	5599.43
901.902	5557.4
902.216	5556.04
902.531	5499.54
902.845	5561.69
903.159	5433.11
903.473	5475.36
903.787	5427.68
904.101	5400.34
904.415	5413.67
904.729	5398.98
905.042	5351.98
905.356	5313.79
905.67	5296.39
905.984	5385.2
906.297	5314.46
906.611	5263.84
906.924	5245.77
907.237	5263.17
907.551	5250.06
907.864	5191.53
908.177	5202.6
908.491	5149.95
908.804	5137.07
909.117	5100.46
909.43	5103.85
909.743	5071.08
910.056	5106.56
910.368	4990.63
910.681	5026.34
910.994	5042.16
911.307	4977.52
911.619	4977.52
911.932	4939.33
912.244	4958.77
912.557	4891.88
912.869	4886.68
913.181	4855.95
913.494	4893.68
913.806	4840.58
914.118	4778.21
914.43	4812.11
914.742	4842.61
915.054	4746.34
915.366	4726.23
915.678	4723.52
915.99	4702.05
916.302	4652.34
916.613	4664.54
916.925	4633.13
917.236	4677.42
917.548	4598.55
917.859	4662.96
918.171	4576.41
918.482	4605.33
918.794	4510.19
919.105	4560.81
919.416	4483.53
919.727	4457.31
920.038	4504.77
920.349	4476.97
920.66	4439.91
920.971	4446.69
921.282	4419.35
921.593	4364.21
921.903	4387.71
922.214	4337.32
922.525	4351.55
922.835	4286.7
923.146	4286.02
923.456	4328.05
923.767	4285.57
924.077	4213.7
924.387	4246.92
924.697	4210.76
925.008	4227.26
925.318	4168.28
925.628	4152.46
925.938	4159.92
926.248	4136.42
926.558	4142.97
926.867	4096.87
927.177	4107.49
927.487	4059.58
927.796	4038.79
928.106	4040.6
928.416	3997.21
928.725	3988.17
929.034	3957.44
929.344	4002.86
929.653	3981.84
929.962	3912.69
930.271	3967.61
930.581	3909.98
930.89	3896.2
931.199	3855.29
931.508	3835.86
931.817	3863.2
932.125	3818.46
932.434	3850.1
932.743	3820.72
933.051	3739.14
933.36	3747.05
933.669	3735.52
933.977	3788.63
934.286	3742.3
934.594	3718.35
934.902	3713.6
935.21	3667.95
935.519	3672.02
935.827	3664.34
936.135	3625.7
936.443	3645.36
936.751	3625.92
937.059	3622.31
937.367	3556.77
937.674	3587.28
937.982	3566.94
938.29	3488.07
938.597	3531.01
938.905	3519.03
939.213	3509.99
939.52	3477.22
939.827	3481.97
940.135	3427.96
940.442	3442.2
940.749	3435.87
941.056	3436.32
941.363	3408.53
941.67	3403.1
941.977	3335.99
942.284	3340.05
942.591	3375.53
942.898	3353.16
943.205	3322.2
943.511	3314.07
943.818	3305.25
944.125	3282.88
944.431	3270
944.738	3241.98
945.044	3271.58
945.35	3206.72
945.657	3174.86
945.963	3160.62
946.269	3136.89
946.575	3213.73
946.881	3126.27
947.187	3113.62
947.493	3110.68
947.799	3085.6
948.105	3118.59
948.41	3115.88
948.716	3106.16
949.022	3064.81
949.327	3065.03
949.633	3049.21
949.938	3049.89
950.244	2992.72
950.549	2981.42
950.854	2972.83
951.16	2965.83
951.465	2960.18
951.77	2969.67
952.075	2949.33
952.38	2937.35
952.685	2960.85
952.99	2886.73
953.294	2909.1
953.599	2883.79
953.904	2880.4
954.209	2838.6
954.513	2850.8
954.818	2802.44
955.122	2849.22
955.426	2792.27
955.731	2763.12
956.035	2771.48
956.339	2763.57
956.643	2779.84
956.948	2756.79
957.252	2753.18
957.556	2717.24
957.86	2720.86
958.163	2726.06
958.467	2689.9
958.771	2696.45
959.075	2675.21
959.378	2662.56
959.682	2620.98
959.985	2630.92
960.289	2644.03
960.592	2645.61
960.896	2644.7
961.199	2619.85
961.502	2603.35
961.805	2569.45
962.108	2550.02
962.411	2561.09
962.714	2546.63
963.017	2536.46
963.32	2541.2
963.623	2506.63
963.926	2505.05
964.228	2509.79
964.531	2521.54
964.833	2508.21
965.136	2466.86
965.438	2453.07
965.741	2436.12
966.043	2450.13
966.345	2421.43
966.648	2438.61
966.95	2401.1
967.252	2401.32
967.554	2388.67
967.856	2384.6
968.158	2367.88
968.46	2338.05
968.761	2359.29
969.063	2371.94
969.365	2332.62
969.666	2342.34
969.968	2294.43
970.269	2297.82
970.571	2298.72
970.872	2275.22
971.174	2240.2
971.475	2266.41
971.776	2228.44
972.077	2254.88
972.378	2224.6
972.679	2215.34
972.98	2191.84
973.281	2195.22
973.582	2231.83
973.883	2176.24
974.183	2174.43
974.484	2184.83
974.785	2164.27
975.085	2153.42
975.386	2166.52
975.686	2176.47
975.986	2146.64
976.287	2126.53
976.587	2095.79
976.887	2112.74
977.187	2112.52
977.487	2082.23
977.787	2096.7
978.087	2067.77
978.387	2090.82
978.687	2079.07
978.987	2026.64
979.286	2049.47
979.586	2037.94
979.885	2007.43
980.185	2022.57
980.484	1994.55
980.784	1999.3
981.083	2002.91
981.382	1964.72
981.682	1966.08
981.981	1943.48
982.28	1928.79
982.579	1962.24
982.878	1936.25
983.177	1954.78
983.475	1947.32
983.774	1924.72
984.073	1905.74
984.372	1895.12
984.67	1878.17
984.969	1881.33
985.267	1891.73
985.566	1860.54
985.864	1856.25
986.162	1851.5
986.461	1810.15
986.759	1809.7
987.057	1830.26
987.355	1808.12
987.653	1843.6
987.951	1794.56
988.249	1794.78
988.547	1795.24
988.844	1789.81
989.142	1783.48
989.44	1794.11
989.737	1789.36
990.035	1757.04
990.332	1755.46
990.63	1729.25
990.927	1723.37
991.224	1733.09
991.521	1692.87
991.819	1763.15
992.116	1674.33
992.413	1707.1
992.71	1670.72
993.006	1671.85
993.303	1673.43
993.6	1645.86
993.897	1679.98
994.193	1640.89
994.49	1637.27
994.787	1640.66
995.083	1635.01
995.379	1599.99
995.676	1633.66
995.972	1605.86
996.268	1579.42
996.565	1605.41
996.861	1592.3
997.157	1582.13
997.453	1576.03
997.749	1589.14
998.044	1561.12
998.34	1544.17
998.636	1545.07
998.932	1535.81
999.227	1515.02
999.523	1543.04
999.818	1554.34
1000.114	1479.99
1000.409	1510.72
1000.704	1492.19
1001	1488.58
1001.295	1494
1001.59	1495.36
1001.885	1459.88
1002.18	1462.59
1002.475	1463.94
1002.77	1447.22
1003.065	1433.66
1003.359	1445.64
1003.654	1435.24
1003.949	1414.91
1004.243	1427.11
1004.538	1390.27
1004.832	1386.66
1005.127	1368.58
1005.421	1367.9
1005.715	1359.99
1006.009	1373.1
1006.304	1337.62
1006.598	1360.44
1006.892	1350.05
1007.186	1320.67
1007.48	1351.18
1007.773	1314.57
1008.067	1308.24
1008.361	1307.11
1008.655	1321.58
1008.948	1281.35
1009.242	1270.28
1009.535	1289.26
1009.829	1290.39
1010.122	1310.28
1010.415	1272.31
1010.708	1225.98
1011.001	1251.07
1011.295	1218.08
1011.588	1242.48
1011.881	1216.27
1012.173	1217.85
1012.466	1225.98
1012.759	1232.76
1013.052	1231.41
1013.344	1222.37
1013.637	1191.86
1013.93	1191.41
1014.222	1196.38
1014.514	1158.42
1014.807	1199.54
1015.099	1149.83
1015.391	1171.07
1015.683	1133.56
1015.976	1159.32
1016.268	1141.02
1016.56	1111.86
1016.851	1126.78
1017.143	1113.22
1017.435	1084.97
1017.727	1103.5
1018.018	1105.99
1018.31	1079.55
1018.602	1096.95
1018.893	1095.14
1019.185	1086.1
1019.476	1072.77
1019.767	1046.55
1020.058	1078.87
1020.35	1072.09
1020.641	1035.03
1020.932	1056.05
1021.223	1024.41
1021.514	1020.79
1021.804	1003.62
1022.095	994.13
1022.386	1007.23
1022.677	1018.76
1022.967	1010.4
1023.258	984.18
1023.548	984.41
1023.839	986.67
1024.129	943.28
1024.419	968.36
1024.709	987.8
1025	957.74
1025.29	979.21
1025.58	953.68
1025.87	916.16
1026.16	939.66
1026.449	915.48
1026.739	909.38
1027.029	946.44
1027.319	907.12
1027.608	920.23
1027.898	913.45
1028.187	870.29
1028.477	900.57
1028.766	886.56
1029.055	912.55
1029.344	928.59
1029.634	871.19
1029.923	873.45
1030.212	858.76
1030.501	890.85
1030.79	869.61
1031.078	849.72
1031.367	850.4
1031.656	852.66
1031.945	827.13
1032.233	826.45
1032.522	842.49
1032.81	827.58
1033.099	823.28
1033.387	809.27
1033.675	807.69
1033.963	802.49
1034.251	791.19
1034.54	821.7
1034.828	798.2
1035.116	771.99
1035.403	790.52
1035.691	781.7
1035.979	793.91
1036.267	781.48
1036.554	760.23
1036.842	766.56
1037.129	748.03
1037.417	766.79
1037.704	748.94
1037.992	750.74
1038.279	730.63
1038.566	719.78
1038.853	719.78
1039.14	719.78
