Data from hue_28_FLMS001491_00082.txt Node
Date: Tue Feb 07 17:17:55 GMT 2017
User: dcchb
Spectrometer: FLMS00149
Trigger mode: 0
Integration Time (sec): 2.000000E-2
Scans to average: 10
Electric dark correction enabled: true
Nonlinearity correction enabled: false
Boxcar width: 0
XAxis mode: Wavelengths
Number of Pixels in Spectrum: 2048
>>>>>Begin Spectral Data<<<<<
341.393	-22.8
341.776	-22.8
342.16	-22.8
342.543	-64.38
342.927	-57.15
343.31	-54.66
343.693	-55.56
344.077	-62.57
344.46	-60.54
344.843	-71.38
345.226	-49.24
345.61	-44.26
345.993	-9.46
346.376	-23.7
346.759	12.01
347.142	24.89
347.525	43.42
347.908	72.57
348.291	89.74
348.674	79.57
349.057	109.18
349.44	134.71
349.823	131.1
350.206	154.15
350.588	183.07
350.971	216.75
351.354	221.94
351.737	233.92
352.119	247.25
352.502	250.64
352.884	309.85
353.267	297.2
353.65	292.45
354.032	291.32
354.414	290.42
354.797	320.02
355.179	308.72
355.562	337.87
355.944	326.8
356.326	323.41
356.709	338.55
357.091	349.62
357.473	357.31
357.855	336.29
358.238	349.17
358.62	351.21
359.002	328.38
359.384	342.17
359.766	320.7
360.148	346.23
360.53	314.14
360.912	335.84
361.294	330.19
361.676	319.12
362.057	338.55
362.439	336.52
362.821	329.29
363.203	321.15
363.584	331.77
363.966	322.51
364.348	322.96
364.729	337.65
365.111	331.77
365.493	325.44
365.874	325.22
366.256	323.41
366.637	302.17
367.019	317.76
367.4	316.4
367.781	320.47
368.163	327.25
368.544	313.69
368.925	304.88
369.306	315.05
369.688	300.59
370.069	305.33
370.45	294.48
370.831	309.85
371.212	311.43
371.593	320.02
371.974	311.88
372.355	305.33
372.736	326.57
373.117	326.57
373.498	323.64
373.879	311.43
374.26	299.23
374.641	329.51
375.021	323.18
375.402	301.49
375.783	320.92
376.163	324.54
376.544	317.08
376.925	309.4
377.305	311.43
377.686	313.92
378.066	338.78
378.447	312.56
378.827	339.91
379.208	330.42
379.588	326.35
379.968	349.4
380.349	311.88
380.729	347.14
381.109	353.92
381.489	331.77
381.87	337.19
382.25	342.62
382.63	310.08
383.01	342.84
383.39	346.01
383.77	349.17
384.15	319.34
384.53	317.08
384.91	347.59
385.29	351.21
385.67	351.43
386.049	360.02
386.429	342.84
386.809	368.38
387.189	382.84
387.568	363.41
387.948	352.56
388.328	380.81
388.707	349.17
389.087	352.79
389.466	363.63
389.846	346.91
390.225	348.27
390.605	375.84
390.984	381.26
391.363	347.14
391.743	368.38
392.122	358.89
392.501	363.18
392.881	379.45
393.26	372.9
393.639	376.52
394.018	367.25
394.397	390.07
394.776	393.24
395.155	376.06
395.534	376.52
395.913	382.84
396.292	376.74
396.671	391.43
397.05	375.16
397.429	374.26
397.808	383.07
398.186	380.36
398.565	375.39
398.944	391.66
399.323	363.18
399.701	405.44
400.08	411.77
400.458	393.24
400.837	406.8
401.215	393.69
401.594	397.98
401.972	400.47
402.351	404.76
402.729	396.63
403.107	414.71
403.486	391.88
403.864	408.83
404.242	401.15
404.62	400.92
404.999	391.66
405.377	416.51
405.755	428.04
406.133	418.1
406.511	409.51
406.889	433.01
407.267	429.62
407.645	423.75
408.023	445.67
408.401	424.42
408.779	438.89
409.156	438.21
409.534	425.55
409.912	446.12
410.29	451.77
410.667	435.27
411.045	446.8
411.422	453.8
411.8	471.43
412.178	468.49
412.555	481.15
412.933	476.17
413.31	482.5
413.687	459.45
414.065	497.42
414.442	470.52
414.819	478.21
415.197	493.35
415.574	473.24
415.951	492.67
416.328	514.59
416.705	481.82
417.082	481.37
417.46	496.74
417.837	499.45
418.214	510.52
418.591	500.13
418.967	507.59
419.344	504.42
419.721	527.47
420.098	516.4
420.475	515.95
420.852	519.79
421.228	537.87
421.605	507.81
421.982	539.45
422.358	534.03
422.735	570.86
423.111	541.48
423.488	541.26
423.864	524.99
424.241	565.21
424.617	554.82
424.994	583.29
425.37	579.22
425.746	550.52
426.123	563.4
426.499	567.7
426.875	558.21
427.251	589.62
427.627	602.05
428.003	592.1
428.379	599.79
428.756	627.36
429.132	596.85
429.507	602.05
429.883	642.05
430.259	620.58
430.635	615.15
431.011	638.66
431.387	630.97
431.763	651.08
432.138	640.01
432.514	649.05
432.89	653.34
433.265	653.34
433.641	661.93
434.016	637.3
434.392	660.58
434.767	702.38
435.143	687.69
435.518	695.83
435.894	703.96
436.269	693.12
436.644	690.63
437.02	706.68
437.395	708.71
437.77	736.05
438.145	743.51
438.52	719.11
438.895	727.01
439.271	711.42
439.646	761.36
440.021	746.22
440.395	764.08
440.77	766.79
441.145	766.79
441.52	786.45
441.895	762.04
442.27	752.55
442.645	788.03
443.019	790.52
443.394	789.16
443.769	797.97
444.143	818.09
444.518	806.56
444.892	780.57
445.267	794.81
445.641	787.8
446.016	815.37
446.39	814.92
446.764	830.97
447.139	813.79
447.513	809.27
447.887	823.96
448.262	819.89
448.636	836.62
449.01	859.89
449.384	841.14
449.758	852.44
450.132	870.51
450.506	884.98
450.88	869.61
451.254	876.16
451.628	892.89
452.002	891.98
452.376	899.67
452.75	908.48
453.123	908.03
453.497	903.96
453.871	918.42
454.244	937.63
454.618	918.42
454.992	962.71
455.365	956.84
455.739	985.31
456.112	980.34
456.486	993.45
456.859	983.05
457.232	1025.99
457.606	1014.01
457.979	1027.57
458.352	1040.9
458.725	1071.41
459.099	1078.19
459.472	1066.21
459.845	1088.36
460.218	1085.65
460.591	1091.75
460.964	1095.59
461.337	1107.8
461.71	1158.87
462.083	1166.78
462.456	1162.03
462.829	1160.9
463.201	1184.86
463.574	1169.72
463.947	1163.61
464.32	1216.49
464.692	1227.79
465.065	1233.67
465.438	1267.57
465.81	1228.92
466.183	1264.63
466.555	1285.64
466.928	1299.66
467.3	1320.45
467.672	1337.62
468.045	1365.42
468.417	1355.92
468.789	1388.47
469.161	1407.67
469.534	1429.82
469.906	1466.2
470.278	1467.11
470.65	1485.86
471.022	1501.91
471.394	1522.47
471.766	1542.36
472.138	1556.82
472.51	1584.39
472.882	1587.33
473.253	1633.66
473.625	1642.7
473.997	1703.49
474.369	1723.37
474.74	1713.66
475.112	1788
475.484	1792.98
475.855	1803.6
476.227	1833.2
476.598	1894.67
476.97	1933.54
477.341	1932.63
477.713	1995.46
478.084	2014.66
478.455	2032.07
478.827	2104.61
479.198	2142.12
479.569	2156.81
479.94	2194.55
480.311	2267.09
480.682	2308.89
481.053	2338.5
481.424	2379.85
481.795	2424.15
482.166	2460.3
482.537	2482.67
482.908	2571.94
483.279	2593.63
483.65	2698.94
484.021	2724.7
484.391	2802.44
484.762	2738.26
485.133	2830.24
485.503	2867.98
485.874	2971.48
486.244	3002.44
486.615	3084.47
486.985	3113.62
487.356	3161.3
487.726	3173.96
488.097	3278.36
488.467	3322.43
488.837	3421.86
489.207	3406.94
489.578	3465.25
489.948	3570.33
490.318	3574.17
490.688	3665.47
491.058	3696.43
491.428	3804
491.798	3806.93
492.168	3886.25
492.538	3926.93
492.908	3926.03
493.278	4027.94
493.648	4039.47
494.017	4117.21
494.387	4166.02
494.757	4200.82
495.126	4245.79
495.496	4272.01
495.866	4336.86
496.235	4418.9
496.605	4414.83
496.974	4464.09
497.344	4509.74
497.713	4584.99
498.082	4585.67
498.452	4629.29
498.821	4648.72
499.19	4679.91
499.559	4733.92
499.928	4795.16
500.298	4818.66
500.667	4823.18
501.036	4866.79
501.405	4873.12
501.774	4890.52
502.143	4966.9
502.512	5054.81
502.88	5088.93
503.249	5060.69
503.618	5122.61
503.987	5191.98
504.356	5226.33
504.724	5205.09
505.093	5223.85
505.462	5265.65
505.83	5293.45
506.199	5282.38
506.567	5348.14
506.936	5369.15
507.304	5458.42
507.672	5457.96
508.041	5472.65
508.409	5560.79
508.777	5569.15
509.145	5553.33
509.514	5619.77
509.882	5639.43
510.25	5652.76
510.618	5730.73
510.986	5747
511.354	5750.84
511.722	5761.46
512.09	5792.19
512.458	5824.51
512.826	5935.24
513.193	5858.41
513.561	5955.35
513.929	5935.69
514.297	5978.18
514.664	6080.77
515.032	6098.4
515.4	6104.73
515.767	6130.26
516.135	6133.88
516.502	6146.31
516.869	6236.02
517.237	6191.05
517.604	6213.2
517.972	6263.82
518.339	6259.07
518.706	6336.13
519.073	6372.97
519.44	6324.61
519.808	6415.9
520.175	6392.85
520.542	6465.62
520.909	6495.68
521.276	6490.25
521.643	6561.66
522.009	6590.82
522.376	6618.84
522.743	6623.13
523.11	6665.39
523.477	6723.24
523.843	6771.83
524.21	6828.78
524.577	6845.72
524.943	6865.16
525.31	6969.34
525.676	6972.27
526.043	7030.8
526.409	7009.11
526.776	7081.2
527.142	7177.24
527.508	7148.99
527.874	7202.55
528.241	7228.99
528.607	7308.99
528.973	7332.26
529.339	7302.44
529.705	7375.65
530.071	7447.97
530.437	7475.54
530.803	7525.93
531.169	7636.21
531.535	7558.93
531.901	7624.46
532.267	7613.84
532.632	7659.71
532.998	7716.44
533.364	7755.98
533.73	7801.18
534.095	7792.82
534.461	7851.35
534.826	7847.73
535.192	7905.58
535.557	7991.68
535.923	7993.49
536.288	8052.25
536.653	8004.11
537.019	8090.44
537.384	8040.95
537.749	8104.22
538.114	8175.41
538.479	8237.78
538.845	8186.93
539.21	8266.93
539.575	8207.27
539.94	8348.96
540.305	8356.42
540.67	8340.83
541.034	8360.49
541.399	8411.56
541.764	8441.61
542.129	8560.93
542.494	8491.78
542.858	8518.45
543.223	8526.81
543.587	8607.26
543.952	8639.8
544.316	8719.8
544.681	8697.2
545.045	8774.49
545.41	8800.93
545.774	8814.71
546.138	8830.3
546.503	8831.43
546.867	8891.32
547.231	8918.21
547.595	8968.38
547.959	8985.55
548.324	9008.83
548.688	8989.17
549.052	9074.14
549.416	9138.55
549.779	9087.02
550.143	9137.42
550.507	9163.18
550.871	9296.28
551.235	9267.58
551.599	9336.73
551.962	9342.16
552.326	9283.63
552.689	9466.22
553.053	9409.27
553.417	9430.74
553.78	9573.79
554.143	9574.47
554.507	9579.44
554.87	9607.91
555.234	9670.28
555.597	9711.19
555.96	9690.17
556.323	9686.55
556.686	9724.74
557.05	9769.04
557.413	9762.26
557.776	9870.05
558.139	9868.92
558.502	9879.09
558.865	9916.83
559.228	9947.11
559.59	10016.71
559.953	9969.48
560.316	10119.54
560.679	10096.49
561.041	10138.52
561.404	10156.6
561.767	10239.98
562.129	10274.11
562.492	10278.85
562.854	10421.45
563.217	10342.13
563.579	10392.98
563.941	10469.58
564.304	10465.06
564.666	10520.66
565.028	10554.78
565.39	10571.05
565.753	10612.18
566.115	10677.04
566.477	10734.21
566.839	10718.84
567.201	10831.61
567.563	10864.38
567.925	10855.79
568.287	10947.09
568.648	10866.64
569.01	10963.58
569.372	11059.4
569.734	11095.33
570.095	11108.21
570.457	11214.2
570.819	11195.21
571.18	11248.55
571.542	11247.64
571.903	11299.17
572.265	11448.09
572.626	11507.07
572.987	11483.12
573.349	11570.8
573.71	11588.88
574.071	11688.76
574.432	11708.87
574.794	11844.91
575.155	11804.24
575.516	11831.36
575.877	12040.16
576.238	12020.5
576.599	12057.34
576.96	12236.99
577.32	12157.45
577.681	12357.44
578.042	12497.55
578.403	12572.35
578.763	12680.6
579.124	12753.14
579.485	12905.23
579.845	13011.44
580.206	13155.84
580.566	13204.88
580.927	13337.76
581.287	13535.04
581.648	13573.23
582.008	13764.41
582.368	13969.38
582.728	14060.68
583.089	14099.09
583.449	14399.42
583.809	14495.69
584.169	14703.82
584.529	14838.28
584.889	15155.34
585.249	15246.86
585.609	15420.41
585.969	15672.38
586.329	15840.29
586.688	16125.93
587.048	16280.28
587.408	16508.07
587.768	16748.29
588.127	16975.18
588.487	17169.07
588.846	17534.26
589.206	17745.78
589.565	18032.32
589.925	18267.8
590.284	18487
590.643	18799.53
591.003	19109.13
591.362	19384.38
591.721	19599.06
592.08	19896.23
592.44	20126.28
592.799	20574.4
593.158	20746.6
593.517	21077.67
593.876	21313.14
594.235	21645.33
594.593	21828.83
594.952	22283.06
595.311	22569.83
595.67	22876.49
596.029	23269.02
596.387	23539.3
596.746	23883.47
597.104	24044.82
597.463	24424.02
597.822	24777
598.18	24872.82
598.538	25226.48
598.897	25746.24
599.255	25567.27
599.613	26338.09
599.972	26499.67
600.33	26835.03
600.688	26980.79
601.046	27254
601.404	27716.14
601.762	27928.79
602.12	28466.17
602.478	28528.77
602.836	28884.01
603.194	28961.98
603.552	29224.34
603.91	29441.06
604.268	29960.14
604.625	29971.44
604.983	30408.72
605.341	30534.37
605.698	30835.15
606.056	31310.17
606.413	31382.25
606.771	31678.74
607.128	31892.97
607.485	32014.55
607.843	32331.61
608.2	32669.68
608.557	32985.6
608.914	33061.08
609.272	33473.05
609.629	33611.8
609.986	33940.15
610.343	33908.52
610.7	34429.41
611.057	34345.11
611.414	34693.58
611.771	34969.05
612.127	35215.37
612.484	35256.73
612.841	35683.84
613.198	35772.65
613.554	35896.26
613.911	36210.6
614.267	36331.05
614.624	36470.48
614.98	36619.18
615.337	37014.42
615.693	37085.15
616.05	37208.54
616.406	37548.87
616.762	37587.97
617.118	37708.42
617.475	37773.5
617.831	38066.15
618.187	38127.39
618.543	38328.29
618.899	38664.55
619.255	38579.58
619.611	38642.4
619.967	38871.77
620.323	39109.73
620.678	39060.24
621.034	39105.21
621.39	39197.42
621.746	39347.24
622.101	39640.57
622.457	39617.97
622.812	39619.55
623.168	39966.21
623.523	40000.56
623.879	40195.81
624.234	40053.66
624.589	40254.34
624.945	40321.45
625.3	40382.47
625.655	40506.31
626.01	40532.97
626.365	40729.8
626.72	40612.97
627.075	40713.99
627.43	40857.49
627.785	40811.61
628.14	40904.94
628.495	40965.73
628.85	40985.17
629.205	40922.57
629.559	41236.23
629.914	41085.95
630.269	41278.49
630.623	41118.04
630.978	41016.35
631.332	41377.02
631.687	41324.82
632.041	41404.59
632.396	41465.15
632.75	41351.03
633.104	41413.18
633.459	41358.04
633.813	41372.73
634.167	41331.37
634.521	41379.96
634.875	41442.55
635.229	41443.91
635.583	41376.12
635.937	41393.74
636.291	41473.74
636.645	41445.04
636.999	41244.37
637.352	41339.96
637.706	41251.15
638.06	41433.06
638.413	41259.06
638.767	41304.48
639.121	41499.28
639.474	41222
639.828	41276.91
640.181	41361.88
640.534	41428.77
640.888	41172.05
641.241	40986.3
641.594	41230.36
641.947	41271.94
642.301	41245.05
642.654	41183.13
643.007	41452.27
643.36	41348.55
643.713	41170.7
644.066	41340.18
644.419	41070.13
644.771	40803.02
645.124	40346.76
645.477	40356.26
645.83	40192.87
646.182	39941.35
646.535	40079.2
646.888	40168.46
647.24	39996.49
647.593	40159.65
647.945	40149.26
648.298	39913.1
648.65	39924.18
649.002	39893.89
649.355	40087.34
649.707	39950.39
650.059	40218.63
650.411	40558.96
650.763	40556.02
651.115	40882.34
651.467	40835.56
651.819	40927.54
652.171	40994.88
652.523	40638.96
652.875	40786.07
653.227	40565.29
653.578	40803.7
653.93	40798.28
654.282	40545.18
654.633	40473.77
654.985	40573.2
655.337	40662.24
655.688	40743.36
656.039	40670.6
656.391	40470.15
656.742	40508.12
657.094	40638.51
657.445	40553.76
657.796	40292.75
658.147	40399.42
658.498	40467.44
658.849	40533.2
659.2	40267.67
659.551	40296.6
659.902	40474.67
660.253	40516.7
660.604	40574.1
660.955	40465.4
661.306	40433.77
661.656	40403.26
662.007	40586.98
662.358	40402.81
662.708	40452.52
663.059	40438.96
663.409	40203.72
663.76	40479.42
664.11	40665.85
664.461	40517.83
664.811	40589.47
665.161	40358.52
665.511	40382.7
665.862	40484.61
666.212	40539.75
666.562	40483.71
666.912	40553.54
667.262	40372.53
667.612	40351.96
667.962	40491.39
668.312	40358.97
668.662	40406.2
669.011	40393.09
669.361	40389.7
669.711	40321.45
670.06	40411.17
670.41	40188.58
670.76	40130.5
671.109	40241.23
671.459	40207.33
671.808	40108.58
672.157	40118.97
672.507	39878.75
672.856	40028.13
673.205	40018.19
673.554	40196.71
673.904	40143.83
674.253	40157.62
674.602	40046.43
674.951	39603.73
675.3	39371.65
675.649	40092.99
675.998	40025.87
676.346	39952.2
676.695	40059.09
677.044	39775.48
677.393	40086.66
677.741	40041.24
678.09	39907.91
678.438	39855.25
678.787	39983.84
679.135	39847.12
679.484	39466.56
679.832	39761.69
680.181	39447.8
680.529	39611.42
680.877	39472.66
681.225	39505.88
681.573	39727.57
681.922	39381.59
682.27	39287.13
682.618	39262.05
682.966	39120.13
683.314	39264.31
683.661	39215.95
684.009	39122.16
684.357	38936.63
684.705	39019.34
685.053	38984.77
685.4	38916.97
685.748	38697.54
686.095	38717.43
686.443	38514.04
686.79	38487.15
687.138	38660.48
687.485	38639.46
687.832	38538.22
688.18	38474.95
688.527	38252.13
688.874	38209.65
689.221	38104.56
689.568	38190.21
689.915	37924.68
690.262	38068.41
690.609	37897.34
690.956	37690.79
691.303	37720.84
691.65	37715.65
691.997	37576.22
692.344	37376.9
692.69	37549.55
693.037	37450.34
693.383	36984.59
693.73	37302.55
694.077	36974.42
694.423	37037.25
694.769	36933.07
695.116	36862.79
695.462	36816.46
695.808	36607.88
696.155	36703.47
696.501	36404.27
696.847	36467.77
697.193	36301.22
697.539	36449.69
697.885	36030.49
698.231	36004.73
698.577	35986.43
698.923	35883.15
699.269	35747.11
699.614	35536.72
699.96	35594.8
700.306	35593.22
700.651	35277.29
700.997	35335.82
701.342	35215.37
701.688	35140.12
702.033	34992.55
702.379	34986.68
702.724	34840.02
703.069	34959.11
703.415	34532.45
703.76	34575.84
704.105	34681.38
704.45	34563.87
704.795	34415.17
705.14	34192.12
705.485	34306.02
705.83	34047.27
706.175	34158
706.52	34039.13
706.865	34020.6
707.209	33877.78
707.554	33734.51
707.899	33881.17
708.243	33616.55
708.588	33585.36
708.932	33345.37
709.277	33486.61
709.621	33485.7
709.966	33133.39
710.31	33198.03
710.654	33012.72
710.998	33122.1
711.342	33060.4
711.687	32955.55
712.031	32776.12
712.375	32657.25
712.719	32726.4
713.063	32670.36
713.407	32785.38
713.75	32602.11
714.094	32560.98
714.438	32371.38
714.782	32371.83
715.125	32345.62
715.469	32298.84
715.812	32071.73
716.156	31908.57
716.499	32018.62
716.843	32147.88
717.186	31862.69
717.53	32045.06
717.873	31858.63
718.216	31816.14
718.559	31779.76
718.902	31622.7
719.246	31750.15
719.589	31569.37
719.932	31380.67
720.275	31416.83
720.617	31322.37
720.96	31197.85
721.303	31331.41
721.646	31282.14
721.989	31121.7
722.331	31222.26
722.674	31128.25
723.016	31156.72
723.359	30983.85
723.701	31059.78
724.044	30892.55
724.386	30673.12
724.729	30887.35
725.071	30809.16
725.413	30794.47
725.755	30718.99
726.097	30612.78
726.439	30481.26
726.782	30518.32
727.124	30697.53
727.465	30427.25
727.807	30398.78
728.149	30340.47
728.491	30366.69
728.833	30387.25
729.175	30212.34
729.516	30207.14
729.858	30065.68
730.199	30073.81
730.541	30097.77
730.882	29971.22
731.224	30134.38
731.565	29898.45
731.906	29962.63
732.248	30021.84
732.589	29682.86
732.93	29731.22
733.271	29828.4
733.612	29721.28
733.953	29668.63
734.294	29635.63
734.635	29537.78
734.976	29695.52
735.317	29354.28
735.658	29535.3
735.999	29356.32
736.339	29413.94
736.68	29426.15
737.021	29188.64
737.361	29183.89
737.702	29341.63
738.042	29216.66
738.383	29128.98
738.723	29258.69
739.063	29165.14
739.404	29093.73
739.744	29092.82
740.084	28978.93
740.424	28956.33
740.764	28905.71
741.104	28972.6
741.444	28768.54
741.784	28648.77
742.124	28786.39
742.464	28693.96
742.804	28658.26
743.143	28504.59
743.483	28508.21
743.823	28450.13
744.162	28336.01
744.502	28450.13
744.841	28388.21
745.181	28474.99
745.52	28378.27
745.86	28416
746.199	28341.88
746.538	28276.57
746.877	28206.97
747.216	28188.44
747.556	28199.74
747.895	28222.79
748.234	27961.1
748.573	28023.92
748.911	28070.7
749.25	27895.34
749.589	27918.16
749.928	27900.54
750.267	27935.34
750.605	27914.32
750.944	27781.22
751.283	27780.09
751.621	27780.31
751.96	27623.71
752.298	27664.16
752.636	27737.6
752.975	27525.86
753.313	27340.33
753.651	27695.12
753.989	27420.55
754.327	27385.07
754.666	27283.83
755.004	27243.38
755.342	27229.82
755.679	27210.84
756.017	27089.26
756.355	27077.28
756.693	27021.24
757.031	27060.79
757.368	27015.36
757.706	26877.51
758.044	26887.91
758.381	26831.64
758.719	26770.4
759.056	26779.89
759.394	26646.11
759.731	26452.67
760.068	26381.26
760.405	26328.83
760.743	26286.79
761.08	26332.22
761.417	26087.25
761.754	26066.46
762.091	26139.23
762.428	25966.58
762.765	25850.2
763.102	25986.24
763.438	25774.49
763.775	25660.37
764.112	25622.41
764.449	25635.74
764.785	25658.79
765.122	25445.46
765.458	25331.34
765.795	25219.7
766.131	25308.97
766.467	25231.23
766.804	25046.6
767.14	25091.57
767.476	24989.88
767.812	24868.3
768.148	24886.38
768.485	24717.57
768.821	24544.02
769.157	24570.68
769.492	24465.15
769.828	24544.69
770.164	24287.3
770.5	24187.87
770.836	24173.18
771.171	24082.78
771.507	24011.83
771.842	23933.18
772.178	23806.41
772.513	23726.41
772.849	23681.21
773.184	23547.43
773.519	23529.13
773.855	23405.06
774.19	23351.96
774.525	23317.61
774.86	23166.2
775.195	23184.5
775.53	23156.71
775.865	22971.63
776.2	22836.49
776.535	22749.26
776.87	22707.23
777.205	22641.69
777.539	22507.23
777.874	22662.94
778.209	22297.52
778.543	22254.81
778.878	22059.56
779.212	22127.13
779.547	22090.29
779.881	22133.23
780.215	21941.6
780.55	21878.1
780.884	21829.51
781.218	21744.32
781.552	21615.73
781.886	21655.28
782.22	21498.67
782.554	21363.08
782.888	21202.86
783.222	21150.21
783.556	20986.37
783.889	21036.31
784.223	20856.2
784.557	20792.93
784.89	20859.59
785.224	20658.69
785.557	20621.41
785.891	20600.62
786.224	20590.9
786.558	20491.92
786.891	20199.05
787.224	20242.43
787.557	20195.66
787.891	20157.69
788.224	20095.09
788.557	20070.01
788.89	20051.48
789.223	19965.15
789.556	19857.13
789.888	19832.5
790.221	19698.72
790.554	19534.66
790.887	19588.67
791.219	19488.78
791.552	19394.32
791.884	19368.78
792.217	19300.09
792.549	19213.31
792.882	19211.73
793.214	19137.83
793.546	19040.66
793.879	18909.81
794.211	18751.17
794.543	18950.26
794.875	18776.03
795.207	18831.62
795.539	18662.81
795.871	18684.06
796.203	18495.59
796.535	18434.35
796.867	18483.38
797.198	18422.59
797.53	18350.28
797.862	18282.94
798.193	18254.46
798.525	18225.09
798.856	18154.13
799.188	17943.51
799.519	17754.59
799.85	17740.58
800.182	17910.07
800.513	17790.07
800.844	17758.88
801.175	17731.31
801.506	17794.81
801.837	17611.99
802.168	17613.8
802.499	17496.29
802.83	17448.38
803.161	17388.95
803.491	17365.45
803.822	17362.28
804.153	17214.26
804.483	17134.04
804.814	17104.89
805.145	16948.28
805.475	17028.96
805.805	16992.8
806.136	16920.94
806.466	16913.71
806.796	16813.37
807.126	16706.26
807.457	16646.14
807.787	16667.16
808.117	16575.41
808.447	16579.03
808.777	16592.59
809.107	16497.45
809.436	16458.58
809.766	16398.24
810.096	16353.72
810.426	16287.51
810.755	16243.67
811.085	16278.47
811.414	16079.15
811.744	16035.09
812.073	16026.27
812.403	16155.54
812.732	16015.88
813.061	15917.58
813.39	15907.86
813.719	15839.39
814.049	15861.53
814.378	15798.26
814.707	15668.99
815.036	15706.28
815.365	15605.49
815.693	15472.62
816.022	15533.41
816.351	15470.36
816.68	15399.4
817.008	15416.8
817.337	15353.97
817.665	15356.46
817.994	15363.01
818.322	15271.94
818.651	15236.01
818.979	15182.45
819.307	15202.11
819.636	15272.62
819.964	15074.43
820.292	15143.58
820.62	15126.18
820.948	15087.54
821.276	15116.69
821.604	15008.9
821.932	15098.16
822.259	15036.47
822.587	15056.81
822.915	15017.49
823.243	15141.33
823.57	15064.26
823.898	14993.76
824.225	15011.84
824.553	14906.75
824.88	15005.51
825.207	14956.7
825.535	14951.05
825.862	14975
826.189	14952.86
826.516	14985.85
826.843	14910.6
827.17	14986.07
827.497	15049.12
827.824	14958.05
828.151	15024.94
828.478	14931.16
828.805	14970.93
829.131	14914.89
829.458	14885.06
829.785	14751.05
830.111	14894.55
830.438	14955.79
830.764	14936.58
831.09	14939.75
831.417	14835.34
831.743	14981.33
832.069	14855.91
832.395	14806.64
832.722	14836.93
833.048	14772.52
833.374	14877.38
833.7	14720.77
834.026	14802.35
834.351	14784.72
834.677	14799.41
835.003	14831.95
835.329	14780.88
835.654	14718.51
835.98	14673.09
836.306	14726.42
836.631	14530.04
836.956	14586.76
837.282	14643.49
837.607	14537.95
837.932	14581.79
838.258	14561.68
838.583	14522.13
838.908	14446.88
839.233	14552.87
839.558	14377.96
839.883	14396.94
840.208	14343.61
840.533	14319.65
840.858	14416.15
841.182	14333.89
841.507	14295.47
841.832	14202.82
842.156	14212.54
842.481	14238.3
842.805	14129.15
843.13	14156.94
843.454	14119.43
843.778	14122.37
844.103	13946.1
844.427	13955.82
844.751	14040.34
845.075	13998.53
845.399	13879.21
845.723	13815.03
846.047	13841.92
846.371	13733.45
846.695	13663.62
847.019	13511.54
847.343	13605.32
847.666	13479.22
847.99	13418.43
848.313	13349.28
848.637	13368.72
848.96	13325.55
849.284	13222.28
849.607	13143.64
849.931	13173.24
850.254	13018.22
850.577	12989.29
850.9	12895.73
851.223	12894.15
851.546	12864.55
851.869	12772.12
852.192	12854.61
852.515	12643.76
852.838	12712.91
853.161	12690.32
853.483	12566.93
853.806	12537.78
854.129	12504.33
854.451	12451.23
854.774	12352.02
855.096	12393.15
855.419	12323.77
855.741	12219.37
856.063	12160.61
856.385	12181.18
856.708	12110.67
857.03	12176.21
857.352	12160.16
857.674	12132.14
857.996	11983.22
858.318	11976.21
858.64	11984.57
858.961	11927.4
859.283	11889.89
859.605	11799.04
859.926	11872.03
860.248	11833.39
860.57	11700.29
860.891	11735.76
861.212	11687.86
861.534	11701.64
861.855	11579.16
862.176	11617.58
862.498	11622.1
862.819	11535.09
863.14	11546.84
863.461	11531.93
863.782	11484.47
864.103	11451.03
864.424	11418.03
864.745	11448.77
865.065	11445.83
865.386	11332.84
865.707	11261.65
866.027	11378.26
866.348	11237.92
866.668	11323.57
866.989	11240.86
867.309	11305.27
867.63	11235.44
867.95	11182.11
868.27	11134.88
868.59	11183.69
868.91	11196.12
869.23	11089.45
869.55	11148.44
869.87	11064.6
870.19	11094.88
870.51	11105.72
870.83	11023.69
871.15	11063.92
871.469	11025.5
871.789	10995.22
872.109	10967.88
872.428	10971.94
872.748	10932.85
873.067	10968.78
873.386	10918.84
873.706	10971.27
874.025	10844.26
874.344	10830.25
874.663	10856.47
874.982	10795.9
875.301	10764.72
875.62	10758.16
875.939	10778.73
876.258	10766.75
876.577	10673.42
876.896	10739.41
877.214	10656.7
877.533	10708.45
877.852	10571.05
878.17	10689.92
878.489	10619.41
878.807	10631.84
879.125	10606.76
879.444	10586.42
879.762	10471.84
880.08	10545.06
880.398	10553.42
880.716	10482.69
881.034	10516.81
881.352	10478.17
881.67	10439.3
881.988	10442.92
882.306	10364.73
882.624	10321.56
882.941	10371.51
883.259	10317.95
883.577	10312.07
883.894	10268.01
884.212	10261.91
884.529	10291.74
884.846	10235.24
885.164	10162.92
885.481	10178.07
885.798	10136.26
886.115	10117.95
886.432	10060.55
886.75	10081.35
887.067	10056.71
887.383	10038.41
887.7	9978.75
888.017	9944.17
888.334	9958.64
888.651	9905.98
888.967	9935.59
889.284	9869.83
889.6	9870.5
889.917	9811.97
890.233	9733.56
890.55	9677.29
890.866	9732.43
891.182	9646.55
891.498	9660.57
891.815	9641.81
892.131	9584.63
892.447	9578.53
892.763	9535.37
893.079	9580.79
893.395	9496.95
893.71	9495.37
894.026	9476.84
894.342	9432.77
894.657	9411.53
894.973	9308.94
895.289	9287.92
895.604	9262.38
895.92	9270.07
896.235	9207.02
896.55	9214.7
896.865	9199.79
897.181	9142.39
897.496	9125.21
897.811	9153.46
898.126	8996.85
898.441	8962.73
898.756	8958.44
899.071	8931.54
899.386	8950.3
899.7	8910.53
900.015	8840.47
900.33	8808.84
900.644	8756.86
900.959	8733.13
901.273	8739.46
901.588	8638.9
901.902	8609.52
902.216	8664.21
902.531	8597.54
902.845	8560.93
903.159	8471.9
903.473	8459.47
903.787	8490.2
904.101	8412.69
904.415	8489.97
904.729	8413.82
905.042	8317.78
905.356	8343.31
905.67	8284.56
905.984	8253.82
906.297	8233.03
906.611	8196.2
906.924	8213.15
907.237	8114.84
907.551	8130.66
907.864	8032.81
908.177	8025.58
908.491	8061.51
908.804	8081.62
909.117	7972.7
909.43	7920.72
909.743	7864.23
910.056	7858.35
910.368	7768.41
910.681	7814.51
910.994	7809.31
911.307	7751.69
911.619	7715.76
911.932	7680.96
912.244	7637.34
912.557	7627.17
912.869	7572.26
913.181	7511.02
913.494	7471.02
913.806	7492.49
914.118	7443
914.43	7377.24
914.742	7391.25
915.054	7344.47
915.366	7310.34
915.678	7286.84
915.99	7270.12
916.302	7223.79
916.613	7114.19
916.925	7175.66
917.236	7121.87
917.548	7092.05
917.859	7148.77
918.171	7074.87
918.482	7058.37
918.794	7010.24
919.105	7004.36
919.416	6917.13
919.727	6870.81
920.038	6887.53
920.349	6846.4
920.66	6802.11
920.971	6793.97
921.282	6779.51
921.593	6664.94
921.903	6681.21
922.214	6683.02
922.525	6690.7
922.835	6642.11
923.146	6565.28
923.456	6546.52
923.767	6615.22
924.077	6520.99
924.387	6449.35
924.697	6449.12
925.008	6372.52
925.318	6360.99
925.628	6466.75
925.938	6322.8
926.248	6297.72
926.558	6255.23
926.867	6321.67
927.177	6272.41
927.487	6185.4
927.796	6203.48
928.106	6142.01
928.416	6150.83
928.725	6124.16
929.034	6115.57
929.344	6101.79
929.653	6009.36
929.962	6003.94
930.271	5995.12
930.581	5938.86
930.89	5921
931.199	5881.68
931.508	5857.05
931.817	5834.9
932.125	5886.88
932.434	5804.85
932.743	5755.13
933.051	5748.8
933.36	5758.29
933.669	5706.09
933.977	5660.22
934.286	5679.88
934.594	5656.83
934.902	5558.3
935.21	5552.88
935.519	5541.13
935.827	5517.62
936.135	5490.05
936.443	5461.35
936.751	5466.33
937.059	5454.12
937.367	5395.82
937.674	5438.08
937.982	5352.88
938.29	5335.71
938.597	5304.75
938.905	5275.37
939.213	5315.59
939.52	5232.89
939.827	5248.25
940.135	5198.76
940.442	5200.34
940.749	5136.39
941.056	5152.44
941.363	5103.4
941.67	5126.22
941.977	5016.62
942.284	5041.03
942.591	4981.82
942.898	4969.62
943.205	4961.71
943.511	4995.6
943.818	4944.08
944.125	4928.49
944.431	4911.09
944.738	4904.08
945.044	4900.01
945.35	4886.91
945.657	4796.74
945.963	4795.38
946.269	4731.88
946.575	4773.46
946.881	4776.85
947.187	4730.98
947.493	4680.13
947.799	4697.76
948.105	4651.66
948.41	4633.13
948.716	4647.14
949.022	4570.08
949.327	4569.85
949.633	4489.18
949.938	4571.21
950.244	4506.58
950.549	4530.08
950.854	4484.43
951.16	4428.16
951.465	4424.77
951.77	4398.33
952.075	4368.73
952.38	4358.78
952.685	4378.22
952.99	4331.44
953.294	4309.07
953.599	4291.21
953.904	4283.53
954.209	4235.4
954.513	4285.34
954.818	4227.26
955.122	4237.43
955.426	4204.44
955.731	4176.19
956.035	4120.37
956.339	4111.11
956.643	4115.63
956.948	4119.92
957.252	4084.44
957.556	4042.18
957.86	4090.77
958.163	4021.84
958.467	4048.28
958.771	4001.73
959.075	3966.25
959.378	3970.09
959.682	3944.78
959.985	3964.44
960.289	3879.25
960.592	3861.85
960.896	3857.78
961.199	3895.75
961.502	3867.95
961.805	3857.55
962.108	3830.66
962.411	3807.61
962.714	3775.52
963.017	3747.73
963.32	3778.69
963.623	3733.49
963.926	3747.95
964.228	3718.8
964.531	3677.22
964.833	3692.13
965.136	3672.7
965.438	3649.42
965.741	3631.35
966.043	3600.61
966.345	3569.43
966.648	3554.96
966.95	3531.01
967.252	3536.66
967.554	3504.79
967.856	3519.94
968.158	3470.22
968.46	3498.24
968.761	3480.84
969.063	3468.41
969.365	3452.59
969.666	3428.19
969.968	3378.24
970.269	3390.9
970.571	3370.34
970.872	3347.28
971.174	3345.93
971.475	3342.77
971.776	3330.34
972.077	3263.67
972.378	3278.59
972.679	3306.16
972.98	3242.65
973.281	3236.33
973.582	3225.93
973.883	3171.92
974.183	3185.71
974.484	3171.47
974.785	3180.28
975.085	3180.96
975.386	3150.23
975.686	3105.26
975.986	3151.36
976.287	3107.74
976.587	3085.14
976.887	3086.95
977.187	3075.43
977.487	3080.17
977.787	3000.63
978.087	3022.1
978.387	3013.73
978.687	3007.18
978.987	2955.2
979.286	2960.4
979.586	2975.77
979.885	2973.96
980.185	2874.53
980.484	2912.95
980.784	2883.34
981.083	2872.27
981.382	2864.59
981.682	2923.34
981.981	2845.83
982.28	2869.78
982.579	2802.67
982.878	2827.75
983.177	2824.36
983.475	2774.19
983.774	2793.18
984.073	2771.25
984.372	2745.49
984.67	2771.71
984.969	2722.44
985.267	2736.68
985.566	2714.76
985.864	2714.76
986.162	2708.66
986.461	2658.49
986.759	2665.49
987.057	2652.39
987.355	2639.05
987.653	2608.1
987.951	2608.55
988.249	2568.1
988.547	2603.35
988.844	2577.14
989.142	2580.98
989.44	2551.15
989.737	2542.79
990.035	2522.22
990.332	2524.26
990.63	2544.14
990.927	2523.35
991.224	2503.01
991.521	2469.34
991.819	2447.42
992.116	2460.3
992.413	2412.39
992.71	2446.74
993.006	2405.84
993.303	2373.07
993.6	2413.07
993.897	2397.93
994.193	2400.19
994.49	2396.12
994.787	2352.28
995.083	2312.28
995.379	2340.31
995.676	2298.27
995.972	2339.85
996.268	2284.04
996.565	2286.75
996.861	2266.64
997.157	2250.14
997.453	2232.29
997.749	2255.11
998.044	2209.69
998.34	2240.2
998.636	2196.13
998.932	2180.54
999.227	2190.25
999.523	2190.71
999.818	2170.59
1000.114	2124.27
1000.409	2104.38
1000.704	2118.16
1001	2120.65
1001.295	2077.94
1001.59	2075
1001.885	2095.79
1002.18	2043.36
1002.475	2047.21
1002.77	2040.2
1003.065	2004.5
1003.359	1999.3
1003.654	2031.39
1003.949	2016.7
1004.243	1995
1004.538	1981.9
1004.832	1968.79
1005.127	1970.6
1005.421	1924.5
1005.715	1918.17
1006.009	1936.02
1006.304	1922.01
1006.598	1895.35
1006.892	1891.28
1007.186	1875.01
1007.48	1855.57
1007.773	1884.72
1008.067	1863.03
1008.361	1829.36
1008.655	1820.09
1008.948	1813.77
1009.242	1812.64
1009.535	1814.9
1009.829	1805.4
1010.122	1797.5
1010.415	1792.3
1010.708	1775.35
1011.001	1732.86
1011.295	1744.39
1011.588	1731.73
1011.881	1712.3
1012.173	1732.19
1012.466	1728.34
1012.759	1724.28
1013.052	1679.98
1013.344	1654
1013.637	1652.64
1013.93	1638.63
1014.222	1632.08
1014.514	1639.76
1014.807	1625.97
1015.099	1616.93
1015.391	1597.5
1015.683	1601.12
1015.976	1575.58
1016.268	1585.07
1016.56	1572.42
1016.851	1570.83
1017.143	1557.95
1017.435	1525.19
1017.727	1528.8
1018.018	1532.19
1018.31	1510.05
1018.602	1518.86
1018.893	1511.4
1019.185	1476.15
1019.476	1482.48
1019.767	1464.4
1020.058	1452.19
1020.35	1421.01
1020.641	1413.78
1020.932	1412.42
1021.223	1422.14
1021.514	1417.39
1021.804	1398.86
1022.095	1393.21
1022.386	1374.91
1022.677	1332.87
1022.967	1387.56
1023.258	1353.66
1023.548	1367.9
1023.839	1325.19
1024.129	1334.46
1024.419	1336.72
1024.709	1305.76
1025	1312.76
1025.29	1298.75
1025.58	1279.77
1025.87	1279.09
1026.16	1272.09
1026.449	1266.21
1026.739	1262.59
1027.029	1251.75
1027.319	1235.93
1027.608	1216.27
1027.898	1230.05
1028.187	1219.21
1028.477	1218.75
1028.766	1228.7
1029.055	1172.65
1029.344	1190.05
1029.634	1198.87
1029.923	1158.87
1030.212	1164.97
1030.501	1147.12
1030.79	1125.2
1031.078	1126.55
1031.367	1132.88
1031.656	1105.76
1031.945	1138.53
1032.233	1114.12
1032.522	1095.82
1032.81	1075.93
1033.099	1098.76
1033.387	1065.54
1033.675	1098.53
1033.963	1062.15
1034.251	1058.76
1034.54	1048.81
1034.828	1017.85
1035.116	1021.24
1035.403	1014.46
1035.691	1042.26
1035.979	1013.56
1036.267	1009.72
1036.554	1006.1
1036.842	1010.17
1037.129	973.11
1037.417	991.87
1037.704	988.48
1037.992	983.28
1038.279	941.02
1038.566	956.84
1038.853	956.84
1039.14	956.84
