Data from hue_00_FLMS001491_39.txt Node
Date: Mon Feb 06 15:29:38 GMT 2017
User: dcchb
Spectrometer: FLMS00149
Trigger mode: 0
Integration Time (sec): 2.000000E-2
Scans to average: 10
Electric dark correction enabled: true
Nonlinearity correction enabled: false
Boxcar width: 0
XAxis mode: Wavelengths
Number of Pixels in Spectrum: 2048
>>>>>Begin Spectral Data<<<<<
341.393	-11.82
341.776	-11.82
342.16	-11.82
342.543	-61.99
342.927	-86.62
343.31	-88.66
343.693	-65.15
344.077	-58.6
344.46	-61.54
344.843	-50.24
345.226	-49.33
345.61	-29.9
345.993	-18.15
346.376	-21.54
346.759	20.04
347.142	34.96
347.525	48.29
347.908	52.58
348.291	77.44
348.674	98.68
349.057	111.11
349.44	138
349.823	154.73
350.206	147.72
350.588	218
350.971	194.27
351.354	228.17
351.737	208.51
352.119	222.75
352.502	254.84
352.884	272.46
353.267	274.72
353.65	292.13
354.032	290.09
354.414	312.24
354.797	296.19
355.179	336.87
355.562	312.92
355.944	342.29
356.326	328.51
356.709	338.9
357.091	341.39
357.473	328.73
357.855	335.74
358.238	334.84
358.62	360.6
359.002	323.54
359.384	348.62
359.766	344.78
360.148	336.19
360.53	335.74
360.912	323.08
361.294	320.6
361.676	323.08
362.057	321.95
362.439	321.28
362.821	333.93
363.203	327.6
363.584	329.19
363.966	330.54
364.348	307.27
364.729	330.99
365.111	313.82
365.493	311.33
365.874	327.38
366.256	306.36
366.637	297.55
367.019	308.85
367.4	295.51
367.781	313.37
368.163	317.66
368.544	324.89
368.925	325.12
369.306	312.24
369.688	305.23
370.069	305.91
370.45	292.13
370.831	307.04
371.212	315.85
371.593	299.36
371.974	316.98
372.355	306.14
372.736	296.87
373.117	293.26
373.498	308.17
373.879	314.5
374.26	306.36
374.641	312.01
375.021	310.2
375.402	323.08
375.783	307.72
376.163	311.79
376.544	314.72
376.925	309.07
377.305	314.5
377.686	310.43
378.066	317.89
378.447	338.68
378.827	326.02
379.208	327.15
379.588	303.2
379.968	324.44
380.349	336.64
380.729	339.13
381.109	329.64
381.489	303.88
381.87	332.8
382.25	318.57
382.63	339.36
383.01	345.01
383.39	333.71
383.77	323.99
384.15	345.91
384.53	315.18
384.91	335.06
385.29	349.75
385.67	336.64
386.049	339.58
386.429	348.17
386.809	346.36
387.189	345.01
387.568	340.03
387.948	359.92
388.328	340.94
388.707	362.86
389.087	343.2
389.466	350.43
389.846	374.83
390.225	367.83
390.605	339.13
390.984	369.86
391.363	352.01
391.743	384.78
392.122	330.77
392.501	353.82
392.881	370.99
393.26	355.85
393.639	332.8
394.018	356.3
394.397	346.59
394.776	367.15
395.155	370.77
395.534	379.58
395.913	355.17
396.292	380.48
396.671	366.47
397.05	366.25
397.429	374.61
397.808	361.05
398.186	385.68
398.565	383.87
398.944	383.2
399.323	392.69
399.701	389.98
400.08	392.24
400.458	405.12
400.837	401.73
401.215	387.49
401.594	390.65
401.972	381.61
402.351	393.82
402.729	378.9
403.107	398.11
403.486	380.48
403.864	389.52
404.242	403.76
404.62	398.79
404.999	413.48
405.377	404.66
405.755	414.38
406.133	438.34
406.511	397.21
406.889	425
407.267	400.82
407.645	399.69
408.023	412.8
408.401	408.51
408.779	421.84
409.156	446.02
409.534	429.97
409.912	417.55
410.29	425
410.667	444.66
411.045	445.12
411.422	444.44
411.8	462.97
412.178	460.71
412.555	445.79
412.933	460.71
413.31	457.32
413.687	456.41
414.065	467.94
414.442	466.36
414.819	470.2
415.197	460.26
415.574	483.98
415.951	476.08
416.328	471.78
416.705	488.5
417.082	491.22
417.46	480.14
417.837	487.83
418.214	504.1
418.591	504.1
418.967	509.97
419.344	513.36
419.721	504.32
420.098	507.26
420.475	494.15
420.852	513.36
421.228	516.53
421.605	516.75
421.982	497.77
422.358	529.18
422.735	517.43
423.111	521.72
423.488	518.79
423.864	523.76
424.241	545
424.617	545.68
424.994	559.46
425.37	547.94
425.746	549.75
426.123	580.93
426.499	552.91
426.875	582.51
427.251	558.11
427.627	538.45
428.003	569.18
428.379	576.19
428.756	580.48
429.132	596.98
429.507	580.48
429.883	596.98
430.259	599.91
430.635	611.89
431.011	609.4
431.387	626.35
431.763	628.61
432.138	628.16
432.514	631.55
432.89	634.26
433.265	656.18
433.641	655.51
434.016	652.12
434.392	650.99
434.767	695.05
435.143	665.9
435.518	666.35
435.894	671.55
436.269	713.81
436.644	676.97
437.02	675.17
437.395	685.79
437.77	693.47
438.145	681.72
438.52	716.07
438.895	708.39
439.271	712.45
439.646	731.89
440.021	714.03
440.395	722.4
440.77	708.84
441.145	735.05
441.52	752
441.895	725.33
442.27	738.67
442.645	752.23
443.019	733.24
443.394	744.99
443.769	753.36
444.143	768.72
444.518	766.91
444.892	777.08
445.267	756.07
445.641	784.54
446.016	782.51
446.39	768.95
446.764	772.79
447.139	786.35
447.513	807.59
447.887	797.2
448.262	813.24
448.636	820.25
449.01	811.66
449.384	829.06
449.758	818.21
450.132	825.9
450.506	824.77
450.88	849.4
451.254	863.86
451.628	824.31
452.002	848.95
452.376	865.22
452.75	856.63
453.123	857.99
453.497	882.17
453.871	862.73
454.244	874.48
454.618	887.36
454.992	913.35
455.365	921.26
455.739	921.26
456.112	912.45
456.486	932.56
456.859	945.89
457.232	950.41
457.606	951.77
457.979	957.87
458.352	982.73
458.725	993.58
459.099	967.59
459.472	1026.8
459.845	1003.74
460.218	1000.58
460.591	990.64
460.964	1027.02
461.337	1058.88
461.71	1046.46
462.083	1068.6
462.456	1072.67
462.829	1079.45
463.201	1069.73
463.574	1089.39
463.947	1129.39
464.32	1119.9
464.692	1157.87
465.065	1149.5
465.438	1167.81
465.81	1149.5
466.183	1196.06
466.555	1176.62
466.928	1207.36
467.3	1225.89
467.672	1243.51
468.045	1254.81
468.417	1230.18
468.789	1249.61
469.161	1292.78
469.534	1293.45
469.906	1321.7
470.278	1345.43
470.65	1346.56
471.022	1370.74
471.394	1384.98
471.766	1401.02
472.138	1416.16
472.51	1449.83
472.882	1465.43
473.253	1502.94
473.625	1504.07
473.997	1513.34
474.369	1548.36
474.74	1531.41
475.112	1560.57
475.484	1597.18
475.855	1625.2
476.227	1668.59
476.598	1705.87
476.97	1708.13
477.341	1757.17
477.713	1739.54
478.084	1792.2
478.455	1821.58
478.827	1873.1
479.198	1910.16
479.569	1943.61
479.94	1974.79
480.311	1989.71
480.682	2029.93
481.053	2058.41
481.424	2110.61
481.795	2130.04
482.166	2163.04
482.537	2198.06
482.908	2254.56
483.279	2253.66
483.65	2290.04
484.021	2382.01
484.391	2406.19
484.762	2434.89
485.133	2433.99
485.503	2475.34
485.874	2551.95
486.244	2552.18
486.615	2655
486.985	2662.23
487.356	2717.6
487.726	2752.85
488.097	2812.51
488.467	2823.81
488.837	2856.8
489.207	2927.76
489.578	2942
489.948	2989
490.318	3022
490.688	3039.62
491.058	3094.76
491.428	3144.03
491.798	3169.34
492.168	3246.85
492.538	3253.86
492.908	3301.76
493.278	3323.23
493.648	3337.69
494.017	3383.34
494.387	3399.39
494.757	3445.04
495.126	3479.61
495.496	3498.14
495.866	3476.67
496.235	3610
496.605	3608.87
496.974	3637.8
497.344	3705.14
497.713	3665.6
498.082	3722.54
498.452	3727.51
498.821	3767.51
499.19	3819.04
499.559	3807.74
499.928	3837.57
500.298	3861.75
500.667	3898.13
501.036	3896.78
501.405	3901.3
501.774	3958.02
502.143	3961.63
502.512	3997.34
502.88	3991.91
503.249	4016.09
503.618	4024
503.987	4086.6
504.356	4142.87
504.724	4155.75
505.093	4155.98
505.462	4184
505.83	4165.92
506.199	4198.01
506.567	4238.24
506.936	4259.48
507.304	4326.37
507.672	4268.97
508.041	4277.33
508.409	4315.97
508.777	4366.82
509.145	4331.11
509.514	4385.12
509.882	4402.75
510.25	4447.95
510.618	4489.08
510.986	4455.86
511.354	4495.4
511.722	4502.41
512.09	4509.42
512.458	4517.1
512.826	4542.86
513.193	4533.37
513.561	4586.48
513.929	4588.96
514.297	4665.57
514.664	4623.08
515.032	4668.73
515.4	4690.43
515.767	4708.05
516.135	4710.99
516.502	4728.84
516.869	4782.4
517.237	4726.58
517.604	4771.33
517.972	4778.79
518.339	4772.46
518.706	4817.43
519.073	4857.43
519.44	4818.33
519.808	4900.82
520.175	4887.26
520.542	4942.62
520.909	4931.55
521.276	4970.19
521.643	4966.8
522.009	5029.4
522.376	4972.68
522.743	5030.31
523.11	5047.71
523.477	5077.31
523.843	5100.81
524.21	5073.92
524.577	5153.69
524.943	5178.32
525.31	5187.82
525.676	5288.83
526.043	5275.27
526.409	5318.43
526.776	5324.54
527.142	5352.11
527.508	5349.17
527.874	5369.51
528.241	5438.88
528.607	5404.99
528.973	5504.42
529.339	5539.44
529.705	5521.37
530.071	5530.86
530.437	5576.51
530.803	5639.78
531.169	5647.92
531.535	5671.42
531.901	5640.91
532.267	5691.53
532.632	5729.04
532.998	5708.03
533.364	5755.26
533.73	5799.55
534.095	5830.96
534.461	5780.12
534.826	5838.42
535.192	5896.27
535.557	5864.18
535.923	5932.2
536.288	5975.82
536.653	6015.82
537.019	5985.99
537.384	6056.04
537.749	6052.88
538.114	6080.45
538.479	6040.9
538.845	6132.65
539.21	6070.28
539.575	6124.97
539.94	6144.17
540.305	6223.27
540.67	6192.99
541.034	6237.28
541.399	6228.47
541.764	6321.12
542.129	6349.59
542.494	6406.99
542.858	6370.84
543.223	6359.31
543.587	6451.29
543.952	6491.28
544.316	6444.51
544.681	6501.68
545.045	6537.61
545.41	6525.18
545.774	6593.65
546.138	6577.38
546.503	6670.26
546.867	6616.03
547.231	6678.4
547.595	6744.16
547.959	6743.03
548.324	6758.4
548.688	6766.98
549.052	6804.27
549.416	6789.13
549.779	6803.14
550.143	6865.96
550.507	6837.72
550.871	6934.89
551.235	6925.62
551.599	6932.18
551.962	6950.93
552.326	6985.73
552.689	7009.24
553.053	7063.92
553.417	7023.7
553.78	7057.6
554.143	7115.67
554.507	7160.87
554.87	7152.06
555.234	7206.29
555.597	7200.87
555.96	7170.81
556.323	7249.46
556.686	7240.19
557.05	7341.43
557.413	7294.65
557.776	7368.78
558.139	7340.98
558.502	7390.24
558.865	7395.67
559.228	7461.43
559.59	7488.09
559.953	7463.91
560.316	7474.08
560.679	7559.73
561.041	7569
561.404	7552.27
561.767	7609.22
562.129	7646.51
562.492	7695.77
562.854	7706.39
563.217	7692.16
563.579	7777.58
563.941	7891.02
564.304	7826.39
564.666	7843.34
565.028	7858.93
565.39	7896.22
565.753	7874.75
566.115	7881.3
566.477	7964.24
566.839	8034.29
567.201	8009.89
567.563	7973.28
567.925	8097.8
568.287	8190
568.648	8156.78
569.01	8159.49
569.372	8139.38
569.734	8204.23
570.095	8295.08
570.457	8313.16
570.819	8335.08
571.18	8369.43
571.542	8377.56
571.903	8434.74
572.265	8502.3
572.626	8554.96
572.987	8589.08
573.349	8602.42
573.71	8671.11
574.071	8696.42
574.432	8798.57
574.794	8889.64
575.155	8896.19
575.516	8959.69
575.877	9051.67
576.238	9065.68
576.599	9131.44
576.96	9235.62
577.32	9220.93
577.681	9356.52
578.042	9479.91
578.403	9448.95
578.763	9650.07
579.124	9677.64
579.485	9749.5
579.845	9914.02
580.206	9945.88
580.566	10152.2
580.927	10210.06
581.287	10369.15
581.648	10518.52
582.008	10689.59
582.368	10771.17
582.728	10875.8
583.089	11023.82
583.449	11220.2
583.809	11337.71
584.169	11611.38
584.529	11730.69
584.889	12007.3
585.249	12191.93
585.609	12378.81
585.969	12662.42
586.329	12743.32
586.688	12982.41
587.048	13226.93
587.408	13456.3
587.768	13609.52
588.127	13866.46
588.487	14049.28
588.846	14442.04
589.206	14588.25
589.565	14869.37
589.925	15196.82
590.284	15353.42
590.643	15705.05
591.003	15967.19
591.362	16327.41
591.721	16549.1
592.08	16851.01
592.44	17111.12
592.799	17400.38
593.158	17730.76
593.517	18019.79
593.876	18340.46
594.235	18552.21
594.593	18837.17
594.952	19214.79
595.311	19538.62
595.67	19787.66
596.029	20234.43
596.387	20687.75
596.746	20930.9
597.104	21113.5
597.463	21395.75
597.822	21759.36
598.18	22010.2
598.538	22327.93
598.897	22776.05
599.255	22835.49
599.613	23488.8
599.972	23672.75
600.33	24026.87
600.688	24220.99
601.046	24480.87
601.404	24923.79
601.762	25114.75
602.12	25610.78
602.478	25863.43
602.836	26026.59
603.194	26277.43
603.552	26511.32
603.91	26809.62
604.268	27136.17
604.625	27350.85
604.983	27752.87
605.341	27934.79
605.698	28253.2
606.056	28537.03
606.413	28666.07
606.771	29157.35
607.128	29327.52
607.485	29407.29
607.843	29724.35
608.2	30112.13
608.557	30370.2
608.914	30483.2
609.272	30779.91
609.629	31106.68
609.986	31449.5
610.343	31477.07
610.7	31855.14
611.057	32056.94
611.414	32208.57
611.771	32354.11
612.127	32755.68
612.484	32909.57
612.841	33119.96
613.198	33246.96
613.554	33575.77
613.911	33804.24
614.267	33963.33
614.624	34100.05
614.98	34229.09
615.337	34480.38
615.693	34660.94
616.05	34731.67
616.406	34960.14
616.762	35027.26
617.118	35174.82
617.475	35382.73
617.831	35631.53
618.187	35714.47
618.543	35873.34
618.899	36361.46
619.255	36354.45
619.611	36484.39
619.967	36578.85
620.323	36860.88
620.678	36663.15
621.034	36933.65
621.39	36966.19
621.746	37004.15
622.101	37567.76
622.457	37339.06
622.812	37590.35
623.168	37659.5
623.523	37676.68
623.879	37852.04
624.234	37835.54
624.589	37916.45
624.945	38114.41
625.3	38108.31
625.655	38281.41
626.01	38427.39
626.365	38529.31
626.72	38435.08
627.075	38544.9
627.43	38512.36
627.785	38570.21
628.14	38700.61
628.495	38816.76
628.85	38762.75
629.205	38805.69
629.559	38917.1
629.914	38760.04
630.269	38950.32
630.623	38963.42
630.978	38976.98
631.332	39182.18
631.687	39304.66
632.041	39065.79
632.396	39276.86
632.75	39067.6
633.104	39209.52
633.459	39196.86
633.813	39133.14
634.167	39180.14
634.521	39386.46
634.875	39269.86
635.229	39294.04
635.583	39096.3
635.937	39323.87
636.291	39258.33
636.645	39266.24
636.999	39090.65
637.352	39353.92
637.706	39120.71
638.06	39433.47
638.413	39266.47
638.767	39211.1
639.121	39319.12
639.474	39085.46
639.828	39080.71
640.181	39235.28
640.534	39183.31
640.888	39159.58
641.241	38986.93
641.594	39174.94
641.947	39287.48
642.301	39167.04
642.654	39298.56
643.007	39209.75
643.36	39244.1
643.713	39111.9
644.066	39237.32
644.419	39001.39
644.771	38745.13
645.124	38311.01
645.477	38379.49
645.83	38242.77
646.182	38163.67
646.535	38008.42
646.888	38107.4
647.24	37873.06
647.593	38100.4
647.945	38073.73
648.298	37810.23
648.65	37850.91
649.002	37738.82
649.355	37820.18
649.707	38003.9
650.059	38007.29
650.411	38408.19
650.763	38445.47
651.115	38874.16
651.467	38740.15
651.819	38772.24
652.171	38772.7
652.523	38708.29
652.875	38663.09
653.227	38451.8
653.578	38823.54
653.93	38720.72
654.282	38557.56
654.633	38402.76
654.985	38386.72
655.337	38613.38
655.688	38592.13
656.039	38567.5
656.391	38355.08
656.742	38557.56
657.094	38466.26
657.445	38595.75
657.796	38379.03
658.147	38482.99
658.498	38519.14
658.849	38482.08
659.2	38279.37
659.551	38445.47
659.902	38544.68
660.253	38373.84
660.604	38491.8
660.955	38343.78
661.306	38450.9
661.656	38364.34
662.007	38444.12
662.358	38394.4
662.708	38303.1
663.059	38325.93
663.409	38001.64
663.76	38375.42
664.11	38257.23
664.461	38349.88
664.811	38379.49
665.161	38252.26
665.511	38182.43
665.862	38372.25
666.212	38361.18
666.562	38280.96
666.912	38239.6
667.262	38221.75
667.612	38136.55
667.962	38223.56
668.312	38233.27
668.662	38356.21
669.011	38239.15
669.361	38104.24
669.711	38057.23
670.06	38200.96
670.41	38088.19
670.76	38109.44
671.109	38241.64
671.459	38283.22
671.808	38073.96
672.157	38199.38
672.507	37778.37
672.856	38053.17
673.205	38076.89
673.554	38175.2
673.904	37962.77
674.253	38167.97
674.602	37888.88
674.951	37393.07
675.3	37201.89
675.649	37782.21
675.998	37804.81
676.346	37849.78
676.695	37967.97
677.044	37700.41
677.393	37749.22
677.741	37810.23
678.09	37840.52
678.438	37658.83
678.787	37723.68
679.135	37655.66
679.484	37572.95
679.832	37605.95
680.181	37425.39
680.529	37600.75
680.877	37391.94
681.225	37429
681.573	37593.97
681.922	37320.76
682.27	37173.42
682.618	37434.2
682.966	37091.61
683.314	37215.67
683.661	37140.2
684.009	37016.13
684.357	36983.36
684.705	36959.86
685.053	36936.13
685.4	36824.27
685.748	36728.46
686.095	36718.06
686.443	36609.81
686.79	36611.4
687.138	36567.56
687.485	36589.02
687.832	36419.08
688.18	36516.71
688.527	36149.71
688.874	36229.94
689.221	36183.84
689.568	36105.42
689.915	35911.98
690.262	35994.24
690.609	35988.14
690.956	35765.09
691.303	35536.85
691.65	35668.6
691.997	35611.2
692.344	35429.05
692.69	35366.23
693.037	35335.95
693.383	35094.6
693.73	35307.25
694.077	35088.5
694.423	34991.1
694.769	34928.73
695.116	34865.45
695.462	34909.52
695.808	34664.55
696.155	34737.55
696.501	34395.64
696.847	34550.21
697.193	34286.94
697.539	34383.43
697.885	34058.47
698.231	33950.45
698.577	34122.42
698.923	33965.59
699.269	33858.47
699.614	33653.51
699.96	33566.28
700.306	33703.45
700.651	33542.55
700.997	33287.19
701.342	33346.17
701.688	33159.06
702.033	33196.34
702.379	33197.47
702.724	33046.07
703.069	33084.94
703.415	32676.81
703.76	32813.98
704.105	32815.79
704.45	32622.35
704.795	32494.89
705.14	32414.9
705.485	32357.04
705.83	32209.03
706.175	32341.9
706.52	32216.71
706.865	32007.9
707.209	31987.56
707.554	32058.07
707.899	32001.35
708.243	31804.97
708.588	31825.76
708.932	31660.79
709.277	31606.56
709.621	31613.11
709.966	31410.63
710.31	31463.96
710.654	31233.23
710.998	31402.95
711.342	31314.59
711.687	31183.06
712.031	31060.13
712.375	30949.17
712.719	30989.4
713.063	30885.9
713.407	31018.55
713.75	30854.49
714.094	30789.4
714.438	30696.07
714.782	30645
715.125	30547.83
715.469	30581.95
715.812	30398.23
716.156	30270.32
716.499	30252.02
716.843	30320.04
717.186	30111.45
717.53	30318.91
717.873	30241.17
718.216	30152.13
718.559	29975.19
718.902	29683.44
719.246	29978.35
719.589	29754.4
719.932	29664.46
720.275	29699.26
720.617	29665.82
720.96	29645.03
721.303	29733.61
721.646	29599.38
721.989	29298.37
722.331	29524.8
722.674	29333.17
723.016	29425.82
723.359	29416.56
723.701	29403.9
724.044	29164.36
724.386	29009.34
724.729	29222.44
725.071	29100.63
725.413	29063.8
725.755	29119.16
726.097	28980.18
726.439	28745.84
726.782	28857.25
727.124	28906.51
727.465	28773.41
727.807	28677.82
728.149	28640.08
728.491	28589.01
728.833	28727.76
729.175	28492.29
729.516	28429.92
729.858	28419.52
730.199	28475.11
730.541	28305.17
730.882	28429.69
731.224	28319.41
731.565	28159.87
731.906	28253.65
732.248	28248
732.589	28051.17
732.93	28063.15
733.271	27981.79
733.612	27991.74
733.953	27945.64
734.294	27891.85
734.635	27777.73
734.976	27867.67
735.317	27800.33
735.658	27692.08
735.999	27746.09
736.339	27725.98
736.68	27766.88
737.021	27552.65
737.361	27401.69
737.702	27583.38
738.042	27516.04
738.383	27493.67
738.723	27429.04
739.063	27344.97
739.404	27481.01
739.744	27403.05
740.084	27254.13
740.424	27345.88
740.764	27220.46
741.104	27306.1
741.444	27043.74
741.784	26977.75
742.124	27028.6
742.464	27017.75
742.804	27079.67
743.143	26927.81
743.483	26937.53
743.823	26866.79
744.162	26846.91
744.502	26870.64
744.841	26728.94
745.181	26810.98
745.52	26756.29
745.86	26791.32
746.199	26582.06
746.538	26586.12
746.877	26631.55
747.216	26482.17
747.556	26475.62
747.895	26488.27
748.234	26457.09
748.573	26347.71
748.911	26386.81
749.25	26293.48
749.589	26152.91
749.928	26086.7
750.267	26137.32
750.605	26188.17
750.944	26046.48
751.283	26011
751.621	26008.29
751.96	25865.01
752.298	25887.16
752.636	25840.83
752.975	25676.09
753.313	25650.33
753.651	25793.38
753.989	25680.38
754.327	25522.2
754.666	25476.77
755.004	25450.33
755.342	25502.08
755.679	25396.1
756.017	25335.31
756.355	25383.44
756.693	25225.93
757.031	25333.5
757.368	25060.06
757.706	25129.89
758.044	25060.97
758.381	25065.94
758.719	24950.01
759.056	24986.84
759.394	24923.79
759.731	24727.87
760.068	24759.28
760.405	24691.26
760.743	24503.24
761.08	24535.78
761.417	24428.89
761.754	24390.93
762.091	24299.18
762.428	24217.15
762.765	24118.39
763.102	24169.92
763.438	24034.33
763.775	23900.54
764.112	23927.66
764.449	24016.93
764.785	23787.55
765.122	23664.17
765.458	23542.81
765.795	23585.75
766.131	23451.97
766.467	23376.04
766.804	23319.32
767.14	23222.6
767.476	23250.62
767.812	23108.25
768.148	23192.54
768.485	23011.53
768.821	22818.09
769.157	22872.77
769.492	22846.56
769.828	22729.05
770.164	22594.59
770.5	22563.86
770.836	22419.45
771.171	22327.48
771.507	22261.04
771.842	22153.25
772.178	22218.55
772.513	22045.45
772.849	22101.04
773.184	21967.94
773.519	21919.58
773.855	21864.67
774.19	21720.26
774.525	21633.03
774.86	21695.4
775.195	21605.24
775.53	21530.44
775.865	21443.43
776.2	21143.78
776.535	21101.52
776.87	21096.78
777.205	20967.51
777.539	20951.47
777.874	21028.75
778.209	20675.54
778.543	20707.63
778.878	20548.54
779.212	20576.56
779.547	20479.84
779.881	20473.06
780.215	20335.44
780.55	20423.57
780.884	20272.16
781.218	20130.93
781.552	20137.7
781.886	20176.12
782.22	19960.76
782.554	19960.31
782.888	19807.32
783.222	19670.6
783.556	19551.51
783.889	19605.74
784.223	19420.89
784.557	19449.36
784.89	19427.22
785.224	19298.18
785.557	19149.71
785.891	19167.11
786.224	19028.81
786.558	18969.83
786.891	18840.56
787.224	18720.34
787.557	18791.53
787.891	18842.15
788.224	18716.05
788.557	18676.73
788.89	18643.73
789.223	18498.65
789.556	18489.16
789.888	18413.23
790.221	18384.98
790.554	18147.7
790.887	18121.26
791.219	18135.05
791.552	18133.92
791.884	18040.58
792.217	17916.75
792.549	17921.04
792.882	17793.81
793.214	17593.37
793.546	17734.15
793.879	17628.39
794.211	17530.99
794.543	17541.84
794.875	17498.9
795.207	17447.83
795.539	17422.97
795.871	17441.28
796.203	17241.51
796.535	17054.4
796.867	17104.56
797.198	17021.85
797.53	17087.62
797.862	16927.62
798.193	17007.84
798.525	16864.57
798.856	16814.18
799.188	16671.36
799.519	16625.48
799.85	16600.17
800.182	16611.47
800.513	16537.12
800.844	16370.35
801.175	16489.44
801.506	16448.76
801.837	16279.5
802.168	16204.93
802.499	16153.63
802.83	16169.45
803.161	16094.2
803.491	16091.48
803.822	16129.9
804.153	16026.17
804.483	15904.6
804.814	15880.87
805.145	15805.39
805.475	15784.37
805.805	15742.57
806.136	15758.16
806.466	15719.06
806.796	15661.89
807.126	15475
807.457	15467.77
807.787	15493.53
808.117	15400.88
808.447	15355.01
808.777	15395
809.107	15330.6
809.436	15299.19
809.766	15242.47
810.096	15174.9
810.426	15055.35
810.755	15103.49
811.085	15097.16
811.414	15014.9
811.744	15034.79
812.073	14937.39
812.403	14948.91
812.732	14764.74
813.061	14795.92
813.39	14677.74
813.719	14712.99
814.049	14737.85
814.378	14656.49
814.707	14531.07
815.036	14661.01
815.365	14463.73
815.693	14457.18
816.022	14451.98
816.351	14437.29
816.68	14406.1
817.008	14393.45
817.337	14221.7
817.665	14220.35
817.994	14327.46
818.322	14247.24
818.651	14124.08
818.979	14114.81
819.307	14080.24
819.636	14119.33
819.964	14029.62
820.292	14113
820.62	14066
820.948	13943.29
821.276	13997.08
821.604	13910.52
821.932	13973.57
822.259	14024.42
822.587	13916.63
822.915	13850.64
823.243	13943.29
823.57	13851.09
823.898	13905.55
824.225	13826.68
824.553	13918.21
824.88	13835.05
825.207	13902.39
825.535	13830.75
825.862	13981.93
826.189	13899
826.516	13878.21
826.843	13912.11
827.17	13909.39
827.497	13881.37
827.824	13904.2
828.151	13957.53
828.478	13858.32
828.805	13980.58
829.131	13889.73
829.458	13791.88
829.785	13795.95
830.111	13809.74
830.438	13897.64
830.764	13885.21
831.09	13899.45
831.417	13734.26
831.743	13787.36
832.069	13810.64
832.395	13729.06
832.722	13762.51
833.048	13791.66
833.374	13748.95
833.7	13727.48
834.026	13709.17
834.351	13666.01
834.677	13701.72
835.003	13726.8
835.329	13653.58
835.654	13672.34
835.98	13621.27
836.306	13541.72
836.631	13579.23
836.956	13655.39
837.282	13590.53
837.607	13491.1
837.932	13557.76
838.258	13456.07
838.583	13438.45
838.908	13428.95
839.233	13427.6
839.558	13462.85
839.883	13419.69
840.208	13314.38
840.533	13374.04
840.858	13257.66
841.182	13289.75
841.507	13244.55
841.832	13254.72
842.156	13209.07
842.481	13137.89
842.805	13142.63
843.13	13087.27
843.454	13102.18
843.778	13027.84
844.103	13042.98
844.427	13044.11
844.751	13017.89
845.075	12908.97
845.399	12848.18
845.723	12910.55
846.047	12923.88
846.371	12799.14
846.695	12733.15
847.019	12652.03
847.343	12572.03
847.666	12561.18
847.99	12470.79
848.313	12379.04
848.637	12333.84
848.96	12371.36
849.284	12305.82
849.607	12213.85
849.931	12232.38
850.254	12062.66
850.577	12130.68
850.9	11984.7
851.223	11943.57
851.546	11855.66
851.869	11860.86
852.192	11864.7
852.515	11721.88
852.838	11736.8
853.161	11750.13
853.483	11685.72
853.806	11654.99
854.129	11591.26
854.451	11572.73
854.774	11547.87
855.096	11500.64
855.419	11397.14
855.741	11426.52
856.063	11342.91
856.385	11289.58
856.708	11304.26
857.03	11231.95
857.352	11297.26
857.674	11209.58
857.996	11204.61
858.318	11082.8
858.64	11073.31
858.961	11099.75
859.283	10971.17
859.605	11005.74
859.926	11041.22
860.248	10933.2
860.57	10939.3
860.891	10931.17
861.212	10906.54
861.534	10846.2
861.855	10801.45
862.176	10840.1
862.498	10792.64
862.819	10789.93
863.14	10717.84
863.461	10656.37
863.782	10696.82
864.103	10710.83
864.424	10632.42
864.745	10599.2
865.065	10540.44
865.386	10498.86
865.707	10520.56
866.027	10554.68
866.348	10495.92
866.668	10480.33
866.989	10493.44
867.309	10392.88
867.63	10420.45
867.95	10421.58
868.27	10354.91
868.59	10420.45
868.91	10319.21
869.23	10390.16
869.55	10273.78
869.87	10369.6
870.19	10295.48
870.51	10293.67
870.83	10317.4
871.15	10193.33
871.469	10219.77
871.789	10253.67
872.109	10231.98
872.428	10202.82
872.748	10145.2
873.067	10121.92
873.386	10205.54
873.706	10180
874.025	10163.05
874.344	10130.28
874.663	10064.52
874.982	10070.63
875.301	10063.85
875.62	10022.26
875.939	9994.92
876.258	10043.96
876.577	9934.36
876.896	9951.08
877.214	9918.09
877.533	9949.05
877.852	9982.72
878.17	9944.98
878.489	9844.87
878.807	9833.8
879.125	9814.59
879.444	9869.27
879.762	9748.83
880.08	9779.33
880.398	9730.75
880.716	9749.28
881.034	9702.73
881.352	9756.28
881.67	9650.98
881.988	9712.44
882.306	9647.13
882.624	9583.18
882.941	9578.66
883.259	9560.81
883.577	9490.98
883.894	9564.88
884.212	9482.84
884.529	9500.92
884.846	9469.51
885.164	9465.67
885.481	9495.5
885.798	9477.42
886.115	9376.18
886.432	9372.79
886.75	9318.1
887.067	9342.06
887.383	9242.85
887.7	9268.39
888.017	9250.53
888.334	9165.11
888.651	9197.65
888.967	9200.37
889.284	9038.11
889.6	9093.02
889.917	9037.88
890.233	9040.6
890.55	9060.93
890.866	9038.11
891.182	8966.25
891.498	8987.72
891.815	8950.65
892.131	8857.1
892.447	8873.82
892.763	8877.21
893.079	8836.31
893.395	8861.39
893.71	8814.39
894.026	8804.9
894.342	8775.52
894.657	8738.23
894.973	8689.64
895.289	8679.02
895.604	8678.8
895.92	8605.8
896.235	8533.94
896.55	8600.61
896.865	8521.51
897.181	8474.96
897.496	8518.58
897.811	8431.57
898.126	8427.96
898.441	8420.05
898.756	8394.96
899.071	8352.93
899.386	8342.31
899.7	8234.06
900.015	8277.68
900.33	8161.75
900.644	8205.36
900.959	8185.25
901.273	8122.65
901.588	8104.8
901.902	8086.5
902.216	7986.39
902.531	7965.14
902.845	8023
903.159	7936.9
903.473	7856.9
903.787	7914.07
904.101	7806.5
904.415	7876.56
904.729	7816.22
905.042	7780.97
905.356	7679.28
905.67	7706.85
905.984	7714.08
906.297	7660.74
906.611	7606.96
906.924	7618.94
907.237	7592.72
907.551	7549.34
907.864	7501.43
908.177	7509.56
908.491	7460.75
908.804	7411.49
909.117	7462.11
909.43	7385.95
909.743	7303.01
910.056	7347.31
910.368	7313.41
910.681	7203.81
910.994	7222.11
911.307	7226.18
911.619	7115.45
911.932	7115
912.244	7066.64
912.557	7056.02
912.869	7036.13
913.181	7047.88
913.494	6997.26
913.806	6978.05
914.118	6916.58
914.43	6873.65
914.742	6890.14
915.054	6811.5
915.366	6862.12
915.678	6801.56
915.99	6739.64
916.302	6689.25
916.613	6693.54
916.925	6734.67
917.236	6652.64
917.548	6587.1
917.859	6617.61
918.171	6548.46
918.482	6495.35
918.794	6552.07
919.105	6501.45
919.416	6440.66
919.727	6428.01
920.038	6406.77
920.349	6382.59
920.66	6355.69
920.971	6332.19
921.282	6254
921.593	6217.84
921.903	6275.7
922.214	6238.64
922.525	6168.81
922.835	6194.57
923.146	6140.56
923.456	6132.65
923.767	6069.37
924.077	6075.25
924.387	6053.78
924.697	6041.35
925.008	6066.44
925.318	5978.53
925.628	5962.71
925.938	5892.66
926.248	5901.24
926.558	5894.24
926.867	5820.57
927.177	5819.66
927.487	5756.61
927.796	5711.42
928.106	5713.45
928.416	5713.68
928.725	5684.75
929.034	5706.9
929.344	5675.49
929.653	5671.42
929.962	5621.93
930.271	5557.3
930.581	5535.6
930.89	5566.11
931.199	5513.68
931.508	5502.61
931.817	5473.91
932.125	5449.05
932.434	5424.87
932.743	5376.74
933.051	5365.66
933.36	5380.35
933.669	5288.6
933.977	5272.79
934.286	5261.03
934.594	5251.09
934.902	5194.82
935.21	5169.96
935.519	5185.78
935.827	5172
936.135	5118.21
936.443	5035.96
936.751	5090.87
937.059	5098.78
937.367	5041.38
937.674	5032.34
937.982	5027.82
938.29	4957.99
938.597	5005
938.905	4918.22
939.213	4894.72
939.52	4890.2
939.827	4887.26
940.135	4871.44
940.442	4823.31
940.749	4812.23
941.056	4781.72
941.363	4752.8
941.67	4778.33
941.977	4704.21
942.284	4713.25
942.591	4673.93
942.898	4719.58
943.205	4685.68
943.511	4617.44
943.818	4634.38
944.125	4560.71
944.431	4560.94
944.738	4570.66
945.044	4513.93
945.35	4486.37
945.657	4433.49
945.963	4492.47
946.269	4439.59
946.575	4461.51
946.881	4393.71
947.187	4413.37
947.493	4373.6
947.799	4346.26
948.105	4336.09
948.41	4310.32
948.716	4310.1
949.022	4265.35
949.327	4269.65
949.633	4249.31
949.938	4263.77
950.244	4228.52
950.549	4231.91
950.854	4240.04
951.16	4229.87
951.465	4149.42
951.77	4140.61
952.075	4089.77
952.38	4109.88
952.685	4075.08
952.99	4057.45
953.294	4019.71
953.599	4005.47
953.904	4016.09
954.209	3977
954.513	3991.69
954.818	4010.22
955.122	3947.4
955.426	3938.81
955.731	3923.22
956.035	3873.73
956.339	3892.03
956.643	3864.01
956.948	3832.15
957.252	3847.74
957.556	3789.43
957.86	3813.61
958.163	3736.55
958.467	3795.54
958.771	3709.21
959.075	3750.11
959.378	3722.77
959.682	3724.35
959.985	3694.97
960.289	3621.08
960.592	3668.31
960.896	3596.9
961.199	3624.92
961.502	3551.93
961.805	3648.42
962.108	3537.92
962.411	3547.18
962.714	3497.24
963.017	3540.4
963.32	3507.63
963.623	3448.43
963.926	3489.56
964.228	3496.33
964.531	3460.18
964.833	3413.62
965.136	3433.29
965.438	3341.76
965.741	3346.73
966.043	3350.35
966.345	3363.23
966.648	3344.93
966.95	3376.56
967.252	3263.57
967.554	3274.42
967.856	3267.87
968.158	3255.21
968.46	3291.59
968.761	3251.14
969.063	3177.92
969.365	3191.94
969.666	3193.74
969.968	3190.58
970.269	3167.76
970.571	3166.17
970.872	3153.74
971.174	3115.78
971.475	3073.29
971.776	3088.44
972.077	3094.09
972.378	3109
972.679	3052.73
972.98	3025.16
973.281	3065.61
973.582	3047.53
973.883	3039.62
974.183	2998.72
974.484	3017.93
974.785	2971.83
975.085	2977.03
975.386	2997.36
975.686	2945.84
975.986	2899.97
976.287	2905.16
976.587	2922.34
976.887	2883.24
977.187	2853.64
977.487	2844.83
977.787	2816.13
978.087	2810.02
978.387	2796.92
978.687	2799.86
978.987	2798.5
979.286	2731.16
979.586	2764.83
979.885	2763.7
980.185	2761.66
980.484	2721.67
980.784	2716.24
981.083	2709.69
981.382	2709.91
981.682	2690.48
981.981	2678.5
982.28	2664.94
982.579	2603.48
982.878	2664.72
983.177	2629.92
983.475	2599.18
983.774	2578.39
984.073	2610.26
984.372	2585.85
984.67	2592.18
984.969	2529.58
985.267	2579.3
985.566	2570.48
985.864	2514.89
986.162	2530.26
986.461	2485.29
986.759	2467.44
987.057	2477.38
987.355	2457.72
987.653	2444.16
987.951	2437.83
988.249	2440.09
988.547	2406.65
988.844	2409.13
989.142	2405.06
989.44	2377.49
989.737	2386.99
990.035	2354.44
990.332	2367.78
990.63	2384.27
990.927	2331.39
991.224	2316.03
991.521	2316.93
991.819	2320.55
992.116	2274.67
992.413	2284.84
992.71	2250.49
993.006	2271.28
993.303	2246.2
993.6	2271.96
993.897	2214.56
994.193	2222.47
994.49	2225.63
994.787	2208.23
995.083	2220.89
995.379	2217.95
995.676	2196.71
995.972	2179.08
996.268	2159.42
996.565	2162.13
996.861	2113.09
997.157	2133.66
997.453	2109.25
997.749	2115.35
998.044	2074.9
998.34	2090.27
998.636	2061.12
998.932	2015.24
999.227	2057.28
999.523	2063.38
999.818	2016.37
1000.114	1993.32
1000.409	2043.49
1000.704	1992.87
1001	1984.74
1001.295	2005.3
1001.59	2001.01
1001.885	1947.9
1002.18	1900.67
1002.475	1935.47
1002.77	1911.97
1003.065	1892.99
1003.359	1884.63
1003.654	1890.05
1003.949	1884.17
1004.243	1890.95
1004.538	1858.86
1004.832	1859.32
1005.127	1848.47
1005.421	1843.04
1005.715	1799.2
1006.009	1810.96
1006.304	1802.14
1006.598	1774.57
1006.892	1794.23
1007.186	1764.4
1007.48	1750.84
1007.773	1756.49
1008.067	1739.54
1008.361	1716.72
1008.655	1685.53
1008.948	1724.18
1009.242	1689.15
1009.535	1681.24
1009.829	1691.41
1010.122	1673.33
1010.415	1665.2
1010.708	1652.32
1011.001	1656.83
1011.295	1658.64
1011.588	1641.02
1011.881	1596.27
1012.173	1642.82
1012.466	1604.86
1012.759	1616.38
1013.052	1596.5
1013.344	1565.54
1013.637	1581.13
1013.93	1589.27
1014.222	1537.74
1014.514	1581.36
1014.807	1541.36
1015.099	1518.99
1015.391	1526.22
1015.683	1527.12
1015.976	1486.22
1016.268	1517.4
1016.56	1472.43
1016.851	1464.52
1017.143	1455.94
1017.435	1454.58
1017.727	1446.45
1018.018	1422.72
1018.31	1422.72
1018.602	1420.01
1018.893	1387.01
1019.185	1393.57
1019.476	1369.16
1019.767	1391.53
1020.058	1361.7
1020.35	1346.79
1020.641	1380.46
1020.932	1326.22
1021.223	1342.72
1021.514	1362.38
1021.804	1335.49
1022.095	1294.58
1022.386	1306.79
1022.677	1296.84
1022.967	1272.21
1023.258	1288.94
1023.548	1274.02
1023.839	1279.22
1024.129	1269.5
1024.419	1259.33
1024.709	1248.48
1025	1224.08
1025.29	1227.47
1025.58	1225.43
1025.87	1230.41
1026.16	1200.35
1026.449	1201.03
1026.739	1161.25
1027.029	1173.01
1027.319	1173.01
1027.608	1151.54
1027.898	1169.16
1028.187	1140.01
1028.477	1168.94
1028.766	1161.03
1029.055	1130.07
1029.344	1147.24
1029.634	1105.21
1029.923	1107.92
1030.212	1097.08
1030.501	1097.3
1030.79	1100.24
1031.078	1076.06
1031.367	1058.21
1031.656	1061.82
1031.945	1065.21
1032.233	1048.04
1032.522	1043.97
1032.81	1019.11
1033.099	1036.29
1033.387	1027.47
1033.675	1007.81
1033.963	1031.54
1034.251	1032.44
1034.54	986.12
1034.828	965.55
1035.116	993.35
1035.403	1007.36
1035.691	975.27
1035.979	947.02
1036.267	944.99
1036.554	976.17
1036.842	967.81
1037.129	928.72
1037.417	916.74
1037.704	937.08
1037.992	912
1038.279	898.89
1038.566	930.75
1038.853	930.75
1039.14	930.75
