Data from hue_120_FLMS001491_00038.txt Node
Date: Tue Feb 07 16:59:17 GMT 2017
User: dcchb
Spectrometer: FLMS00149
Trigger mode: 0
Integration Time (sec): 2.000000E-2
Scans to average: 10
Electric dark correction enabled: true
Nonlinearity correction enabled: false
Boxcar width: 0
XAxis mode: Wavelengths
Number of Pixels in Spectrum: 2048
>>>>>Begin Spectral Data<<<<<
341.393	-4.49
341.776	-4.49
342.16	-4.49
342.543	-63.47
342.927	-51.95
343.31	-82.23
343.693	-69.57
344.077	-75
344.46	-52.63
344.843	-53.98
345.226	-42
345.61	-26.64
345.993	-19.41
346.376	-20.99
346.759	2.74
347.142	9.52
347.525	55.39
347.908	54.26
348.291	84.32
348.674	110.53
349.057	125.67
349.44	121.61
349.823	142.62
350.206	170.65
350.588	199.57
350.971	212.68
351.354	222.62
351.737	229.85
352.119	266.01
352.502	249.97
352.884	275.05
353.267	294.48
353.65	312.34
354.032	314.82
354.414	305.78
354.797	307.59
355.179	357.08
355.562	314.6
355.944	330.42
356.326	337.19
356.709	320.25
357.091	342.17
357.473	324.99
357.855	342.39
358.238	351.21
358.62	342.39
359.002	344.2
359.384	317.31
359.766	354.82
360.148	351.21
360.53	362.96
360.912	354.14
361.294	355.27
361.676	343.97
362.057	330.87
362.439	341.71
362.821	338.55
363.203	347.36
363.584	325.67
363.966	322.05
364.348	352.34
364.729	320.92
365.111	301.26
365.493	324.99
365.874	324.99
366.256	326.35
366.637	329.96
367.019	334.26
367.4	296.52
367.781	338.1
368.163	327.93
368.544	354.6
368.925	328.61
369.306	321.15
369.688	301.94
370.069	308.72
370.45	320.7
370.831	317.76
371.212	303.3
371.593	317.08
371.974	339.23
372.355	307.59
372.736	324.54
373.117	323.41
373.498	353.92
373.879	299
374.26	315.05
374.641	311.21
375.021	306.91
375.402	338.32
375.783	325.9
376.163	308.27
376.544	320.02
376.925	321.15
377.305	341.26
377.686	344.88
378.066	339.68
378.447	362.5
378.827	357.53
379.208	338.55
379.588	358.44
379.968	331.77
380.349	359.11
380.729	342.39
381.109	369.06
381.489	355.27
381.87	355.5
382.25	364.99
382.63	338.78
383.01	352.79
383.39	360.02
383.77	350.08
384.15	362.73
384.53	392.33
384.91	352.34
385.29	374.48
385.67	362.96
386.049	373.8
386.429	357.53
386.809	364.76
387.189	371.54
387.568	384.42
387.948	368.38
388.328	374.71
388.707	369.96
389.087	381.71
389.466	369.06
389.846	371.77
390.225	389.17
390.605	365.67
390.984	396.18
391.363	382.84
391.743	379.68
392.122	414.48
392.501	397.31
392.881	395.27
393.26	395.05
393.639	397.76
394.018	390.98
394.397	414.71
394.776	397.53
395.155	384.65
395.534	389.62
395.913	398.89
396.292	389.17
396.671	418.55
397.05	419.45
397.429	380.36
397.808	393.92
398.186	404.09
398.565	413.8
398.944	431.88
399.323	414.93
399.701	410.41
400.08	413.58
400.458	431.43
400.837	422.62
401.215	429.62
401.594	415.84
401.972	403.63
402.351	434.59
402.729	444.08
403.107	424.65
403.486	437.08
403.864	430.98
404.242	452.9
404.62	417.64
404.999	457.87
405.377	437.3
405.755	462.16
406.133	445.89
406.511	438.43
406.889	456.06
407.267	463.74
407.645	459.68
408.023	460.81
408.401	461.26
408.779	482.05
409.156	468.72
409.534	479.34
409.912	480.24
410.29	489.05
410.667	500.81
411.045	484.31
411.422	501.48
411.8	495.16
412.178	519.79
412.555	487.93
412.933	502.61
413.31	516.85
413.687	497.87
414.065	492.44
414.442	524.08
414.819	530.86
415.197	527.25
415.574	527.7
415.951	530.64
416.328	520.01
416.705	533.57
417.082	553.91
417.46	548.94
417.837	541.48
418.214	565.89
418.591	562.27
418.967	552.1
419.344	570.41
419.721	553.91
420.098	554.82
420.475	576.51
420.852	572.22
421.228	577.41
421.605	571.99
421.982	564.08
422.358	576.51
422.735	579
423.111	611.09
423.488	605.66
423.864	600.69
424.241	619.9
424.617	621.93
424.994	627.36
425.37	640.24
425.746	597.07
426.123	622.16
426.499	642.05
426.875	630.75
427.251	642.05
427.627	657.19
428.003	662.84
428.379	648.15
428.756	684.53
429.132	664.19
429.507	681.14
429.883	666.68
430.259	701.03
430.635	696.51
431.011	698.99
431.387	719.56
431.763	710.29
432.138	706.9
432.514	739.67
432.89	756.17
433.265	754.81
433.641	767.01
434.016	742.16
434.392	760.91
434.767	779.22
435.143	775.38
435.518	775.6
435.894	783.96
436.269	804.98
436.644	781.7
437.02	807.01
437.395	822.15
437.77	813.57
438.145	830.97
438.52	828.71
438.895	850.18
439.271	818.76
439.646	873.68
440.021	858.54
440.395	841.81
440.77	870.29
441.145	861.25
441.52	895.82
441.895	884.75
442.27	892.21
442.645	890.17
443.019	907.12
443.394	879.78
443.769	913.68
444.143	885.2
444.518	914.13
444.892	937.63
445.267	928.82
445.641	934.24
446.016	942.15
446.39	948.25
446.764	951.19
447.139	955.48
447.513	984.41
447.887	962.49
448.262	997.29
448.636	983.51
449.01	1014.01
449.384	979.44
449.758	1014.92
450.132	999.78
450.506	1032.09
450.88	1028.93
451.254	1032.09
451.628	1041.13
452.002	1037.74
452.376	1072.77
452.75	1075.25
453.123	1070.28
453.497	1095.37
453.871	1125.65
454.244	1117.74
454.618	1115.48
454.992	1169.94
455.365	1130.17
455.739	1155.25
456.112	1182.82
456.486	1186.66
456.859	1181.01
457.232	1218.98
457.606	1221.92
457.979	1235.93
458.352	1272.99
458.725	1301.46
459.099	1267.34
459.472	1305.53
459.845	1305.3
460.218	1345.3
460.591	1356.38
460.964	1354.79
461.337	1396.15
461.71	1419.65
462.083	1434.79
462.456	1432.76
462.829	1430.73
463.201	1462.14
463.574	1477.28
463.947	1468.92
464.32	1522.93
464.692	1540.33
465.065	1531.29
465.438	1595.92
465.81	1581.91
466.183	1621.91
466.555	1643.15
466.928	1684.96
467.3	1682.92
467.672	1700.32
468.045	1755.24
468.417	1763.82
468.789	1771.96
469.161	1811.28
469.534	1837.95
469.906	1893.76
470.278	1914.55
470.65	1940.77
471.022	1967.66
471.394	2040.88
471.766	2074.32
472.138	2088.33
472.51	2163.36
472.882	2197.26
473.253	2232.29
473.625	2218.95
473.997	2319.52
474.369	2335.11
474.74	2412.85
475.112	2451.04
475.484	2514.31
475.855	2566.06
476.227	2609.9
476.598	2711.37
476.97	2739.62
477.341	2806.28
477.713	2874.08
478.084	2918.14
478.455	3050.12
478.827	3044.24
479.198	3227.29
479.569	3206.95
479.94	3379.15
480.311	3394.74
480.682	3499.15
481.053	3592.25
481.424	3733.94
481.795	3803.77
482.166	3906.14
482.537	3996.53
482.908	4130.54
483.279	4185.68
483.65	4338.22
484.021	4463.19
484.391	4556.07
484.762	4649.85
485.133	4753.35
485.503	4916.28
485.874	5002.83
486.244	5107.24
486.615	5329.38
486.985	5402.15
487.356	5525.31
487.726	5615.7
488.097	5803.27
488.467	5883.04
488.837	6099.98
489.207	6210.26
489.578	6423.14
489.948	6522.34
490.318	6603.92
490.688	6720.3
491.058	6886.17
491.428	7031.93
491.798	7197.58
492.168	7431.7
492.538	7482.09
492.908	7665.14
493.278	7780.16
493.648	7880.95
494.017	8082.53
494.387	8193.26
494.757	8271
495.126	8480.48
495.496	8605.45
495.866	8752.57
496.235	8876.86
496.605	8964.54
496.974	9105.55
497.344	9324.3
497.713	9361.14
498.082	9526.78
498.452	9622.83
498.821	9741.47
499.19	9781.92
499.559	9974
499.928	10059.42
500.298	10122.25
500.667	10374.44
501.036	10351.17
501.405	10514.55
501.774	10620.99
502.143	10673.87
502.512	10673.65
502.88	10826.41
503.249	10964.94
503.618	10997.71
503.987	11129
504.356	11247.64
504.724	11289.9
505.093	11361.99
505.462	11407.19
505.83	11558.82
506.199	11597.46
506.567	11816.44
506.936	11865.25
507.304	11975.53
507.672	12071.58
508.041	12106.15
508.409	12162.42
508.777	12286.26
509.145	12374.62
509.514	12354.51
509.882	12426.59
510.25	12509.53
510.618	12616.19
510.986	12591.56
511.354	12701.16
511.722	12863.87
512.09	12879.46
512.458	13030.42
512.826	13109.06
513.193	13121.72
513.561	13105.67
513.929	13225.9
514.297	13316.74
514.664	13378.89
515.032	13388.15
515.4	13470.63
515.767	13542.5
516.135	13525.1
516.502	13423.63
516.869	13635.83
517.237	13702.72
517.604	13503.4
517.972	13714.7
518.339	13767.12
518.706	13866.33
519.073	13780.46
519.44	13940.9
519.808	13969.83
520.175	13952.2
520.542	14054.12
520.909	14237.62
521.276	14076.95
521.643	14215.02
522.009	14280.56
522.376	14315.81
522.743	14311.74
523.11	14407.33
523.477	14451.85
523.843	14484.62
524.21	14574.56
524.577	14668.57
524.943	14621.79
525.31	14676.25
525.676	14756.48
526.043	14736.14
526.409	14809.81
526.776	14891.39
527.142	14871.28
527.508	14906.08
527.874	15034.21
528.241	15038.73
528.607	14928.22
528.973	15058.39
529.339	14986.3
529.705	15026.07
530.071	15054.1
530.437	15173.19
530.803	15124.6
531.169	15232.85
531.535	15088.45
531.901	15078.73
532.267	15130.48
532.632	15185.84
532.998	15104.49
533.364	15184.26
533.73	15156.92
534.095	15146.75
534.461	15153.3
534.826	15144.26
535.192	15100.2
535.557	15148.56
535.923	15063.14
536.288	15086.41
536.653	15025.62
537.019	15031.72
537.384	15051.38
537.749	15022.68
538.114	14984.72
538.479	14873.08
538.845	15025.62
539.21	14829.69
539.575	14865.85
539.94	14887.09
540.305	14850.49
540.67	14747.89
541.034	14823.14
541.399	14773.43
541.764	14821.33
542.129	14810.71
542.494	14729.81
542.858	14711.96
543.223	14702.47
543.587	14745.18
543.952	14639.87
544.316	14615.46
544.681	14561
545.045	14660.21
545.41	14658.4
545.774	14561.23
546.138	14517.16
546.503	14462.25
546.867	14413.89
547.231	14514.45
547.595	14385.19
547.959	14409.82
548.324	14333.66
548.688	14381.12
549.052	14371.85
549.416	14337.05
549.779	14304.06
550.143	14182.48
550.507	14243.04
550.871	14185.42
551.235	14176.6
551.599	14227.9
551.962	14200.56
552.326	14113.33
552.689	14128.7
553.053	14036.27
553.417	14043.5
553.78	14062.26
554.143	14012.54
554.507	14028.59
554.87	13973.9
555.234	14153.33
555.597	13921.24
555.96	13973.45
556.323	13991.98
556.686	13952.2
557.05	13943.16
557.413	13933.45
557.776	13893.67
558.139	13992.88
558.502	13930.96
558.865	13878.31
559.228	13954.92
559.59	13934.8
559.953	13907.69
560.316	14003.28
560.679	13918.08
561.041	14063.61
561.404	13954.69
561.767	13966.67
562.129	13994.91
562.492	13949.04
562.854	14017.06
563.217	14006.21
563.579	13962.82
563.941	14034.01
564.304	14076.95
564.666	14157.62
565.028	14195.36
565.39	14060
565.753	14191.52
566.115	14182.71
566.477	14221.8
566.839	14218.86
567.201	14259.99
567.563	14175.25
567.925	14339.09
568.287	14297.96
568.648	14240.56
569.01	14287.11
569.372	14384.06
569.734	14243.04
570.095	14370.72
570.457	14242.14
570.819	14314
571.18	14371.63
571.542	14506.54
571.903	14426.54
572.265	14384.51
572.626	14471.06
572.987	14490.95
573.349	14422.93
573.71	14550.15
574.071	14530.27
574.432	14593.09
574.794	14631.73
575.155	14587.67
575.516	14519.42
575.877	14532.08
576.238	14576.37
576.599	14682.81
576.96	14603.94
577.32	14572.07
577.681	14583.37
578.042	14603.49
578.403	14620.66
578.763	14657.27
579.124	14551.06
579.485	14722.8
579.845	14684.39
580.206	14676.93
580.566	14605.97
580.927	14708.57
581.287	14688.91
581.648	14647.78
582.008	14663.6
582.368	14590.61
582.728	14699.08
583.089	14655.01
583.449	14626.08
583.809	14649.36
584.169	14641.9
584.529	14578.85
584.889	14752.18
585.249	14674.22
585.609	14566.42
585.969	14645.97
586.329	14621.79
586.688	14542.7
587.048	14505.41
587.408	14602.58
587.768	14474.68
588.127	14563.49
588.487	14492.98
588.846	14643.49
589.206	14514.22
589.565	14469.03
589.925	14557.16
590.284	14443.26
590.643	14585.63
591.003	14566.88
591.362	14544.96
591.721	14518.06
592.08	14365.3
592.44	14484.85
592.799	14464.51
593.158	14532.3
593.517	14441.46
593.876	14497.27
594.235	14443.94
594.593	14342.48
594.952	14497.27
595.311	14355.13
595.67	14359.2
596.029	14430.16
596.387	14422.47
596.746	14444.62
597.104	14374.79
597.463	14354.91
597.822	14369.37
598.18	14393.32
598.538	14311.06
598.897	14340.22
599.255	14349.93
599.613	14443.26
599.972	14406.43
600.33	14454.79
600.688	14361.91
601.046	14423.83
601.404	14517.61
601.762	14393.1
602.12	14419.76
602.478	14431.29
602.836	14384.28
603.194	14410.72
603.552	14422.7
603.91	14280.56
604.268	14475.58
604.625	14384.73
604.983	14429.71
605.341	14370.95
605.698	14369.59
606.056	14375.24
606.413	14457.95
606.771	14409.82
607.128	14474.68
607.485	14280.56
607.843	14364.62
608.2	14403.27
608.557	14473.32
608.914	14410.27
609.272	14518.97
609.629	14522.13
609.986	14514
610.343	14551.51
610.7	14546.76
611.057	14577.27
611.414	14528.91
611.771	14622.24
612.127	14682.35
612.484	14541.11
612.841	14682.13
613.198	14545.41
613.554	14652.52
613.911	14654.33
614.267	14710.83
614.624	14711.51
614.98	14734.1
615.337	14804.84
615.693	14714.67
616.05	14702.47
616.406	14883.03
616.762	14785.18
617.118	14731.84
617.475	14780.66
617.831	14825.63
618.187	14757.61
618.543	14727.1
618.899	14843.48
619.255	14829.02
619.611	14756.25
619.967	14869.92
620.323	14935.23
620.678	14809.36
621.034	14923.03
621.39	14883.48
621.746	14840.09
622.101	14974.1
622.457	14833.76
622.812	14842.8
623.168	14914.44
623.523	14840.77
623.879	14929.81
624.234	14835.34
624.589	14893.2
624.945	14852.52
625.3	14924.61
625.655	14870.37
626.01	14843.03
626.365	14868.11
626.72	14834.67
627.075	14774.33
627.43	14852.29
627.785	14845.06
628.14	14822.24
628.495	14836.02
628.85	14802.58
629.205	14754.67
629.559	14894.1
629.914	14794.67
630.269	14753.54
630.623	14752.63
630.978	14750.37
631.332	14754.22
631.687	14867.21
632.041	14676.7
632.396	14717.38
632.75	14685.29
633.104	14773.2
633.459	14643.03
633.813	14680.77
634.167	14649.13
634.521	14608.01
634.875	14649.59
635.229	14583.6
635.583	14499.99
635.937	14557.84
636.291	14492.75
636.645	14542.47
636.999	14414.79
637.352	14421.12
637.706	14464.96
638.06	14551.74
638.413	14390.16
638.767	14415.02
639.121	14386.77
639.474	14336.15
639.828	14356.26
640.181	14383.15
640.534	14357.39
640.888	14365.07
641.241	14227.22
641.594	14316.04
641.947	14327.56
642.301	14261.57
642.654	14329.59
643.007	14264.96
643.36	14244.63
643.713	14231.52
644.066	14283.04
644.419	14191.29
644.771	14157.62
645.124	14050.05
645.477	13990.39
645.83	13911.07
646.182	13753.56
646.535	13818.2
646.888	13854.13
647.24	13744.53
647.593	13827.01
647.945	13775.94
648.298	13659.33
648.65	13720.57
649.002	13629.05
649.355	13808.7
649.707	13668.82
650.059	13837.4
650.411	13938.64
650.763	13895.48
651.115	14116.49
651.467	14039.43
651.819	14024.07
652.171	14047.57
652.523	13975.93
652.875	13967.8
653.227	13981.36
653.578	14057.74
653.93	14022.71
654.282	13973.45
654.633	13878.99
654.985	13989.72
655.337	13989.94
655.688	14066.55
656.039	14063.61
656.391	13921.24
656.742	13982.94
657.094	14026.55
657.445	14116.04
657.796	13993.78
658.147	13980.45
658.498	13984.07
658.849	14010.28
659.2	13939.55
659.551	13951.98
659.902	13988.59
660.253	13931.19
660.604	13982.26
660.955	13874.24
661.306	13970.28
661.656	13939.77
662.007	14031.07
662.358	13939.77
662.708	14006.89
663.059	14072.2
663.409	13916.05
663.76	14047.34
664.11	14053.44
664.461	14056.61
664.811	14023.61
665.161	14014.58
665.511	13977.06
665.862	13961.24
666.212	14040.79
666.562	14021.13
666.912	14034.24
667.262	13952.2
667.612	14064.74
667.962	14098.41
668.312	14023.61
668.662	14123.95
669.011	14081.69
669.361	14064.74
669.711	13992.88
670.06	13926.67
670.41	13960.57
670.76	13968.47
671.109	14050.96
671.459	13968.7
671.808	13993.56
672.157	14027.68
672.507	13883.73
672.856	13898.87
673.205	13982.49
673.554	13996.04
673.904	13964.41
674.253	13977.74
674.602	13928.48
674.951	13750.63
675.3	13632.89
675.649	13879.89
675.998	13776.39
676.346	13832.43
676.695	13861.36
677.044	13782.26
677.393	13756.05
677.741	13776.39
678.09	13747.24
678.438	13689.16
678.787	13700.46
679.135	13737.52
679.484	13575.94
679.832	13722.38
680.181	13554.93
680.529	13630.63
680.877	13514.7
681.225	13527.58
681.573	13582.95
681.922	13552.44
682.27	13490.97
682.618	13471.31
682.966	13436.96
683.314	13521.25
683.661	13482.61
684.009	13334.14
684.357	13320.81
684.705	13326.23
685.053	13282.39
685.4	13292.33
685.748	13252.79
686.095	13233.13
686.443	13154.03
686.79	13134.37
687.138	13146.58
687.485	13137.08
687.832	13157.65
688.18	13115.16
688.527	12953.13
688.874	12948.16
689.221	12973.47
689.568	12874.94
689.915	12851.22
690.262	12898.22
690.609	12772.35
690.956	12743.2
691.303	12698.45
691.65	12726.25
691.997	12655.74
692.344	12630.66
692.69	12614.16
693.037	12552.01
693.383	12424.79
693.73	12526.7
694.077	12404.67
694.423	12375.75
694.769	12358.35
695.116	12329.42
695.462	12240.38
695.808	12178.47
696.155	12250.55
696.501	12160.84
696.847	12149.09
697.193	12039.94
697.539	12078.13
697.885	11958.36
698.231	11975.76
698.577	11884.01
698.923	11809.44
699.269	11858.7
699.614	11788.42
699.96	11789.1
700.306	11709.55
700.651	11593.62
700.997	11567.86
701.342	11591.36
701.688	11554.07
702.033	11518.14
702.379	11508.65
702.724	11432.27
703.069	11380.29
703.415	11357.02
703.76	11381.65
704.105	11329.45
704.45	11321.31
704.795	11224.59
705.14	11126.97
705.485	11237.7
705.83	11103.01
706.175	11107.76
706.52	11077.93
706.865	11059.17
707.209	10995.67
707.554	10898.27
707.899	10958.38
708.243	10885.17
708.588	10870.02
708.932	10793.64
709.277	10806.75
709.621	10826.41
709.966	10820.99
710.31	10742.57
710.654	10700.31
710.998	10689.69
711.342	10653.31
711.687	10612.4
712.031	10545.29
712.375	10527.89
712.719	10527.21
713.063	10590.03
713.407	10583.25
713.75	10549.13
714.094	10500.77
714.438	10387.55
714.782	10478.85
715.125	10364.73
715.469	10468
715.812	10342.58
716.156	10321.79
716.499	10367.89
716.843	10321.34
717.186	10280.21
717.53	10349.36
717.873	10311.17
718.216	10305.75
718.559	10237.73
718.902	10159.08
719.246	10177.61
719.589	10170.38
719.932	10134.68
720.275	10151.85
720.617	10204.96
720.96	10142.36
721.303	10082.25
721.646	10126.99
721.989	10027.79
722.331	10110.27
722.674	9998.41
723.016	10057.62
723.359	10037.05
723.701	10012.87
724.044	9993.21
724.386	9965.42
724.729	9892.2
725.071	9957.28
725.413	9917.73
725.755	9948.92
726.097	9881.8
726.439	9886.1
726.782	9819.21
727.124	9963.16
727.465	9860.56
727.807	9837.51
728.149	9843.16
728.491	9838.41
728.833	9873.21
729.175	9818.3
729.516	9829.6
729.858	9805.87
730.199	9781.24
730.541	9778.75
730.882	9838.41
731.224	9754.35
731.565	9773.1
731.906	9822.37
732.248	9787.79
732.589	9828.7
732.93	9702.15
733.271	9732.43
733.612	9727.68
733.953	9783.27
734.294	9756.16
734.635	9750.28
734.976	9771.3
735.317	9699.89
735.658	9784.86
735.999	9719.55
736.339	9689.72
736.68	9766.55
737.021	9787.12
737.361	9716.38
737.702	9769.71
738.042	9782.6
738.383	9749.83
738.723	9792.09
739.063	9719.32
739.404	9778.98
739.744	9763.84
740.084	9767.91
740.424	9832.09
740.764	9905.08
741.104	9802.48
741.444	9844.52
741.784	9806.55
742.124	9825.31
742.464	9895.14
742.804	9836.83
743.143	9871.63
743.483	9937.62
743.823	9907.34
744.162	9941.69
744.502	10003.16
744.841	10010.61
745.181	10045.87
745.52	10019.65
745.86	10115.02
746.199	10103.49
746.538	10183.26
746.877	10206.99
747.216	10300.55
747.556	10338.51
747.895	10370.6
748.234	10448.79
748.573	10365.18
748.911	10461.9
749.25	10575.57
749.589	10598.85
749.928	10623.03
750.267	10759.07
750.605	10733.08
750.944	10844.94
751.283	10912.74
751.621	11029.79
751.96	11051.94
752.298	11240.18
752.636	11233.86
752.975	11365.83
753.313	11486.73
753.651	11504.13
753.989	11592.94
754.327	11647.86
754.666	11738.48
755.004	11954.74
755.342	12048.07
755.679	12167.84
756.017	12273.15
756.355	12386.6
756.693	12514.73
757.031	12724.21
757.368	12817.09
757.706	12921.27
758.044	13074.94
758.381	13192
758.719	13318.1
759.056	13562.84
759.394	13674.7
759.731	13773.9
760.068	13946.55
760.405	14133.22
760.743	14219.54
761.08	14384.28
761.417	14625.86
761.754	14820.66
762.091	14852.75
762.428	15064.26
762.765	15188.1
763.102	15406.18
763.438	15472.84
763.775	15561.65
764.112	15797.35
764.449	15990.57
764.785	16084.35
765.122	16128.19
765.458	16443.44
765.795	16541.29
766.131	16675.75
766.467	16831
766.804	16945.57
767.14	16981.95
767.476	17158.9
767.812	17263.08
768.148	17411.55
768.485	17509.4
768.821	17590.07
769.157	17687.25
769.492	17789.62
769.828	17971.08
770.164	17986
770.5	18080.68
770.836	18156.84
771.171	18266.44
771.507	18381.69
771.842	18390.28
772.178	18568.81
772.513	18566.77
772.849	18769.7
773.184	18706.88
773.519	18807.9
773.855	18872.07
774.19	18964.73
774.525	18955.24
774.86	19095.35
775.195	19161.33
775.53	19158.17
775.865	19235
776.2	19125.63
776.535	19071.62
776.87	19216.7
777.205	19214.89
777.539	19255.12
777.874	19439.97
778.209	19317.94
778.543	19358.84
778.878	19298.96
779.212	19389.12
779.547	19395.22
779.881	19460.99
780.215	19396.35
780.55	19481.32
780.884	19403.59
781.218	19459.18
781.552	19445.17
781.886	19425.05
782.22	19329.69
782.554	19378.05
782.888	19320.2
783.222	19282.69
783.556	19246.53
783.889	19331.27
784.223	19183.93
784.557	19233.19
784.89	19218.51
785.224	19202.69
785.557	19030.04
785.891	19122.01
786.224	19091.96
786.558	19153.65
786.891	19013.99
787.224	19056.48
787.557	18965.86
787.891	18925.41
788.224	19010.6
788.557	18983.94
788.89	18964.5
789.223	18977.38
789.556	18906.88
789.888	18773.09
790.221	18788.69
790.554	18616.04
790.887	18755.69
791.219	18593.21
791.552	18696.71
791.884	18578.75
792.217	18598.18
792.549	18478.41
792.882	18404.74
793.214	18384.86
793.546	18442.03
793.879	18371.3
794.211	18248.14
794.543	18290.39
794.875	18258.31
795.207	18392.76
795.539	18200.91
795.871	18172.66
796.203	18084.3
796.535	18074.81
796.867	18037.29
797.198	17933.79
797.53	17968.6
797.862	17865.55
798.193	17886.34
798.525	17829.39
798.856	17861.48
799.188	17645.44
799.519	17612.67
799.85	17540.36
800.182	17599.57
800.513	17533.58
800.844	17516.63
801.175	17595.95
801.506	17441.15
801.837	17415.84
802.168	17311.21
802.499	17314.38
802.83	17308.5
803.161	17240.48
803.491	17301.95
803.822	17308.05
804.153	17071.9
804.483	17046.81
804.814	16929.3
805.145	16936.53
805.475	17024.67
805.805	16867.83
806.136	16884.56
806.466	16935.63
806.796	16828.29
807.126	16736.54
807.457	16677.78
807.787	16659.03
808.117	16633.94
808.447	16641.4
808.777	16595.52
809.107	16481.4
809.436	16493.15
809.766	16526.83
810.096	16485.24
810.426	16391.24
810.755	16288.19
811.085	16346.72
811.414	16353.5
811.744	16183.33
812.073	16220.62
812.403	16224.91
812.732	16174.52
813.061	16144.24
813.39	16000.51
813.719	15908.31
814.049	16068.53
814.378	16022.88
814.707	15935.2
815.036	15851.14
815.365	15783.12
815.693	15759.39
816.022	15756.22
816.351	15709.22
816.68	15627.19
817.008	15664.7
817.337	15586.29
817.665	15490.92
817.994	15652.5
818.322	15527.53
818.651	15466.97
818.979	15415.67
819.307	15483.91
819.636	15565.95
819.964	15400.08
820.292	15431.03
820.62	15496.34
820.948	15339.29
821.276	15465.16
821.604	15330.47
821.932	15328.66
822.259	15426.52
822.587	15318.72
822.915	15417.02
823.243	15356.46
823.57	15329.12
823.898	15369.34
824.225	15287.99
824.553	15322.56
824.88	15255.9
825.207	15423.35
825.535	15362.79
825.862	15352.84
826.189	15273.3
826.516	15316.46
826.843	15434.2
827.17	15359.4
827.497	15359.62
827.824	15385.39
828.151	15429
828.478	15379.28
828.805	15414.31
829.131	15352.17
829.458	15369.79
829.785	15304.48
830.111	15388.78
830.438	15421.09
830.764	15357.36
831.09	15341.77
831.417	15280.3
831.743	15432.62
832.069	15320.76
832.395	15271.72
832.722	15360.98
833.048	15287.99
833.374	15227.65
833.7	15195.33
834.026	15188.78
834.351	15245.96
834.677	15257.71
835.003	15274.2
835.329	15212.28
835.654	15126.18
835.98	15142.23
836.306	15160.31
836.631	15151.72
836.956	15124.15
837.282	15144.49
837.607	15116.69
837.932	15034.66
838.258	15063.14
838.583	15034.89
838.908	14957.15
839.233	14995.11
839.558	14870.6
839.883	14844.61
840.208	14723.03
840.533	14831.5
840.858	14850.49
841.182	14842.35
841.507	14727.1
841.832	14648.23
842.156	14662.69
842.481	14655.24
842.805	14731.84
843.13	14600.32
843.454	14639.19
843.778	14539.53
844.103	14584.96
844.427	14401.91
844.751	14482.59
845.075	14411.4
845.399	14270.84
845.723	14250.05
846.047	14281.01
846.371	14172.54
846.695	14201.01
847.019	14084.18
847.343	14055.25
847.666	13942.03
847.99	13985.2
848.313	13871.75
848.637	13846.9
848.96	13796.95
849.284	13772.55
849.607	13693.23
849.931	13610.52
850.254	13592.44
850.577	13503.18
850.9	13469.73
851.223	13399.45
851.546	13355.61
851.869	13265.22
852.192	13359.23
852.515	13177.08
852.838	13181.83
853.161	13095.5
853.483	13111.77
853.806	13016.41
854.129	12975.73
854.451	12872.23
854.774	12840.82
855.096	12769.86
855.419	12799.24
855.741	12813.48
856.063	12670.2
856.385	12673.37
856.708	12633.82
857.03	12615.97
857.352	12520.6
857.674	12528.74
857.996	12431.11
858.318	12436.76
858.64	12422.98
858.961	12390.89
859.283	12318.35
859.605	12269.54
859.926	12321.74
860.248	12203.32
860.57	12221.85
860.891	12265.47
861.212	12091.46
861.534	12073.84
861.855	12124.23
862.176	11979.15
862.498	12071.35
862.819	12088.07
863.14	11963.33
863.461	11922.2
863.782	12008.98
864.103	12041.75
864.424	11881.75
864.745	11931.24
865.065	11793.16
865.386	11814.63
865.707	11811.7
866.027	11741.64
866.348	11773.73
866.668	11816.89
866.989	11734.86
867.309	11705.71
867.63	11654.64
867.95	11633.39
868.27	11606.73
868.59	11626.62
868.91	11647.41
869.23	11605.37
869.55	11549.78
869.87	11601.98
870.19	11533.74
870.51	11600.18
870.83	11589.78
871.15	11521.76
871.469	11434.53
871.789	11535.54
872.109	11450.57
872.428	11340.52
872.748	11392.95
873.067	11377.36
873.386	11378.03
873.706	11368.09
874.025	11267.08
874.344	11255.1
874.663	11198.38
874.982	11229.79
875.301	11277.47
875.62	11181.2
875.939	11187.98
876.258	11178.94
876.577	11076.35
876.896	11117.7
877.214	11108.21
877.533	11122.67
877.852	10988.21
878.17	11091.04
878.489	11097.36
878.807	11041.09
879.125	11039.06
879.444	11008.55
879.762	10956.8
880.08	10976.01
880.398	10910.93
880.716	10939.4
881.034	10841.78
881.352	10982.79
881.67	10834.77
881.988	10853.75
882.306	10786.86
882.624	10790.25
882.941	10761.55
883.259	10693.08
883.577	10717.94
883.894	10673.87
884.212	10677.94
884.529	10590.26
884.846	10670.26
885.164	10639.3
885.481	10516.81
885.798	10604.5
886.115	10602.69
886.432	10487.66
886.75	10461.9
887.067	10480.43
887.383	10393.43
887.7	10420.77
888.017	10346.87
888.334	10408.79
888.651	10385.97
888.967	10278.85
889.284	10285.18
889.6	10253.54
889.917	10139.42
890.233	10095.81
890.55	10181.91
890.866	10119.54
891.182	10066.88
891.498	10046.54
891.815	10044.96
892.131	9956.6
892.447	9898.75
892.763	9957.05
893.079	9893.55
893.395	9921.35
893.71	9859.43
894.026	9815.14
894.342	9787.12
894.657	9701.92
894.973	9681.36
895.289	9675.25
895.604	9643.16
895.92	9603.17
896.235	9572.88
896.55	9607.91
896.865	9553
897.181	9499.44
897.496	9479.78
897.811	9334.47
898.126	9346.22
898.441	9339.67
898.756	9254.47
899.071	9208.83
899.386	9300.12
899.7	9172.89
900.015	9129.05
900.33	9106.68
900.644	9056.51
900.959	9087.02
901.273	9085.44
901.588	9035.04
901.902	9018.55
902.216	9014.71
902.531	8996.4
902.845	8927.7
903.159	8878.66
903.473	8797.09
903.787	8787.14
904.101	8673.02
904.415	8740.82
904.729	8740.82
905.042	8656.07
905.356	8651.55
905.67	8600.93
905.984	8619.46
906.297	8556.87
906.611	8466.47
906.924	8487.71
907.237	8538.11
907.551	8434.38
907.864	8399.81
908.177	8387.15
908.491	8292.92
908.804	8259.02
909.117	8209.76
909.43	8193.03
909.743	8121.4
910.056	8181.06
910.368	8143.99
910.681	8084.34
910.994	8061.29
911.307	8024
911.619	7941.29
911.932	7968.86
912.244	7868.07
912.557	7906.94
912.869	7845.7
913.181	7763.21
913.494	7807.05
913.806	7714.4
914.118	7724.34
914.43	7682.54
914.742	7667.85
915.054	7545.14
915.366	7603.9
915.678	7572.94
915.99	7480.28
916.302	7407.29
916.613	7435.09
916.925	7399.83
917.236	7387.18
917.548	7333.62
917.859	7386.05
918.171	7336.56
918.482	7307.63
918.794	7285.94
919.105	7229.22
919.416	7169.56
919.727	7178.37
920.038	7155.55
920.349	7102.21
920.66	7034.19
920.971	7054.76
921.282	7029.67
921.593	6972.05
921.903	6980.41
922.214	6866.74
922.525	6859.51
922.835	6856.12
923.146	6836.91
923.456	6873.07
923.767	6784.03
924.077	6802.79
924.387	6678.95
924.697	6671.72
925.008	6652.51
925.318	6656.35
925.628	6606.63
925.938	6581.78
926.248	6563.25
926.558	6571.15
926.867	6504.72
927.177	6460.88
927.487	6489.35
927.796	6378.62
928.106	6410.48
928.416	6381.1
928.725	6386.08
929.034	6296.59
929.344	6321.22
929.653	6299.52
929.962	6235.34
930.271	6205.51
930.581	6212.07
930.89	6183.59
931.199	6117.61
931.508	6097.27
931.817	6132.97
932.125	6095.24
932.434	6031.51
932.743	6000.55
933.051	5913.55
933.36	5971.17
933.669	5865.86
933.977	5913.32
934.286	5935.24
934.594	5892.75
934.902	5867.22
935.21	5789.03
935.519	5831.51
935.827	5793.77
936.135	5747.45
936.443	5730.73
936.751	5660.67
937.059	5657.28
937.367	5630.39
937.674	5624.97
937.982	5595.59
938.29	5536.61
938.597	5544.29
938.905	5532.31
939.213	5467.68
939.52	5417.74
939.827	5488.25
940.135	5392.2
940.442	5368.93
940.749	5362.37
941.056	5397.63
941.363	5308.14
941.67	5311.98
941.977	5309.04
942.284	5279.66
942.591	5244.86
942.898	5206.22
943.205	5209.83
943.511	5171.64
943.818	5200.57
944.125	5113.57
944.431	5062.95
944.738	5096.62
945.044	5052.32
945.35	5027.47
945.657	5001.48
945.963	4993.12
946.269	4969.84
946.575	4966.45
946.881	4970.29
947.187	4935.94
947.493	4883.29
947.799	4882.16
948.105	4854.82
948.41	4811.43
948.716	4819.34
949.022	4856.85
949.327	4752.22
949.633	4735.04
949.938	4726.91
950.244	4712.22
950.549	4695.27
950.854	4674.26
951.16	4651.43
951.465	4655.27
951.77	4636.06
952.075	4611.66
952.38	4589.51
952.685	4561.72
952.99	4546.58
953.294	4468.39
953.599	4466.58
953.904	4487.14
954.209	4451.44
954.513	4449.18
954.818	4372.12
955.122	4416.18
955.426	4415.28
955.731	4393.36
956.035	4363.3
956.339	4358.56
956.643	4305.23
956.948	4301.61
957.252	4257.09
957.556	4205.79
957.86	4215.74
958.163	4232.46
958.467	4227.04
958.771	4134.61
959.075	4220.71
959.378	4160.14
959.682	4136.42
959.985	4071.33
960.289	4084.21
960.592	4104.1
960.896	4060.71
961.199	4040.83
961.502	4017.78
961.805	4016.19
962.108	3959.25
962.411	4009.87
962.714	3913.15
963.017	3949.08
963.32	3938.91
963.623	3882.64
963.926	3871.79
964.228	3911.34
964.531	3887.84
964.833	3838.35
965.136	3816.88
965.438	3837.89
965.741	3759.03
966.043	3790.66
966.345	3745.47
966.648	3733.94
966.95	3735.98
967.252	3720.38
967.554	3681.51
967.856	3639.71
968.158	3638.8
968.46	3658.01
968.761	3629.09
969.063	3551.8
969.365	3604.45
969.666	3570.78
969.968	3561.06
970.269	3567.17
970.571	3586.37
970.872	3545.7
971.174	3496.21
971.475	3494.17
971.776	3476.1
972.077	3444.23
972.378	3437
972.679	3419.6
972.98	3397.23
973.281	3422.99
973.582	3332.82
973.883	3361.07
974.183	3335.99
974.484	3335.08
974.785	3293.27
975.085	3265.93
975.386	3337.57
975.686	3254.41
975.986	3262.09
976.287	3266.84
976.587	3251.69
976.887	3233.16
977.187	3229.1
977.487	3197.68
977.787	3211.24
978.087	3165.59
978.387	3154.3
978.687	3144.35
978.987	3119.27
979.286	3100.96
979.586	3087.4
979.885	3067.52
980.185	3069.33
980.484	3067.52
980.784	3055.99
981.083	3030.91
981.382	3038.59
981.682	2991.14
981.981	3008.99
982.28	2985.71
982.579	2950.69
982.878	2971.93
983.177	2952.27
983.475	2920.63
983.774	2906.39
984.073	2897.81
984.372	2870.69
984.67	2906.84
984.969	2861.87
985.267	2850.57
985.566	2822.78
985.864	2808.09
986.162	2817.13
986.461	2782.55
986.759	2783.68
987.057	2758.83
987.355	2731.48
987.653	2737.13
987.951	2746.17
988.249	2732.84
988.547	2698.04
988.844	2674.31
989.142	2680.86
989.44	2655.78
989.737	2644.93
990.035	2622.11
990.332	2627.76
990.63	2628.89
990.927	2588.21
991.224	2587.53
991.521	2578.72
991.819	2537.59
992.116	2557.7
992.413	2522.9
992.71	2529.23
993.006	2518.83
993.303	2503.92
993.6	2533.75
993.897	2513.41
994.193	2466.4
994.49	2477.25
994.787	2480.42
995.083	2449.46
995.379	2467.76
995.676	2439.74
995.972	2403.35
996.268	2358.84
996.565	2333.07
996.861	2352.51
997.157	2337.37
997.453	2348.89
997.749	2342.57
998.044	2350.25
998.34	2316.35
998.636	2292.85
998.932	2278.61
999.227	2262.79
999.523	2264.38
999.818	2260.76
1000.114	2263.02
1000.409	2222.34
1000.704	2229.12
1001	2216.92
1001.295	2199.29
1001.59	2170.59
1001.885	2159.97
1002.18	2174.89
1002.475	2150.48
1002.77	2116.58
1003.065	2091.72
1003.359	2110.03
1003.654	2129.92
1003.949	2116.13
1004.243	2069.58
1004.538	2034.55
1004.832	2042.46
1005.127	2057.83
1005.421	2034.55
1005.715	2017.83
1006.009	2008.56
1006.304	1992.52
1006.598	1990.26
1006.892	1980.09
1007.186	1923.14
1007.48	1952.52
1007.773	1919.53
1008.067	1945.06
1008.361	1926.31
1008.655	1915.91
1008.948	1895.8
1009.242	1868.91
1009.535	1874.33
1009.829	1860.54
1010.122	1822.13
1010.415	1826.87
1010.708	1830.71
1011.001	1821.45
1011.295	1753.2
1011.588	1816.93
1011.881	1764.95
1012.173	1797.27
1012.466	1785.29
1012.759	1788.91
1013.052	1778.06
1013.344	1761.34
1013.637	1717.27
1013.93	1723.6
1014.222	1677.27
1014.514	1703.26
1014.807	1698.97
1015.099	1648.8
1015.391	1656.93
1015.683	1665.97
1015.976	1639.31
1016.268	1632.98
1016.56	1633.21
1016.851	1633.88
1017.143	1624.84
1017.435	1606.54
1017.727	1578.74
1018.018	1595.24
1018.31	1561.57
1018.602	1539.65
1018.893	1557.5
1019.185	1515.47
1019.476	1511.17
1019.767	1496.94
1020.058	1494.45
1020.35	1482.25
1020.641	1495.13
1020.932	1482.02
1021.223	1452.87
1021.514	1468.46
1021.804	1416.71
1022.095	1446.32
1022.386	1442.25
1022.677	1444.96
1022.967	1426.66
1023.258	1403.83
1023.548	1374
1023.839	1393.44
1024.129	1384.85
1024.419	1371.52
1024.709	1353.44
1025	1336.26
1025.29	1326.32
1025.58	1324.74
1025.87	1306.21
1026.16	1306.66
1026.449	1298.3
1026.739	1303.04
1027.029	1284.97
1027.319	1272.99
1027.608	1292.2
1027.898	1263.27
1028.187	1288.36
1028.477	1276.15
1028.766	1231.63
1029.055	1240
1029.344	1247.68
1029.634	1209.04
1029.923	1211.75
1030.212	1182.6
1030.501	1185.99
1030.79	1194.8
1031.078	1192.09
1031.367	1169.04
1031.656	1138.08
1031.945	1141.92
1032.233	1160
1032.522	1142.37
1032.81	1128.36
1033.099	1131.3
1033.387	1119.55
1033.675	1140.34
1033.963	1124.97
1034.251	1105.08
1034.54	1068.02
1034.828	1081.81
1035.116	1087.91
1035.403	1091.98
1035.691	1060.34
1035.979	1035.48
1036.267	1076.38
1036.554	1072.99
1036.842	1031.41
1037.129	1032.09
1037.417	1012.88
1037.704	1033.45
1037.992	1011.75
1038.279	990.28
1038.566	1011.08
1038.853	1011.08
1039.14	1011.08
