Data from hue_260_FLMS001491_00026.txt Node
Date: Tue Feb 07 15:58:47 GMT 2017
User: dcchb
Spectrometer: FLMS00149
Trigger mode: 0
Integration Time (sec): 2.000000E-2
Scans to average: 10
Electric dark correction enabled: true
Nonlinearity correction enabled: false
Boxcar width: 0
XAxis mode: Wavelengths
Number of Pixels in Spectrum: 2048
>>>>>Begin Spectral Data<<<<<
341.393	-24.36
341.776	-24.36
342.16	-24.36
342.543	-43.12
342.927	-78.6
343.31	-67.53
343.693	-51.71
344.077	-60.52
344.46	-58.71
344.843	-62.55
345.226	-46.06
345.61	-38.37
345.993	-34.53
346.376	-6.96
346.759	8.4
347.142	37.33
347.525	57.22
347.908	47.05
348.291	76.42
348.674	106.25
349.057	94.28
349.44	144.67
349.823	131.11
350.206	151.9
350.588	180.15
350.971	197.1
351.354	221.73
351.737	228.74
352.119	245.69
352.502	244.78
352.884	269.41
353.267	277.32
353.65	291.33
354.032	274.61
354.414	278.23
354.797	300.6
355.179	334.95
355.562	323.88
355.944	337.43
356.326	315.97
356.709	339.47
357.091	338.11
357.473	340.37
357.855	321.16
358.238	317.55
358.62	316.42
359.002	332.69
359.384	320.26
359.766	325.91
360.148	333.59
360.53	326.81
360.912	338.79
361.294	326.14
361.676	334.72
362.057	324.33
362.439	322.29
362.821	305.8
363.203	311.9
363.584	320.49
363.966	307.15
364.348	303.76
364.729	311.67
365.111	326.36
365.493	317.32
365.874	308.51
366.256	280.71
366.637	305.57
367.019	272.35
367.4	307.83
367.781	289.07
368.163	322.52
368.544	307.6
368.925	301.05
369.306	310.54
369.688	306.47
370.069	310.54
370.45	314.84
370.831	320.03
371.212	297.21
371.593	282.07
371.974	308.06
372.355	301.73
372.736	291.33
373.117	304.67
373.498	308.73
373.879	303.09
374.26	299.47
374.641	310.77
375.021	335.63
375.402	314.84
375.783	316.19
376.163	336.3
376.544	317.55
376.925	335.85
377.305	333.59
377.686	308.73
378.066	304.67
378.447	326.59
378.827	345.8
379.208	331.11
379.588	324.55
379.968	286.14
380.349	308.28
380.729	321.62
381.109	332.69
381.489	327.27
381.87	321.39
382.25	323.42
382.63	324.1
383.01	323.2
383.39	344.67
383.77	335.63
384.15	325.23
384.53	339.47
384.91	341.05
385.29	329.53
385.67	339.24
386.049	353.48
386.429	345.12
386.809	348.51
387.189	357.32
387.568	343.54
387.948	354.38
388.328	349.19
388.707	337.21
389.087	343.08
389.466	357.32
389.846	344.21
390.225	347.15
390.605	359.35
390.984	365.46
391.363	362.74
391.743	348.73
392.122	372.01
392.501	372.01
392.881	367.94
393.26	377.21
393.639	375.17
394.018	367.04
394.397	387.83
394.776	386.47
395.155	384.67
395.534	390.54
395.913	394.61
396.292	394.38
396.671	390.31
397.05	394.83
397.429	383.54
397.808	374.5
398.186	395.06
398.565	403.87
398.944	408.17
399.323	398.9
399.701	408.62
400.08	398.68
400.458	411.78
400.837	409.07
401.215	413.14
401.594	404.1
401.972	393.48
402.351	421.5
402.729	415.85
403.107	423.76
403.486	427.83
403.864	409.75
404.242	412.01
404.62	449.75
404.999	447.94
405.377	439.35
405.755	453.59
406.133	466.7
406.511	436.64
406.889	489.3
407.267	485.91
407.645	482.74
408.023	471.89
408.401	486.58
408.779	488.62
409.156	478
409.534	492.46
409.912	494.72
410.29	506.7
410.667	502.63
411.045	525.9
411.422	543.98
411.8	556.19
412.178	562.74
412.555	560.71
412.933	581.72
413.31	529.29
413.687	561.38
414.065	588.05
414.442	587.6
414.819	587.37
415.197	590.08
415.574	600.7
415.951	616.75
416.328	622.4
416.705	620.59
417.082	616.3
417.46	630.99
417.837	634.83
418.214	646.81
418.591	644.09
418.967	675.73
419.344	667.37
419.721	682.51
420.098	668.05
420.475	711.44
420.852	710.76
421.228	716.86
421.605	717.54
421.982	745.79
422.358	736.52
422.735	760.02
423.111	728.16
423.488	769.29
423.864	764.54
424.241	788.04
424.617	805.44
424.994	827.37
425.37	849.51
425.746	873.47
426.123	843.41
426.499	852
426.875	873.92
427.251	887.25
427.627	866.01
428.003	904.2
428.379	936.74
428.756	918.44
429.132	949.62
429.507	937.64
429.883	937.87
430.259	964.08
430.635	963.18
431.011	966.57
431.387	976.51
431.763	1002.5
432.138	1013.58
432.514	1036.4
432.89	1058.32
433.265	1077.75
433.641	1092.67
434.016	1107.81
434.392	1134.02
434.767	1143.06
435.143	1136.51
435.518	1137.41
435.894	1212.89
436.269	1213.8
436.644	1244.76
437.02	1238.65
437.395	1273.68
437.77	1258.54
438.145	1282.49
438.52	1301.03
438.895	1324.3
439.271	1324.75
439.646	1359.55
440.021	1362.94
440.395	1361.59
440.77	1392.1
441.145	1365.88
441.52	1446.11
441.895	1420.57
442.27	1455.37
442.645	1452.66
443.019	1474.35
443.394	1475.71
443.769	1519.1
444.143	1492.88
444.518	1537.4
444.892	1532.21
445.267	1540.57
445.641	1537.18
446.016	1567.91
446.39	1582.15
446.764	1584.63
447.139	1597.29
447.513	1587.35
447.887	1614.46
448.262	1617.17
448.636	1630.28
449.01	1635.03
449.384	1659.66
449.758	1665.76
450.132	1693.33
450.506	1679.77
450.88	1687.23
451.254	1749.37
451.628	1765.65
452.002	1766.1
452.376	1790.05
452.75	1788.47
453.123	1783.72
453.497	1830.5
453.871	1826.89
454.244	1852.88
454.618	1863.27
454.992	1893.55
455.365	1891.74
455.739	1924.06
456.112	1961.35
456.486	1967.22
456.859	1970.84
457.232	2000.89
457.606	2019.2
457.979	2056.94
458.352	2098.29
458.725	2114.34
459.099	2116.14
459.472	2155.24
459.845	2165.64
460.218	2191.62
460.591	2210.83
460.964	2252.19
461.337	2262.36
461.71	2276.59
462.083	2333.31
462.456	2311.62
462.829	2348
463.201	2408.11
463.574	2403.82
463.947	2400.88
464.32	2477.49
464.692	2474.33
465.065	2491.28
465.438	2518.85
465.81	2588.67
466.183	2563.59
466.555	2623.7
466.928	2617.37
467.3	2618.05
467.672	2674.1
468.045	2704.6
468.417	2747.77
468.789	2763.59
469.161	2780.99
469.534	2849.68
469.906	2896.69
470.278	2904.82
470.65	2961.09
471.022	2972.85
471.394	3039.51
471.766	3025.27
472.138	3060.53
472.51	3147.98
472.882	3162.22
473.253	3196.57
473.625	3253.74
473.997	3302.33
474.369	3289.67
474.74	3338.49
475.112	3374.87
475.484	3444.47
475.855	3514.98
476.227	3514.3
476.598	3627.29
476.97	3630
477.341	3706.84
477.713	3703
478.084	3748.64
478.455	3813.5
478.827	3872.03
479.198	3958.36
479.569	3962.65
479.94	4045.36
480.311	4126.71
480.682	4186.82
481.053	4219.37
481.424	4305.69
481.795	4337.78
482.166	4400.6
482.537	4380.27
482.908	4507.49
483.279	4583.88
483.65	4626.36
484.021	4706.81
484.391	4747.94
484.762	4747.49
485.133	4832.01
485.503	4868.84
485.874	4947.71
486.244	4994.71
486.615	5064.54
486.985	5099.34
487.356	5192.45
487.726	5219.11
488.097	5335.04
488.467	5344.08
488.837	5408.49
489.207	5450.52
489.578	5471.76
489.948	5544.53
490.318	5625.43
490.688	5667.92
491.058	5736.39
491.428	5856.16
491.798	5832.66
492.168	5924.18
492.538	5944.07
492.908	6029.04
493.278	6070.62
493.648	6076.27
494.017	6165.98
494.387	6211.63
494.757	6220.67
495.126	6295.47
495.496	6315.36
495.866	6347.22
496.235	6379.54
496.605	6421.57
496.974	6466.99
497.344	6461.79
497.713	6514.22
498.082	6555.12
498.452	6570.94
498.821	6626.53
499.19	6601
499.559	6692.3
499.928	6753.76
500.298	6747.89
500.667	6775.46
501.036	6757.83
501.405	6907.66
501.774	6850.48
502.143	6862.46
502.512	6904.04
502.88	6953.98
503.249	6955.79
503.618	6998.73
503.987	7022
504.356	7040.99
504.724	7118.27
505.093	7081.21
505.462	7116.01
505.83	7074.43
506.199	7173.87
506.567	7271.72
506.936	7223.36
507.304	7300.19
507.672	7335.89
508.041	7325.5
508.409	7329.34
508.777	7424.71
509.145	7397.14
509.514	7407.76
509.882	7465.38
510.25	7439.85
510.618	7506.06
510.986	7532.27
511.354	7527.08
511.722	7573.18
512.09	7597.13
512.458	7580.41
512.826	7636.45
513.193	7543.12
513.561	7590.58
513.929	7633.06
514.297	7686.85
514.664	7768.88
515.032	7770.23
515.4	7744.92
515.767	7792.61
516.135	7838.71
516.502	7763.91
516.869	7853.85
517.237	7865.15
517.604	7852.04
517.972	7887.97
518.339	7919.38
518.706	7920.29
519.073	7963
519.44	7996.89
519.808	8017.91
520.175	7955.99
520.542	8062.88
520.909	8104.01
521.276	8028.31
521.643	8119.15
522.009	8106.5
522.376	8188.53
522.743	8158.02
523.11	8210.9
523.477	8235.76
523.843	8219.49
524.21	8247.51
524.577	8240.96
524.943	8298.58
525.31	8313.95
525.676	8323.21
526.043	8360.5
526.409	8344.91
526.776	8408.63
527.142	8385.58
527.508	8482.98
527.874	8445.7
528.241	8534.51
528.607	8508.52
528.973	8552.13
529.339	8481.4
529.705	8564.79
530.071	8508.75
530.437	8527.73
530.803	8587.61
531.169	8647.72
531.535	8581.96
531.901	8625.13
532.267	8664.45
532.632	8622.19
532.998	8633.26
533.364	8652.24
533.73	8638.23
534.095	8690.21
534.461	8602.75
534.826	8654.05
535.192	8632.58
535.557	8633.94
535.923	8703.32
536.288	8699.93
536.653	8691.34
537.019	8661.51
537.384	8615.86
537.749	8589.2
538.114	8689.76
538.479	8627.16
538.845	8636.65
539.21	8576.99
539.575	8572.25
539.94	8615.18
540.305	8631
540.67	8704.22
541.034	8610.21
541.399	8605.69
541.764	8634.84
542.129	8584.45
542.494	8588.29
542.858	8635.07
543.223	8630.78
543.587	8654.05
543.952	8554.17
544.316	8638.69
544.681	8573.15
545.045	8577.9
545.41	8638.69
545.774	8583.09
546.138	8591
546.503	8563.66
546.867	8535.64
547.231	8557.56
547.595	8553.04
547.959	8574.28
548.324	8563.43
548.688	8532.02
549.052	8611.57
549.416	8569.08
549.779	8510.1
550.143	8507.16
550.507	8590.1
550.871	8577.44
551.235	8513.26
551.599	8583.32
551.962	8551.91
552.326	8504.23
552.689	8511.23
553.053	8473.94
553.417	8483.66
553.78	8579.03
554.143	8538.8
554.507	8517.11
554.87	8518.01
555.234	8549.2
555.597	8531.8
555.96	8505.13
556.323	8564.11
556.686	8518.24
557.05	8568.4
557.413	8565.69
557.776	8530.89
558.139	8641.4
558.502	8569.76
558.865	8562.76
559.228	8552.13
559.59	8584.45
559.953	8634.39
560.316	8628.29
560.679	8627.16
561.041	8690.89
561.404	8683.2
561.767	8696.54
562.129	8692.24
562.492	8738.12
562.854	8687.5
563.217	8747.61
563.579	8771.34
563.941	8780.38
564.304	8777.89
564.666	8800.49
565.028	8741.73
565.39	8777.21
565.753	8887.27
566.115	8893.37
566.477	8860.15
566.839	8924.1
567.201	8894.27
567.563	8946.25
567.925	8960.26
568.287	8989.18
568.648	8973.37
569.01	9056.3
569.372	9117.54
569.734	9108.5
570.095	9138.56
570.457	9110.31
570.819	9147.15
571.18	9117.09
571.542	9164.55
571.903	9155.06
572.265	9171.1
572.626	9232.79
572.987	9192.57
573.349	9316.86
573.71	9304.43
574.071	9294.71
574.432	9277.99
574.794	9431.66
575.155	9369.06
575.516	9381.04
575.877	9404.77
576.238	9453.58
576.599	9526.35
576.96	9451.09
577.32	9454.48
577.681	9494.26
578.042	9583.75
578.403	9558.89
578.763	9611.54
579.124	9602.5
579.485	9619.9
579.845	9616.96
580.206	9640.92
580.566	9608.6
580.927	9651.09
581.287	9745.32
581.648	9709.62
582.008	9788.94
582.368	9757.3
582.728	9777.41
583.089	9846.56
583.449	9841.82
583.809	9798.65
584.169	9803.85
584.529	9889.05
584.889	9915.71
585.249	9911.87
585.609	9822.38
585.969	9977.63
586.329	9934.02
586.688	9998.42
587.048	9949.61
587.408	9971.08
587.768	9939.89
588.127	9927.24
588.487	9966.56
588.846	10056.73
589.206	10011.76
589.565	10072.09
589.925	10132.88
590.284	10063.96
590.643	10105.77
591.003	10115.48
591.362	10122.04
591.721	10161.81
592.08	10228.47
592.44	10214.92
592.799	10240.9
593.158	10198.42
593.517	10209.94
593.876	10199.77
594.235	10227.8
594.593	10321.13
594.952	10255.82
595.311	10235.03
595.67	10270.51
596.029	10314.35
596.387	10342.6
596.746	10312.99
597.104	10305.99
597.463	10310.28
597.822	10377.17
598.18	10322.48
598.538	10316.61
598.897	10463.04
599.255	10328.36
599.613	10457.85
599.972	10345.76
600.33	10439.99
600.688	10358.87
601.046	10449.03
601.404	10424.85
601.762	10376.04
602.12	10503.95
602.478	10504.4
602.836	10517.96
603.194	10441.12
603.552	10377.85
603.91	10447.23
604.268	10493.55
604.625	10509.37
604.983	10539.43
605.341	10493.78
605.698	10463.27
606.056	10523.16
606.413	10530.61
606.771	10561.35
607.128	10581.69
607.485	10535.36
607.843	10559.76
608.2	10565.87
608.557	10635.92
608.914	10644.28
609.272	10637.05
609.629	10653.1
609.986	10687.22
610.343	10645.86
610.7	10690.16
611.057	10700.55
611.414	10668.91
611.771	10677.73
612.127	10766.54
612.484	10710.04
612.841	10751.17
613.198	10699.42
613.554	10785.97
613.911	10771.06
614.267	10740.55
614.624	10768.8
614.98	10816.03
615.337	10822.81
615.693	10885.18
616.05	10800.89
616.406	10849.47
616.762	10862.81
617.118	10872.98
617.475	10878.63
617.831	10874.11
618.187	10888.8
618.543	10852.41
618.899	10928.57
619.255	10909.81
619.611	10900.09
619.967	10910.26
620.323	11014.22
620.678	10882.92
621.034	10899.64
621.39	10940.55
621.746	10884.05
622.101	11025.06
622.457	10889.47
622.812	10966.99
623.168	10940.55
623.523	10955.23
623.879	10962.01
624.234	10860.55
624.589	10987.78
624.945	10969.7
625.3	10935.8
625.655	10931.51
626.01	10935.12
626.365	10966.76
626.72	10948.46
627.075	10875.69
627.43	10849.47
627.785	10890.15
628.14	10896.25
628.495	10854.67
628.85	10860.32
629.205	10799.08
629.559	10924.05
629.914	10861.23
630.269	10804.5
630.623	10785.3
630.978	10775.13
631.332	10847.21
631.687	10782.81
632.041	10817.16
632.396	10861.45
632.75	10673.43
633.104	10730.16
633.459	10759.53
633.813	10730.16
634.167	10695.81
634.521	10742.81
634.875	10708.01
635.229	10674.56
635.583	10725.41
635.937	10627.11
636.291	10688.57
636.645	10628.69
636.999	10653.1
637.352	10640.67
637.706	10558.18
638.06	10614.68
638.413	10597.05
638.767	10551.63
639.121	10578.75
639.474	10545.3
639.828	10531.52
640.181	10537.62
640.534	10554.57
640.888	10511.4
641.241	10433.67
641.594	10468.92
641.947	10455.13
642.301	10437.06
642.654	10447.9
643.007	10463.72
643.36	10454
643.713	10367.45
644.066	10453.33
644.419	10394.57
644.771	10308.47
645.124	10164.52
645.477	10244.52
645.83	10129.27
646.182	10116.84
646.535	10102.38
646.888	10029.16
647.24	9986.67
647.593	10095.6
647.945	10003.62
648.298	10074.35
648.65	9990.29
649.002	9974.7
649.355	10058.08
649.707	10035.94
650.059	10118.19
650.411	10262.37
650.763	10237.29
651.115	10266.89
651.467	10347.57
651.819	10256.27
652.171	10284.52
652.523	10163.84
652.875	10311.86
653.227	10244.97
653.578	10271.41
653.93	10230.28
654.282	10192.77
654.633	10178.31
654.985	10207.91
655.337	10231.86
655.688	10271.41
656.039	10288.81
656.391	10280.22
656.742	10225.08
657.094	10256.27
657.445	10278.87
657.796	10221.69
658.147	10271.64
658.498	10219.43
658.849	10209.27
659.2	10238.87
659.551	10219.66
659.902	10233.22
660.253	10259.21
660.604	10288.81
660.955	10162.94
661.306	10162.71
661.656	10261.92
662.007	10271.41
662.358	10254.91
662.708	10269.6
663.059	10286.78
663.409	10230.06
663.76	10243.61
664.11	10304.63
664.461	10296.72
664.811	10303.73
665.161	10313.22
665.511	10312.54
665.862	10287
666.212	10308.47
666.562	10242.03
666.912	10265.54
667.262	10165.2
667.612	10298.75
667.962	10248.59
668.312	10301.92
668.662	10360
669.011	10254.24
669.361	10249.72
669.711	10258.98
670.06	10274.35
670.41	10236.84
670.76	10194.35
671.109	10263.5
671.459	10221.24
671.808	10254.69
672.157	10199.55
672.507	10195.25
672.856	10185.76
673.205	10173.11
673.554	10235.48
673.904	10146.67
674.253	10162.71
674.602	10125.43
674.951	10030.29
675.3	9937.41
675.649	10214.01
675.998	10059.44
676.346	10108.25
676.695	10157.06
677.044	10006.11
677.393	10104.64
677.741	10124.52
678.09	10105.54
678.438	10043.85
678.787	10029.38
679.135	10035.03
679.484	9993.9
679.832	9954.13
680.181	9972.66
680.529	9982.15
680.877	10046.78
681.225	10028.93
681.573	9931.53
681.922	9919.56
682.27	9856.05
682.618	9779.22
682.966	9800.46
683.314	9825.55
683.661	9811.76
684.009	9782.61
684.357	9728.37
684.705	9783.51
685.053	9758.2
685.4	9712.1
685.748	9656.51
686.095	9587.59
686.443	9569.06
686.79	9581.94
687.138	9572.22
687.485	9559.57
687.832	9548.04
688.18	9531.77
688.527	9471.66
688.874	9492.22
689.221	9437.76
689.568	9374.26
689.915	9436.18
690.262	9405.22
690.609	9371.1
690.956	9326.8
691.303	9255.62
691.65	9271.66
691.997	9229.4
692.344	9106.24
692.69	9175.62
693.037	9157.09
693.383	9093.36
693.73	9118.45
694.077	9093.14
694.423	9064.44
694.769	9026.47
695.116	9081.61
695.462	8978.56
695.808	8938.56
696.155	8945.34
696.501	8844.56
696.847	8872.35
697.193	8875.74
697.539	8862.41
697.885	8745.8
698.231	8704.67
698.577	8748.96
698.923	8661.28
699.269	8677.55
699.614	8627.61
699.96	8563.43
700.306	8568.86
700.651	8491.34
700.997	8528.18
701.342	8417.45
701.688	8502.87
702.033	8401.4
702.379	8413.38
702.724	8381.74
703.069	8311.91
703.415	8291.35
703.76	8261.97
704.105	8272.82
704.45	8199.15
704.795	8190.79
705.14	8191.92
705.485	8132.48
705.83	8095.2
706.175	8139.26
706.52	8052.03
706.865	8064.24
707.209	8068.53
707.554	7968.19
707.899	7977.23
708.243	8012.49
708.588	7873.51
708.932	7857.24
709.277	7893.17
709.621	7940.62
709.966	7834.19
710.31	7851.81
710.654	7770.91
710.998	7818.82
711.342	7739.73
711.687	7748.99
712.031	7732.95
712.375	7740.86
712.719	7685.04
713.063	7655.89
713.407	7685.26
713.75	7613.4
714.094	7647.98
714.438	7631.48
714.782	7649.56
715.125	7620.63
715.469	7562.78
715.812	7537.7
716.156	7473.74
716.499	7504.03
716.843	7471.26
717.186	7504.03
717.53	7532.73
717.873	7438.04
718.216	7497.7
718.559	7461.32
718.902	7386.74
719.246	7396.01
719.589	7408.44
719.932	7358.49
720.275	7375.22
720.617	7311.49
720.96	7373.63
721.303	7346.74
721.646	7402.79
721.989	7297.7
722.331	7343.35
722.674	7302
723.016	7249.34
723.359	7291.6
723.701	7286.86
724.044	7262.9
724.386	7256.57
724.729	7297.25
725.071	7238.27
725.413	7177.25
725.755	7194.2
726.097	7199.63
726.439	7170.02
726.782	7166.18
727.124	7221.77
727.465	7177.71
727.807	7190.59
728.149	7207.08
728.491	7168.22
728.833	7185.62
729.175	7171.61
729.516	7165.73
729.858	7171.38
730.199	7177.93
730.541	7145.39
730.882	7178.61
731.224	7146.97
731.565	7121.89
731.906	7126.18
732.248	7085.73
732.589	7127.99
732.93	7103.58
733.271	7140.87
733.612	7126.63
733.953	7140.87
734.294	7104.26
734.635	7032.85
734.976	7132.74
735.317	7099.74
735.658	7151.04
735.999	7100.65
736.339	7073.53
736.68	7187.2
737.021	7145.17
737.361	7076.01
737.702	7139.52
738.042	7144.94
738.383	7117.82
738.723	7174.99
739.063	7082.12
739.404	7106.97
739.744	7137.03
740.084	7149.68
740.424	7147.2
740.764	7097.48
741.104	7186.07
741.444	7217.93
741.784	7117.37
742.124	7175.45
742.464	7224.49
742.804	7205.95
743.143	7233.3
743.483	7249.34
743.823	7221.32
744.162	7262
744.502	7268.55
744.841	7278.5
745.181	7325.95
745.52	7344.93
745.86	7332.28
746.199	7408.21
746.538	7379.06
746.877	7489.79
747.216	7533.18
747.556	7533.4
747.895	7548.54
748.234	7609.33
748.573	7678.94
748.911	7725.94
749.25	7719.84
749.589	7754.41
749.928	7880.97
750.267	7841.87
750.605	7958.03
750.944	7963
751.283	7997.35
751.621	8164.8
751.96	8141.3
752.298	8175.19
752.636	8287.73
752.975	8343.55
753.313	8411.8
753.651	8584
753.989	8567.95
754.327	8698.12
754.666	8755.52
755.004	8884.33
755.342	8991.22
755.679	9061.95
756.017	9205.45
756.355	9296.52
756.693	9314.6
757.031	9451.32
757.368	9582.84
757.706	9630.3
758.044	9776.06
758.381	9938.76
758.719	10030.74
759.056	10134.92
759.394	10184.18
759.731	10384.4
760.068	10453.78
760.405	10583.27
760.743	10765.86
761.08	10843.15
761.417	10952.97
761.754	11068.23
762.091	11253.53
762.428	11284.49
762.765	11400.87
763.102	11646.06
763.438	11714.08
763.775	11796.79
764.112	11930.8
764.449	12062.78
764.785	12138.03
765.122	12270
765.458	12342.77
765.795	12459.83
766.131	12688.75
766.467	12732.14
766.804	12811.23
767.14	12916.31
767.476	13047.38
767.812	13101.84
768.148	13183.65
768.485	13272.01
768.821	13344.55
769.157	13445.79
769.492	13546.58
769.828	13628.61
770.164	13638.33
770.5	13775.05
770.836	13977.08
771.171	13793.35
771.507	13971.88
771.842	13942.27
772.178	14080.8
772.513	14213.91
772.849	14070.63
773.184	14224.53
773.519	14260.91
773.855	14386.56
774.19	14322.83
774.525	14427.23
774.86	14489.15
775.195	14468.14
775.53	14617.51
775.865	14591.98
776.2	14516.04
776.535	14530.06
776.87	14568.25
777.205	14619.77
777.539	14665.19
777.874	14729.15
778.209	14648.02
778.543	14683.27
778.878	14721.92
779.212	14761.01
779.547	14629.94
779.881	14799.2
780.215	14770.05
780.55	14801.24
780.884	14698.64
781.218	14775.47
781.552	14858.41
781.886	14686.44
782.22	14721.24
782.554	14673.55
782.888	14642.6
783.222	14690.73
783.556	14689.6
783.889	14629.71
784.223	14573.67
784.557	14560.56
784.89	14601.47
785.224	14617.29
785.557	14599.43
785.891	14688.24
786.224	14542.71
786.558	14597.4
786.891	14492.99
787.224	14498.42
787.557	14416.16
787.891	14383.17
788.224	14380.23
788.557	14485.76
788.89	14471.53
789.223	14403.51
789.556	14342.49
789.888	14382.72
790.221	14302.72
790.554	14194.47
790.887	14277.63
791.219	14294.81
791.552	14152.66
791.884	14143.85
792.217	14155.15
792.549	14037.64
792.882	14024.76
793.214	14014.82
793.546	13999.45
793.879	13895.27
794.211	13911.32
794.543	13914.48
794.875	13886.91
795.207	13945.21
795.539	13927.81
795.871	13923.52
796.203	13784.54
796.535	13738.44
796.867	13742.73
797.198	13653.47
797.53	13595.84
797.862	13650.3
798.193	13622.28
798.525	13541.38
798.856	13590.65
799.188	13402.85
799.519	13490.08
799.85	13322.63
800.182	13437.43
800.513	13393.14
800.844	13333.93
801.175	13376.41
801.506	13383.87
801.837	13298
802.168	13207.83
802.499	13185.46
802.83	13179.36
803.161	13121.73
803.491	13093.94
803.822	13091
804.153	13044.9
804.483	12941.4
804.814	12915.41
805.145	12920.83
805.475	12879.48
805.805	12823.21
806.136	12801.74
806.466	12815.52
806.796	12782.53
807.126	12727.62
807.457	12673.16
807.787	12675.42
808.117	12681.97
808.447	12600.62
808.777	12703.89
809.107	12588.19
809.436	12577.56
809.766	12596.55
810.096	12484.69
810.426	12489.21
810.755	12517.23
811.085	12446.72
811.414	12312.71
811.744	12403.33
812.073	12313.84
812.403	12397.46
812.732	12253.96
813.061	12328.98
813.39	12294.41
813.719	12189.1
814.049	12269.78
814.378	12166.28
814.707	12175.32
815.036	12107.97
815.365	12182.09
815.693	12063
816.022	12076.34
816.351	11951.37
816.68	11944.81
817.008	12031.82
817.337	11839.51
817.665	11891.71
817.994	11961.31
818.322	11877.02
818.651	11853.29
818.979	11738.72
819.307	11803.35
819.636	11831.14
819.964	11709.56
820.292	11855.55
820.62	11726.97
820.948	11711.37
821.276	11743.24
821.604	11634.54
821.932	11703.69
822.259	11769.45
822.587	11722.45
822.915	11665.27
823.243	11746.85
823.57	11616.46
823.898	11672.05
824.225	11667.08
824.553	11676.57
824.88	11654.43
825.207	11715.67
825.535	11647.87
825.862	11721.99
826.189	11695.55
826.516	11778.49
826.843	11819.62
827.17	11791.82
827.497	11691.94
827.824	11706.4
828.151	11794.76
828.478	11717.7
828.805	11785.95
829.131	11674.54
829.458	11695.78
829.785	11572.62
830.111	11734.2
830.438	11720.64
830.764	11804.93
831.09	11766.74
831.417	11663.01
831.743	11683.58
832.069	11690.81
832.395	11649
832.722	11599.74
833.048	11692.39
833.374	11619.62
833.7	11574.2
834.026	11641.09
834.351	11598.16
834.677	11591.15
835.003	11659.85
835.329	11600.19
835.654	11578.72
835.98	11561.09
836.306	11600.87
836.631	11580.3
836.956	11582.79
837.282	11618.49
837.607	11524.49
837.932	11529
838.258	11504.15
838.583	11458.72
838.908	11431.15
839.233	11472.96
839.558	11397.93
839.883	11345.28
840.208	11310.93
840.533	11367.2
840.858	11352.06
841.182	11258.05
841.507	11299.18
841.832	11207.43
842.156	11242.68
842.481	11168.11
842.805	11220.09
843.13	11210.14
843.454	11160.88
843.778	11124.27
844.103	11117.26
844.427	11073.42
844.751	11021.22
845.075	11071.62
845.399	11021.9
845.723	10924.5
846.047	10976.93
846.371	10869.14
846.695	10900.09
847.019	10702.36
847.343	10792.98
847.666	10717.73
847.99	10588.92
848.313	10701
848.637	10589.14
848.96	10581.23
849.284	10540.56
849.607	10494
849.931	10450.16
850.254	10366.55
850.577	10344.4
850.9	10254.01
851.223	10195.48
851.546	10210.85
851.869	10175.82
852.192	10211.07
852.515	10153.22
852.838	10103.96
853.161	10007.91
853.483	9978.31
853.806	9909.61
854.129	10022.83
854.451	9907.13
854.774	9935.15
855.096	9824.19
855.419	9748.03
855.741	9773.8
856.063	9704.42
856.385	9700.35
856.708	9666.23
857.03	9620.81
857.352	9670.07
857.674	9610.41
857.996	9585.55
858.318	9507.59
858.64	9452.45
858.961	9478.89
859.283	9448.83
859.605	9452.45
859.926	9397.99
860.248	9404.09
860.57	9376.74
860.891	9352.34
861.212	9294.94
861.534	9227.37
861.855	9234.15
862.176	9268.5
862.498	9214.94
862.819	9295.39
863.14	9280.48
863.461	9200.7
863.782	9111.89
864.103	9189.18
864.424	9095.62
864.745	9192.57
865.065	9136.3
865.386	9026.7
865.707	9066.47
866.027	9071.67
866.348	9048.62
866.668	9120.48
866.989	9030.09
867.309	8915.74
867.63	9004.55
867.95	8885.01
868.27	8906.02
868.59	8952.58
868.91	8903.31
869.23	8904.22
869.55	8893.82
869.87	8935.85
870.19	8896.53
870.51	8902.86
870.83	8932.46
871.15	8792.81
871.469	8801.17
871.789	8842.3
872.109	8801.84
872.428	8818.79
872.748	8794.16
873.067	8788.29
873.386	8748.29
873.706	8774.5
874.025	8750.77
874.344	8716.42
874.663	8740.6
874.982	8604.34
875.301	8698.57
875.62	8629.65
875.939	8694.5
876.258	8665.8
876.577	8597.56
876.896	8592.13
877.214	8518.46
877.533	8524.34
877.852	8571.57
878.17	8544.9
878.489	8578.12
878.807	8516.43
879.125	8540.61
879.444	8429.43
879.762	8484.34
880.08	8464.23
880.398	8439.37
880.716	8517.33
881.034	8388.3
881.352	8391.23
881.67	8377.45
881.988	8356.21
882.306	8379.03
882.624	8347.85
882.941	8269.2
883.259	8263.33
883.577	8278.92
883.894	8284.12
884.212	8214.29
884.529	8224.23
884.846	8178.81
885.164	8142.65
885.481	8069.21
885.798	8149.21
886.115	8073.05
886.432	8085.48
886.75	8056.1
887.067	8094.52
887.383	8039.83
887.7	8027.63
888.017	7948.99
888.334	8006.16
888.651	7913.05
888.967	7929.1
889.284	7909.66
889.6	7901.3
889.917	7819.05
890.233	7850.46
890.55	7834.41
890.866	7783.57
891.182	7719.16
891.498	7708.09
891.815	7725.26
892.131	7672.16
892.447	7699.95
892.763	7692.95
893.079	7600.07
893.395	7615.89
893.71	7647.07
894.026	7560.97
894.342	7548.09
894.657	7481.2
894.973	7477.59
895.289	7437.59
895.604	7491.82
895.92	7363.24
896.235	7355.78
896.55	7391.71
896.865	7278.04
897.181	7337.02
897.496	7304.94
897.811	7219.29
898.126	7221.1
898.441	7234.65
898.756	7218.16
899.071	7145.39
899.386	7141.32
899.7	7102.23
900.015	7130.25
900.33	7040.99
900.644	7050.25
900.959	6996.02
901.273	7026.98
901.588	6985.85
901.902	6905.62
902.216	6924.15
902.531	6878.51
902.845	6829.02
903.159	6839.41
903.473	6757.83
903.787	6750.15
904.101	6783.59
904.415	6710.6
904.729	6698.4
905.042	6727.55
905.356	6663.82
905.67	6671.96
905.984	6655.23
906.297	6598.74
906.611	6519.64
906.924	6524.62
907.237	6503.15
907.551	6504.96
907.864	6489.59
908.177	6552.41
908.491	6403.94
908.804	6365.3
909.117	6378.63
909.43	6321.68
909.743	6311.29
910.056	6287.79
910.368	6262.25
910.681	6222.25
910.994	6196.04
911.307	6226.32
911.619	6203.72
911.932	6104.06
912.244	6139.54
912.557	6069.04
912.869	5979.77
913.181	6014.57
913.494	6007.34
913.806	6012.77
914.118	5963.73
914.43	5958.76
914.742	5962.82
915.054	5865.88
915.366	5906.78
915.678	5839.21
915.99	5834.47
916.302	5780.91
916.613	5798.31
916.925	5760.12
917.236	5739.55
917.548	5735.71
917.859	5703.17
918.171	5688.48
918.482	5667.92
918.794	5655.49
919.105	5634.02
919.416	5545.89
919.727	5587.01
920.038	5558.31
920.349	5458.43
920.66	5493.46
920.971	5473.8
921.282	5476.51
921.593	5434.48
921.903	5395.15
922.214	5414.36
922.525	5350.86
922.835	5363.07
923.146	5328.72
923.456	5295.72
923.767	5226.57
924.077	5250.53
924.387	5236.06
924.697	5206.91
925.008	5203.3
925.318	5149.06
925.628	5212.56
925.938	5102.73
926.248	5107.03
926.558	5099.57
926.867	5085.56
927.177	5047.59
927.487	5032.45
927.796	4994.49
928.106	4969.18
928.416	4982.51
928.725	4924.43
929.034	4945.45
929.344	4923.08
929.653	4862.06
929.962	4851.44
930.271	4820.48
930.581	4824.1
930.89	4778
931.199	4786.58
931.508	4755.17
931.817	4759.69
932.125	4761.5
932.434	4685.12
932.743	4676.08
933.051	4660.48
933.36	4629.75
933.669	4590.43
933.977	4631.78
934.286	4562.63
934.594	4610.09
934.902	4575.29
935.21	4522.86
935.519	4519.02
935.827	4487.61
936.135	4504.33
936.443	4465.24
936.751	4466.14
937.059	4438.12
937.367	4385.24
937.674	4386.37
937.982	4366.26
938.29	4393.15
938.597	4375.07
938.905	4314.96
939.213	4272.7
939.52	4265.47
939.827	4299.14
940.135	4259.37
940.442	4250.33
940.749	4245.81
941.056	4191.57
941.363	4165.36
941.67	4162.87
941.977	4121.74
942.284	4119.71
942.591	4120.39
942.898	4086.49
943.205	4103.21
943.511	4000.84
943.818	4044.23
944.125	4010.11
944.431	3987.73
944.738	3997.45
945.044	3942.09
945.35	3934.18
945.657	3942.54
945.963	3924.01
946.269	3921.3
946.575	3883.56
946.881	3877.45
947.187	3863.44
947.493	3842.43
947.799	3818.93
948.105	3818.47
948.41	3781.64
948.716	3731.02
949.022	3752.94
949.327	3766.05
949.633	3710.91
949.938	3698.93
950.244	3712.04
950.549	3677.69
950.854	3720.85
951.16	3671.13
951.465	3639.72
951.77	3641.53
952.075	3582.32
952.38	3577.8
952.685	3558.59
952.99	3557.46
953.294	3500.06
953.599	3523.34
953.904	3529.22
954.209	3483.57
954.513	3473.4
954.818	3438.14
955.122	3463.45
955.426	3461.65
955.731	3421.65
956.035	3397.47
956.339	3388.88
956.643	3367.64
956.948	3355.89
957.252	3362.67
957.556	3368.54
957.86	3319.73
958.163	3344.81
958.467	3291.26
958.771	3311.14
959.075	3262.56
959.378	3242.44
959.682	3274.31
959.985	3189.34
960.289	3252.61
960.592	3180.07
960.896	3209.45
961.199	3165.16
961.502	3144.82
961.805	3144.37
962.108	3121.54
962.411	3155.67
962.714	3116.57
963.017	3100.3
963.32	3113.18
963.623	3069.11
963.926	3044.71
964.228	3059.62
964.531	3009.91
964.833	3023.24
965.136	2978.72
965.438	2975.56
965.741	2979.17
966.043	2973.3
966.345	2981.66
966.648	2933.98
966.95	2939.17
967.252	2889.91
967.554	2908.89
967.856	2852.4
968.158	2867.99
968.46	2821.89
968.761	2844.71
969.063	2858.5
969.365	2834.77
969.666	2814.21
969.968	2808.78
970.269	2804.26
970.571	2768.11
970.872	2805.84
971.174	2762.68
971.475	2770.14
971.776	2746.41
972.077	2740.54
972.378	2718.61
972.679	2698.5
972.98	2689.24
973.281	2676.36
973.582	2659.41
973.883	2668.22
974.183	2641.33
974.484	2649.69
974.785	2625.96
975.085	2658.96
975.386	2633.87
975.686	2587.32
975.986	2598.39
976.287	2584.83
976.587	2571.05
976.887	2541.44
977.187	2571.05
977.487	2529.24
977.787	2509.58
978.087	2492.18
978.387	2512.97
978.687	2496.02
978.987	2492.86
979.286	2470.26
979.586	2462.8
979.885	2428
980.185	2399.98
980.484	2398.62
980.784	2450.6
981.083	2408.57
981.382	2373.77
981.682	2373.99
981.981	2373.09
982.28	2347.1
982.579	2349.13
982.878	2346.65
983.177	2354.56
983.475	2309.36
983.774	2282.47
984.073	2280.21
984.372	2268.46
984.67	2287.89
984.969	2293.09
985.267	2268.23
985.566	2274.78
985.864	2242.24
986.162	2218.29
986.461	2178.52
986.759	2209.7
987.057	2200.89
987.355	2175.58
987.653	2149.82
987.951	2174.67
988.249	2168.12
988.547	2169.02
988.844	2139.42
989.142	2134
989.44	2109.82
989.737	2124.28
990.035	2084.28
990.332	2096.03
990.63	2088.58
990.927	2088.58
991.224	2078.41
991.521	2028.46
991.819	2043.38
992.116	2047.67
992.413	2027.11
992.71	1994.11
993.006	2011.51
993.303	2011.51
993.6	2005.87
993.897	1975.58
994.193	1967.45
994.49	1959.99
994.787	1950.73
995.083	1939.43
995.379	1933.32
995.676	1919.09
995.972	1919.31
996.268	1882.03
996.565	1913.89
996.861	1900.56
997.157	1891.29
997.453	1887.9
997.749	1886.77
998.044	1869.6
998.34	1852.42
998.636	1814.91
998.932	1818.53
999.227	1809.94
999.523	1837.51
999.818	1834.57
1000.114	1771.07
1000.409	1788.47
1000.704	1780.33
1001	1770.39
1001.295	1708.7
1001.59	1738.53
1001.885	1754.8
1002.18	1733.56
1002.475	1724.74
1002.77	1680.45
1003.065	1714.35
1003.359	1719.32
1003.654	1676.83
1003.949	1697.17
1004.243	1665.54
1004.538	1647.23
1004.832	1642.49
1005.127	1642.71
1005.421	1635.93
1005.715	1645.42
1006.009	1623.73
1006.304	1611.75
1006.598	1625.54
1006.892	1587.8
1007.186	1565.88
1007.48	1578.31
1007.773	1555.71
1008.067	1536.27
1008.361	1525.43
1008.655	1517.97
1008.948	1501.92
1009.242	1544.86
1009.535	1497.86
1009.829	1506.67
1010.122	1473.22
1010.415	1488.14
1010.708	1477.29
1011.001	1475.71
1011.295	1456.95
1011.588	1449.5
1011.881	1461.92
1012.173	1431.87
1012.466	1431.64
1012.759	1416.5
1013.052	1407.24
1013.344	1409.72
1013.637	1365.88
1013.93	1388.93
1014.222	1400.01
1014.514	1375.37
1014.807	1370.18
1015.099	1327.47
1015.391	1375.6
1015.683	1369.72
1015.976	1344.19
1016.268	1338.76
1016.56	1315.26
1016.851	1300.8
1017.143	1325.43
1017.435	1310.29
1017.727	1306.9
1018.018	1262.38
1018.31	1270.07
1018.602	1254.7
1018.893	1268.26
1019.185	1250.18
1019.476	1245.66
1019.767	1246.11
1020.058	1231.87
1020.35	1204.53
1020.641	1194.14
1020.932	1194.81
1021.223	1205.89
1021.514	1172.44
1021.804	1176.06
1022.095	1165.44
1022.386	1157.3
1022.677	1175.15
1022.967	1163.85
1023.258	1146
1023.548	1166.11
1023.839	1146
1024.129	1129.5
1024.419	1117.3
1024.709	1106.68
1025	1110.07
1025.29	1113.01
1025.58	1120.24
1025.87	1072.78
1026.16	1050.18
1026.449	1081.14
1026.739	1054.7
1027.029	1069.17
1027.319	1071.43
1027.608	1066.91
1027.898	1014.93
1028.187	1019.68
1028.477	1055.83
1028.766	1006.12
1029.055	1020.35
1029.344	1005.67
1029.634	994.59
1029.923	976.06
1030.212	998.43
1030.501	974.48
1030.79	967.93
1031.078	976.97
1031.367	985.1
1031.656	941.03
1031.945	954.37
1032.233	944.2
1032.522	943.07
1032.81	934.26
1033.099	951.2
1033.387	933.13
1033.675	931.54
1033.963	907.36
1034.251	905.56
1034.54	906.23
1034.828	919.79
1035.116	924.31
1035.403	903.52
1035.691	883.86
1035.979	886.8
1036.267	884.31
1036.554	875.27
1036.842	915.72
1037.129	859.45
1037.417	840.7
1037.704	850.64
1037.992	852
1038.279	837.31
1038.566	831.21
1038.853	831.21
1039.14	831.21
