Data from hue_90_FLMS001491_74.txt Node
Date: Mon Feb 06 15:25:37 GMT 2017
User: dcchb
Spectrometer: FLMS00149
Trigger mode: 0
Integration Time (sec): 2.000000E-2
Scans to average: 10
Electric dark correction enabled: true
Nonlinearity correction enabled: false
Boxcar width: 0
XAxis mode: Wavelengths
Number of Pixels in Spectrum: 2048
>>>>>Begin Spectral Data<<<<<
341.393	-5.8
341.776	-5.8
342.16	-5.8
342.543	-72.24
342.927	-72.47
343.31	-79.7
343.693	-69.53
344.077	-84.67
344.46	-49.19
344.843	-52.36
345.226	-54.39
345.61	-35.86
345.993	-17.1
346.376	-19.59
346.759	7.98
347.142	28.32
347.525	50.69
347.908	79.62
348.291	63.8
348.674	108.54
349.057	123.46
349.44	117.58
349.823	145.6
350.206	163.23
350.588	174.3
350.971	204.13
351.354	209.33
351.737	236.9
352.119	260.18
352.502	268.31
352.884	265.83
353.267	288.2
353.65	281.42
354.032	289.78
354.414	288.65
354.797	324.81
355.179	322.55
355.562	310.12
355.944	331.36
356.326	324.13
356.709	315.09
357.091	326.16
357.473	332.04
357.855	329.78
358.238	335.66
358.62	339.72
359.002	323.68
359.384	356.67
359.766	325.26
360.148	334.07
360.53	340.17
360.912	342.66
361.294	335.66
361.676	352.38
362.057	309.44
362.439	338.37
362.821	331.14
363.203	307.63
363.584	322.77
363.966	324.58
364.348	319.16
364.729	316.45
365.111	308.54
365.493	309.67
365.874	291.14
366.256	303.34
366.637	315.32
367.019	312.15
367.4	325.03
367.781	315.99
368.163	306.73
368.544	316.22
368.925	323.68
369.306	313.73
369.688	300.18
370.069	300.4
370.45	317.35
370.831	303.57
371.212	306.73
371.593	303.57
371.974	304.7
372.355	286.62
372.736	322.32
373.117	305.37
373.498	314.19
373.879	303.57
374.26	301.76
374.641	310.12
375.021	322.77
375.402	320.51
375.783	320.74
376.163	342.21
376.544	318.03
376.925	334.53
377.305	328.42
377.686	308.76
378.066	320.97
378.447	331.81
378.827	317.58
379.208	316.45
379.588	318.93
379.968	309.67
380.349	335.88
380.729	337.24
381.109	317.35
381.489	314.19
381.87	336.11
382.25	354.41
382.63	351.93
383.01	346.05
383.39	341.76
383.77	346.28
384.15	330.91
384.53	329.33
384.91	337.69
385.29	358.48
385.67	329.55
386.049	346.28
386.429	335.66
386.809	341.76
387.189	339.5
387.568	346.05
387.948	346.28
388.328	361.19
388.707	364.13
389.087	381.53
389.466	359.16
389.846	356.45
390.225	364.81
390.605	351.93
390.984	353.96
391.363	352.38
391.743	367.29
392.122	383.34
392.501	345.82
392.881	373.39
393.26	369.1
393.639	355.99
394.018	368.87
394.397	372.26
394.776	373.85
395.155	366.39
395.534	409.33
395.913	369.1
396.292	370
396.671	372.72
397.05	377.24
397.429	395.77
397.808	389.66
398.186	390.79
398.565	379.04
398.944	374.07
399.323	393.28
399.701	395.09
400.08	389.89
400.458	397.12
400.837	402.77
401.215	400.06
401.594	396.9
401.972	425.37
402.351	404.81
402.729	406.61
403.107	424.47
403.486	426.27
403.864	412.04
404.242	407.29
404.62	418.82
404.999	389.89
405.377	412.94
405.755	397.12
406.133	424.47
406.511	419.27
406.889	424.69
407.267	446.16
407.645	436.22
408.023	423.11
408.401	441.87
408.779	437.57
409.156	440.51
409.534	429.89
409.912	435.31
410.29	457.69
410.667	448.42
411.045	457.91
411.422	461.3
411.8	478.7
412.178	463.56
412.555	473.5
412.933	468.76
413.31	465.37
413.687	457.46
414.065	492.49
414.442	470.11
414.819	479.38
415.197	478.48
415.574	469.89
415.951	496.33
416.328	479.61
416.705	475.54
417.082	480.74
417.46	508.08
417.837	499.49
418.214	539.94
418.591	512.83
418.967	506.5
419.344	527.74
419.721	526.38
420.098	508.76
420.475	529.77
420.852	522.77
421.228	530.45
421.605	525.03
421.982	525.71
422.358	545.14
422.735	546.95
423.111	539.27
423.488	550.79
423.864	551.47
424.241	561.41
424.617	530.23
424.994	571.36
425.37	555.99
425.746	559.38
426.123	572.48
426.499	565.71
426.875	598.92
427.251	594.41
427.627	580.62
428.003	590.11
428.379	560.73
428.756	580.85
429.132	626.72
429.507	612.71
429.883	616.55
430.259	618.81
430.635	616.55
431.011	631.47
431.387	649.77
431.763	654.06
432.138	616.33
432.514	657
432.89	670.79
433.265	670.56
433.641	668.3
434.016	671.24
434.392	674.86
434.767	679.37
435.143	681.18
435.518	691.13
435.894	683.22
436.269	714.18
436.644	710.56
437.02	739.94
437.395	693.16
437.77	717.11
438.145	722.99
438.52	744.91
438.895	742.2
439.271	745.14
439.646	773.38
440.021	755.53
440.395	779.26
440.77	746.04
441.145	759.6
441.52	774.51
441.895	786.72
442.27	793.04
442.645	795.53
443.019	781.97
443.394	817
443.769	806.6
444.143	810.9
444.518	810.67
444.892	833.72
445.267	824
445.641	822.2
446.016	846.15
446.39	856.55
446.764	836.66
447.139	830.78
447.513	827.39
447.887	856.32
448.262	870.56
448.636	859.71
449.01	871.91
449.384	892.48
449.758	884.57
450.132	898.8
450.506	885.7
450.88	888.63
451.254	903.55
451.628	903.32
452.002	912.59
452.376	914.17
452.75	942.64
453.123	954.4
453.497	951.68
453.871	957.79
454.244	993.49
454.618	984.23
454.992	989.2
455.365	1044.79
455.739	1010.67
456.112	1023.32
456.486	1030.78
456.859	1052.7
457.232	1064.9
457.606	1064.45
457.979	1077.33
458.352	1110.1
458.725	1111.68
459.099	1118.46
459.472	1153.03
459.845	1126.14
460.218	1149.64
460.591	1175.63
460.964	1192.13
461.337	1208.17
461.71	1193.03
462.083	1230.77
462.456	1222.64
462.829	1246.37
463.201	1265.57
463.574	1293.14
463.947	1288.17
464.32	1336.98
464.692	1339.92
465.065	1337.21
465.438	1363.88
465.81	1409.3
466.183	1411.11
466.555	1433.48
466.928	1431.45
467.3	1454.72
467.672	1472.35
468.045	1519.35
468.417	1507.6
468.789	1534.27
469.161	1592.57
469.534	1611.78
469.906	1628.05
470.278	1666.02
470.65	1664.43
471.022	1710.53
471.394	1725
471.766	1780.59
472.138	1834.6
472.51	1817.65
472.882	1877.08
473.253	1902.39
473.625	1963.41
473.997	2027.59
474.369	2030.75
474.74	2030.53
475.112	2132.22
475.484	2157.75
475.855	2195.04
476.227	2261.71
476.598	2326.11
476.97	2351.87
477.341	2426
477.713	2449.72
478.084	2507.58
478.455	2598.87
478.827	2637.74
479.198	2732.2
479.569	2797.29
479.94	2855.81
480.311	2934.23
480.682	2986.43
481.053	3106.43
481.424	3208.35
481.795	3263.71
482.166	3315.01
482.537	3402.69
482.908	3522.24
483.279	3599.07
483.65	3677.04
484.021	3804.49
484.391	3893.75
484.762	3945.28
485.133	4033.18
485.503	4114.31
485.874	4245.38
486.244	4378.71
486.615	4498.03
486.985	4621.64
487.356	4742.77
487.726	4813.73
488.097	4925.14
488.467	5046.49
488.837	5165.13
489.207	5289.88
489.578	5422.3
489.948	5476.99
490.318	5636.08
490.688	5714.04
491.058	5873.59
491.428	5989.07
491.798	6081.04
492.168	6275.61
492.538	6334.14
492.908	6473.12
493.278	6654.58
493.648	6698.88
494.017	6832.21
494.387	6917.85
494.757	7060.9
495.126	7212.99
495.496	7275.81
495.866	7373.89
496.235	7530.72
496.605	7652.07
496.974	7729.58
497.344	7868.56
497.713	7964.61
498.082	8083.7
498.452	8196.69
498.821	8242.11
499.19	8274.66
499.559	8443.01
499.928	8515.78
500.298	8686.4
500.667	8723.91
501.036	8768.65
501.405	8864.02
501.774	8937.91
502.143	9081.87
502.512	9129.32
502.88	9211.81
503.249	9270.79
503.618	9344.23
503.987	9418.58
504.356	9524.11
504.724	9565.47
505.093	9613.15
505.462	9725.01
505.83	9780.6
506.199	9875.97
506.567	9986.02
506.936	10007.27
507.304	10174.72
507.672	10195.73
508.041	10267.37
508.409	10335.39
508.777	10391.66
509.145	10418.33
509.514	10505.78
509.882	10528.16
510.25	10578.55
510.618	10752.1
510.986	10652.22
511.354	10787.36
511.722	10826.45
512.09	10957.07
512.458	10902.38
512.826	11013.57
513.193	11010.4
513.561	11098.08
513.929	11138.99
514.297	11288.36
514.664	11304.63
515.032	11329.94
515.4	11364.52
515.767	11425.53
516.135	11498.07
516.502	11438.41
516.869	11631.86
517.237	11601.8
517.604	11551.18
517.972	11687.67
518.339	11710.5
518.706	11661.46
519.073	11734.9
519.44	11772.19
519.808	11869.14
520.175	11749.37
520.542	11992.98
520.909	11968.8
521.276	11939.87
521.643	12021.68
522.009	12131.73
522.376	12052.41
522.743	12191.16
523.11	12165.63
523.477	12258.73
523.843	12342.8
524.21	12429.35
524.577	12397.94
524.943	12370.82
525.31	12479.29
525.676	12511.83
526.043	12446.75
526.409	12515
526.776	12672.51
527.142	12574.66
527.508	12636.12
527.874	12694.88
528.241	12751.6
528.607	12673.18
528.973	12841.31
529.339	12699.85
529.705	12796.12
530.071	12823.24
530.437	12820.3
530.803	12845.16
531.169	12867.3
531.535	12764.03
531.901	12835.44
532.267	12866.17
532.632	12861.88
532.998	12841.54
533.364	12910.01
533.73	12903.46
534.095	12880.86
534.461	12840.64
534.826	12909.11
535.192	12887.64
535.557	12981.2
535.923	12920.86
536.288	12793.41
536.653	12852.39
537.019	12779.62
537.384	12846.29
537.749	12789.11
538.114	12710.92
538.479	12743.69
538.845	12786.63
539.21	12707.08
539.575	12732.39
539.94	12786.63
540.305	12746.4
540.67	12582.34
541.034	12695.78
541.399	12615.11
541.764	12614.2
542.129	12656.69
542.494	12670.02
542.858	12610.81
543.223	12535.11
543.587	12520.65
543.952	12523.81
544.316	12487.43
544.681	12476.8
545.045	12401.55
545.41	12530.59
545.774	12467.31
546.138	12324.04
546.503	12401.78
546.867	12297.15
547.231	12397.48
547.595	12408.11
547.959	12365.62
548.324	12281.1
548.688	12195.68
549.052	12230.03
549.416	12268.67
549.779	12263.7
550.143	12175.57
550.507	12168.34
550.871	12131.28
551.235	12125.18
551.599	12082.92
551.962	12085.63
552.326	12104.16
552.689	12122.01
553.053	12044.95
553.417	12022.35
553.78	12089.02
554.143	11971.73
554.507	12039.3
554.87	12047.66
555.234	12112.75
555.597	11904.62
555.96	11995.24
556.323	11954.56
556.686	11926.31
557.05	11992.3
557.413	11979.87
557.776	11901.23
558.139	11979.87
558.502	11912.3
558.865	11896.48
559.228	11965.86
559.59	11915.46
559.953	11997.27
560.316	12021
560.679	11983.48
561.041	12020.77
561.404	11930.38
561.767	12108.9
562.129	12018.51
562.492	12068
562.854	12011.51
563.217	12003.6
563.579	12027.1
563.941	12065.97
564.304	12063.71
564.666	12113.42
565.028	12070.71
565.39	12121.11
565.753	12148.9
566.115	12047.66
566.477	12180.99
566.839	12113.2
567.201	12161.33
567.563	12129.7
567.925	12232.29
568.287	12125.63
568.648	12253.31
569.01	12287.43
569.372	12296.24
569.734	12273.65
570.095	12364.72
570.457	12288.56
570.819	12325.62
571.18	12362.91
571.542	12414.66
571.903	12317.03
572.265	12404.04
572.626	12408.56
572.987	12478.39
573.349	12387.32
573.71	12460.31
574.071	12446.97
574.432	12448.1
574.794	12547.31
575.155	12451.27
575.516	12481.55
575.877	12520.42
576.238	12489.91
576.599	12561.55
576.96	12497.6
577.32	12535.33
577.681	12533.3
578.042	12495.34
578.403	12600.64
578.763	12535.11
579.124	12596.12
579.485	12600.19
579.845	12667.08
580.206	12549.12
580.566	12576.92
580.927	12509.8
581.287	12557.25
581.648	12514.54
582.008	12556.58
582.368	12461.66
582.728	12552.06
583.089	12581.43
583.449	12499.4
583.809	12534.88
584.169	12546.63
584.529	12508.89
584.889	12603.58
585.249	12574.66
585.609	12557.03
585.969	12595.22
586.329	12559.74
586.688	12592.06
587.048	12479.06
587.408	12510.25
587.768	12575.33
588.127	12504.83
588.487	12537.59
588.846	12508.44
589.206	12437.94
589.565	12431.61
589.925	12465.28
590.284	12433.19
590.643	12494.88
591.003	12467.77
591.362	12472.96
591.721	12342.12
592.08	12465.05
592.44	12401.33
592.799	12465.05
593.158	12451.95
593.517	12431.38
593.876	12429.57
594.235	12448.33
594.593	12360.42
594.952	12371.95
595.311	12362.68
595.67	12446.52
596.029	12451.49
596.387	12446.3
596.746	12431.16
597.104	12325.85
597.463	12285.85
597.822	12411.95
598.18	12332.4
598.538	12288.34
598.897	12392.97
599.255	12219.64
599.613	12448.78
599.972	12347.54
600.33	12352.74
600.688	12363.36
601.046	12390.93
601.404	12387.99
601.762	12380.76
602.12	12405.39
602.478	12398.16
602.836	12438.16
603.194	12312.52
603.552	12331.95
603.91	12299.63
604.268	12298.28
604.625	12315.45
604.983	12429.35
605.341	12292.85
605.698	12362.68
606.056	12428.22
606.413	12360.88
606.771	12357.03
607.128	12402.91
607.485	12268.9
607.843	12378.95
608.2	12381.21
608.557	12471.38
608.914	12372.85
609.272	12427.54
609.629	12424.15
609.986	12454.66
610.343	12405.62
610.7	12487.65
611.057	12555.67
611.414	12490.14
611.771	12497.37
612.127	12450.36
612.484	12532.62
612.841	12603.36
613.198	12569.01
613.554	12544.37
613.911	12573.3
614.267	12606.29
614.624	12511.83
614.98	12560.42
615.337	12656.91
615.693	12614.88
616.05	12638.16
616.406	12615.11
616.762	12551.6
617.118	12639.29
617.475	12644.71
617.831	12669.34
618.187	12653.75
618.543	12698.49
618.899	12733.75
619.255	12676.57
619.611	12646.07
619.967	12757.02
620.323	12817.59
620.678	12669.12
621.034	12652.39
621.39	12681.55
621.746	12651.04
622.101	12881.09
622.457	12691.94
622.812	12764.93
623.168	12729.91
623.523	12692.84
623.879	12790.02
624.234	12670.47
624.589	12744.82
624.945	12751.37
625.3	12722.9
625.655	12733.3
626.01	12801.77
626.365	12717.7
626.72	12627.08
627.075	12776.23
627.43	12675.67
627.785	12693.07
628.14	12690.58
628.495	12729
628.85	12706.18
629.205	12683.8
629.559	12738.49
629.914	12679.29
630.269	12678.38
630.623	12643.58
630.978	12635.67
631.332	12606.07
631.687	12636.57
632.041	12578.72
632.396	12605.16
632.75	12522.23
633.104	12565.84
633.459	12480.19
633.813	12566.52
634.167	12428.22
634.521	12471.83
634.875	12471.61
635.229	12481.32
635.583	12433.42
635.937	12444.49
636.291	12404.94
636.645	12361.1
636.999	12450.59
637.352	12402.68
637.706	12336.92
638.06	12363.81
638.413	12360.65
638.767	12299.86
639.121	12345.73
639.474	12324.72
639.828	12276.58
640.181	12266.19
640.534	12308.67
640.888	12284.04
641.241	12157.94
641.594	12209.69
641.947	12332.85
642.301	12185.96
642.654	12225.96
643.007	12264.61
643.36	12235.46
643.713	12155.01
644.066	12244.49
644.419	12131.96
644.771	12061.67
645.124	12002.24
645.477	11941
645.83	11818.74
646.182	11822.81
646.535	11792.08
646.888	11848.12
647.24	11722.7
647.593	11795.01
647.945	11827.33
648.298	11700.55
648.65	11670.72
649.002	11671.63
649.355	11738.29
649.707	11764.51
650.059	11794.34
650.411	11927.67
650.763	11989.59
651.115	12064.39
651.467	11976.93
651.819	11986.65
652.171	12059.19
652.523	11994.33
652.875	11984.16
653.227	11919.76
653.578	11999.3
653.93	12018.96
654.282	11964.95
654.633	11870.72
654.985	11940.1
655.337	11970.83
655.688	11933.54
656.039	12010.83
656.391	11966.99
656.742	11902.13
657.094	11921.11
657.445	11951.39
657.796	11998.85
658.147	11981
658.498	11979.19
658.849	12009.25
659.2	11950.26
659.551	11950.04
659.902	11966.31
660.253	11980.77
660.604	12050.83
660.955	11931.51
661.306	12029.81
661.656	11952.98
662.007	12000.89
662.358	11967.21
662.708	11987.55
663.059	12036.59
663.409	11909.14
663.76	12028.68
664.11	11960.43
664.461	12014.22
664.811	12059.87
665.161	12063.03
665.511	12024.39
665.862	12055.8
666.212	12076.14
666.562	12060.09
666.912	12025.74
667.262	12005.18
667.612	11997.72
667.962	12031.84
668.312	11991.85
668.662	12053.31
669.011	11986.2
669.361	11959.08
669.711	12003.37
670.06	11957.72
670.41	11983.94
670.76	11910.04
671.109	11965.41
671.459	11975.57
671.808	11893.09
672.157	12042.24
672.507	11848.57
672.856	11867.1
673.205	11898.97
673.554	11901.9
673.904	11917.72
674.253	11924.5
674.602	11872.3
674.951	11722.93
675.3	11613.1
675.649	11853.77
675.998	11846.09
676.346	11837.27
676.695	11823.26
677.044	11782.81
677.393	11719.99
677.741	11786.65
678.09	11803.83
678.438	11762.47
678.787	11783.94
679.135	11753.89
679.484	11712.76
679.832	11733.77
680.181	11638.86
680.529	11628.24
680.877	11605.42
681.225	11675.92
681.573	11636.15
681.922	11623.27
682.27	11550.5
682.618	11497.85
682.966	11500.11
683.314	11570.61
683.661	11527.9
684.009	11481.12
684.357	11407.68
684.705	11385.31
685.053	11385.53
685.4	11377.62
685.748	11364.74
686.095	11278.19
686.443	11290.4
686.79	11237.29
687.138	11292.66
687.485	11270.96
687.832	11188.03
688.18	11229.83
688.527	11116.39
688.874	11126.33
689.221	11106.67
689.568	11000.46
689.915	11082.72
690.262	10948.26
690.609	10952.55
690.956	10925.89
691.303	10858.54
691.65	10790.97
691.997	10759.56
692.344	10748.71
692.69	10743.29
693.037	10757.75
693.383	10656.51
693.73	10734.25
694.077	10627.36
694.423	10680.24
694.769	10663.52
695.116	10567.25
695.462	10508.95
695.808	10513.92
696.155	10510.75
696.501	10476.63
696.847	10383.98
697.193	10397.54
697.539	10383.53
697.885	10255.17
698.231	10230.99
698.577	10172.23
698.923	10199.12
699.269	10143.98
699.614	10063.31
699.96	10036.64
700.306	10051.33
700.651	9986.47
700.997	9917.32
701.342	9910.09
701.688	9908.06
702.033	9877.33
702.379	9783.77
702.724	9812.02
703.069	9823.77
703.415	9721.17
703.76	9724.79
704.105	9731.34
704.45	9628.29
704.795	9605.24
705.14	9544
705.485	9590.55
705.83	9503.55
706.175	9528.86
706.52	9466.71
706.865	9460.16
707.209	9445.47
707.554	9456.55
707.899	9462.65
708.243	9405.25
708.588	9334.29
708.932	9278.02
709.277	9256.32
709.621	9210.22
709.966	9224.23
710.31	9194.41
710.654	9102.2
710.998	9157.34
711.342	9109.21
711.687	9132.49
712.031	9051.58
712.375	9058.82
712.719	9054.3
713.063	8977.01
713.407	9027.86
713.75	8953.51
714.094	8950.57
714.438	8989.44
714.782	8976.11
715.125	8928.65
715.469	8905.6
715.812	8835.32
716.156	8834.64
716.499	8850.91
716.843	8880.29
717.186	8763.68
717.53	8817.24
717.873	8831.7
718.216	8806.84
718.559	8767.98
718.902	8674.64
719.246	8708.32
719.589	8706.51
719.932	8615.89
720.275	8691.14
720.617	8707.41
720.96	8648.88
721.303	8647.3
721.646	8644.82
721.989	8590.35
722.331	8590.35
722.674	8613.18
723.016	8549.9
723.359	8579.73
723.701	8573.63
724.044	8500.86
724.386	8493.41
724.729	8579.05
725.071	8491.6
725.413	8567.08
725.755	8518.72
726.097	8482.33
726.439	8487.53
726.782	8459.28
727.124	8521.2
727.465	8415.44
727.807	8455.22
728.149	8433.97
728.491	8425.39
728.833	8484.59
729.175	8380.87
729.516	8416.57
729.858	8407.76
730.199	8442.56
730.541	8420.19
730.882	8400.75
731.224	8453.63
731.565	8362.79
731.906	8424.03
732.248	8422.67
732.589	8408.89
732.93	8298.38
733.271	8342.9
733.612	8308.1
733.953	8428.1
734.294	8331.15
734.635	8400.53
734.976	8396.23
735.317	8317.37
735.658	8359.85
735.999	8413.18
736.339	8291.15
736.68	8423.35
737.021	8336.12
737.361	8319.63
737.702	8431.49
738.042	8362.56
738.383	8374.99
738.723	8408.44
739.063	8361.66
739.404	8407.53
739.744	8378.61
740.084	8391.49
740.424	8419.06
740.764	8395.78
741.104	8470.13
741.444	8398.27
741.784	8397.36
742.124	8439.62
742.464	8469
742.804	8457.7
743.143	8516.23
743.483	8490.24
743.823	8513.07
744.162	8539.06
744.502	8540.41
744.841	8569.11
745.181	8612.5
745.52	8572.05
745.86	8647.07
746.199	8649.11
746.538	8740.86
746.877	8658.15
747.216	8800.07
747.556	8804.13
747.895	8788.09
748.234	8863.34
748.573	8915.77
748.911	8973.17
749.25	9074.18
749.589	9031.25
749.928	9094.07
750.267	9168.64
750.605	9229.66
750.944	9325.25
751.283	9281.63
751.621	9417.68
751.96	9462.65
752.298	9546.26
752.636	9713.71
752.975	9686.82
753.313	9733.6
753.651	9919.13
753.989	9963.65
754.327	10041.39
754.666	10047.04
755.004	10169.07
755.342	10332
755.679	10405.9
756.017	10413.58
756.355	10619.45
756.693	10663.75
757.031	10844.53
757.368	10951.2
757.706	10993.45
758.044	11175.14
758.381	11297.85
758.719	11381.69
759.056	11489.71
759.394	11658.75
759.731	11717.28
760.068	11812.87
760.405	11989.13
760.743	12101.9
761.08	12341.89
761.417	12433.64
761.754	12507.99
762.091	12606.52
762.428	12797.93
762.765	12849.68
763.102	13090.57
763.438	13192.27
763.775	13199.05
764.112	13470
764.449	13546.38
764.785	13662.76
765.122	13742.53
765.458	13749.31
765.795	13971.91
766.131	14102.07
766.467	14136.87
766.804	14294.38
767.14	14385.68
767.476	14472.68
767.812	14599.23
768.148	14794.94
768.485	14781.6
768.821	14814.14
769.157	15049.17
769.492	15061.82
769.828	15168.26
770.164	15166.9
770.5	15186.34
770.836	15393.11
771.171	15420.46
771.507	15466.33
771.842	15381.81
772.178	15609.38
772.513	15632.43
772.849	15734.57
773.184	15751.75
773.519	15934.11
773.855	15989.71
774.19	15929.6
774.525	15992.87
774.86	16050.04
775.195	16051.17
775.53	16090.95
775.865	16188.57
776.2	16133.43
776.535	16089.59
776.87	16127.78
777.205	16211.62
777.539	16195.8
777.874	16286.2
778.209	16231.96
778.543	16205.52
778.878	16204.84
779.212	16291.85
779.547	16196.93
779.881	16298.4
780.215	16240.55
780.55	16375.46
780.884	16206.2
781.218	16321.9
781.552	16353.54
781.886	16273.32
782.22	16292.52
782.554	16219.08
782.888	16131.4
783.222	16175.01
783.556	16083.04
783.889	16125.52
784.223	16067.44
784.557	15961.46
784.89	16086.65
785.224	16127.1
785.557	15984.51
785.891	16112.19
786.224	16049.14
786.558	16032.19
786.891	15962.81
787.224	15912.65
787.557	15939.99
787.891	15914.45
788.224	15900.44
788.557	15944.74
788.89	15905.64
789.223	15841.91
789.556	15791.97
789.888	15723.95
790.221	15649.15
790.554	15669.04
790.887	15669.49
791.219	15629.72
791.552	15634.24
791.884	15548.36
792.217	15559.21
792.549	15539.78
792.882	15491.41
793.214	15441.92
793.546	15461.36
793.879	15379.55
794.211	15324.41
794.543	15315.6
794.875	15259.1
795.207	15311.08
795.539	15185.89
795.871	15218.65
796.203	15129.16
796.535	15112.89
796.867	15000.58
797.198	15001.03
797.53	14935.27
797.862	15002.84
798.193	14915.38
798.525	14881.26
798.856	14903.41
799.188	14755.16
799.519	14800.36
799.85	14689.18
800.182	14716.75
800.513	14620.7
800.844	14506.36
801.175	14688.95
801.506	14629.97
801.837	14557.88
802.168	14503.19
802.499	14466.58
802.83	14462.74
803.161	14331.45
803.491	14453.48
803.822	14296.64
804.153	14264.1
804.483	14210.77
804.814	14134.16
805.145	14168.51
805.475	14225.69
805.805	14105.01
806.136	14108.4
806.466	14112.69
806.796	14073.6
807.126	13929.87
807.457	13980.49
807.787	13938.69
808.117	13820.27
808.447	13889.42
808.777	13878.12
809.107	13808.75
809.436	13748.18
809.766	13746.6
810.096	13724.91
810.426	13635.19
810.755	13683.55
811.085	13681.07
811.414	13693.5
811.744	13495.99
812.073	13591.58
812.403	13568.98
812.732	13414.18
813.061	13464.12
813.39	13362.21
813.719	13336.9
814.049	13403.11
814.378	13425.03
814.707	13352.04
815.036	13284.69
815.365	13280.63
815.693	13150.46
816.022	13140.29
816.351	13173.96
816.68	12985.94
817.008	13037.69
817.337	13027.98
817.665	13015.55
817.994	13006.28
818.322	12987.07
818.651	12892.61
818.979	12801.77
819.307	12994.76
819.636	12824.14
819.964	12831.6
820.292	12865.95
820.62	12881.09
820.948	12745.72
821.276	12799.96
821.604	12717.25
821.932	12794.76
822.259	12853.74
822.587	12801.54
822.915	12780.07
823.243	12860.3
823.57	12826.17
823.898	12822.56
824.225	12781.88
824.553	12758.38
824.88	12759.51
825.207	12828.66
825.535	12838.6
825.862	12780.07
826.189	12827.76
826.516	12824.37
826.843	12833.18
827.17	12788.21
827.497	12959.05
827.824	12847.42
828.151	12859.62
828.478	12893.97
828.805	12815.55
829.131	12802.45
829.458	12814.42
829.785	12804.25
830.111	12798.83
830.438	12828.66
830.764	12761.32
831.09	12886.29
831.417	12799.73
831.743	12853.29
832.069	12789.34
832.395	12747.76
832.722	12845.38
833.048	12734.65
833.374	12816.68
833.7	12660.53
834.026	12678.16
834.351	12699.4
834.677	12700.98
835.003	12685.39
835.329	12674.77
835.654	12598.38
835.98	12675.44
836.306	12620.3
836.631	12607.42
836.956	12632.28
837.282	12649.46
837.607	12532.62
837.932	12500.31
838.258	12516.35
838.583	12479.52
838.908	12432.74
839.233	12449.46
839.558	12512.06
839.883	12379.41
840.208	12311.84
840.533	12413.76
840.858	12383.7
841.182	12339.86
841.507	12338.28
841.832	12320.2
842.156	12323.14
842.481	12242.01
842.805	12212.4
843.13	12109.36
843.454	12085.18
843.778	12123.37
844.103	12005.63
844.427	12024.61
844.751	12013.31
845.075	12107.1
845.399	12022.81
845.723	11868.23
846.047	11992.07
846.371	11881.11
846.695	11864.39
847.019	11733.32
847.343	11677.5
847.666	11646.77
847.99	11653.1
848.313	11629.82
848.637	11520.9
848.96	11433.44
849.284	11604.96
849.607	11384.4
849.931	11401.8
850.254	11300.79
850.577	11228.93
850.9	11085.2
851.223	11122.04
851.546	11054.92
851.869	11027.58
852.192	11047.92
852.515	10927.47
852.838	10933.79
853.161	10891.54
853.483	10891.99
853.806	10821.48
854.129	10898.77
854.451	10737.42
854.774	10708.49
855.096	10702.16
855.419	10663.29
855.741	10650.19
856.063	10554.14
856.385	10586.68
856.708	10517.53
857.03	10454.71
857.352	10505.33
857.674	10419.91
857.996	10370.87
858.318	10275.96
858.64	10433.92
858.961	10326.58
859.283	10310.08
859.605	10182.18
859.926	10260.59
860.248	10212.01
860.57	10162.97
860.891	10183.31
861.212	10199.35
861.534	10121.61
861.855	10141.05
862.176	10025.8
862.498	10052.91
862.819	10079.58
863.14	9984.89
863.461	10019.69
863.782	9938.34
864.103	10038
864.424	9889.75
864.745	9920.04
865.065	9925.23
865.386	9874.16
865.707	9863.54
866.027	9896.99
866.348	9888.17
866.668	9833.71
866.989	9828.29
867.309	9754.16
867.63	9805.01
867.95	9811.56
868.27	9685.47
868.59	9720.04
868.91	9697.44
869.23	9642.53
869.55	9599.59
869.87	9673.71
870.19	9678.91
870.51	9632.81
870.83	9604.34
871.15	9568.63
871.469	9580.84
871.789	9535.64
872.109	9559.14
872.428	9483.21
872.748	9543.1
873.067	9452.48
873.386	9480.27
873.706	9486.15
874.025	9409.31
874.344	9486.37
874.663	9429.88
874.982	9382.2
875.301	9405.25
875.62	9374.97
875.939	9341.75
876.258	9369.54
876.577	9237.79
876.896	9278.92
877.214	9254.97
877.533	9286.61
877.852	9234.18
878.17	9290.9
878.489	9224.91
878.807	9290.9
879.125	9217.23
879.444	9166.61
879.762	9188.53
880.08	9176.1
880.398	9082.32
880.716	9145.82
881.034	9085.03
881.352	9106.72
881.67	9097.68
881.988	9106.95
882.306	9040.28
882.624	9001.87
882.941	8930.01
883.259	8925.71
883.577	8927.75
883.894	8941.53
884.212	8866.28
884.529	8932.94
884.846	8873.28
885.164	8841.42
885.481	8778.6
885.798	8821.99
886.115	8756.22
886.432	8742.67
886.75	8668.77
887.067	8797.81
887.383	8657.47
887.7	8776.79
888.017	8670.13
888.334	8659.96
888.651	8591.03
888.967	8582.9
889.284	8527.53
889.6	8526.63
889.917	8472.16
890.233	8464.03
890.55	8446.18
890.866	8468.55
891.182	8365.05
891.498	8371.38
891.815	8389.68
892.131	8360.3
892.447	8307.2
892.763	8299.97
893.079	8295.9
893.395	8311.72
893.71	8198.05
894.026	8197.6
894.342	8205.05
894.657	8116.24
894.973	8144.04
895.289	8139.07
895.604	8118.05
895.92	7965.28
896.235	8001.44
896.55	8008.9
896.865	7996.47
897.181	7981.78
897.496	7949.47
897.811	7917.38
898.126	7813.42
898.441	7843.93
898.756	7868.34
899.071	7836.7
899.386	7753.77
899.7	7670.38
900.015	7640.1
900.33	7629.47
900.644	7608.91
900.959	7649.14
901.273	7582.92
901.588	7531.85
901.902	7476.03
902.216	7440.55
902.531	7437.39
902.845	7469.7
903.159	7347.67
903.473	7322.82
903.787	7264.74
904.101	7294.34
904.415	7265.87
904.729	7249.37
905.042	7193.55
905.356	7181.35
905.67	7182.71
905.984	7143.39
906.297	7120.79
906.611	7032.88
906.924	7041.47
907.237	7056.83
907.551	7015.25
907.864	7021.58
908.177	6939.78
908.491	6932.32
908.804	6888.25
909.117	6805.99
909.43	6846.67
909.743	6802.83
910.056	6756.05
910.368	6776.84
910.681	6700.46
910.994	6749.05
911.307	6689.84
911.619	6640.12
911.932	6644.64
912.244	6594.47
912.557	6574.36
912.869	6526.68
913.181	6500.92
913.494	6530.07
913.806	6470.86
914.118	6437.42
914.43	6402.84
914.742	6400.58
915.054	6350.41
915.366	6294.59
915.678	6314.25
915.99	6323.75
916.302	6245.78
916.613	6258.21
916.925	6231.77
917.236	6205.11
917.548	6135.05
917.859	6145.9
918.171	6116.52
918.482	6085.33
918.794	6110.42
919.105	6086.92
919.416	6021.16
919.727	6017.77
920.038	6017.31
920.349	5945.45
920.66	5886.92
920.971	5879.24
921.282	5867.03
921.593	5833.14
921.903	5810.54
922.214	5856.19
922.525	5795.85
922.835	5775.51
923.146	5746.59
923.456	5704.1
923.767	5723.76
924.077	5719.92
924.387	5638.34
924.697	5602.41
925.008	5634.95
925.318	5555.4
925.628	5575.52
925.938	5540.26
926.248	5553.14
926.558	5502.07
926.867	5504.33
927.177	5442.64
927.487	5419.14
927.796	5406.93
928.106	5356.31
928.416	5352.47
928.725	5342.53
929.034	5286.03
929.344	5322.87
929.653	5301.17
929.962	5227.05
930.271	5204.68
930.581	5182.76
930.89	5183.44
931.199	5119.48
931.508	5140.73
931.817	5164
932.125	5099.6
932.434	5091.01
932.743	5009.66
933.051	5008.98
933.36	4996.1
933.669	4963.56
933.977	4970.79
934.286	4933.27
934.594	4900.73
934.902	4882.88
935.21	4845.59
935.519	4848.3
935.827	4847.4
936.135	4776.89
936.443	4789.55
936.751	4757.91
937.059	4779.15
937.367	4738.25
937.674	4794.07
937.982	4750.23
938.29	4680.4
938.597	4691.7
938.905	4613.06
939.213	4624.36
939.52	4594.3
939.827	4619.16
940.135	4568.31
940.442	4568.76
940.749	4569.44
941.056	4526.73
941.363	4479.73
941.67	4433.85
941.977	4470.69
942.284	4416
942.591	4405.83
942.898	4395.66
943.205	4408.32
943.511	4388.43
943.818	4369.9
944.125	4333.06
944.431	4301.2
944.738	4291.71
945.044	4275.44
945.35	4242.67
945.657	4244.48
945.963	4230.69
946.269	4205.16
946.575	4240.86
946.881	4173.29
947.187	4166.29
947.493	4141.2
947.799	4123.13
948.105	4135.78
948.41	4073.86
948.716	4124.03
949.022	4059.85
949.327	4034.09
949.633	4016.91
949.938	3972.62
950.244	3997.71
950.549	3998.38
950.854	3945.73
951.16	3905.28
951.465	3946.41
951.77	3910.93
952.075	3871.16
952.38	3866.18
952.685	3851.04
952.99	3855.56
953.294	3818.05
953.599	3806.75
953.904	3777.37
954.209	3739.18
954.513	3766.53
954.818	3737.37
955.122	3738.05
955.426	3672.06
955.731	3678.39
956.035	3655.79
956.339	3632.74
956.643	3649.01
956.948	3618.96
957.252	3644.49
957.556	3601.33
957.86	3618.05
958.163	3551.84
958.467	3559.53
958.771	3548
959.075	3569.24
959.378	3509.13
959.682	3508.68
959.985	3505.06
960.289	3431.17
960.592	3447.44
960.896	3448.12
961.199	3432.52
961.502	3433.65
961.805	3385.74
962.108	3333.09
962.411	3346.88
962.714	3326.31
963.017	3307.78
963.32	3330.38
963.623	3310.27
963.926	3286.54
964.228	3274.11
964.531	3238.63
964.833	3288.35
965.136	3220.78
965.438	3189.82
965.741	3218.07
966.043	3173.32
966.345	3182.59
966.648	3170.83
966.95	3184.17
967.252	3118.18
967.554	3082.25
967.856	3105.75
968.158	3082.48
968.46	3094.9
968.761	3075.92
969.063	3083.15
969.365	3027.34
969.666	3015.36
969.968	3019.2
970.269	2983.95
970.571	2983.72
970.872	2986.21
971.174	2992.08
971.475	2952.08
971.776	2902.82
972.077	2947.11
972.378	2925.64
972.679	2901.01
972.98	2900.11
973.281	2917.06
973.582	2901.01
973.883	2853.78
974.183	2843.16
974.484	2883.61
974.785	2811.52
975.085	2817.4
975.386	2821.01
975.686	2799.55
975.986	2786.89
976.287	2799.77
976.587	2722.26
976.887	2715.71
977.187	2765.42
977.487	2696.72
977.787	2685.88
978.087	2733.78
978.387	2700.11
978.687	2692.88
978.987	2638.19
979.286	2613.11
979.586	2616.27
979.885	2615.37
980.185	2604.52
980.484	2572.66
980.784	2620.11
981.083	2566.78
981.382	2568.59
981.682	2511.87
981.981	2539.21
982.28	2538.76
982.579	2513.45
982.878	2489.72
983.177	2494.69
983.475	2491.3
983.774	2454.92
984.073	2455.6
984.372	2464.86
984.67	2435.49
984.969	2446.56
985.267	2447.92
985.566	2395.94
985.864	2408.59
986.162	2385.09
986.461	2338.54
986.759	2414.7
987.057	2347.58
987.355	2359.78
987.653	2353.46
987.951	2345.09
988.249	2348.03
988.547	2317.98
988.844	2252.44
989.142	2278.43
989.44	2292.89
989.737	2262.61
990.035	2256.06
990.332	2227.58
990.63	2240.46
990.927	2199.33
991.224	2223.06
991.521	2211.76
991.819	2194.82
992.116	2156.4
992.413	2190.97
992.71	2170.64
993.006	2151.65
993.303	2148.26
993.6	2154.36
993.897	2091.54
994.193	2103.52
994.49	2122.5
994.787	2079.34
995.083	2079.11
995.379	2101.48
995.676	2092.44
995.972	2061.49
996.268	2051.99
996.565	2050.19
996.861	2003.18
997.157	1983.97
997.453	2017.64
997.749	2050.41
998.044	1983.75
998.34	1962.28
998.636	1964.31
998.932	1957.76
999.227	1926.35
999.523	1923.18
999.818	1931.32
1000.114	1909.85
1000.409	1921.6
1000.704	1884.54
1001	1892
1001.295	1868.72
1001.59	1871.89
1001.885	1852.23
1002.18	1846.12
1002.475	1829.4
1002.77	1822.4
1003.065	1852.23
1003.359	1817.65
1003.654	1802.06
1003.949	1779.23
1004.243	1750.53
1004.538	1736.97
1004.832	1758.22
1005.127	1740.59
1005.421	1750.53
1005.715	1707.6
1006.009	1724.55
1006.304	1711.21
1006.598	1741.95
1006.892	1681.83
1007.186	1682.29
1007.48	1684.09
1007.773	1674.38
1008.067	1670.31
1008.361	1635.51
1008.655	1669.86
1008.948	1620.14
1009.242	1635.96
1009.535	1583.76
1009.829	1602.06
1010.122	1603.42
1010.415	1604.55
1010.708	1567.49
1011.001	1569.97
1011.295	1574.72
1011.588	1555.51
1011.881	1523.87
1012.173	1539.69
1012.466	1484.33
1012.759	1520.71
1013.052	1514.83
1013.344	1493.36
1013.637	1486.81
1013.93	1493.14
1014.222	1487.49
1014.514	1488.39
1014.807	1481.61
1015.099	1459.24
1015.391	1450.2
1015.683	1447.49
1015.976	1431.9
1016.268	1419.47
1016.56	1408.17
1016.851	1404.1
1017.143	1411.11
1017.435	1410.43
1017.727	1386.47
1018.018	1386.25
1018.31	1348.96
1018.602	1334.72
1018.893	1354.16
1019.185	1331.79
1019.476	1305.12
1019.767	1322.75
1020.058	1320.94
1020.35	1287.95
1020.641	1279.36
1020.932	1268.74
1021.223	1291.79
1021.514	1284.56
1021.804	1240.72
1022.095	1248.4
1022.386	1243.88
1022.677	1250.43
1022.967	1214.73
1023.258	1237.55
1023.548	1217.21
1023.839	1198.91
1024.129	1195.29
1024.419	1209.3
1024.709	1178.12
1025	1200.04
1025.29	1182.64
1025.58	1152.36
1025.87	1128.18
1026.16	1165.69
1026.449	1144.22
1026.739	1124.33
1027.029	1123.88
1027.319	1139.02
1027.608	1114.17
1027.898	1129.98
1028.187	1085.01
1028.477	1112.13
1028.766	1085.92
1029.055	1065.81
1029.344	1065.81
1029.634	1072.81
1029.923	1073.04
1030.212	1061.96
1030.501	1048.63
1030.79	1052.25
1031.078	1056.09
1031.367	1040.95
1031.656	1015.41
1031.945	1005.02
1032.233	1018.12
1032.522	990.78
1032.81	990.1
1033.099	985.81
1033.387	979.03
1033.675	971.8
1033.963	981.74
1034.251	980.84
1034.54	978.58
1034.828	957.33
1035.116	940.61
1035.403	937.45
1035.691	953.27
1035.979	938.13
1036.267	924.57
1036.554	937
1036.842	908.97
1037.129	911.01
1037.417	897.9
1037.704	881.63
1037.992	902.19
1038.279	859.48
1038.566	864.68
1038.853	864.68
1039.14	864.68
