Data from hue_120_FLMS001491_00069.txt Node
Date: Tue Feb 07 16:59:50 GMT 2017
User: dcchb
Spectrometer: FLMS00149
Trigger mode: 0
Integration Time (sec): 2.000000E-2
Scans to average: 10
Electric dark correction enabled: true
Nonlinearity correction enabled: false
Boxcar width: 0
XAxis mode: Wavelengths
Number of Pixels in Spectrum: 2048
>>>>>Begin Spectral Data<<<<<
341.393	-3.95
341.776	-3.95
342.16	-3.95
342.543	-91.18
342.927	-69.04
343.31	-61.81
343.693	-59.09
344.077	-69.26
344.46	-65.65
344.843	-60.68
345.226	-58.64
345.61	-34.46
345.993	-0.79
346.376	-19.1
346.759	24.97
347.142	26.78
347.525	52.99
347.908	57.29
348.291	74.46
348.674	85.99
349.057	107
349.44	116.72
349.823	152.88
350.206	150.62
350.588	185.42
350.971	207.11
351.354	227.45
351.737	234.46
352.119	251.41
352.502	250.73
352.884	275.13
353.267	294.12
353.65	289.6
354.032	301.12
354.414	304.96
354.797	313.55
355.179	305.87
355.562	321.46
355.944	331.18
356.326	320.78
356.709	337.51
357.091	317.39
357.473	328.69
357.855	319.43
358.238	338.18
358.62	325.3
359.002	344.51
359.384	338.64
359.766	334.57
360.148	341.57
360.53	327.34
360.912	349.26
361.294	326.43
361.676	337.05
362.057	329.6
362.439	327.56
362.821	335.02
363.203	344.96
363.584	328.92
363.966	322.59
364.348	311.52
364.729	317.84
365.111	302.7
365.493	313.55
365.874	332.08
366.256	328.24
366.637	314.23
367.019	312.2
367.4	311.74
367.781	313.78
368.163	323.04
368.544	297.73
368.925	312.42
369.306	341.57
369.688	320.78
370.069	323.49
370.45	304.06
370.831	323.49
371.212	332.08
371.593	325.08
371.974	339.99
372.355	310.84
372.736	319.2
373.117	301.35
373.498	303.83
373.879	332.08
374.26	318.07
374.641	316.71
375.021	311.74
375.402	325.98
375.783	331.18
376.163	335.47
376.544	342.25
376.925	344.06
377.305	316.04
377.686	323.72
378.066	332.76
378.447	344.74
378.827	336.83
379.208	341.8
379.588	356.26
379.968	333.44
380.349	332.99
380.729	334.12
381.109	337.28
381.489	351.97
381.87	344.74
382.25	344.74
382.63	344.51
383.01	356.49
383.39	353.1
383.77	346.09
384.15	350.84
384.53	352.87
384.91	347.67
385.29	375.02
385.67	379.76
386.049	376.15
386.429	366.66
386.809	379.99
387.189	382.02
387.568	363.95
387.948	367.79
388.328	347
388.707	371.85
389.087	377.05
389.466	354.68
389.846	369.82
390.225	376.37
390.605	391.29
390.984	374.11
391.363	381.12
391.743	379.54
392.122	380.44
392.501	385.41
392.881	389.93
393.26	382.7
393.639	375.02
394.018	405.3
394.397	384.74
394.776	390.84
395.155	408.92
395.534	383.83
395.913	390.61
396.292	406.88
396.671	409.37
397.05	407.11
397.429	405.75
397.808	387.9
398.186	408.46
398.565	407.11
398.944	382.48
399.323	423.38
399.701	424.73
400.08	410.05
400.458	420.89
400.837	437.84
401.215	436.71
401.594	424.51
401.972	421.34
402.351	426.32
402.729	439.65
403.107	433.55
403.486	450.27
403.864	428.58
404.242	441.01
404.62	441.46
404.999	431.97
405.377	442.81
405.755	458.18
406.133	454.56
406.511	461.57
406.889	447.56
407.267	480.55
407.645	466.54
408.023	484.62
408.401	492.76
408.779	497.95
409.156	483.72
409.534	466.54
409.912	465.64
410.29	489.82
410.667	503.15
411.045	497.05
411.422	482.36
411.8	503.15
412.178	485.3
412.555	497.05
412.933	497.5
413.31	523.26
413.687	519.87
414.065	522.59
414.442	518.07
414.819	533.66
415.197	542.7
415.574	534.11
415.951	511.29
416.328	518.07
416.705	561.91
417.082	540.44
417.46	563.71
417.837	557.39
418.214	542.7
418.591	559.42
418.967	583.6
419.344	566.65
419.721	573.88
420.098	586.76
420.475	569.59
420.852	587.89
421.228	579.31
421.605	593.54
421.982	607.33
422.358	602.81
422.735	619.98
423.111	616.37
423.488	600.55
423.864	629.93
424.241	627.67
424.617	630.38
424.994	642.13
425.37	644.39
425.746	647.78
426.123	666.76
426.499	642.81
426.875	650.27
427.251	665.41
427.627	665.86
428.003	688.91
428.379	688
428.756	684.61
429.132	708.79
429.507	692.75
429.883	692.07
430.259	718.74
430.635	697.04
431.011	727.55
431.387	729.13
431.763	741.79
432.138	760.77
432.514	730.94
432.89	733.65
433.265	782.47
433.641	787.89
434.016	755.12
434.392	765.52
434.767	799.87
435.143	787.66
435.518	796.93
435.894	807.32
436.269	799.41
436.644	838.06
437.02	842.35
437.395	851.16
437.77	860.88
438.145	862.69
438.52	864.27
438.895	866.3
439.271	877.6
439.646	886.42
440.021	880.54
440.395	879.41
440.77	900.88
441.145	880.54
441.52	910.37
441.895	923.03
442.27	920.99
442.645	934.1
443.019	916.47
443.394	937.49
443.769	940.43
444.143	948.56
444.518	964.61
444.892	970.48
445.267	988.79
445.641	977.49
446.016	1009.13
446.39	990.82
446.764	996.7
447.139	992.18
447.513	1015.23
447.887	1011.16
448.262	1013.19
448.636	1024.27
449.01	1020.2
449.384	1042.35
449.758	1034.44
450.132	1069.01
450.506	1081.44
450.88	1072.4
451.254	1061.55
451.628	1079.63
452.002	1119.63
452.376	1129.12
452.75	1124.15
453.123	1115.34
453.497	1162.12
453.871	1154.66
454.244	1175.9
454.618	1177.71
454.992	1196.24
455.365	1202.12
455.739	1242.57
456.112	1231.27
456.486	1254.09
456.859	1238.05
457.232	1260.19
457.606	1296.12
457.979	1296.12
458.352	1312.17
458.725	1327.31
459.099	1348.78
459.472	1385.16
459.845	1406.63
460.218	1390.58
460.591	1391.49
460.964	1423.13
461.337	1427.65
461.71	1478.94
462.083	1498.6
462.456	1498.38
462.829	1529.79
463.201	1532.28
463.574	1577.02
463.947	1547.42
464.32	1596.68
464.692	1620.41
465.065	1634.42
465.438	1653.4
465.81	1675.1
466.183	1690.24
466.555	1754.64
466.928	1750.58
467.3	1788.31
467.672	1794.19
468.045	1824.92
468.417	1854.3
468.789	1873.06
469.161	1921.19
469.534	1942.66
469.906	1983.56
470.278	2028.99
470.65	2069.89
471.022	2110.57
471.394	2154.86
471.766	2160.51
472.138	2225.59
472.51	2252.48
472.882	2323.22
473.253	2326.15
473.625	2389.43
473.997	2489.54
474.369	2482.53
474.74	2539.26
475.112	2608.41
475.484	2692.47
475.855	2722.08
476.227	2776.31
476.598	2844.78
476.97	2928.62
477.341	2995.29
477.713	3063.76
478.084	3079.13
478.455	3242.29
478.827	3271.67
479.198	3413.36
479.569	3393.7
479.94	3578.1
480.311	3651.77
480.682	3755.49
481.053	3869.39
481.424	3934.7
481.795	4075.49
482.166	4148.7
482.537	4214.69
482.908	4357.29
483.279	4464.63
483.65	4626.66
484.021	4737.84
484.391	4865.75
484.762	4941.45
485.133	5084.73
485.503	5213.76
485.874	5336.24
486.244	5452.17
486.615	5591.15
486.985	5671.83
487.356	5918.83
487.726	6043.34
488.097	6197.01
488.467	6236.56
488.837	6486.04
489.207	6607.17
489.578	6719.48
489.948	6893.49
490.318	7074.28
490.688	7190.21
491.058	7399.01
491.428	7496.41
491.798	7696.41
492.168	7894.14
492.538	8044.87
492.908	8187.24
493.278	8401.47
493.648	8453.22
494.017	8532.09
494.387	8738.41
494.757	8924.17
495.126	9065.41
495.496	9186.09
495.866	9246.65
496.235	9458.4
496.605	9606.19
496.974	9721.21
497.344	9852.28
497.713	10015.44
498.082	10087.31
498.452	10209.34
498.821	10374.76
499.19	10454.3
499.559	10634.86
499.928	10723.45
500.298	10852.48
500.667	10943.33
501.036	10988.3
501.405	11154.85
501.774	11196.88
502.143	11422.64
502.512	11496.08
502.88	11667.15
503.249	11644.1
503.618	11791.67
503.987	11904.66
504.356	11996.86
504.724	12063.75
505.093	12194.14
505.462	12224.65
505.83	12297.87
506.199	12520.91
506.567	12649.72
506.936	12701.25
507.304	12787.12
507.672	12817.63
508.041	12984.86
508.409	13045.65
508.777	13201.8
509.145	13174.91
509.514	13200.22
509.882	13271.63
510.25	13349.37
510.618	13418.97
510.986	13528.57
511.354	13676.14
511.722	13710.49
512.09	13874.78
512.458	13828.68
512.826	13984.83
513.193	14004.94
513.561	14043.59
513.929	14130.36
514.297	14273.64
514.664	14281.09
515.032	14326.29
515.4	14488.77
515.767	14464.59
516.135	14554.98
516.502	14429.11
516.869	14693.51
517.237	14647.19
517.604	14658.26
517.972	14804.47
518.339	14840.85
518.706	14832.72
519.073	14889.44
519.44	14929.44
519.808	15077.68
520.175	15048.76
520.542	15148.42
520.909	15215.98
521.276	15265.25
521.643	15343.21
522.009	15306.83
522.376	15403.78
522.743	15433.15
523.11	15482.87
523.477	15654.84
523.843	15703.2
524.21	15832.47
524.577	15789.08
524.943	15743.2
525.31	15838.34
525.676	15995.62
526.043	16071.78
526.409	16006.25
526.776	16102.29
527.142	16118.56
527.508	16048.96
527.874	16135.73
528.241	16290.08
528.607	16175.28
528.973	16263.64
529.339	16306.58
529.705	16312.9
530.071	16338.67
530.437	16395.39
530.803	16375.73
531.169	16413.01
531.535	16372.34
531.901	16381.83
532.267	16415.73
532.632	16416.86
532.998	16380.93
533.364	16429.51
533.73	16463.41
534.095	16446.23
534.461	16433.35
534.826	16430.87
535.192	16459.57
535.557	16492.56
535.923	16394.71
536.288	16305
536.653	16397.2
537.019	16327.37
537.384	16314.03
537.749	16346.12
538.114	16381.6
538.479	16347.03
538.845	16321.04
539.21	16202.4
539.575	16297.54
539.94	16257.99
540.305	16221.61
540.67	16132.34
541.034	16237.88
541.399	16186.58
541.764	16164.21
542.129	16086.24
542.494	16137.32
542.858	16130.31
543.223	16027.04
543.587	16017.77
543.952	15910.66
544.316	15934.61
544.681	15904.78
545.045	15925.57
545.41	15962.63
545.774	15980.71
546.138	15780.94
546.503	15819.81
546.867	15780.72
547.231	15830.88
547.595	15747.27
547.959	15688.51
548.324	15640.61
548.688	15598.57
549.052	15592.7
549.416	15593.15
549.779	15589.53
550.143	15585.47
550.507	15470.89
550.871	15475.86
551.235	15566.26
551.599	15587.27
551.962	15513.83
552.326	15439.93
552.689	15468.18
553.053	15432.93
553.417	15325.36
553.78	15519.7
554.143	15378.69
554.507	15361.07
554.87	15287.17
555.234	15395.64
555.597	15345.47
555.96	15301.86
556.323	15366.04
556.686	15305.47
557.05	15358.35
557.413	15289.65
557.776	15323.1
558.139	15269.77
558.502	15202.65
558.865	15203.1
559.228	15297.56
559.59	15305.25
559.953	15301.41
560.316	15413.72
560.679	15277.68
561.041	15419.82
561.404	15278.13
561.767	15436.54
562.129	15397.67
562.492	15439.26
562.854	15422.76
563.217	15307.51
563.579	15346.38
563.941	15493.72
564.304	15452.59
564.666	15468.41
565.028	15372.82
565.39	15563.09
565.753	15617.33
566.115	15626.82
566.477	15535.75
566.839	15674.05
567.201	15647.39
567.563	15629.53
567.925	15708.4
568.287	15593.38
568.648	15612.36
569.01	15721.28
569.372	15810.77
569.734	15755.86
570.095	15739.36
570.457	15767.61
570.819	15708.4
571.18	15737.33
571.542	15809.19
571.903	15847.83
572.265	15843.31
572.626	15901.62
572.987	15874.72
573.349	15913.59
573.71	15839.47
574.071	15864.1
574.432	15964.66
574.794	16032.01
575.155	16019.35
575.516	15966.92
575.877	16048.5
576.238	16044.66
576.599	16028.62
576.96	16035.62
577.32	16076.53
577.681	16100.71
578.042	16014.16
578.403	16135.51
578.763	16078.79
579.124	16115.62
579.485	16172.8
579.845	16133.25
580.206	16091.22
580.566	16115.17
580.927	16143.19
581.287	16176.64
581.648	16073.14
582.008	16210.99
582.368	16100.93
582.728	16087.37
583.089	16071.78
583.449	16012.8
583.809	16058.22
584.169	16114.94
584.529	15972.8
584.889	16098.45
585.249	16002.63
585.609	16005.34
585.969	16134.15
586.329	15955.63
586.688	16028.39
587.048	16064.55
587.408	15897.32
587.768	15978.68
588.127	15951.78
588.487	15870.66
588.846	16005.12
589.206	15954.04
589.565	15907.49
589.925	16062.97
590.284	15891.9
590.643	15972.8
591.003	15944.1
591.362	15998.34
591.721	15933.93
592.08	15966.47
592.44	15900.49
592.799	15949.98
593.158	15807.83
593.517	15884.89
593.876	15919.69
594.235	15867.72
594.593	15843.76
594.952	15831.56
595.311	15799.92
595.67	15856.87
596.029	15880.15
596.387	15885.35
596.746	15797.44
597.104	15847.38
597.463	15754.95
597.822	15843.76
598.18	15818.68
598.538	15865.68
598.897	15883.09
599.255	15757.66
599.613	15954.95
599.972	15784.78
600.33	15906.81
600.688	15870.2
601.046	15943.65
601.404	15896.87
601.762	15971.22
602.12	15945.68
602.478	15897.1
602.836	15991.56
603.194	15927.83
603.552	15870.43
603.91	15848.51
604.268	15841.5
604.625	15801.96
604.983	15918.11
605.341	15752.69
605.698	15815.97
606.056	15854.84
606.413	15848.74
606.771	15896.64
607.128	15899.36
607.485	15816.87
607.843	15834.05
608.2	15933.25
608.557	16013.03
608.914	15886.47
609.272	16007.83
609.629	16061.39
609.986	16045.57
610.343	15975.06
610.7	16108.62
611.057	16001.73
611.414	16009.18
611.771	16008.05
612.127	16090.09
612.484	16086.24
612.841	16118.11
613.198	16092.12
613.554	16050.76
613.911	16117.2
614.267	16204.21
614.624	16111.1
614.98	16188.84
615.337	16130.08
615.693	16121.5
616.05	16115.4
616.406	16233.81
616.762	16229.29
617.118	16168.28
617.475	16286.24
617.831	16245.11
618.187	16238.56
618.543	16267.48
618.899	16347.25
619.255	16324.43
619.611	16269.29
619.967	16301.83
620.323	16324.88
620.678	16424.31
621.034	16374.6
621.39	16319.01
621.746	16275.84
622.101	16530.3
622.457	16283.3
622.812	16416.18
623.168	16380.7
623.523	16353.58
623.879	16385.44
624.234	16290.98
624.589	16427.03
624.945	16321.04
625.3	16312
625.655	16375.28
626.01	16290.53
626.365	16358.33
626.72	16257.31
627.075	16243.3
627.43	16275.39
627.785	16325.33
628.14	16368.5
628.495	16317.88
628.85	16273.58
629.205	16296.18
629.559	16257.09
629.914	16267.03
630.269	16268.61
630.623	16201.04
630.978	16174.15
631.332	16257.09
631.687	16234.71
632.041	16192
632.396	16154.94
632.75	16192.46
633.104	16172.57
633.459	16028.84
633.813	16046.47
634.167	16089.41
634.521	16103.19
634.875	16072.23
635.229	16077.66
635.583	15959.24
635.937	16029.97
636.291	15856.87
636.645	15955.63
636.999	15964.44
637.352	15957.43
637.706	15898.23
638.06	15846.48
638.413	15852.35
638.767	15928.96
639.121	15876.53
639.474	15820.04
639.828	15813.71
640.181	15756.53
640.534	15761.73
640.888	15713.6
641.241	15640.38
641.594	15650.77
641.947	15761.51
642.301	15706.14
642.654	15721.73
643.007	15675.18
643.36	15793.37
643.713	15630.66
644.066	15708.4
644.419	15578.46
644.771	15541.4
645.124	15386.15
645.477	15355.19
645.83	15300.95
646.182	15202.2
646.535	15200.17
646.888	15227.51
647.24	15089.66
647.593	15182.54
647.945	15092.37
648.298	14980.06
648.65	14985.71
649.002	14989.1
649.355	15128.08
649.707	15156.32
650.059	15148.42
650.411	15269.77
650.763	15337.56
651.115	15476.77
651.467	15401.52
651.819	15498.24
652.171	15384.79
652.523	15390.22
652.875	15453.72
653.227	15390.44
653.578	15499.37
653.93	15436.09
654.282	15328.98
654.633	15329.65
654.985	15413.94
655.337	15427.05
655.688	15501.63
656.039	15511.8
656.391	15361.29
656.742	15387.96
657.094	15460.72
657.445	15450.78
657.796	15451.23
658.147	15375.75
658.498	15391.35
658.849	15385.25
659.2	15373.95
659.551	15431.8
659.902	15468.86
660.253	15400.84
660.604	15423.21
660.955	15325.13
661.306	15472.47
661.656	15412.14
662.007	15421.18
662.358	15451.68
662.708	15453.72
663.059	15460.05
663.409	15411.91
663.76	15395.64
664.11	15500.95
664.461	15468.41
664.811	15519.25
665.161	15417.56
665.511	15419.37
665.862	15482.19
666.212	15456.66
666.562	15450.55
666.912	15462.31
667.262	15391.12
667.612	15424.79
667.962	15487.84
668.312	15376.88
668.662	15463.66
669.011	15507.73
669.361	15419.59
669.711	15305.25
670.06	15463.21
670.41	15406.71
670.76	15389.99
671.109	15367.84
671.459	15407.84
671.808	15317.9
672.157	15358.35
672.507	15246.49
672.856	15328.3
673.205	15382.99
673.554	15376.88
673.904	15363.55
674.253	15443.32
674.602	15356.55
674.951	15104.8
675.3	14959.27
675.649	15221.18
675.998	15236.1
676.346	15157.23
676.695	15324.46
677.044	15148.87
677.393	15073.39
677.741	15227.06
678.09	15188.19
678.438	15047.63
678.787	15159.49
679.135	15134.86
679.484	15014.18
679.832	15032.49
680.181	15004.46
680.529	14956.1
680.877	14964.92
681.225	14970.34
681.573	15038.36
681.922	14921.53
682.27	14883.79
682.618	14830.23
682.966	14739.16
683.314	14759.27
683.661	14794.98
684.009	14735.54
684.357	14730.8
684.705	14648.32
685.053	14676.56
685.4	14606.51
685.748	14564.25
686.095	14540.3
686.443	14502.56
686.79	14547.08
687.138	14510.47
687.485	14419.62
687.832	14357.02
688.18	14389.57
688.527	14369.68
688.874	14334.88
689.221	14210.36
689.568	14183.69
689.915	14101.66
690.262	14199.29
690.609	14098.5
690.956	14094.43
691.303	13993.42
691.65	13949.58
691.997	13921.1
692.344	13893.31
692.69	13885.17
693.037	13893.98
693.383	13786.87
693.73	13812.41
694.077	13613.77
694.423	13711.39
694.769	13555.46
695.116	13575.12
695.462	13621.22
695.808	13486.09
696.155	13486.54
696.501	13390.5
696.847	13392.08
697.193	13308.01
697.539	13389.59
697.885	13297.16
698.231	13114.57
698.577	13259.88
698.923	13175.59
699.269	13098.75
699.614	13036.38
699.96	12975.82
700.306	12955.93
700.651	12913.22
700.997	12858.76
701.342	12769.49
701.688	12716.61
702.033	12658.31
702.379	12676.16
702.724	12670.29
703.069	12715.94
703.415	12467.36
703.76	12595.49
704.105	12441.59
704.45	12379.45
704.795	12334.25
705.14	12228.94
705.485	12278.21
705.83	12190.07
706.175	12245.67
706.52	12161.6
706.865	12125.44
707.209	12109.4
707.554	11997.09
707.899	12059.46
708.243	11932.23
708.588	11935.62
708.932	11873.47
709.277	11848.39
709.621	11905.11
709.966	11762.74
710.31	11853.13
710.654	11718.9
710.998	11738.11
711.342	11660.15
711.687	11656.76
712.031	11678.22
712.375	11587.6
712.719	11680.03
713.063	11611.11
713.407	11683.42
713.75	11589.41
714.094	11543.76
714.438	11495.86
714.782	11541.73
715.125	11468.29
715.469	11463.77
715.812	11337.22
716.156	11290.66
716.499	11353.71
716.843	11337.44
717.186	11223.55
717.53	11259.48
717.873	11362.3
718.216	11336.31
718.559	11242.08
718.902	11183.1
719.246	11179.71
719.589	11175.19
719.932	11154.4
720.275	11106.04
720.617	11092.02
720.96	11076.88
721.303	11095.19
721.646	11109.88
721.989	11118.92
722.331	11113.72
722.674	11071.46
723.016	11075.98
723.359	10983.1
723.701	11071.46
724.044	10992.14
724.386	10951.46
724.729	11012.48
725.071	10972.25
725.413	10960.28
725.755	10960.05
726.097	10903.56
726.439	10839.38
726.782	10889.09
727.124	10961.63
727.465	10775.2
727.807	10833.27
728.149	10850.45
728.491	10831.24
728.833	10863.56
729.175	10822.65
729.516	10817
729.858	10822.88
730.199	10824.24
730.541	10773.62
730.882	10795.31
731.224	10826.95
731.565	10751.69
731.906	10784.91
732.248	10701.07
732.589	10802.09
732.93	10646.84
733.271	10676.89
733.612	10759.15
733.953	10778.36
734.294	10640.74
734.635	10715.09
734.976	10733.84
735.317	10678.48
735.658	10686.84
735.999	10753.28
736.339	10685.93
736.68	10778.81
737.021	10728.19
737.361	10744.24
737.702	10791.92
738.042	10723.9
738.383	10761.41
738.723	10760.51
739.063	10729.1
739.404	10817.46
739.744	10755.31
740.084	10740.4
740.424	10715.09
740.764	10753.05
741.104	10874.4
741.444	10801.18
741.784	10776.33
742.124	10920.73
742.464	10836.21
742.804	10931.13
743.143	10889.09
743.483	10959.82
743.823	10833.5
744.162	10804.12
744.502	11001.18
744.841	10939.49
745.181	10994.17
745.52	11021.52
745.86	11073.27
746.199	11154.85
746.538	11134.51
746.877	11278.91
747.216	11295.86
747.556	11239.59
747.895	11407.5
748.234	11356.2
748.573	11388.97
748.911	11426.03
749.25	11572.46
749.589	11585.57
749.928	11674.61
750.267	11769.52
750.605	11822.18
750.944	11941.72
751.283	11889.97
751.621	12095.16
751.96	12100.81
752.298	12237.76
752.636	12394.14
752.975	12419.67
753.313	12499.22
753.651	12732.66
753.989	12779.89
754.327	12785.31
754.666	12956.61
755.004	13098.75
755.342	13197.73
755.679	13330.61
756.017	13412.42
756.355	13608.34
756.693	13709.36
757.031	13849.69
757.368	14092.85
757.706	14153.87
758.044	14210.13
758.381	14499.17
758.719	14647.64
759.056	14780.29
759.394	14866.61
759.731	15029.1
760.068	15222.54
760.405	15439.03
760.743	15488.75
761.08	15760.15
761.417	15919.69
761.754	15924.21
762.091	16189.29
762.428	16413.01
762.765	16441.94
763.102	16693.23
763.438	16868.37
763.775	16910.18
764.112	17105.65
764.449	17368.02
764.785	17475.81
765.122	17568.69
765.458	17752.19
765.795	17804.39
766.131	18106.98
766.467	18161.22
766.804	18245.06
767.14	18368.44
767.476	18553.52
767.812	18626.29
768.148	18911.71
768.485	18884.36
768.821	18941.31
769.157	19104.92
769.492	19277.57
769.828	19413.16
770.164	19402.77
770.5	19473.05
770.836	19618.35
771.171	19608.18
771.507	19834.39
771.842	19811.8
772.178	19904
772.513	20030.09
772.849	20136.98
773.184	20095.86
773.519	20266.25
773.855	20248.62
774.19	20292.01
774.525	20365
774.86	20484.09
775.195	20530.42
775.53	20591.66
775.865	20565.9
776.2	20555.05
776.535	20452.23
776.87	20534.26
777.205	20543.3
777.539	20515.28
777.874	20760.92
778.209	20641.83
778.543	20743.75
778.878	20534.04
779.212	20621.49
779.547	20685.9
779.881	20696.52
780.215	20679.57
780.55	20755.5
780.884	20716.63
781.218	20797.31
781.552	20836.18
781.886	20703.07
782.22	20742.17
782.554	20697.2
782.888	20571.1
783.222	20598.89
783.556	20535.39
783.889	20517.77
784.223	20401.38
784.557	20454.26
784.89	20492.91
785.224	20397.09
785.557	20361.61
785.891	20452.23
786.224	20408.62
786.558	20361.61
786.891	20254.5
787.224	20267.83
787.557	20298.56
787.891	20271.67
788.224	20300.37
788.557	20287.72
788.89	20248.85
789.223	20153.71
789.556	20147.83
789.888	20044.56
790.221	20018.57
790.554	19874.84
790.887	19915.07
791.219	19826.48
791.552	19736.09
791.884	19726.37
792.217	19838.69
792.549	19731.8
792.882	19677.34
793.214	19543.1
793.546	19635.53
793.879	19410.22
794.211	19424.01
794.543	19501.75
794.875	19409.55
795.207	19457.68
795.539	19324.35
795.871	19345.14
796.203	19260.85
796.535	19189.89
796.867	19196.67
797.198	19081.65
797.53	19129.55
797.862	18963.68
798.193	18964.36
798.525	18909.9
798.856	18964.13
799.188	18755.1
799.519	18726.85
799.85	18672.39
800.182	18693.63
800.513	18733.18
800.844	18536.12
801.175	18582.68
801.506	18632.17
801.837	18513.07
802.168	18506.97
802.499	18389.46
802.83	18410.7
803.161	18214.1
803.491	18195.11
803.822	18209.13
804.153	18277.82
804.483	18034.22
804.814	18083.03
805.145	18048.23
805.475	18012.07
805.805	17898.4
806.136	17963.48
806.466	18010.49
806.796	17842.36
807.126	17792.87
807.457	17797.16
807.787	17720.78
808.117	17642.36
808.447	17678.97
808.777	17636.03
809.107	17629.48
809.436	17445.3
809.766	17409.37
810.096	17319.21
810.426	17410.73
810.755	17356.04
811.085	17365.08
811.414	17314.01
811.744	17137.29
812.073	17119.66
812.403	17078.99
812.732	17070.4
813.061	17043.05
813.39	16931.87
813.719	16992.43
814.049	17043.28
814.378	16952.66
814.707	16871.99
815.036	16829.05
815.365	16871.08
815.693	16727.13
816.022	16657.98
816.351	16703.63
816.68	16583.18
817.008	16671.54
817.337	16451.88
817.665	16484.43
817.994	16554.25
818.322	16413.92
818.651	16445.78
818.979	16301.61
819.307	16499.57
819.636	16434.03
819.964	16283.07
820.292	16273.81
820.62	16274.71
820.948	16304.54
821.276	16348.38
821.604	16231.55
821.932	16238.56
822.259	16231.55
822.587	16348.38
822.915	16150.42
823.243	16159.01
823.57	16164.89
823.898	16208.73
824.225	16208.05
824.553	16221.61
824.88	16296.86
825.207	16243.08
825.535	16213.92
825.862	16248.05
826.189	16197.65
826.516	16217.31
826.843	16274.04
827.17	16319.23
827.497	16257.09
827.824	16244.43
828.151	16309.06
828.478	16366.24
828.805	16436.97
829.131	16152.91
829.458	16237.65
829.785	16168.5
830.111	16217.54
830.438	16291.44
830.764	16281.72
831.09	16298.89
831.417	16257.09
831.743	16286.01
832.069	16253.7
832.395	16207.82
832.722	16162.85
833.048	16183.64
833.374	16076.75
833.7	16085.34
834.026	16100.25
834.351	16175.96
834.677	16124.89
835.003	16173.47
835.329	16090.76
835.654	15990.43
835.98	15992.01
836.306	16082.18
836.631	16005.34
836.956	16058.45
837.282	15981.61
837.607	15947.72
837.932	16008.96
838.258	15952.24
838.583	15927.83
838.908	15759.92
839.233	15791.79
839.558	15864.55
839.883	15709.3
840.208	15684.22
840.533	15639.93
840.858	15746.82
841.182	15629.31
841.507	15638.8
841.832	15551.57
842.156	15609.65
842.481	15503.66
842.805	15546.14
843.13	15442.19
843.454	15469.08
843.778	15357.45
844.103	15364.68
844.427	15401.06
844.751	15346.83
845.075	15339.6
845.399	15284.68
845.723	15069.1
846.047	15105.25
846.371	15009.89
846.695	15079.49
847.019	14962.88
847.343	14886.5
847.666	14806.96
847.99	14643.8
848.313	14721.76
848.637	14688.31
848.96	14668.2
849.284	14547.75
849.607	14496.91
849.931	14522.22
850.254	14280.19
850.577	14320.87
850.9	14176.69
851.223	14205.62
851.546	14133.3
851.869	13979.18
852.192	14120.19
852.515	13963.36
852.838	13844.49
853.161	13899.63
853.483	13774.21
853.806	13759.75
854.129	13735.8
854.451	13620.09
854.774	13612.86
855.096	13538.74
855.419	13559.76
855.741	13484.28
856.063	13436.14
856.385	13423.94
856.708	13374.45
857.03	13240.44
857.352	13312.31
857.674	13303.04
857.996	13257.39
858.318	13198.41
858.64	13167.22
858.961	13135.13
859.283	13044.74
859.605	12969.26
859.926	13056.04
860.248	12985.08
860.57	12910.73
860.891	12960
861.212	12845.2
861.534	12824.63
861.855	12758.65
862.176	12735.15
862.498	12829.83
862.819	12771.08
863.14	12692.66
863.461	12655.83
863.782	12665.54
864.103	12668.25
864.424	12590.06
864.745	12596.84
865.065	12521.59
865.386	12477.98
865.707	12522.04
866.027	12524.76
866.348	12442.72
866.668	12444.98
866.989	12327.47
867.309	12346.91
867.63	12329.05
867.95	12359.34
868.27	12268.94
868.59	12289.28
868.91	12328.15
869.23	12231.88
869.55	12209.74
869.87	12347.58
870.19	12235.72
870.51	12247.93
870.83	12199.79
871.15	12115.05
871.469	12051.1
871.789	12118.66
872.109	12202.05
872.428	12051.77
872.748	11985.56
873.067	12037.76
873.386	12021.49
873.706	11994.6
874.025	11972.91
874.344	11890.87
874.663	11917.31
874.982	11891.55
875.301	11920.48
875.62	11872.34
875.939	11848.84
876.258	11906.69
876.577	11775.17
876.896	11840.71
877.214	11759.58
877.533	11729.3
877.852	11762.97
878.17	11678.45
878.489	11703.53
878.807	11694.49
879.125	11727.04
879.444	11687.26
879.762	11610.43
880.08	11587.38
880.398	11550.09
880.716	11575.4
881.034	11501.05
881.352	11459.7
881.67	11544.67
881.988	11480.04
882.306	11425.58
882.624	11385.35
882.941	11307.61
883.259	11275.52
883.577	11304.22
883.894	11296.99
884.212	11244.34
884.529	11236.65
884.846	11209.76
885.164	11189.65
885.481	11185.81
885.798	11186.03
886.115	11026.04
886.432	11099.03
886.75	11022.2
887.067	11012.25
887.383	11043.66
887.7	11126.37
888.017	10973.38
888.334	11041.18
888.651	10988.75
888.967	10903.56
889.284	10846.16
889.6	10826.72
889.917	10770.68
890.233	10762.77
890.55	10757.57
890.866	10726.38
891.182	10658.36
891.498	10618.36
891.815	10595.54
892.131	10551.25
892.447	10563.23
892.763	10536.11
893.079	10500.18
893.395	10486.16
893.71	10421.76
894.026	10436.67
894.342	10370.69
894.657	10270.35
894.973	10229.45
895.289	10292.5
895.604	10244.59
895.92	10099.06
896.235	10114.42
896.55	10078.72
896.865	10138.6
897.181	10042.56
897.496	10056.35
897.811	10028.32
898.126	9957.82
898.441	9959.63
898.756	9839.18
899.071	9843.47
899.386	9810.02
899.7	9670.14
900.015	9715.11
900.33	9615
900.644	9655.45
900.959	9574.78
901.273	9563.93
901.588	9470.6
901.902	9489.81
902.216	9501.33
902.531	9457.94
902.845	9455.46
903.159	9404.61
903.473	9326.87
903.787	9277.84
904.101	9254.11
904.415	9229.47
904.729	9204.84
905.042	9145.86
905.356	9108.57
905.67	9071.74
905.984	9083.26
906.297	9029.93
906.611	8937.28
906.924	8961.69
907.237	8951.52
907.551	8922.59
907.864	8879.2
908.177	8762.37
908.491	8770.5
908.804	8701.35
909.117	8749.04
909.43	8737.06
909.743	8631.3
910.056	8601.02
910.368	8605.08
910.681	8500.23
910.994	8482.15
911.307	8450.74
911.619	8382.49
911.932	8372.55
912.244	8319.22
912.557	8278.99
912.869	8273.57
913.181	8290.52
913.494	8264.98
913.806	8235.83
914.118	8126.68
914.43	8157.86
914.742	8093.23
915.054	8090.52
915.366	8019.56
915.678	7930.53
915.99	7948.6
916.302	7885.56
916.613	7862.51
916.925	7841.04
917.236	7883.3
917.548	7801.94
917.859	7877.42
918.171	7705
918.482	7644.88
918.794	7620.03
919.105	7637.43
919.416	7561.95
919.727	7557.88
920.038	7562.63
920.349	7482.4
920.66	7462.74
920.971	7508.84
921.282	7383.87
921.593	7317.21
921.903	7345.46
922.214	7326.93
922.525	7303.88
922.835	7287.15
923.146	7182.07
923.456	7168.51
923.767	7131.68
924.077	7166.03
924.387	7089.64
924.697	7088.06
925.008	7070.89
925.318	7004.45
925.628	6978.69
925.938	6934.85
926.248	6929.87
926.558	6884.23
926.867	6851.68
927.177	6832.48
927.487	6851.23
927.796	6790.44
928.106	6753.38
928.416	6740.27
928.725	6685.36
929.034	6733.5
929.344	6698.92
929.653	6605.14
929.962	6552.03
930.271	6532.6
930.581	6527.4
930.89	6513.16
931.199	6463.9
931.508	6473.84
931.817	6489.66
932.125	6437.23
932.434	6443.33
932.743	6345.71
933.051	6301.87
933.36	6273.39
933.669	6231.36
933.977	6196.79
934.286	6208.31
934.594	6199.05
934.902	6136.45
935.21	6161.08
935.519	6133.06
935.827	6079.5
936.135	6031.37
936.443	6001.09
936.751	5980.29
937.059	5980.97
937.367	5951.59
937.674	5905.04
937.982	5893.29
938.29	5910.69
938.597	5906.4
938.905	5833.63
939.213	5804.93
939.52	5754.76
939.827	5760.64
940.135	5712.51
940.442	5702.56
940.749	5706.4
941.056	5709.34
941.363	5604.71
941.67	5644.48
941.977	5572.17
942.284	5544.37
942.591	5575.56
942.898	5515.9
943.205	5462.12
943.511	5473.64
943.818	5502.57
944.125	5418.05
944.431	5420.31
944.738	5372.18
945.044	5334.89
945.35	5329.24
945.657	5312.97
945.963	5263.7
946.269	5253.99
946.575	5269.35
946.881	5254.89
947.187	5219.64
947.493	5157.49
947.799	5137.15
948.105	5131.5
948.41	5060.77
948.716	5107.1
949.022	5058.29
949.327	5047.44
949.633	4998.17
949.938	5022.81
950.244	5007.66
950.549	4896.48
950.854	4926.31
951.16	4907.55
951.465	4864.84
951.77	4893.54
952.075	4817.39
952.38	4779.2
952.685	4817.84
952.99	4774
953.294	4755.92
953.599	4759.54
953.904	4738.97
954.209	4657.39
954.513	4657.39
954.818	4688.8
955.122	4616.94
955.426	4624.85
955.731	4617.84
956.035	4556.6
956.339	4534.23
956.643	4529.03
956.948	4498.07
957.252	4470.05
957.556	4465.76
957.86	4427.34
958.163	4456.94
958.467	4387.12
958.771	4388.92
959.075	4380.79
959.378	4356.38
959.682	4376.04
959.985	4355.03
960.289	4316.38
960.592	4267.8
960.896	4266.67
961.199	4260.34
961.502	4216.5
961.805	4196.39
962.108	4177.18
962.411	4207.46
962.714	4152.55
963.017	4146.67
963.32	4149.83
963.623	4148.93
963.926	4082.27
964.228	4110.29
964.531	4084.75
964.833	4039.33
965.136	4007.69
965.438	3987.8
965.741	4018.31
966.043	3988.26
966.345	3911.65
966.648	3911.42
966.95	3911.65
967.252	3936.96
967.554	3902.16
967.856	3871.2
968.158	3815.38
968.46	3829.84
968.761	3807.92
969.063	3801.59
969.365	3774.93
969.666	3776.51
969.968	3754.82
970.269	3700.81
970.571	3674.82
970.872	3679.79
971.174	3693.12
971.475	3680.02
971.776	3656.06
972.077	3656.74
972.378	3641.83
972.679	3592.79
972.98	3582.62
973.281	3589.85
973.582	3576.29
973.883	3549.4
974.183	3525.22
974.484	3503.52
974.785	3469.4
975.085	3462.62
975.386	3428.27
975.686	3426.24
975.986	3451.1
976.287	3389.63
976.587	3383.3
976.887	3393.02
977.187	3399.35
977.487	3330.19
977.787	3339.69
978.087	3347.14
978.387	3302.4
978.687	3306.47
978.987	3282.96
979.286	3286.35
979.586	3233.47
979.885	3219.92
980.185	3205.68
980.484	3198
980.784	3186.47
981.083	3158.9
981.382	3199.12
981.682	3163.19
981.981	3159.13
982.28	3117.55
982.579	3086.36
982.878	3095.85
983.177	3099.24
983.475	3088.17
983.774	3061.5
984.073	3022.18
984.372	3002.97
984.67	3029.41
984.969	2992.35
985.267	3024.44
985.566	2991.22
985.864	2934.95
986.162	2958.91
986.461	2938.57
986.759	2910.54
987.057	2890.21
987.355	2908.06
987.653	2834.61
987.951	2856.31
988.249	2852.69
988.547	2820.15
988.844	2835.97
989.142	2833.48
989.44	2786.48
989.737	2764.11
990.035	2758.01
990.332	2762.53
990.63	2751.45
990.927	2760.49
991.224	2729.98
991.521	2715.97
991.819	2715.3
992.116	2699.48
992.413	2664.45
992.71	2661.29
993.006	2628.97
993.303	2631.91
993.6	2606.15
993.897	2600.95
994.193	2623.77
994.49	2588.07
994.787	2608.18
995.083	2538.35
995.379	2549.2
995.676	2543.1
995.972	2522.76
996.268	2504
996.565	2505.81
996.861	2488.18
997.157	2474.62
997.453	2445.92
997.749	2429.88
998.044	2442.31
998.34	2396.43
998.636	2407.06
998.932	2380.62
999.227	2366.38
999.523	2327.74
999.818	2347.17
1000.114	2306.94
1000.409	2340.84
1000.704	2328.64
1001	2291.58
1001.295	2296.55
1001.59	2268.53
1001.885	2281.18
1002.18	2232.82
1002.475	2259.71
1002.77	2228.75
1003.065	2227.63
1003.359	2210
1003.654	2185.37
1003.949	2174.75
1004.243	2166.38
1004.538	2145.37
1004.832	2147.63
1005.127	2129.55
1005.421	2130
1005.715	2114.18
1006.009	2120.51
1006.304	2077.35
1006.598	2052.71
1006.892	2088.65
1007.186	2071.02
1007.48	2039.83
1007.773	2049.32
1008.067	2040.29
1008.361	2006.39
1008.655	1992.38
1008.948	1999.38
1009.242	1976.11
1009.535	1953.28
1009.829	1937.24
1010.122	1929.55
1010.415	1931.81
1010.708	1927.97
1011.001	1926.16
1011.295	1909.22
1011.588	1890.46
1011.881	1844.58
1012.173	1863.57
1012.466	1845.49
1012.759	1829.44
1013.052	1827.41
1013.344	1785.6
1013.637	1815.66
1013.93	1788.31
1014.222	1798.03
1014.514	1789.44
1014.807	1782.66
1015.099	1734.76
1015.391	1742.21
1015.683	1729.79
1015.976	1746.73
1016.268	1727.75
1016.56	1713.51
1016.851	1687.53
1017.143	1678.94
1017.435	1651.37
1017.727	1661.09
1018.018	1653.85
1018.31	1664.93
1018.602	1631.71
1018.893	1635.1
1019.185	1607.53
1019.476	1585.61
1019.767	1620.64
1020.058	1588.55
1020.35	1552.84
1020.641	1558.26
1020.932	1548.09
1021.223	1527.98
1021.514	1536.8
1021.804	1495.44
1022.095	1503.8
1022.386	1508.55
1022.677	1483.01
1022.967	1482.11
1023.258	1466.74
1023.548	1435.56
1023.839	1429.91
1024.129	1421.77
1024.419	1421.77
1024.709	1397.59
1025	1439.17
1025.29	1376.57
1025.58	1403.01
1025.87	1377.7
1026.16	1346.97
1026.449	1357.37
1026.739	1371.15
1027.029	1336.58
1027.319	1360.76
1027.608	1331.15
1027.898	1309.68
1028.187	1325.05
1028.477	1296.58
1028.766	1269.91
1029.055	1275.33
1029.344	1281.89
1029.634	1260.87
1029.923	1259.29
1030.212	1247.76
1030.501	1243.24
1030.79	1246.86
1031.078	1207.99
1031.367	1196.69
1031.656	1223.58
1031.945	1210.48
1032.233	1181.55
1032.522	1200.76
1032.81	1189.23
1033.099	1167.77
1033.387	1155.34
1033.675	1145.17
1033.963	1151.5
1034.251	1125.28
1034.54	1138.16
1034.828	1150.14
1035.116	1084.83
1035.403	1112.4
1035.691	1102.68
1035.979	1083.47
1036.267	1086.41
1036.554	1072.4
1036.842	1068.56
1037.129	1049.35
1037.417	1045.06
1037.704	1068.11
1037.992	1035.79
1038.279	1032.18
1038.566	1011.39
1038.853	1011.39
1039.14	1011.39
