Data from hue_28_FLMS001491_00011.txt Node
Date: Tue Feb 07 17:16:54 GMT 2017
User: dcchb
Spectrometer: FLMS00149
Trigger mode: 0
Integration Time (sec): 2.000000E-2
Scans to average: 10
Electric dark correction enabled: true
Nonlinearity correction enabled: false
Boxcar width: 0
XAxis mode: Wavelengths
Number of Pixels in Spectrum: 2048
>>>>>Begin Spectral Data<<<<<
341.393	-21
341.776	-21
342.16	-21
342.543	-64.84
342.927	-67.55
343.31	-70.72
343.693	-69.59
344.077	-57.84
344.46	-49.48
344.843	-39.31
345.226	-26.88
345.61	-21.91
345.993	-34.79
346.376	-3.6
346.759	-10.61
347.142	29.84
347.525	30.3
347.908	48.83
348.291	73.46
348.674	90.18
349.057	112.1
349.44	118.2
349.823	152.1
350.206	166.11
350.588	177.64
350.971	209.95
351.354	228.93
351.737	228.03
352.119	230.97
352.502	244.53
352.884	271.87
353.267	283.62
353.65	286.11
354.032	297.63
354.414	304.86
354.797	296.96
355.179	298.54
355.562	303.06
355.944	320.68
356.326	328.14
356.709	342.6
357.091	328.59
357.473	345.54
357.855	326.11
358.238	340.12
358.62	348.03
359.002	352.1
359.384	330.63
359.766	348.71
360.148	346.22
360.53	338.54
360.912	337.18
361.294	328.37
361.676	359.78
362.057	333.34
362.439	327.92
362.821	331.98
363.203	322.04
363.584	302.15
363.966	299.89
364.348	308.25
364.729	318.65
365.111	318.2
365.493	306.9
365.874	328.59
366.256	306.9
366.637	333.56
367.019	292.44
367.4	298.76
367.781	303.06
368.163	305.99
368.544	306.22
368.925	309.61
369.306	306.9
369.688	314.13
370.069	301.7
370.45	287.46
370.831	309.38
371.212	300.12
371.593	308.93
371.974	316.16
372.355	294.92
372.736	298.31
373.117	317.29
373.498	291.53
373.879	308.48
374.26	318.42
374.641	300.8
375.021	300.35
375.402	321.59
375.783	311.19
376.163	318.2
376.544	328.82
376.925	304.19
377.305	326.33
377.686	328.37
378.066	330.4
378.447	321.81
378.827	306.22
379.208	324.53
379.588	324.07
379.968	326.79
380.349	331.53
380.729	331.76
381.109	314.13
381.489	320.91
381.87	330.4
382.25	338.54
382.63	350.29
383.01	340.34
383.39	338.31
383.77	320.68
384.15	340.12
384.53	329.95
384.91	338.31
385.29	343.51
385.67	341.93
386.049	355.49
386.429	350.06
386.809	340.57
387.189	355.03
387.568	329.27
387.948	366.33
388.328	353.9
388.707	352.1
389.087	348.25
389.466	380.8
389.846	350.29
390.225	347.8
390.605	348.25
390.984	341.47
391.363	365.88
391.743	372.89
392.122	370.17
392.501	362.04
392.881	380.57
393.26	369.04
393.639	337.18
394.018	369.72
394.397	375.82
394.776	381.92
395.155	362.26
395.534	381.25
395.913	364.98
396.292	374.92
396.671	381.47
397.05	383.28
397.429	384.41
397.808	389.16
398.186	396.16
398.565	383.05
398.944	388.48
399.323	378.31
399.701	376.28
400.08	399.55
400.458	381.47
400.837	406.33
401.215	384.41
401.594	427.57
401.972	421.92
402.351	397.07
402.729	378.54
403.107	403.39
403.486	392.77
403.864	402.94
404.242	404.07
404.62	403.39
404.999	413.56
405.377	416.73
405.755	415.14
406.133	442.26
406.511	430.74
406.889	425.09
407.267	416.27
407.645	428.48
408.023	420.12
408.401	413.11
408.779	440.45
409.156	443.84
409.534	438.42
409.912	425.99
410.29	445.2
410.667	449.49
411.045	433.9
411.422	469.38
411.8	457.86
412.178	468.48
412.555	434.35
412.933	460.12
413.31	462.83
413.687	471.64
414.065	461.24
414.442	454.69
414.819	477.97
415.197	469.83
415.574	481.36
415.951	467.57
416.328	478.42
416.705	484.75
417.082	502.6
417.46	491.3
417.837	489.27
418.214	486.56
418.591	493.33
418.967	506.67
419.344	508.02
419.721	511.19
420.098	489.49
420.475	493.11
420.852	485.88
421.228	515.93
421.605	512.54
421.982	525.2
422.358	519.32
422.735	506.89
423.111	521.36
423.488	500.57
423.864	554.35
424.241	540.34
424.617	545.31
424.994	534.24
425.37	536.5
425.746	550.06
426.123	557.06
426.499	541.47
426.875	551.41
427.251	588.93
427.627	559.55
428.003	545.54
428.379	565.2
428.756	572.43
429.132	561.58
429.507	594.8
429.883	591.41
430.259	602.71
430.635	571.75
431.011	626.44
431.387	619.21
431.763	608.36
432.138	623.95
432.514	613.56
432.89	614.01
433.265	640
433.641	643.16
434.016	648.13
434.392	639.09
434.767	642.48
435.143	659.21
435.518	640.45
435.894	688.58
436.269	671.86
436.644	696.94
437.02	684.74
437.395	662.6
437.77	692.43
438.145	694.46
438.52	717.06
438.895	719.77
439.271	717.28
439.646	728.58
440.021	703.05
440.395	710.05
440.77	724.06
441.145	753.89
441.52	729.49
441.895	738.98
442.27	761.12
442.645	716.15
443.019	758.41
443.394	734.91
443.769	771.75
444.143	760.45
444.518	745.98
444.892	773.55
445.267	772.42
445.641	788.69
446.016	773.1
446.39	801.8
446.764	797.28
447.139	792.76
447.513	798.64
447.887	791.86
448.262	788.92
448.636	788.47
449.01	816.94
449.384	808.58
449.758	821.91
450.132	804.29
450.506	814.68
450.88	864.17
451.254	843.16
451.628	836.83
452.002	859.43
452.376	840.67
452.75	871.4
453.123	879.31
453.497	891.74
453.871	893.1
454.244	897.84
454.618	868.92
454.992	922.7
455.365	895.36
455.739	940.78
456.112	956.15
456.486	939.2
456.859	981.23
457.232	979.88
457.606	956.37
457.979	971.51
458.352	986.43
458.725	1011.96
459.099	1016.48
459.472	1033.89
459.845	1018.97
460.218	1044.05
460.591	1048.12
460.964	1062.59
461.337	1095.8
461.71	1100.32
462.083	1102.58
462.456	1115.69
462.829	1090.15
463.201	1134
463.574	1115.92
463.947	1135.13
464.32	1153.66
464.692	1147.33
465.065	1184.16
465.438	1185.97
465.81	1218.74
466.183	1207.67
466.555	1246.99
466.928	1227.78
467.3	1241.56
467.672	1268
468.045	1289.92
468.417	1320.43
468.789	1307.55
469.161	1332.86
469.534	1374.89
469.906	1379.41
470.278	1392.07
470.65	1402.24
471.022	1432.29
471.394	1445.85
471.766	1480.65
472.138	1486.98
472.51	1548.9
472.882	1531.73
473.253	1571.95
473.625	1571.5
473.997	1620.08
474.369	1619.18
474.74	1648.11
475.112	1735.34
475.484	1727.65
475.855	1759.52
476.227	1769.46
476.598	1876.57
476.97	1847.2
477.341	1880.42
477.713	1938.49
478.084	1918.83
478.455	1983.92
478.827	2041.54
479.198	2064.82
479.569	2114.53
479.94	2145.04
480.311	2179.17
480.682	2204.93
481.053	2280.41
481.424	2340.52
481.795	2371.25
482.166	2385.04
482.537	2447.86
482.908	2540.06
483.279	2530.34
483.65	2606.73
484.021	2623.67
484.391	2686.95
484.762	2754.74
485.133	2792.94
485.503	2804.91
485.874	2872.93
486.244	2884.91
486.615	2984.12
486.985	3033.83
487.356	3117.45
487.726	3135.07
488.097	3204.68
488.467	3241.74
488.837	3272.02
489.207	3355.41
489.578	3420.72
489.948	3486.25
490.318	3495.52
490.688	3561.5
491.058	3652.35
491.428	3657.77
491.798	3730.54
492.168	3840.14
492.538	3851.66
492.908	3899.57
493.278	3945.67
493.648	3971.66
494.017	4021.6
494.387	4079.91
494.757	4160.81
495.126	4151.54
495.496	4211.88
495.866	4282.16
496.235	4352.67
496.605	4365.32
496.974	4364.87
497.344	4423.4
497.713	4495.04
498.082	4503.17
498.452	4601.25
498.821	4581.14
499.19	4616.84
499.559	4676.73
499.928	4718.76
500.298	4732.09
500.667	4777.06
501.036	4814.58
501.405	4839.66
501.774	4852.32
502.143	4905.87
502.512	4961.01
502.88	4994.69
503.249	5005.08
503.618	5027.45
503.987	5043.95
504.356	5120.56
504.724	5145.19
505.093	5149.94
505.462	5138.41
505.83	5205.98
506.199	5286.43
506.567	5262.7
506.936	5303.38
507.304	5335.92
507.672	5404.84
508.041	5404.17
508.409	5446.42
508.777	5494.78
509.145	5549.02
509.514	5515.58
509.882	5573.2
510.25	5540.89
510.618	5626.08
510.986	5619.53
511.354	5688.45
511.722	5713.08
512.09	5752.41
512.458	5719.64
512.826	5824.04
513.193	5875.11
513.561	5802.8
513.929	5855.23
514.297	5942.23
514.664	5962.12
515.032	5954.21
515.4	6001.21
515.767	6066.75
516.135	6041.66
516.502	5991.27
516.869	6115.79
517.237	6186.07
517.604	6148.33
517.972	6113.3
518.339	6214.77
518.706	6251.15
519.073	6262.45
519.44	6239.85
519.808	6279.62
520.175	6278.04
520.542	6371.6
520.909	6363.69
521.276	6416.57
521.643	6476.45
522.009	6492.72
522.376	6530.46
522.743	6537.24
523.11	6590.8
523.477	6614.53
523.843	6701.76
524.21	6724.36
524.577	6759.38
524.943	6796.67
525.31	6826.5
525.676	6818.37
526.043	6906.5
526.409	6951.24
526.776	6933.17
527.142	7009.77
527.508	7042.54
527.874	7054.07
528.241	7080.05
528.607	7087.74
528.973	7172.03
529.339	7204.34
529.705	7216.77
530.071	7297.45
530.437	7307.17
530.803	7380.16
531.169	7403.89
531.535	7426.94
531.901	7415.64
532.267	7442.98
532.632	7493.6
532.998	7567.95
533.364	7562.98
533.73	7614.73
534.095	7715.74
534.461	7607.72
534.826	7708.51
535.192	7821.28
535.557	7813.82
535.923	7825.8
536.288	7858.79
536.653	7881.61
537.019	7875.74
537.384	7928.17
537.749	7957.32
538.114	7974.04
538.479	8040.93
538.845	8074.83
539.21	8097.88
539.575	8080.48
539.94	8109.18
540.305	8227.59
540.67	8168.84
541.034	8233.24
541.399	8323.86
541.764	8300.13
542.129	8312.34
542.494	8402.28
542.858	8386.69
543.223	8404.76
543.587	8488.15
543.952	8522.28
544.316	8507.59
544.681	8525.21
545.045	8549.39
545.41	8612.67
545.774	8641.14
546.138	8664.65
546.503	8701.71
546.867	8674.36
547.231	8785.55
547.595	8806.11
547.959	8789.16
548.324	8859.67
548.688	8881.14
549.052	8969.27
549.416	8941.02
549.779	8984.64
550.143	9008.36
550.507	9053.34
550.871	9051.53
551.235	9023.96
551.599	9215.82
551.962	9129.49
552.326	9230.96
552.689	9331.52
553.053	9233.44
553.417	9258.53
553.78	9364.29
554.143	9302.59
554.507	9416.94
554.87	9412.2
555.234	9467.79
555.597	9375.36
555.96	9474.79
556.323	9487.9
556.686	9572.42
557.05	9549.14
557.413	9611.74
557.776	9632.53
558.139	9721.34
558.502	9714.11
558.865	9769.47
559.228	9796.37
559.59	9790.94
559.953	9823.03
560.316	9888.79
560.679	9872.97
561.041	9970.15
561.404	10018.51
561.767	10044.95
562.129	10028.45
562.492	10166.07
562.854	10093.08
563.217	10151.16
563.579	10159.52
563.941	10200.88
564.304	10255.56
564.666	10381.44
565.028	10320.65
565.39	10404.03
565.753	10429.34
566.115	10451.94
566.477	10502.34
566.839	10518.83
567.201	10568.1
567.563	10580.75
567.925	10601.77
568.287	10604.93
568.648	10683.58
569.01	10755.89
569.372	10852.84
569.734	10816.45
570.095	10840.18
570.457	10955.66
570.819	10940.29
571.18	10982.78
571.542	11077.69
571.903	11043.79
572.265	11151.59
572.626	11207.18
572.987	11227.52
573.349	11279.27
573.71	11404.69
574.071	11430.67
574.432	11502.54
574.794	11637
575.155	11675.41
575.516	11654.85
575.877	11761.96
576.238	11813.49
576.599	11970.32
576.96	12016.2
577.32	12119.92
577.681	12187.04
578.042	12234.72
578.403	12376.64
578.763	12439.69
579.124	12509.97
579.485	12685.56
579.845	12845.55
580.206	12923.97
580.566	12958.32
580.927	13141.36
581.287	13338.87
581.648	13354.47
582.008	13562.14
582.368	13734.12
582.728	13895.02
583.089	14020.44
583.449	14242.13
583.809	14350.37
584.169	14545.17
584.529	14735.67
584.889	15019.73
585.249	15147.41
585.609	15279.61
585.969	15580.62
586.329	15808.19
586.688	16058.12
587.048	16180.61
587.408	16430.77
587.768	16620.37
588.127	16893.81
588.487	17037.76
588.846	17505.99
589.206	17583.05
589.565	17824.18
589.925	18298.06
590.284	18386.42
590.643	18783.02
591.003	19039.74
591.362	19388.66
591.721	19532.16
592.08	19822.09
592.44	20130.78
592.799	20501.85
593.158	20605.12
593.517	21032.23
593.876	21240.36
594.235	21503.86
594.593	21768.03
594.952	22203.72
595.311	22372.76
595.67	22732.3
596.029	23153.53
596.387	23441.88
596.746	23732.72
597.104	23966.16
597.463	24208.87
597.822	24638.91
598.18	24766.82
598.538	24971.11
598.897	25519.57
599.255	25607.02
599.613	26218.53
599.972	26361.58
600.33	26647.68
600.688	26845.86
601.046	27219.64
601.404	27591.15
601.762	27784.37
602.12	28295.77
602.478	28424.35
602.836	28749.54
603.194	28740.95
603.552	29142.75
603.91	29349.3
604.268	29747.48
604.625	29785.9
604.983	30180.24
605.341	30247.13
605.698	30622.71
606.056	30984.51
606.413	31199.65
606.771	31484.84
607.128	31730.48
607.485	31747.2
607.843	31965.5
608.2	32423.57
608.557	32642.09
608.914	32821.3
609.272	33021.52
609.629	33333.37
609.986	33645.91
610.343	33784.44
610.7	34014.94
611.057	34188.72
611.414	34406.79
611.771	34483.85
612.127	34853.56
612.484	35052.88
612.841	35214.91
613.198	35252.42
613.554	35413.32
613.911	35911.39
614.267	35930.82
614.624	36084.04
614.98	36351.6
615.337	36646.28
615.693	36488.55
616.05	36675.66
616.406	37089.89
616.762	37026.84
617.118	37130.56
617.475	37435.87
617.831	37628.86
618.187	37766.93
618.543	37799.02
618.899	38266.35
619.255	38171.89
619.611	38134.15
619.967	38509.06
620.323	38717.19
620.678	38582.05
621.034	38589.73
621.39	38748.83
621.746	38649.62
622.101	39322.14
622.457	39039.21
622.812	39169.83
623.168	39517.39
623.523	39498.86
623.879	39633.1
624.234	39433.55
624.589	39708.57
624.945	39850.27
625.3	39960.55
625.655	39839.64
626.01	40015.01
626.365	40102.01
626.72	40125.06
627.075	40145.63
627.43	40181.1
627.785	40418.16
628.14	40478.05
628.495	40462.45
628.85	40432.4
629.205	40404.6
629.559	40704.93
629.914	40467.65
630.269	40514.2
630.623	40480.53
630.978	40619.29
631.332	40712.84
631.687	40918.94
632.041	40803.01
632.396	40776.57
632.75	40877.13
633.104	40842.56
633.459	40588.55
633.813	40835.55
634.167	40759.39
634.521	40889.33
634.875	40909.45
635.229	40891.82
635.583	40744.25
635.937	40807.98
636.291	40888.88
636.645	40828.77
636.999	40751.03
637.352	40915.55
637.706	40780.64
638.06	40890.69
638.413	40733.86
638.767	40646.18
639.121	40810.24
639.474	40744.48
639.828	40626.29
640.181	40687.08
640.534	40774.99
640.888	40626.29
641.241	40590.81
641.594	40567.31
641.947	40768.43
642.301	40672.84
642.654	40725.27
643.007	40623.35
643.36	40650.47
643.713	40646.63
644.066	40822.44
644.419	40540.19
644.771	40247.32
645.124	39980.21
645.477	39849.36
645.83	39692.3
646.182	39587.45
646.535	39452.08
646.888	39538.64
647.24	39283.05
647.593	39483.95
647.945	39397.4
648.298	39330.05
648.65	39345.65
649.002	39195.59
649.355	39302.03
649.707	39276.27
650.059	39459.77
650.411	39906.31
650.763	40070.15
651.115	40501.1
651.467	40186.3
651.819	40181.56
652.171	40083.25
652.523	40110.6
652.875	40128.68
653.227	39909.47
653.578	40214.32
653.93	40237.37
654.282	39906.08
654.633	39936.82
654.985	40076.7
655.337	40106.53
655.688	39979.08
656.039	40050.71
656.391	39791.28
656.742	40040.09
657.094	40027.66
657.445	40121.45
657.796	40017.94
658.147	39820.66
658.498	39929.81
658.849	39979.3
659.2	39919.42
659.551	39897.27
659.902	39945.18
660.253	39966.42
660.604	39907.44
660.955	39706.54
661.306	39870.15
661.656	39859.76
662.007	39906.31
662.358	39827.44
662.708	39824.96
663.059	39819.98
663.409	39544.29
663.76	40105.63
664.11	39869.25
664.461	39907.89
664.811	39947.21
665.161	39855.69
665.511	39889.81
665.862	39859.53
666.212	39944.05
666.562	39899.08
666.912	39688.01
667.262	39671.06
667.612	39734.11
667.962	39849.59
668.312	39772.98
668.662	39932.3
669.011	39951.28
669.361	39796.03
669.711	39735.24
670.06	39726.88
670.41	39531.4
670.76	39650.27
671.109	39724.17
671.459	39790.38
671.808	39568.47
672.157	39598.52
672.507	39356.72
672.856	39495.25
673.205	39600.1
673.554	39644.85
673.904	39428.13
674.253	39638.75
674.602	39519.43
674.951	39060.91
675.3	38936.17
675.649	39503.61
675.998	39238.76
676.346	39335.03
676.695	39537.28
677.044	39236.72
677.393	39402.59
677.741	39389.71
678.09	39303.39
678.438	39168.48
678.787	39279.21
679.135	39293.22
679.484	39094.35
679.832	39142.71
680.181	39082.38
680.529	39059.1
680.877	38943.62
681.225	38926
681.573	39346.78
681.922	38826.56
682.27	38764.64
682.618	38817.07
682.966	38720.35
683.314	38871.99
683.661	38653.46
684.009	38618.21
684.357	38433.35
684.705	38564.42
685.053	38509.28
685.4	38467.7
685.748	38229.97
686.095	38201.27
686.443	38133.25
686.79	37932.58
687.138	38016.87
687.485	38018.68
687.832	37857.1
688.18	37926.47
688.527	37712.92
688.874	37709.53
689.221	37709.76
689.568	37402.19
689.915	37478.12
690.262	37531.91
690.609	37390.44
690.956	37333.27
691.303	37298.69
691.65	37129.21
691.997	37181.41
692.344	36810.57
692.69	36990.45
693.037	36942.09
693.383	36712.04
693.73	36662.1
694.077	36623.01
694.423	36599.96
694.769	36317.03
695.116	36277.48
695.462	36421.43
695.808	36082.91
696.155	36138.72
696.501	35904.15
696.847	35920.88
697.193	35642.92
697.539	35775.57
697.885	35616.25
698.231	35486.76
698.577	35535.35
698.923	35470.49
699.269	35298.75
699.614	35173.55
699.96	35165.42
700.306	35133.33
700.651	35017.4
700.997	34765.43
701.342	34879.1
701.688	34749.61
702.033	34544.87
702.379	34641.82
702.724	34490.86
703.069	34628.03
703.415	34073.02
703.76	34252.45
704.105	34238.21
704.45	34073.69
704.795	33946.01
705.14	33843.64
705.485	33925.68
705.83	33712.12
706.175	33683.2
706.52	33532.24
706.865	33431.68
707.209	33458.57
707.554	33340.83
707.899	33373.83
708.243	33218.12
708.588	33211.57
708.932	32991.24
709.277	33111.46
709.621	33034.85
709.966	32833.73
710.31	32915.31
710.654	32582.43
710.998	32694.3
711.342	32744.01
711.687	32423.12
712.031	32461.08
712.375	32307.19
712.719	32334.31
713.063	32293.4
713.407	32317.81
713.75	32167.53
714.094	32083.69
714.438	31881.21
714.782	31927.54
715.125	31934.99
715.469	31857.03
715.812	31800.99
716.156	31494.1
716.499	31733.42
716.843	31580.88
717.186	31417.27
717.53	31675.57
717.873	31584.95
718.216	31327.33
718.559	31404.84
718.902	31189.93
719.246	31342.01
719.589	31164.62
719.932	31036.94
720.275	31020.22
720.617	30885.76
720.96	30940.22
721.303	30983.83
721.646	30902.03
721.989	30734.35
722.331	30886.66
722.674	30700
723.016	30831.29
723.359	30721.24
723.701	30759.43
724.044	30416.84
724.386	30203.29
724.729	30510.17
725.071	30328.03
725.413	30295.94
725.755	30349.27
726.097	30201.93
726.439	30125.55
726.782	30133.46
727.124	30200.8
727.465	30123.06
727.807	29980.47
728.149	29905.44
728.491	29853.01
728.833	29902.5
729.175	29795.16
729.516	29809.4
729.858	29798.78
730.199	29700.25
730.541	29807.59
730.882	29573.25
731.224	29722.62
731.565	29523.08
731.906	29566.47
732.248	29599.24
732.589	29460.48
732.93	29313.82
733.271	29324.67
733.612	29310.2
733.953	29397.89
734.294	29225.46
734.635	29095.29
734.976	29193.37
735.317	28987.73
735.658	28912.7
735.999	29012.58
736.339	29035.63
736.68	29119.93
737.021	28918.12
737.361	28822.31
737.702	29014.62
738.042	28791.35
738.383	28736.21
738.723	28864.79
739.063	28691.24
739.404	28715.87
739.744	28728.98
740.084	28538.92
740.424	28584.35
740.764	28555.2
741.104	28499.15
741.444	28406.72
741.784	28273.62
742.124	28447.18
742.464	28353.62
742.804	28306.39
743.143	28239.05
743.483	28262.1
743.823	28101.2
744.162	28064.81
744.502	28073.17
744.841	27846.74
745.181	27942.1
745.52	27997.47
745.86	27964.02
746.199	27825.27
746.538	27912.95
746.877	27895.1
747.216	27804.48
747.556	27720.19
747.895	27784.37
748.234	27684.26
748.573	27656.46
748.911	27601.32
749.25	27618.5
749.589	27439.52
749.928	27460.54
750.267	27539.18
750.605	27385.96
750.944	27458.28
751.283	27389.35
751.621	27350.26
751.96	27293.99
752.298	27127.66
752.636	27187.1
752.975	27125.18
753.313	27024.84
753.651	27189.36
753.989	26971.73
754.327	26929.93
754.666	26695.13
755.004	26891.96
755.342	26766.09
755.679	26730.84
756.017	26577.17
756.355	26734
756.693	26508.24
757.031	26564.97
757.368	26373.11
757.706	26357.29
758.044	26255.59
758.381	26358.87
758.719	26120.01
759.056	26232.77
759.394	26007.92
759.731	25953.46
760.068	25914.59
760.405	25752.11
760.743	25763.86
761.08	25788.94
761.417	25762.05
761.754	25560.25
762.091	25541.94
762.428	25516.18
762.765	25309.18
763.102	25434.6
763.438	25224.21
763.775	25130.43
764.112	25124.33
764.449	25099.69
764.785	25113.48
765.122	24859.7
765.458	24826.93
765.795	24784
766.131	24766.59
766.467	24677.33
766.804	24594.62
767.14	24500.61
767.476	24379.71
767.812	24264.46
768.148	24379.49
768.485	24184.91
768.821	24041.19
769.157	24102.88
769.492	23979.95
769.828	23880.29
770.164	23703.35
770.5	23772.5
770.836	23666.51
771.171	23588.55
771.507	23519.4
771.842	23240.53
772.178	23260.87
772.513	23206.64
772.849	23188.56
773.184	22976.81
773.519	23069.92
773.855	22856.14
774.19	22842.13
774.525	22657.5
774.86	22762.81
775.195	22605.07
775.53	22648.23
775.865	22531.17
776.2	22269.49
776.535	22136.16
776.87	22179.32
777.205	22014.58
777.539	21992.43
777.874	21941.81
778.209	21742.49
778.543	21726.22
778.878	21691.87
779.212	21605.77
779.547	21581.59
779.881	21507.92
780.215	21290.53
780.55	21478.77
780.884	21337.31
781.218	21276.74
781.552	21224.09
781.886	21054.38
782.22	21001.04
782.554	20810.77
782.888	20687.38
783.222	20648.96
783.556	20639.92
783.889	20546.14
784.223	20358.8
784.557	20447.16
784.89	20432.25
785.224	20226.37
785.557	20121.29
785.891	20157.45
786.224	20111.8
786.558	20089.88
786.891	19836.1
787.224	19818.02
787.557	19764.47
787.891	19660.06
788.224	19676.33
788.557	19669.55
788.89	19608.99
789.223	19617.35
789.556	19352.5
789.888	19304.82
790.221	19376
790.554	19104.37
790.887	19181.66
791.219	19042.68
791.552	19002.23
791.884	18915.22
792.217	18884.26
792.549	18799.29
792.882	18631.16
793.214	18647.43
793.546	18639.98
793.879	18492.18
794.211	18423.26
794.543	18526.31
794.875	18324.28
795.207	18464.61
795.539	18312.3
795.871	18270.95
796.203	18118.18
796.535	18048.81
796.867	17930.39
797.198	17971.29
797.53	17897.62
797.862	17877.28
798.193	17903.27
798.525	17703.96
798.856	17746.21
799.188	17435.49
799.519	17446.34
799.85	17478.2
800.182	17483.85
800.513	17404.08
800.844	17267.81
801.175	17376.73
801.506	17348.48
801.837	17261.03
802.168	17190.52
802.499	17129.51
802.83	17029.17
803.161	17047.93
803.491	16885.9
803.822	16887.48
804.153	16786.01
804.483	16714.38
804.814	16654.94
805.145	16755.28
805.475	16678.45
805.805	16497.21
806.136	16464.44
806.466	16488.39
806.796	16425.12
807.126	16300.38
807.457	16297.21
807.787	16340.38
808.117	16150.1
808.447	16117.78
808.777	16210.89
809.107	16082.08
809.436	16136.76
809.766	16041.63
810.096	15910.78
810.426	15995.07
810.755	15877.34
811.085	15913.27
811.414	15855.87
811.744	15763.22
812.073	15594.63
812.403	15771.58
812.732	15622.65
813.061	15611.58
813.39	15588.76
813.719	15426.5
814.049	15544.01
814.378	15441.64
814.707	15323.68
815.036	15413.85
815.365	15297.69
815.693	15184.47
816.022	15155.77
816.351	15115.55
816.68	15062.89
817.008	15195.55
817.337	14977.47
817.665	14908.1
817.994	15006.63
818.322	14973.63
818.651	14824.71
818.979	14860.64
819.307	14807.53
819.636	14841.21
819.964	14734.32
820.292	14765.28
820.62	14819.51
820.948	14640.76
821.276	14756.24
821.604	14595.34
821.932	14716.92
822.259	14729.8
822.587	14643.24
822.915	14665.62
823.243	14672.85
823.57	14629.01
823.898	14726.63
824.225	14633.53
824.553	14565.05
824.88	14660.42
825.207	14707.65
825.535	14536.58
825.862	14647.31
826.189	14522.34
826.516	14652.74
826.843	14717.82
827.17	14650.93
827.497	14625.62
827.824	14644.83
828.151	14674.66
828.478	14599.63
828.805	14618.16
829.131	14563.25
829.458	14623.81
829.785	14516.02
830.111	14590.36
830.438	14602.34
830.764	14593.53
831.09	14645.28
831.417	14570.7
831.743	14590.36
832.069	14615.68
832.395	14466.3
832.722	14531.84
833.048	14461.78
833.374	14432.85
833.7	14385.85
834.026	14389.92
834.351	14451.16
834.677	14450.48
835.003	14505.85
835.329	14418.62
835.654	14397.83
835.98	14336.13
836.306	14358.51
836.631	14304.27
836.956	14304.04
837.282	14322.12
837.607	14212.97
837.932	14213.43
838.258	14195.8
838.583	14111.06
838.908	14058.63
839.233	14144.27
839.558	14092.07
839.883	14068.34
840.208	13968.01
840.533	13963.26
840.858	14088.46
841.182	13945.64
841.507	13935.92
841.832	13892.76
842.156	13886.2
842.481	13848.92
842.805	13786.32
843.13	13785.87
843.454	13789.26
843.778	13644.63
844.103	13688.92
844.427	13576.61
844.751	13541.58
845.075	13577.96
845.399	13574.35
845.723	13462.71
846.047	13543.61
846.371	13440.79
846.695	13459.77
847.019	13299.1
847.343	13291.19
847.666	13098.2
847.99	13068.15
848.313	13101.14
848.637	13074.47
848.96	13048.48
849.284	12958.32
849.607	12854.82
849.931	12849.39
850.254	12767.81
850.577	12645.78
850.9	12588.61
851.223	12622.06
851.546	12574.6
851.869	12496.63
852.192	12506.35
852.515	12435.62
852.838	12449.4
853.161	12356.53
853.483	12293.48
853.806	12180.94
854.129	12245.34
854.451	12200.15
854.774	12096.65
855.096	12104.78
855.419	12075.18
855.741	12063.88
856.063	12043.54
856.385	11881.06
856.708	11811.91
857.03	11809.42
857.352	11879.02
857.674	11730.33
857.996	11741.85
858.318	11669.31
858.64	11643.1
858.961	11632.25
859.283	11598.13
859.605	11492.14
859.926	11553.61
860.248	11530.56
860.57	11408.98
860.891	11451.24
861.212	11425.02
861.534	11412.6
861.855	11374.63
862.176	11347.74
862.498	11334.41
862.819	11317.68
863.14	11254.41
863.461	11236.78
863.782	11254.86
864.103	11296.67
864.424	11194.75
864.745	11193.39
865.065	11120.17
865.386	11091.47
865.707	11100.97
866.027	11128.31
866.348	11054.64
866.668	11070.68
866.989	11085.6
867.309	10904.59
867.63	10978.48
867.95	10956.56
868.27	10932.61
868.59	10957.69
868.91	10882.89
869.23	10847.41
869.55	10834.31
869.87	10917.02
870.19	10858.49
870.51	10861.88
870.83	10860.52
871.15	10735.1
871.469	10752.5
871.789	10817.13
872.109	10737.81
872.428	10634.31
872.748	10720.18
873.067	10678.83
873.386	10701.65
873.706	10769.67
874.025	10580.53
874.344	10571.26
874.663	10594.76
874.982	10587.31
875.301	10572.62
875.62	10531.04
875.939	10526.52
876.258	10479.74
876.577	10498.95
876.896	10525.84
877.214	10452.62
877.533	10425.28
877.852	10484.03
878.17	10380.08
878.489	10460.53
878.807	10387.76
879.125	10329.46
879.444	10427.31
879.762	10307.99
880.08	10343.24
880.398	10244.94
880.716	10331.04
881.034	10289.01
881.352	10235.68
881.67	10179.41
881.988	10191.61
882.306	10177.15
882.624	10189.8
882.941	10035.46
883.259	10039.52
883.577	10062.8
883.894	10053.54
884.212	10038.85
884.529	9969.24
884.846	9923.37
885.164	9983.48
885.481	9906.87
885.798	9920.88
886.115	9835.91
886.432	9921.56
886.75	9791.85
887.067	9749.81
887.383	9821.68
887.7	9767.21
888.017	9690.83
888.334	9679.76
888.651	9688.8
888.967	9707.78
889.284	9640.89
889.6	9695.35
889.917	9482.25
890.233	9542.36
890.55	9519.09
890.866	9504.62
891.182	9465.53
891.498	9486.54
891.815	9397.51
892.131	9357.06
892.447	9381.24
892.763	9330.39
893.079	9296.94
893.395	9218.3
893.71	9255.82
894.026	9231.41
894.342	9233.44
894.657	9170.39
894.973	9133.79
895.289	9126.33
895.604	9146.89
895.92	9120.68
896.235	8988.93
896.55	8987.35
896.865	9015.14
897.181	8956.84
897.496	8875.94
897.811	8826.9
898.126	8852.89
898.441	8870.06
898.756	8788.71
899.071	8745.32
899.386	8720.01
899.7	8700.35
900.015	8613.35
900.33	8608.15
900.644	8568.6
900.959	8623.74
901.273	8518.21
901.588	8460.58
901.902	8497.64
902.216	8405.89
902.531	8420.36
902.845	8386.46
903.159	8346.24
903.473	8287.48
903.787	8268.27
904.101	8282.96
904.415	8250.64
904.729	8229.85
905.042	8176.75
905.356	8115.28
905.67	8099.69
905.984	8077.77
906.297	8040.25
906.611	8027.83
906.924	7948.51
907.237	7961.84
907.551	7968.17
907.864	7917.32
908.177	7873.93
908.491	7830.54
908.804	7791.67
909.117	7743.54
909.43	7773.6
909.743	7694.95
910.056	7728.85
910.368	7611.79
910.681	7597.1
910.994	7572.92
911.307	7598.46
911.619	7502.42
911.932	7591.45
912.244	7409.54
912.557	7390.78
912.869	7355.98
913.181	7352.36
913.494	7386.26
913.806	7338.35
914.118	7273.95
914.43	7277.79
914.742	7296.77
915.054	7210.22
915.366	7163.22
915.678	7123.67
915.99	7179.03
916.302	6998.47
916.613	7077.12
916.925	6970.23
917.236	6961.86
917.548	6941.75
917.859	6959.61
918.171	6904.24
918.482	6887.06
918.794	6848.42
919.105	6837.12
919.416	6750.8
919.727	6775.2
920.038	6807.07
920.349	6697.01
920.66	6700.63
920.971	6634.42
921.282	6602.55
921.593	6581.31
921.903	6549.67
922.214	6549.9
922.525	6517.58
922.835	6415.44
923.146	6443.69
923.456	6402.78
923.767	6451.14
924.077	6406.85
924.387	6329.79
924.697	6300.41
925.008	6327.98
925.318	6250.02
925.628	6293.41
925.938	6251.15
926.248	6183.35
926.558	6127.08
926.867	6099.29
927.177	6070.59
927.487	6088.67
927.796	6039.86
928.106	6046.18
928.416	5929.58
928.725	5982.68
929.034	5938.39
929.344	5950.37
929.653	5950.82
929.962	5883.48
930.271	5834.21
930.581	5801.22
930.89	5796.02
931.199	5761.67
931.508	5717.83
931.817	5711.5
932.125	5689.81
932.434	5676.7
932.743	5620.88
933.051	5616.14
933.36	5607.32
933.669	5593.31
933.977	5545.18
934.286	5533.2
934.594	5552.86
934.902	5454.11
935.21	5433.32
935.519	5435.8
935.827	5466.09
936.135	5404.39
936.443	5306.54
936.751	5333.21
937.059	5338.4
937.367	5290.5
937.674	5303.38
937.982	5286.2
938.29	5231.51
938.597	5261.57
938.905	5152.65
939.213	5149.48
939.52	5161.46
939.827	5154.91
940.135	5106.32
940.442	5125.53
940.749	5063.16
941.056	5121.91
941.363	5018.19
941.67	4973.89
941.977	5002.59
942.284	4896.83
942.591	4942.26
942.898	4974.12
943.205	4880.56
943.511	4852.09
943.818	4833.11
944.125	4812.54
944.431	4820.9
944.738	4779.1
945.044	4763.28
945.35	4731.64
945.657	4721.7
945.963	4637.18
946.269	4665.2
946.575	4675.82
946.881	4585.2
947.187	4615.03
947.493	4574.58
947.799	4601.48
948.105	4545.43
948.41	4514.25
948.716	4525.77
949.022	4514.7
949.327	4481.03
949.633	4410.52
949.938	4444.42
950.244	4462.72
950.549	4412.33
950.854	4418.43
951.16	4305.21
951.465	4357.41
951.77	4291.65
952.075	4339.79
952.38	4283.07
952.685	4264.08
952.99	4255.95
953.294	4210.98
953.599	4212.56
953.904	4169.17
954.209	4195.84
954.513	4158.32
954.818	4137.53
955.122	4102.96
955.426	4119.68
955.731	4077.87
956.035	4086.23
956.339	4023.19
956.643	4043.75
956.948	4039.23
957.252	3985.67
957.556	3971.89
957.86	3969.63
958.163	3944.32
958.467	3937.54
958.771	3924.88
959.075	3898.22
959.378	3908.39
959.682	3912.68
959.985	3852.12
960.289	3849.18
960.592	3832.91
960.896	3785.68
961.199	3807.6
961.502	3779.58
961.805	3760.37
962.108	3717.43
962.411	3721.72
962.714	3676.53
963.017	3674.49
963.32	3711.55
963.623	3641.73
963.926	3667.49
964.228	3630.88
964.531	3586.59
964.833	3584.1
965.136	3554.04
965.438	3554.5
965.741	3531.9
966.043	3525.8
966.345	3523.31
966.648	3507.94
966.95	3499.81
967.252	3453.93
967.554	3448.74
967.856	3439.7
968.158	3389.08
968.46	3427.49
968.761	3410.55
969.063	3415.29
969.365	3366.25
969.666	3360.15
969.968	3304.33
970.269	3300.94
970.571	3319.7
970.872	3296.2
971.174	3258.01
971.475	3252.81
971.776	3241.74
972.077	3219.59
972.378	3241.06
972.679	3228.4
972.98	3217.78
973.281	3193.38
973.582	3203.55
973.883	3128.97
974.183	3163.55
974.484	3135.52
974.785	3109.54
975.085	3093.49
975.386	3096.88
975.686	3079.03
975.986	3053.95
976.287	3034.51
976.587	3004.68
976.887	3043.55
977.187	3010.1
977.487	3005.36
977.787	2996.77
978.087	2939.82
978.387	2880.84
978.687	2952.48
978.987	2954.74
979.286	2912.48
979.586	2878.81
979.885	2888.07
980.185	2852.59
980.484	2849.66
980.784	2826.83
981.083	2856.89
981.382	2812.37
981.682	2814.63
981.981	2801.3
982.28	2787.29
982.579	2761.07
982.878	2754.07
983.177	2766.5
983.475	2716.1
983.774	2721.07
984.073	2670.23
984.372	2695.54
984.67	2697.34
984.969	2672.94
985.267	2697.57
985.566	2679.94
985.864	2607.63
986.162	2663.22
986.461	2614.63
986.759	2622.32
987.057	2589.32
987.355	2548.2
987.653	2579.83
987.951	2564.92
988.249	2553.85
988.547	2556.56
988.844	2512.94
989.142	2531.02
989.44	2492.15
989.737	2475.2
990.035	2457.8
990.332	2464.81
990.63	2475.66
990.927	2418.03
991.224	2452.38
991.521	2387.07
991.819	2439.72
992.116	2375.09
992.413	2370.12
992.71	2416.45
993.006	2373.29
993.303	2349.78
993.6	2333.51
993.897	2326.05
994.193	2354.98
994.49	2361.76
994.787	2297.35
995.083	2279.73
995.379	2243.8
995.676	2266.62
995.972	2264.36
996.268	2255.77
996.565	2274.08
996.861	2253.51
997.157	2201.76
997.453	2232.05
997.749	2191.14
998.044	2201.31
998.34	2161.99
998.636	2152.95
998.932	2133.29
999.227	2142.33
999.523	2149.34
999.818	2134.87
1000.114	2088.55
1000.409	2103.91
1000.704	2084.03
1001	2094.87
1001.295	2056.46
1001.59	2057.36
1001.885	2058.04
1002.18	2023.24
1002.475	1982.56
1002.77	2014.42
1003.065	1990.02
1003.359	1995.22
1003.654	1961.54
1003.949	1958.15
1004.243	1961.32
1004.538	1928.78
1004.832	1941.43
1005.127	1921.77
1005.421	1914.09
1005.715	1900.98
1006.009	1927.87
1006.304	1898.72
1006.598	1861.43
1006.892	1844.49
1007.186	1838.16
1007.48	1851.04
1007.773	1843.81
1008.067	1853.75
1008.361	1784.83
1008.655	1785.73
1008.948	1779.4
1009.242	1779.85
1009.535	1745.05
1009.829	1749.8
1010.122	1760.19
1010.415	1731.95
1010.708	1723.58
1011.001	1730.14
1011.295	1701.89
1011.588	1685.39
1011.881	1674.55
1012.173	1667.77
1012.466	1646.52
1012.759	1685.62
1013.052	1648.33
1013.344	1614.89
1013.637	1655.79
1013.93	1587.54
1014.222	1605.85
1014.514	1613.98
1014.807	1592.29
1015.099	1581.89
1015.391	1586.87
1015.683	1575.34
1015.976	1561.78
1016.268	1543.02
1016.56	1539.86
1016.851	1528.79
1017.143	1508.45
1017.435	1512.74
1017.727	1496.47
1018.018	1486.98
1018.31	1477.26
1018.602	1492.86
1018.893	1453.76
1019.185	1452.63
1019.476	1433.87
1019.767	1437.94
1020.058	1439.75
1020.35	1422.8
1020.641	1417.6
1020.932	1396.59
1021.223	1391.16
1021.514	1391.84
1021.804	1388.68
1022.095	1328.79
1022.386	1339.64
1022.677	1351.17
1022.967	1322.92
1023.258	1315.46
1023.548	1334.67
1023.839	1319.53
1024.129	1301.22
1024.419	1300.32
1024.709	1284.5
1025	1296.48
1025.29	1269.59
1025.58	1257.83
1025.87	1292.18
1026.16	1236.37
1026.449	1237.5
1026.739	1217.61
1027.029	1222.35
1027.319	1192.75
1027.608	1180.32
1027.898	1202.92
1028.187	1187.78
1028.477	1189.36
1028.766	1174.67
1029.055	1171.73
1029.344	1167.67
1029.634	1170.6
1029.923	1140.78
1030.212	1150.72
1030.501	1150.27
1030.79	1114.34
1031.078	1122.24
1031.367	1111.85
1031.656	1100.78
1031.945	1085.86
1032.233	1077.95
1032.522	1073.43
1032.81	1073.66
1033.099	1076.82
1033.387	1082.25
1033.675	1057.39
1033.963	1058.52
1034.251	1020.78
1034.54	1028.91
1034.828	1023.94
1035.116	1013.77
1035.403	1013.77
1035.691	1014.45
1035.979	1011.29
1036.267	995.24
1036.554	993.89
1036.842	980.1
1037.129	974.45
1037.417	975.58
1037.704	990.04
1037.992	958.86
1038.279	941.46
1038.566	936.71
1038.853	936.71
1039.14	936.71
