Data from hue_140_FLMS001491_00062.txt Node
Date: Tue Feb 07 16:56:14 GMT 2017
User: dcchb
Spectrometer: FLMS00149
Trigger mode: 0
Integration Time (sec): 2.000000E-2
Scans to average: 10
Electric dark correction enabled: true
Nonlinearity correction enabled: false
Boxcar width: 0
XAxis mode: Wavelengths
Number of Pixels in Spectrum: 2048
>>>>>Begin Spectral Data<<<<<
341.393	15.23
341.776	15.23
342.16	15.23
342.543	-62.74
342.927	-60.48
343.31	-76.07
343.693	-72.91
344.077	-68.61
344.46	-62.06
344.843	-52.8
345.226	-48.28
345.61	-2.85
345.993	-27.03
346.376	-4.43
346.759	11.16
347.142	40.54
347.525	48.45
347.908	45.73
348.291	71.5
348.674	89.57
349.057	108.1
349.44	134.77
349.823	125.05
350.206	163.24
350.588	175
350.971	206.18
351.354	220.19
351.737	232.17
352.119	260.42
352.502	253.86
352.884	257.48
353.267	280.76
353.65	282.79
354.032	303.13
354.414	295.44
354.797	319.4
355.179	307.65
355.562	314.65
355.944	306.74
356.326	311.94
356.709	340.87
357.091	340.64
357.473	336.12
357.855	342.45
358.238	334.09
358.62	337.93
359.002	343.35
359.384	323.24
359.766	333.41
360.148	331.38
360.53	351.04
360.912	333.18
361.294	319.4
361.676	325.73
362.057	323.92
362.439	328.89
362.821	330.92
363.203	323.47
363.584	329.34
363.966	319.62
364.348	329.34
364.729	316.46
365.111	289.12
365.493	324.37
365.874	332.28
366.256	322.34
366.637	312.39
367.019	304.48
367.4	312.17
367.781	323.01
368.163	319.4
368.544	308.33
368.925	308.78
369.306	319.17
369.688	324.14
370.069	299.51
370.45	311.94
370.831	303.13
371.212	330.02
371.593	316.69
371.974	311.71
372.355	298.16
372.736	305.39
373.117	313.75
373.498	304.26
373.879	317.14
374.26	305.84
374.641	325.05
375.021	334.54
375.402	335.44
375.783	333.64
376.163	319.62
376.544	336.57
376.925	331.38
377.305	319.17
377.686	326.4
378.066	328.89
378.447	341.32
378.827	334.31
379.208	315.56
379.588	321.88
379.968	319.62
380.349	329.79
380.729	360.3
381.109	323.01
381.489	350.81
381.87	333.18
382.25	332.51
382.63	347.19
383.01	343.8
383.39	323.24
383.77	344.93
384.15	342.45
384.53	351.04
384.91	326.4
385.29	346.97
385.67	350.13
386.049	345.39
386.429	364.82
386.809	349.23
387.189	366.18
387.568	350.81
387.948	350.58
388.328	354.43
388.707	347.65
389.087	352.84
389.466	351.71
389.846	335.9
390.225	360.98
390.605	387.65
390.984	345.16
391.363	346.74
391.743	353.97
392.122	364.14
392.501	356.46
392.881	384.26
393.26	368.21
393.639	395.78
394.018	347.42
394.397	383.58
394.776	377.93
395.155	371.83
395.534	385.39
395.913	381.77
396.292	390.81
396.671	367.31
397.05	384.03
397.429	370.47
397.808	399.4
398.186	388.1
398.565	384.93
398.944	388.78
399.323	393.75
399.701	400.07
400.08	385.16
400.458	398.04
400.837	391.03
401.215	411.15
401.594	419.73
401.972	408.89
402.351	410.92
402.729	402.11
403.107	383.35
403.486	400.75
403.864	432.39
404.242	417.25
404.62	403.92
404.999	412.96
405.377	426.51
405.755	441.43
406.133	436.01
406.511	447.76
406.889	433.29
407.267	436.68
407.645	451.15
408.023	446.17
408.401	401.66
408.779	432.62
409.156	451.37
409.534	435.78
409.912	440.98
410.29	443.01
410.667	459.28
411.045	458.15
411.422	460.64
411.8	468.77
412.178	460.41
412.555	459.96
412.933	467.64
413.31	452.28
413.687	480.07
414.065	484.37
414.442	484.82
414.819	475.78
415.197	499.28
415.574	507.19
415.951	483.69
416.328	516.23
416.705	505.83
417.082	508.32
417.46	505.38
417.837	522.56
418.214	496.34
418.591	516.23
418.967	507.42
419.344	524.14
419.721	518.26
420.098	508.77
420.475	517.36
420.852	532.5
421.228	523.01
421.605	540.41
421.982	515.33
422.358	555.32
422.735	564.36
423.111	529.79
423.488	542.67
423.864	565.95
424.241	583.12
424.617	548.77
424.994	558.94
425.37	564.59
425.746	577.02
426.123	567.98
426.499	559.17
426.875	594.65
427.251	603.91
427.627	565.95
428.003	606.17
428.379	618.6
428.756	619.5
429.132	619.28
429.507	630.58
429.883	627.64
430.259	647.98
430.635	631.03
431.011	665.15
431.387	627.19
431.763	637.13
432.138	648.2
432.514	677.36
432.89	667.64
433.265	659.5
433.641	682.33
434.016	669.45
434.392	719.39
434.767	692.72
435.143	692.27
435.518	716.9
435.894	730.69
436.269	734.08
436.644	707.41
437.02	730.91
437.395	727.52
437.77	719.16
438.145	751.03
438.52	759.84
438.895	777.24
439.271	767.75
439.646	751.48
440.021	771.14
440.395	771.59
440.77	782.66
441.145	773.85
441.52	777.69
441.895	796.22
442.27	814.3
442.645	798.26
443.019	791.7
443.394	820.4
443.769	808.65
444.143	821.98
444.518	846.16
444.892	849.55
445.267	825.37
445.641	869.67
446.016	846.39
446.39	861.08
446.764	867.86
447.139	850.23
447.513	848.2
447.887	866.5
448.262	871.02
448.636	878.25
449.01	873.96
449.384	888.42
449.758	891.36
450.132	927.74
450.506	916.22
450.88	933.85
451.254	932.26
451.628	920.29
452.002	958.93
452.376	948.53
452.75	949.89
453.123	986.27
453.497	972.71
453.871	971.13
454.244	1009.55
454.618	996.89
454.992	998.7
455.365	1037.35
455.739	1064.92
456.112	1066.05
456.486	1077.8
456.859	1101.52
457.232	1098.81
457.606	1101.98
457.979	1096.33
458.352	1114.86
458.725	1139.04
459.099	1139.72
459.472	1193.95
459.845	1135.2
460.218	1172.94
460.591	1182.65
460.964	1213.16
461.337	1223.56
461.71	1240.73
462.083	1237.79
462.456	1254.29
462.829	1305.36
463.201	1302.42
463.574	1270.11
463.947	1351.01
464.32	1359.37
464.692	1365.92
465.065	1387.39
465.438	1410.22
465.81	1424.23
466.183	1445.47
466.555	1484.34
466.928	1449.76
467.3	1481.4
467.672	1503.1
468.045	1542.19
468.417	1566.6
468.789	1612.47
469.161	1612.25
469.534	1613.83
469.906	1659.25
470.278	1712.58
470.65	1715.97
471.022	1778.8
471.394	1809.53
471.766	1818.12
472.138	1840.71
472.51	1883.65
472.882	1941.95
473.253	1937.66
473.625	2014.95
473.997	2051.33
474.369	2038.45
474.74	2119.58
475.112	2185.79
475.484	2219.69
475.855	2318.67
476.227	2329.52
476.598	2402.28
476.97	2452.68
477.341	2486.57
477.713	2576.29
478.084	2586.23
478.455	2704.87
478.827	2743.29
479.198	2818.54
479.569	2882.27
479.94	2976.96
480.311	3049.27
480.682	3154.58
481.053	3231.41
481.424	3275.93
481.795	3417.4
482.166	3476.38
482.537	3525.64
482.908	3666.43
483.279	3748.23
483.65	3826.2
484.021	3959.3
484.391	4110.03
484.762	4136.25
485.133	4250.37
485.503	4382.79
485.874	4460.31
486.244	4534.65
486.615	4726.06
486.985	4816.23
487.356	4905.49
487.726	5036.34
488.097	5140.97
488.467	5274.97
488.837	5482.88
489.207	5548.64
489.578	5722.42
489.948	5785.7
490.318	5994.73
490.688	6041.06
491.058	6244.67
491.428	6394.04
491.798	6472.91
492.168	6607.59
492.538	6741.15
492.908	6909.96
493.278	7040.13
493.648	7045.78
494.017	7261.14
494.387	7358.76
494.757	7518.98
495.126	7648.25
495.496	7675.82
495.866	7822.7
496.235	7958.29
496.605	8055.01
496.974	8214.33
497.344	8313.76
497.713	8430.82
498.082	8518.05
498.452	8652.29
498.821	8792.4
499.19	8861.77
499.559	8986.06
499.928	9027.19
500.298	9174.76
500.667	9360.06
501.036	9327.98
501.405	9432.38
501.774	9528.65
502.143	9630.34
502.512	9638.02
502.88	9761.86
503.249	9805.93
503.618	9982.2
503.987	10031.69
504.356	10116.65
504.724	10167.28
505.093	10300.83
505.462	10300.83
505.83	10389.42
506.199	10546.93
506.567	10619.24
506.936	10594.38
507.304	10680.48
507.672	10861.72
508.041	10847.71
508.409	10943.98
508.777	11059.68
509.145	11167.25
509.514	11161.6
509.882	11201.82
510.25	11285.89
510.618	11238.89
510.986	11321.59
511.354	11437.07
511.722	11507.58
512.09	11581.93
512.458	11556.84
512.826	11629.16
513.193	11628.25
513.561	11691.53
513.929	11760.23
514.297	11850.17
514.664	11903.95
515.032	11938.75
515.4	12016.04
515.767	12056.26
516.135	12084.29
516.502	11986.89
516.869	12154.12
517.237	12126.55
517.604	12061.69
517.972	12235.24
518.339	12381.23
518.706	12246.32
519.073	12314.56
519.44	12367.67
519.808	12451.73
520.175	12354.79
520.542	12498.97
520.909	12531.96
521.276	12550.72
521.643	12575.8
522.009	12597.04
522.376	12648.57
522.743	12742.12
523.11	12762.91
523.477	12839.75
523.843	12793.65
524.21	12917.03
524.577	12875.23
524.943	12915
525.31	12959.29
525.676	13008.56
526.043	13026.63
526.409	13033.41
526.776	13184.37
527.142	13111.15
527.508	13145.73
527.874	13171.72
528.241	13184.14
528.607	13154.99
528.973	13238.15
529.339	13202.45
529.705	13253.75
530.071	13211.26
530.437	13203.35
530.803	13247.87
531.169	13381.2
531.535	13161.55
531.901	13132.62
532.267	13217.14
532.632	13208.78
532.998	13175.33
533.364	13164.94
533.73	13221.21
534.095	13236.57
534.461	13245.61
534.826	13209
535.192	13243.35
535.557	13258.49
535.923	13317.47
536.288	13127.42
536.653	13152.28
537.019	13057.14
537.384	13077.26
537.749	13117.93
538.114	12985.05
538.479	13034.09
538.845	13014.21
539.21	12909.8
539.575	12910.93
539.94	12885.4
540.305	12997.94
540.67	12889.24
541.034	12791.61
541.399	12839.07
541.764	12792.52
542.129	12805.62
542.494	12756.36
542.858	12711.39
543.223	12694.67
543.587	12704.84
543.952	12571.73
544.316	12614.44
544.681	12584.84
545.045	12574.44
545.41	12618.28
545.774	12521.56
546.138	12531.28
546.503	12494.67
546.867	12461.68
547.231	12459.42
547.595	12422.36
547.959	12430.27
548.324	12305.07
548.688	12361.57
549.052	12294
549.416	12240.21
549.779	12235.47
550.143	12188.46
550.507	12203.83
550.871	12224.85
551.235	12117.28
551.599	12186.21
551.962	12073.21
552.326	12093.78
552.689	12126.77
553.053	12041.58
553.417	12008.81
553.78	12086.77
554.143	12072.99
554.507	12034.57
554.87	12001.13
555.234	12037.51
555.597	11985.53
555.96	11999.77
556.323	11914.35
556.686	11956.83
557.05	11811.75
557.413	11915.25
557.776	11899.21
558.139	11912.09
558.502	11779.21
558.865	11794.12
559.228	11893.56
559.59	11818.31
559.953	11853.33
560.316	11974.23
560.679	11907.12
561.041	11942.6
561.404	11879.77
561.767	11949.15
562.129	11859.21
562.492	11963.84
562.854	11931.07
563.217	11896.27
563.579	11937.4
563.941	12022.14
564.304	12034.12
564.666	12000.22
565.028	12033.89
565.39	12150.5
565.753	12061.24
566.115	12018.53
566.477	12075.47
566.839	12003.38
567.201	12110.27
567.563	12059.43
567.925	12156.83
568.287	12133.55
568.648	12101.46
569.01	12152.08
569.372	12141.91
569.734	12148.24
570.095	12181.46
570.457	12183.49
570.819	12156.83
571.18	12117.96
571.542	12269.59
571.903	12238.86
572.265	12343.49
572.626	12297.39
572.987	12292.87
573.349	12273.66
573.71	12287.9
574.071	12395.01
574.432	12343.04
574.794	12474.11
575.155	12385.52
575.516	12328.8
575.877	12327.9
576.238	12367.22
576.599	12457.38
576.96	12376.26
577.32	12363.15
577.681	12392.08
578.042	12382.36
578.403	12347.1
578.763	12384.17
579.124	12374.45
579.485	12429.14
579.845	12479.76
580.206	12397.72
580.566	12402.02
580.927	12360.89
581.287	12429.59
581.648	12400.44
582.008	12466.42
582.368	12384.84
582.728	12410.83
583.089	12420.78
583.449	12413.32
583.809	12345.52
584.169	12348.69
584.529	12359.08
584.889	12405.86
585.249	12371.51
585.609	12312.53
585.969	12421.45
586.329	12321.57
586.688	12375.35
587.048	12315.69
587.408	12312.08
587.768	12320.66
588.127	12347.33
588.487	12308.24
588.846	12320.44
589.206	12265.52
589.565	12269.59
589.925	12336.48
590.284	12209.71
590.643	12253.55
591.003	12263.49
591.362	12301.91
591.721	12241.12
592.08	12283.15
592.44	12291.96
592.799	12242.93
593.158	12235.24
593.517	12203.38
593.876	12294.45
594.235	12209.93
594.593	12230.5
594.952	12162.25
595.311	12291.96
595.67	12222.36
596.029	12248.12
596.387	12247.45
596.746	12197.73
597.104	12232.31
597.463	12196.83
597.822	12232.53
598.18	12130.84
598.538	12087
598.897	12236.15
599.255	12116.6
599.613	12253.32
599.972	12205.87
600.33	12211.06
600.688	12107.56
601.046	12188.01
601.404	12246.77
601.762	12127
602.12	12252.19
602.478	12218.29
602.836	12234.34
603.194	12182.36
603.552	12160.44
603.91	12156.38
604.268	12145.75
604.625	12209.03
604.983	12216.94
605.341	12175.36
605.698	12191.63
606.056	12226.2
606.413	12196.15
606.771	12240.89
607.128	12224.85
607.485	12256.71
607.843	12224.62
608.2	12277.95
608.557	12383.49
608.914	12273.66
609.272	12344.84
609.629	12331.74
609.986	12337.61
610.343	12292.42
610.7	12445.41
611.057	12265.52
611.414	12333.55
611.771	12378.52
612.127	12333.55
612.484	12264.17
612.841	12383.71
613.198	12300.78
613.554	12345.07
613.911	12467.55
614.267	12383.26
614.624	12354.79
614.98	12412.19
615.337	12512.07
615.693	12457.84
616.05	12446.76
616.406	12550.72
616.762	12515.91
617.118	12505.29
617.475	12504.61
617.831	12565.63
618.187	12589.36
618.543	12582.35
618.899	12623.48
619.255	12554.56
619.611	12664.38
619.967	12606.31
620.323	12641.11
620.678	12567.44
621.034	12574.67
621.39	12543.71
621.746	12512.75
622.101	12660.09
622.457	12625.29
622.812	12652.41
623.168	12680.2
623.523	12655.8
623.879	12602.69
624.234	12620.32
624.589	12596.82
624.945	12632.97
625.3	12687.89
625.655	12575.8
626.01	12589.36
626.365	12637.27
626.72	12572.18
627.075	12598.4
627.43	12531.73
627.785	12549.13
628.14	12588.68
628.495	12558.4
628.85	12573.99
629.205	12492.41
629.559	12559.98
629.914	12465.97
630.269	12535.35
630.623	12470.04
630.978	12509.59
631.332	12505.97
631.687	12589.36
632.041	12462.13
632.396	12491.51
632.75	12420.32
633.104	12420.1
633.459	12333.77
633.813	12425.07
634.167	12334.45
634.521	12377.39
634.875	12386.88
635.229	12325.18
635.583	12234.11
635.937	12291.74
636.291	12262.59
636.645	12260.78
636.999	12268.46
637.352	12296.26
637.706	12170.84
638.06	12270.27
638.413	12210.61
638.767	12175.13
639.121	12206.09
639.474	12112.08
639.828	12120.67
640.181	12119.31
640.534	12094
640.888	12092.65
641.241	12066.43
641.594	12051.75
641.947	12118.18
642.301	12077.06
642.654	12032.76
643.007	12115.47
643.36	12071.41
643.713	12057.17
644.066	12102.82
644.419	12051.97
644.771	11917.51
645.124	11892.2
645.477	11831.86
645.83	11764.07
646.182	11716.84
646.535	11661.25
646.888	11750.96
647.24	11651.08
647.593	11619.67
647.945	11676.39
648.298	11619.89
648.65	11595.94
649.002	11556.62
649.355	11638.2
649.707	11605.2
650.059	11666.22
650.411	11806.1
650.763	11829.6
651.115	11934.69
651.467	11887
651.819	11908.7
652.171	11832.32
652.523	11873.44
652.875	11881.13
653.227	11942.14
653.578	11911.64
653.93	11890.17
654.282	11828.02
654.633	11812.88
654.985	11906.21
655.337	11786.67
655.688	11879.32
656.039	11890.62
656.391	11874.57
656.742	11897.4
657.094	11832.54
657.445	11919.77
657.796	11827.57
658.147	11808.14
658.498	11862.82
658.849	11912.31
659.2	11880.22
659.551	11860.79
659.902	11932.43
660.253	11889.26
660.604	11925.42
660.955	11897.4
661.306	11897.63
661.656	11873.44
662.007	11920.22
662.358	11896.72
662.708	11941.92
663.059	11860.56
663.409	11901.01
663.76	11932.43
664.11	11900.34
664.461	11904.63
664.811	11949.6
665.161	11918.64
665.511	11941.01
665.862	11803.39
666.212	11868.47
666.562	11897.17
666.912	11900.34
667.262	11870.51
667.612	11945.53
667.962	11912.31
668.312	11857.17
668.662	11878.19
669.011	11889.04
669.361	11884.74
669.711	11816.27
670.06	11755.48
670.41	11789.15
670.76	11701.25
671.109	11854.24
671.459	11932.2
671.808	11840
672.157	11776.27
672.507	11827.34
672.856	11772.43
673.205	11843.84
673.554	11765.2
673.904	11791.19
674.253	11831.86
674.602	11804.07
674.951	11639.55
675.3	11586.45
675.649	11771.07
675.998	11754.8
676.346	11755.93
676.695	11759.32
677.044	11638.87
677.393	11670.51
677.741	11686.56
678.09	11654.02
678.438	11623.73
678.787	11649.5
679.135	11675.26
679.484	11508.71
679.832	11643.17
680.181	11482.95
680.529	11619.67
680.877	11587.58
681.225	11552.78
681.573	11508.03
681.922	11545.54
682.27	11453.12
682.618	11428.94
682.966	11502.38
683.314	11551.19
683.661	11402.5
684.009	11368.6
684.357	11350.97
684.705	11326.34
685.053	11438.65
685.4	11323.4
685.748	11235.5
686.095	11203.86
686.443	11226.23
686.79	11233.46
687.138	11149.17
687.485	11157.08
687.832	11193.01
688.18	11189.85
688.527	11061.26
688.874	10989.17
689.221	11000.7
689.568	10984.88
689.915	10920.93
690.262	10968.16
690.609	10868.95
690.956	10835.28
691.303	10863.53
691.65	10800.93
691.997	10802.74
692.344	10769.97
692.69	10684.78
693.037	10717.32
693.383	10588.05
693.73	10615.85
694.077	10508.96
694.423	10541.28
694.769	10542.41
695.116	10471.45
695.462	10421.05
695.808	10367.95
696.155	10444.78
696.501	10377.89
696.847	10331.11
697.193	10296.09
697.539	10260.83
697.885	10208.86
698.231	10143.09
698.577	10164.79
698.923	10120.95
699.269	10078.92
699.614	10045.7
699.96	9925.02
700.306	9943.55
700.651	9919.15
700.997	9916.21
701.342	9899.94
701.688	9870.33
702.033	9782.88
702.379	9804.12
702.724	9753.27
703.069	9779.94
703.415	9654.75
703.76	9647.06
704.105	9653.62
704.45	9636.44
704.795	9595.09
705.14	9544.47
705.485	9562.32
705.83	9460.63
706.175	9434.41
706.52	9432.61
706.865	9428.76
707.209	9417.69
707.554	9379.27
707.899	9359.39
708.243	9311.25
708.588	9350.8
708.932	9231.48
709.277	9188.32
709.621	9267.41
709.966	9156.68
710.31	9196.45
710.654	9145.16
710.998	9117.13
711.342	9087.53
711.687	9019.96
712.031	8981.54
712.375	8938.83
712.719	8942.22
713.063	8928.44
713.407	8953.07
713.75	8947.19
714.094	8932.51
714.438	8918.72
714.782	8885.5
715.125	8812.73
715.469	8864.03
715.812	8854.09
716.156	8773.41
716.499	8811.83
716.843	8865.16
717.186	8686.41
717.53	8751.04
717.873	8702.45
718.216	8747.88
718.559	8763.24
718.902	8664.94
719.246	8732.74
719.589	8630.59
719.932	8633.76
720.275	8663.59
720.617	8631.72
720.96	8631.72
721.303	8599.41
721.646	8608.9
721.989	8605.28
722.331	8577.49
722.674	8622
723.016	8542.01
723.359	8510.14
723.701	8573.19
724.044	8539.07
724.386	8438.73
724.729	8472.63
725.071	8412.07
725.413	8458.85
725.755	8474.66
726.097	8449.81
726.439	8444.83
726.782	8476.7
727.124	8502.46
727.465	8372.97
727.807	8471.05
728.149	8391.28
728.491	8392.63
728.833	8440.77
729.175	8368.23
729.516	8368.68
729.858	8384.95
730.199	8381.11
730.541	8356.7
730.882	8357.15
731.224	8386.08
731.565	8381.79
731.906	8316.48
732.248	8398.51
732.589	8355.35
732.93	8341.56
733.271	8309.92
733.612	8372.29
733.953	8391.95
734.294	8368.68
734.635	8332.52
734.976	8293.43
735.317	8341.11
735.658	8296.59
735.999	8349.7
736.339	8268.12
736.68	8404.16
737.021	8358.51
737.361	8366.87
737.702	8360.09
738.042	8403.03
738.383	8365.06
738.723	8300.21
739.063	8334.33
739.404	8383.82
739.744	8356.48
740.084	8296.82
740.424	8346.53
740.764	8421.33
741.104	8416.13
741.444	8457.72
741.784	8414.55
742.124	8444.38
742.464	8461.56
742.804	8513.99
743.143	8516.02
743.483	8497.94
743.823	8473.53
744.162	8540.65
744.502	8582.46
744.841	8577.03
745.181	8647.09
745.52	8671.95
745.86	8701.55
746.199	8717.6
746.538	8749.01
746.877	8858.61
747.216	8855.9
747.556	8885.95
747.895	8944.03
748.234	8989.68
748.573	8963.69
748.911	9049.56
749.25	9094.76
749.589	9181.31
749.928	9187.64
750.267	9235.32
750.605	9367.52
750.944	9396.45
751.283	9469.67
751.621	9529.33
751.96	9638.02
752.298	9727.51
752.636	9841.63
752.975	9850
753.313	9945.13
753.651	10077.79
753.989	10111.46
754.327	10181.51
754.666	10278.01
755.004	10391
755.342	10575.4
755.679	10678.9
756.017	10719.58
756.355	10868.5
756.693	10893.81
757.031	11185.33
757.368	11206.57
757.706	11394.36
758.044	11458.99
758.381	11670.06
758.719	11761.58
759.056	11957.96
759.394	12063.5
759.731	12240.21
760.068	12329.03
760.405	12452.41
760.743	12665.97
761.08	12800.2
761.417	12960.65
761.754	13073.41
762.091	13253.3
762.428	13401.77
762.765	13593.85
763.102	13734.19
763.438	13908.65
763.775	14033.61
764.112	14171.46
764.449	14364.45
764.785	14407.16
765.122	14541.17
765.458	14695.29
765.795	14800.15
766.131	15056.41
766.467	15166.92
766.804	15277.88
767.14	15349.06
767.476	15520.35
767.812	15552.22
768.148	15805.09
768.485	15816.62
768.821	15979.33
769.157	16042.6
769.492	16173.67
769.828	16310.84
770.164	16341.35
770.5	16435.58
770.836	16641
771.171	16627.22
771.507	16821.34
771.842	16841.22
772.178	16982.24
772.513	16977.94
772.849	17099.07
773.184	17089.8
773.519	17315.11
773.855	17286.41
774.19	17412.73
774.525	17436.91
774.86	17510.36
775.195	17631.03
775.53	17534.76
775.865	17609.57
776.2	17535.67
776.535	17637.14
776.87	17720.97
777.205	17759.62
777.539	17711.94
777.874	17796.23
778.209	17767.75
778.543	17847.3
778.878	17756.45
779.212	17902.21
779.547	17839.16
779.881	18026.28
780.215	17905.15
780.55	18044.13
780.884	17920.74
781.218	17943.57
781.552	18110.34
781.886	18047.52
782.22	18061.53
782.554	17923
782.888	17935.43
783.222	17894.76
783.556	17932.49
783.889	17921.87
784.223	17852.72
784.557	17826.51
784.89	17920.07
785.224	17844.14
785.557	17720.07
785.891	17722.1
786.224	17749
786.558	17898.37
786.891	17744.93
787.224	17682.11
787.557	17726.62
787.891	17702.22
788.224	17705.83
788.557	17721.43
788.89	17765.95
789.223	17656.57
789.556	17609.79
789.888	17626.74
790.221	17474.65
790.554	17447.08
790.887	17414.54
791.219	17434.88
791.552	17325.96
791.884	17247.54
792.217	17349.01
792.549	17268.11
792.882	17256.13
793.214	17148.79
793.546	17300.87
793.879	17034.67
794.211	17036.47
794.543	17127.09
794.875	17052.52
795.207	17096.13
795.539	17020.65
795.871	17068.56
796.203	16834.22
796.535	16798.97
796.867	16741.11
797.198	16760.55
797.53	16845.74
797.862	16706.31
798.193	16626.54
798.525	16608.69
798.856	16663.38
799.188	16548.35
799.519	16472.19
799.85	16370.5
800.182	16431.07
800.513	16448.24
800.844	16333.67
801.175	16411.63
801.506	16399.65
801.837	16188.59
802.168	16204.4
802.499	16163.05
802.83	16077.4
803.161	15983.85
803.491	16128.47
803.822	16032.21
804.153	15977.07
804.483	15885.99
804.814	15850.06
805.145	15818.65
805.475	15867.69
805.805	15768.26
806.136	15822.27
806.466	15810.52
806.796	15816.84
807.126	15631.54
807.457	15670.63
807.787	15605.32
808.117	15543.18
808.447	15514.03
808.777	15595.15
809.107	15434.03
809.436	15414.82
809.766	15490.3
810.096	15359.45
810.426	15313.81
810.755	15301.83
811.085	15341.38
811.414	15321.04
811.744	15178.44
812.073	15117.65
812.403	15190.19
812.732	15039.24
813.061	15082.85
813.39	15013.7
813.719	14964.66
814.049	14983.19
814.378	14963.08
814.707	15004.89
815.036	14923.31
815.365	14923.08
815.693	14760.37
816.022	14645.58
816.351	14750.43
816.68	14647.84
817.008	14761.96
817.337	14639.47
817.665	14643.77
817.994	14651.68
818.322	14613.26
818.651	14559.93
818.979	14442.87
819.307	14579.81
819.636	14541.62
819.964	14375.98
820.292	14498.91
820.62	14485.58
820.948	14404
821.276	14431.34
821.604	14465.92
821.932	14517.9
822.259	14423.66
822.587	14431.34
822.915	14369.65
823.243	14463.89
823.57	14415.75
823.898	14415.3
824.225	14325.13
824.553	14309.76
824.88	14439.71
825.207	14396.77
825.535	14412.14
825.862	14368.97
826.189	14365.13
826.516	14490.78
826.843	14464.79
827.17	14362.42
827.497	14455.07
827.824	14385.02
828.151	14472.7
828.478	14388.41
828.805	14412.36
829.131	14468.63
829.458	14440.61
829.785	14410.1
830.111	14329.88
830.438	14492.59
830.764	14443.09
831.09	14409.88
831.417	14390.89
831.743	14413.72
832.069	14411.68
832.395	14371.68
832.722	14378.46
833.048	14350.44
833.374	14405.36
833.7	14348.86
834.026	14254.85
834.351	14323.1
834.677	14301.86
835.003	14342.76
835.329	14299.14
835.654	14231.57
835.98	14228.41
836.306	14242.65
836.631	14128.53
836.956	14239.03
837.282	14207.85
837.607	14159.49
837.932	14144.12
838.258	14092.6
838.583	14086.72
838.908	13997.68
839.233	14063.67
839.558	13987.97
839.883	13928.98
840.208	13929.21
840.533	13887.63
840.858	13917.91
841.182	13994.75
841.507	13898.7
841.832	13775.77
842.156	13826.16
842.481	13761.76
842.805	13754.75
843.13	13699.39
843.454	13724.24
843.778	13639.27
844.103	13624.13
844.427	13576
844.751	13557.24
845.075	13561.54
845.399	13540.29
845.723	13534.87
846.047	13457.13
846.371	13304.82
846.695	13328.55
847.019	13298.04
847.343	13209.68
847.666	13192.28
847.99	13082.23
848.313	13088.33
848.637	12903.7
848.96	12998.61
849.284	12924.72
849.607	12801.78
849.931	12792.52
850.254	12752.74
850.577	12637.27
850.9	12615.35
851.223	12563.82
851.546	12459.64
851.869	12532.64
852.192	12508.23
852.515	12308.69
852.838	12279.99
853.161	12396.37
853.483	12246.32
853.806	12212.64
854.129	12150.95
854.451	12135.36
854.774	12055.81
855.096	12021.01
855.419	12000.22
855.741	11853.33
856.063	11954.8
856.385	11889.72
856.708	11859.21
857.03	11844.52
857.352	11848.36
857.674	11726.56
857.996	11712.09
858.318	11686.78
858.64	11650.17
858.961	11646.11
859.283	11605.88
859.605	11557.52
859.926	11612.21
860.248	11489.5
860.57	11448.15
860.891	11436.85
861.212	11402.04
861.534	11408.6
861.855	11265.1
862.176	11366.57
862.498	11307.58
862.819	11270.52
863.14	11273.01
863.461	11260.35
863.782	11143.52
864.103	11234.37
864.424	11230.52
864.745	11243.63
865.065	11181.49
865.386	11208.38
865.707	11068.04
866.027	11067.59
866.348	11063.07
866.668	11110.98
866.989	10916.63
867.309	10941.72
867.63	10972.23
867.95	10988.04
868.27	10928.16
868.59	10902.85
868.91	10883.19
869.23	10970.64
869.55	10862.17
869.87	10895.84
870.19	10860.59
870.51	10881.15
870.83	10918.44
871.15	10801.16
871.469	10829.4
871.789	10765.45
872.109	10800.93
872.428	10706.92
872.748	10746.47
873.067	10754.83
873.386	10752.8
873.706	10713.25
874.025	10632.8
874.344	10564.33
874.663	10619.69
874.982	10621.95
875.301	10528.4
875.62	10544.89
875.939	10506.25
876.258	10482.3
876.577	10529.3
876.896	10484.55
877.214	10494.72
877.533	10397.78
877.852	10392.35
878.17	10450.88
878.489	10443.65
878.807	10410.66
879.125	10342.41
879.444	10325.01
879.762	10374.28
880.08	10385.12
880.398	10301.28
880.716	10318.01
881.034	10195.75
881.352	10256.76
881.67	10170.89
881.988	10202.53
882.306	10163.89
882.624	10179.25
882.941	10121.17
883.259	10098.58
883.577	10089.76
883.894	10096.32
884.212	9983.1
884.529	10033.49
884.846	10052.02
885.164	9992.82
885.481	9885.93
885.798	9923.89
886.115	9897.45
886.432	9859.26
886.75	9843.44
887.067	9852.93
887.383	9748.08
887.7	9909.88
888.017	9730.22
888.334	9721.41
888.651	9727.29
888.967	9680.51
889.284	9624.69
889.6	9543.34
889.917	9476.67
890.233	9543.34
890.55	9546.27
890.866	9547.63
891.182	9489.55
891.498	9438.93
891.815	9379.05
892.131	9373.85
892.447	9376.56
892.763	9320.52
893.079	9285.49
893.395	9260.63
893.71	9249.79
894.026	9211.59
894.342	9178.83
894.657	9161.2
894.973	9139.28
895.289	9110.13
895.604	9138.15
895.92	9060.86
896.235	8999.85
896.55	9026.97
896.865	8971.37
897.181	8933.86
897.496	8954.43
897.811	8907.65
898.126	8853.86
898.441	8826.52
898.756	8813.19
899.071	8725.05
899.386	8770.25
899.7	8717.6
900.015	8636.69
900.33	8515.12
900.644	8524.61
900.959	8589.69
901.273	8565.06
901.588	8489.13
901.902	8423.14
902.216	8411.39
902.531	8415.46
902.845	8420.65
903.159	8333.2
903.473	8311.96
903.787	8295.23
904.101	8208.46
904.415	8259.3
904.729	8224.28
905.042	8084.17
905.356	8114
905.67	8149.7
905.984	8087.33
906.297	8141.79
906.611	7975.92
906.924	8011.17
907.237	8007.11
907.551	7892.98
907.864	7883.04
908.177	7907.22
908.491	7856.15
908.804	7777.51
909.117	7756.04
909.43	7709.49
909.743	7650.96
910.056	7636.72
910.368	7648.92
910.681	7622.48
910.994	7547.68
911.307	7528.02
911.619	7508.36
911.932	7453.67
912.244	7456.61
912.557	7478.53
912.869	7332.1
913.181	7377.97
913.494	7306.56
913.806	7277.18
914.118	7247.13
914.43	7184.98
914.742	7133
915.054	7179.33
915.366	7098.66
915.678	7110.86
915.99	7082.38
916.302	7034.93
916.613	6932.11
916.925	6993.12
917.236	6985.44
917.548	6904.54
917.859	6944.76
918.171	6902.95
918.482	6854.59
918.794	6809.62
919.105	6848.04
919.416	6715.16
919.727	6702.96
920.038	6680.36
920.349	6663.41
920.66	6701.83
920.971	6629.51
921.282	6608.95
921.593	6618.44
921.903	6559.23
922.214	6531.66
922.525	6454.38
922.835	6526.92
923.146	6454.38
923.456	6407.6
923.767	6411.67
924.077	6373.25
924.387	6355.85
924.697	6329.18
925.008	6290.54
925.318	6228.17
925.628	6237.89
925.938	6220.94
926.248	6167.61
926.558	6147.04
926.867	6106.82
927.177	6126.48
927.487	6027.95
927.796	6022.07
928.106	6066.82
928.416	6004.9
928.725	5971.45
929.034	5930.55
929.344	5990.66
929.653	5959.7
929.962	5879.03
930.271	5872.92
930.581	5826.15
930.89	5792.93
931.199	5771.23
931.508	5750.44
931.817	5792.7
932.125	5722.87
932.434	5696.43
932.743	5632.25
933.051	5618.24
933.36	5600.16
933.669	5557.9
933.977	5582.54
934.286	5556.55
934.594	5546.15
934.902	5474.97
935.21	5479.94
935.519	5465.48
935.827	5448.98
936.135	5428.19
936.443	5397.68
936.751	5399.04
937.059	5359.94
937.367	5331.47
937.674	5334.18
937.982	5277.01
938.29	5256.9
938.597	5276.78
938.905	5244.01
939.213	5213.96
939.52	5182.1
939.827	5190
940.135	5145.94
940.442	5124.92
940.749	5063.23
941.056	5128.99
941.363	5028.88
941.67	5032.95
941.977	5011.48
942.284	4977.58
942.591	4983
942.898	4881.76
943.205	4947.07
943.511	4886.28
943.818	4873.4
944.125	4845.16
944.431	4825.72
944.738	4864.14
945.044	4786.17
945.35	4833.18
945.657	4739.17
945.963	4719.73
946.269	4689.23
946.575	4651.71
946.881	4667.98
947.187	4675.67
947.493	4658.04
947.799	4606.52
948.105	4604.26
948.41	4550.7
948.716	4583.24
949.022	4531.04
949.327	4531.94
949.633	4452.17
949.938	4488.55
950.244	4452.62
950.549	4407.2
950.854	4412.62
951.16	4408.33
951.465	4391.83
951.77	4322.68
952.075	4387.77
952.38	4284.72
952.685	4328.78
952.99	4294.21
953.294	4289.69
953.599	4305.51
953.904	4240.2
954.209	4206.3
954.513	4186.42
954.818	4186.87
955.122	4175.79
955.426	4160.43
955.731	4147.09
956.035	4089.02
956.339	4065.74
956.643	4074.78
956.948	4042.01
957.252	4038.4
957.556	4043.14
957.86	4014.67
958.163	4011.96
958.467	3972.18
958.771	4010.83
959.075	3902.58
959.378	3908.68
959.682	3919.76
959.985	3881.34
960.289	3887.89
960.592	3833.66
960.896	3832.75
961.199	3829.14
961.502	3839.76
961.805	3777.16
962.108	3781.68
962.411	3720.89
962.714	3713.66
963.017	3712.53
963.32	3745.75
963.623	3697.39
963.926	3718.41
964.228	3682.93
964.531	3653.32
964.833	3581.46
965.136	3630.95
965.438	3623.49
965.741	3578.52
966.043	3564.28
966.345	3558.41
966.648	3557.28
966.95	3531.52
967.252	3520.9
967.554	3500.56
967.856	3432.99
968.158	3443.61
968.46	3475.47
968.761	3423.95
969.063	3430.73
969.365	3425.98
969.666	3410.39
969.968	3354.35
970.269	3368.81
970.571	3369.71
970.872	3322.71
971.174	3318.87
971.475	3309.15
971.776	3285.2
972.077	3257.63
972.378	3242.03
972.679	3267.8
972.98	3251.75
973.281	3224.18
973.582	3202.71
973.883	3206.55
974.183	3148.93
974.484	3178.98
974.785	3128.82
975.085	3124.52
975.386	3141.47
975.686	3158.42
975.986	3101.92
976.287	3072.77
976.587	3105.77
976.887	3054.02
977.187	3060.12
977.487	3077.74
977.787	3002.49
978.087	2995.03
978.387	3000.46
978.687	2999.33
978.987	2954.58
979.286	2918.88
979.586	2938.99
979.885	2931.99
980.185	2910.52
980.484	2902.83
980.784	2877.3
981.083	2882.27
981.382	2830.07
981.682	2841.37
981.981	2810.18
982.28	2797.3
982.579	2754.59
982.878	2780.35
983.177	2745.78
983.475	2814.7
983.774	2768.15
984.073	2757.3
984.372	2735.15
984.67	2741.93
984.969	2722.95
985.267	2684.53
985.566	2682.5
985.864	2643.18
986.162	2664.87
986.461	2668.72
986.759	2629.17
987.057	2604.54
987.355	2559.34
987.653	2572.22
987.951	2618.1
988.249	2575.84
988.547	2549.17
988.844	2523.41
989.142	2551.2
989.44	2534.48
989.737	2506.01
990.035	2511.43
990.332	2482.51
990.63	2465.1
990.927	2467.59
991.224	2441.83
991.521	2453.58
991.819	2450.42
992.116	2452.9
992.413	2417.65
992.71	2429.85
993.006	2410.87
993.303	2386.24
993.6	2381.04
993.897	2345.56
994.193	2361.38
994.49	2349.18
994.787	2320.48
995.083	2318.44
995.379	2310.98
995.676	2281.15
995.972	2302.85
996.268	2263.98
996.565	2297.2
996.861	2257.88
997.157	2261.27
997.453	2261.95
997.749	2228.05
998.044	2204.32
998.34	2185.56
998.636	2169.07
998.932	2166.81
999.227	2128.84
999.523	2172.91
999.818	2115.74
1000.114	2118.22
1000.409	2113.48
1000.704	2126.36
1001	2098.56
1001.295	2076.87
1001.59	2077.09
1001.885	2071.44
1002.18	2059.47
1002.475	2053.82
1002.77	2023.31
1003.065	1989.64
1003.359	2014.95
1003.654	2004.33
1003.949	1969.52
1004.243	1980.82
1004.538	1937.89
1004.832	1941.05
1005.127	1941.28
1005.421	1922.52
1005.715	1901.05
1006.009	1922.29
1006.304	1886.36
1006.598	1874.39
1006.892	1897.44
1007.186	1848.62
1007.48	1853.14
1007.773	1840.71
1008.067	1826.7
1008.361	1843.43
1008.655	1839.58
1008.948	1815.63
1009.242	1795.74
1009.535	1767.72
1009.829	1770.66
1010.122	1781.51
1010.415	1746.03
1010.708	1755.52
1011.001	1736.31
1011.295	1702.86
1011.588	1712.13
1011.881	1675.75
1012.173	1704.9
1012.466	1671.23
1012.759	1679.36
1013.052	1678.46
1013.344	1659.93
1013.637	1637.1
1013.93	1648.18
1014.222	1644.79
1014.514	1648.85
1014.807	1608.63
1015.099	1606.37
1015.391	1579.7
1015.683	1584.68
1015.976	1586.71
1016.268	1537.67
1016.56	1535.41
1016.851	1561.4
1017.143	1499.25
1017.435	1520.72
1017.727	1527.28
1018.018	1486.83
1018.31	1474.62
1018.602	1481.63
1018.893	1439.59
1019.185	1457
1019.476	1459.03
1019.767	1439.82
1020.058	1427.39
1020.35	1445.24
1020.641	1428.75
1020.932	1406.83
1021.223	1398.92
1021.514	1387.39
1021.804	1361.18
1022.095	1352.14
1022.386	1324.34
1022.677	1385.59
1022.967	1362.99
1023.258	1347.62
1023.548	1328.64
1023.839	1316.66
1024.129	1320.28
1024.419	1333.83
1024.709	1321.41
1025	1292.93
1025.29	1276.44
1025.58	1271.69
1025.87	1245.93
1026.16	1279.15
1026.449	1275.08
1026.739	1238.92
1027.029	1214.52
1027.319	1242.99
1027.608	1201.86
1027.898	1224.91
1028.187	1224.69
1028.477	1198.7
1028.766	1173.39
1029.055	1186.27
1029.344	1160.96
1029.634	1156.66
1029.923	1155.08
1030.212	1137.68
1030.501	1140.39
1030.79	1124.57
1031.078	1141.75
1031.367	1130
1031.656	1119.38
1031.945	1103.11
1032.233	1090.9
1032.522	1102.65
1032.81	1112.82
1033.099	1106.04
1033.387	1071.92
1033.675	1071.47
1033.963	1043
1034.251	1053.39
1034.54	1042.32
1034.828	1047.97
1035.116	1034.41
1035.403	1055.65
1035.691	1004.35
1035.979	1035.31
1036.267	1029.89
1036.554	1009.78
1036.842	992.83
1037.129	988.08
1037.417	1001.41
1037.704	964.81
1037.992	965.94
1038.279	971.81
1038.566	930.68
1038.853	930.68
1039.14	930.68
