Data from hue_320_FLMS001491_79.txt Node
Date: Mon Feb 06 15:47:41 GMT 2017
User: dcchb
Spectrometer: FLMS00149
Trigger mode: 0
Integration Time (sec): 2.000000E-2
Scans to average: 10
Electric dark correction enabled: true
Nonlinearity correction enabled: false
Boxcar width: 0
XAxis mode: Wavelengths
Number of Pixels in Spectrum: 2048
>>>>>Begin Spectral Data<<<<<
341.393	-18.02
341.776	-18.02
342.16	-18.02
342.543	-75.42
342.927	-61.41
343.31	-74.29
343.693	-68.87
344.077	-58.25
344.46	-65.03
344.843	-59.15
345.226	-35.65
345.61	-37.23
345.993	-24.8
346.376	-15.31
346.759	20.62
347.142	47.51
347.525	30.79
347.908	42.09
348.291	88.19
348.674	92.94
349.057	116.44
349.44	123.67
349.823	134.74
350.206	159.83
350.588	186.94
350.971	221.75
351.354	240.5
351.737	214.29
352.119	234.63
352.502	264.23
352.884	268.07
353.267	269.88
353.65	292.25
354.032	298.35
354.414	297.68
354.797	280.05
355.179	330.67
355.562	316.21
355.944	318.92
356.326	321.4
356.709	341.97
357.091	330.9
357.473	349.43
357.855	322.76
358.238	331.35
358.62	339.26
359.002	326.6
359.384	326.38
359.766	338.58
360.148	351.69
360.53	356.66
360.912	344.45
361.294	330.67
361.676	327.05
362.057	347.84
362.439	334.74
362.821	332.7
363.203	327.05
363.584	305.59
363.966	326.15
364.348	289.99
364.729	327.73
365.111	322.08
365.493	316.88
365.874	313.95
366.256	291.12
366.637	309.43
367.019	292.93
367.4	321.86
367.781	314.85
368.163	322.31
368.544	301.07
368.925	302.65
369.306	310.33
369.688	318.69
370.069	307.39
370.45	309.2
370.831	313.04
371.212	299.26
371.593	312.14
371.974	304.23
372.355	308.75
372.736	301.74
373.117	315.3
373.498	327.05
373.879	311.91
374.26	287.05
374.641	294.29
375.021	310.56
375.402	331.8
375.783	319.37
376.163	317.11
376.544	318.01
376.925	328.41
377.305	327.51
377.686	317.34
378.066	325.7
378.447	320.95
378.827	324.12
379.208	333.16
379.588	331.57
379.968	304.68
380.349	332.7
380.729	337.45
381.109	319.37
381.489	327.73
381.87	315.98
382.25	335.87
382.63	334.06
383.01	322.31
383.39	337.45
383.77	329.31
384.15	340.84
384.53	342.19
384.91	310.56
385.29	310.78
385.67	341.97
386.049	342.19
386.429	337.9
386.809	347.62
387.189	337
387.568	349.88
387.948	349.43
388.328	339.26
388.707	343.78
389.087	352.82
389.466	358.01
389.846	365.92
390.225	361.63
390.605	369.76
390.984	359.14
391.363	357.79
391.743	349.43
392.122	352.59
392.501	350.56
392.881	373.38
393.26	372.48
393.639	354.85
394.018	355.3
394.397	384
394.776	354.17
395.155	383.78
395.534	367.05
395.913	371.12
396.292	376.32
396.671	379.03
397.05	366.6
397.429	390.1
397.808	390.1
398.186	371.8
398.565	384.68
398.944	372.7
399.323	377.67
399.701	385.13
400.08	393.94
400.458	373.83
400.837	403.89
401.215	392.14
401.594	380.84
401.972	409.54
402.351	393.94
402.729	396.88
403.107	384.68
403.486	406.6
403.864	409.54
404.242	390.1
404.62	428.07
404.999	399.14
405.377	416.54
405.755	420.38
406.133	431.23
406.511	421.74
406.889	427.84
407.267	429.88
407.645	438.24
408.023	459.48
408.401	447.28
408.779	442.53
409.156	438.92
409.534	457.67
409.912	448.41
410.29	464.23
410.667	468.07
411.045	493.15
411.422	467.16
411.8	487.05
412.178	488.86
412.555	478.91
412.933	499.03
413.31	496.09
413.687	530.21
414.065	513.26
414.442	539.93
414.819	544.67
415.197	534.28
415.574	529.53
415.951	524.34
416.328	536.77
416.705	540.61
417.082	564.56
417.46	565.47
417.837	558.01
418.214	574.73
418.591	587.39
418.967	571.57
419.344	596.88
419.721	590.78
420.098	601.85
420.475	598.46
420.852	616.31
421.228	635.52
421.605	624.45
421.982	639.14
422.358	654.05
422.735	675.07
423.111	633.03
423.488	677.55
423.864	644.79
424.241	683.2
424.617	655.86
424.994	666.71
425.37	666.48
425.746	683.88
426.123	702.41
426.499	699.25
426.875	722.3
427.251	702.18
427.627	725.24
428.003	743.54
428.379	739.7
428.756	765.69
429.132	734.95
429.507	784.22
429.883	799.13
430.259	788.28
430.635	787.15
431.011	798.45
431.387	792.8
431.763	812.01
432.138	794.84
432.514	803.88
432.89	804.78
433.265	853.82
433.641	831.45
434.016	866.25
434.392	901.5
434.767	917.09
435.143	889.75
435.518	894.95
435.894	874.61
436.269	906.02
436.644	919.13
437.02	914.38
437.395	928.17
437.77	918.9
438.145	970.2
438.52	949.41
438.895	959.58
439.271	979.01
439.646	981.95
440.021	1000.03
440.395	1011.78
440.77	1016.98
441.145	990.54
441.52	1012.46
441.895	1016.3
442.27	1016.3
442.645	1024.66
443.019	1020.14
443.394	1031.67
443.769	1052.23
444.143	1007.71
444.518	1061.05
444.892	1055.85
445.267	1044.77
445.641	1092.68
446.016	1057.2
446.39	1070.31
446.764	1065.11
447.139	1053.36
447.513	1091.1
447.887	1085
448.262	1094.27
448.636	1092.46
449.01	1092.46
449.384	1110.31
449.758	1106.47
450.132	1101.04
450.506	1127.03
450.88	1126.13
451.254	1117.32
451.628	1155.51
452.002	1117.09
452.376	1141.72
452.75	1141.5
453.123	1153.25
453.497	1157.31
453.871	1188.05
454.244	1213.36
454.618	1186.92
454.992	1216.97
455.365	1204.54
455.739	1214.26
456.112	1230.98
456.486	1238.44
456.859	1233.7
457.232	1258.78
457.606	1257.88
457.979	1284.77
458.352	1296.97
458.725	1261.72
459.099	1323.86
459.472	1341.26
459.845	1362.05
460.218	1312.34
460.591	1329.51
460.964	1334.03
461.337	1353.47
461.71	1376.29
462.083	1378.78
462.456	1385.56
462.829	1406.12
463.201	1407.25
463.574	1388.95
463.947	1401.6
464.32	1421.71
464.692	1447.02
465.065	1453.8
465.438	1471.66
465.81	1504.42
466.183	1495.38
466.555	1503.29
466.928	1510.07
467.3	1523.63
467.672	1535.16
468.045	1583.97
468.417	1586.91
468.789	1586.23
469.161	1569.96
469.534	1591.2
469.906	1630.3
470.278	1605.66
470.65	1639.56
471.022	1671.65
471.394	1698.77
471.766	1699.45
472.138	1721.82
472.51	1728.15
472.882	1760.01
473.253	1723.85
473.625	1777.18
473.997	1805.43
474.369	1823.96
474.74	1826.22
475.112	1841.36
475.484	1869.84
475.855	1903.28
476.227	1901.02
476.598	1948.71
476.97	1987.57
477.341	1951.87
477.713	1992.77
478.084	1980.12
478.455	2085.65
478.827	2067.57
479.198	2130.17
479.569	2098.76
479.94	2161.36
480.311	2139.89
480.682	2167.01
481.053	2273.67
481.424	2270.73
481.795	2264.4
482.166	2291.97
482.537	2301.46
482.908	2366.1
483.279	2403.16
483.65	2406.32
484.021	2422.59
484.391	2448.58
484.762	2456.94
485.133	2481.35
485.503	2527
485.874	2554.57
486.244	2562.25
486.615	2601.34
486.985	2588.01
487.356	2632.08
487.726	2651.06
488.097	2698.29
488.467	2716.82
488.837	2748.68
489.207	2773.77
489.578	2829.81
489.948	2821.68
490.318	2860.55
490.688	2864.39
491.058	2902.35
491.428	2920.88
491.798	2952.97
492.168	2994.55
492.538	3004.27
492.908	3026.19
493.278	3046.98
493.648	3075.23
494.017	3078.17
494.387	3131.95
494.757	3106.87
495.126	3148.67
495.496	3149.8
495.866	3170.37
496.235	3223.7
496.605	3204.04
496.974	3242.68
497.344	3282
497.713	3263.93
498.082	3291.27
498.452	3308.67
498.821	3308.44
499.19	3270.03
499.559	3375.79
499.928	3365.62
500.298	3385.05
500.667	3411.94
501.036	3414.88
501.405	3432.51
501.774	3431.6
502.143	3459.17
502.512	3440.64
502.88	3465.95
503.249	3475.9
503.618	3472.51
503.987	3539.85
504.356	3513.41
504.724	3533.75
505.093	3512.51
505.462	3537.36
505.83	3571.04
506.199	3610.81
506.567	3622.79
506.936	3638.83
507.304	3622.33
507.672	3629.34
508.041	3670.02
508.409	3666.4
508.777	3666.17
509.145	3732.61
509.514	3697.81
509.882	3744.59
510.25	3742.56
510.618	3729.45
510.986	3728.09
511.354	3770.13
511.722	3801.09
512.09	3769
512.458	3808.54
512.826	3856.23
513.193	3825.94
513.561	3841.99
513.929	3843.12
514.297	3877.47
514.664	3880.41
515.032	3882.67
515.4	3883.8
515.767	3875.21
516.135	3950.46
516.502	3938.03
516.869	3919.5
517.237	3936.68
517.604	3901.87
517.972	4013.06
518.339	3997.01
518.706	3936.45
519.073	3946.62
519.44	3983.45
519.808	4032.94
520.175	4003.57
520.542	4074.3
520.909	4077.46
521.276	4088.31
521.643	4053.96
522.009	4102.32
522.376	4155.2
522.743	4158.37
523.11	4150
523.477	4189.55
523.843	4208.31
524.21	4188.19
524.577	4245.59
524.943	4308.87
525.31	4265.26
525.676	4318.81
526.043	4307.97
526.409	4342.54
526.776	4380.05
527.142	4356.33
527.508	4384.35
527.874	4406.72
528.241	4435.42
528.607	4425.02
528.973	4488.07
529.339	4445.59
529.705	4554.29
530.071	4528.07
530.437	4609.43
530.803	4549.77
531.169	4626.38
531.535	4619.82
531.901	4601.52
532.267	4647.17
532.632	4646.94
532.998	4671.57
533.364	4686.03
533.73	4652.36
534.095	4738.24
534.461	4741.4
534.826	4740.72
535.192	4763.1
535.557	4832.02
535.923	4834.05
536.288	4859.82
536.653	4903.66
537.019	4854.84
537.384	4911.11
537.749	4922.19
538.114	4922.86
538.479	4974.84
538.845	4941.62
539.21	4953.6
539.575	4971.45
539.94	5046.25
540.305	5087.15
540.67	5032.01
541.034	5076.31
541.399	5083.54
541.764	5124.67
542.129	5127.61
542.494	5144.33
542.858	5177.32
543.223	5197.89
543.587	5292.57
543.952	5231.11
544.316	5210.99
544.681	5283.08
545.045	5282.86
545.41	5324.66
545.774	5362.85
546.138	5400.14
546.503	5393.14
546.867	5361.05
547.231	5462.74
547.595	5493.25
547.959	5460.25
548.324	5477.88
548.688	5522.85
549.052	5524.43
549.416	5517.43
549.779	5556.75
550.143	5601.72
550.507	5574.15
550.871	5581.83
551.235	5587.71
551.599	5668.38
551.962	5680.59
552.326	5677.42
552.689	5727.59
553.053	5698.44
553.417	5703.86
553.78	5768.49
554.143	5783.86
554.507	5838.55
554.87	5844.65
555.234	5863.41
555.597	5780.24
555.96	5825.44
556.323	5903.63
556.686	5855.72
557.05	5926
557.413	5940.69
557.776	5864.54
558.139	5970.75
558.502	5979.56
558.865	5933.46
559.228	5973.91
559.59	6075.83
559.953	6011.2
560.316	6039.22
560.679	6128.48
561.041	6122.83
561.404	6173.45
561.767	6152.66
562.129	6168.26
562.492	6202.61
562.854	6231.76
563.217	6161.48
563.579	6243.73
563.941	6251.64
564.304	6288.93
564.666	6323.28
565.028	6327.57
565.39	6338.19
565.753	6421.58
566.115	6407.35
566.477	6403.28
566.839	6420.68
567.201	6434.46
567.563	6457.51
567.925	6512.65
568.287	6492.54
568.648	6548.58
569.01	6556.04
569.372	6577.74
569.734	6584.74
570.095	6683.72
570.457	6686.43
570.819	6748.58
571.18	6737.28
571.542	6805.98
571.903	6841.23
572.265	6831.74
572.626	6854.34
572.987	6872.87
573.349	6998.52
573.71	7010.04
574.071	7038.97
574.432	7100.21
574.794	7136.37
575.155	7163.94
575.516	7208.68
575.877	7239.64
576.238	7282.12
576.599	7390.6
576.96	7482.57
577.32	7517.6
577.681	7619.97
578.042	7688.44
578.403	7710.59
578.763	7856.12
579.124	7817.7
579.485	8030.13
579.845	8139.28
580.206	8166.85
580.566	8290.69
580.927	8390.57
581.287	8544.24
581.648	8632.15
582.008	8776.32
582.368	8885.02
582.728	9050.21
583.089	9188.97
583.449	9359.58
583.809	9419.47
584.169	9601.16
584.529	9696.07
584.889	10025.56
585.249	10070.07
585.609	10215.38
585.969	10468.03
586.329	10701.92
586.688	10887
587.048	11073.89
587.408	11280.44
587.768	11535.57
588.127	11690.14
588.487	11913.87
588.846	12141.43
589.206	12320.86
589.565	12578.26
589.925	12873.84
590.284	13033.16
590.643	13342.76
591.003	13691.22
591.362	13966.47
591.721	14134.15
592.08	14441.48
592.44	14768.48
592.799	14993.79
593.158	15217.74
593.517	15474.23
593.876	15819.98
594.235	15989.92
594.593	16402.11
594.952	16669.45
595.311	16869.9
595.67	17244.57
596.029	17680.5
596.387	17974.27
596.746	18151.44
597.104	18364.32
597.463	18687.25
597.822	19009.27
598.18	19248.14
598.538	19560.67
598.897	19901
599.255	19958.18
599.613	20522.23
599.972	20749.12
600.33	21064.81
600.688	21320.85
601.046	21636.1
601.404	21912.7
601.762	22166.48
602.12	22390.88
602.478	22778.44
602.836	22888.95
603.194	23090.75
603.552	23398.09
603.91	23638.08
604.268	23940.22
604.625	24093.89
604.983	24457.94
605.341	24637.15
605.698	24950.13
606.056	25293.85
606.413	25608.42
606.771	25842.31
607.128	26010.45
607.485	26055.42
607.843	26310.33
608.2	26785.34
608.557	26988.5
608.914	27099.91
609.272	27485.66
609.629	27613.12
609.986	27890.62
610.343	27937.4
610.7	28319.31
611.057	28492.87
611.414	28715.01
611.771	28847.21
612.127	29205.62
612.484	29180.76
612.841	29489.22
613.198	29578.71
613.554	29759.27
613.911	30014.63
614.267	30247.62
614.624	30308.64
614.98	30469.76
615.337	30774.61
615.693	30768.96
616.05	31014.38
616.406	31283.75
616.762	31240.14
617.118	31483.07
617.475	31614.82
617.831	31787.24
618.187	31896.62
618.543	31978.42
618.899	32380.22
619.255	32407.79
619.611	32447.79
619.967	32675.58
620.323	32866.54
620.678	32990.38
621.034	32968.23
621.39	33049.81
621.746	33179.75
622.101	33622
622.457	33346.98
622.812	33536.58
623.168	33729.11
623.523	33692.73
623.879	34018.82
624.234	33866.28
624.589	34061.99
624.945	34104.7
625.3	34240.06
625.655	34316.89
626.01	34432.82
626.365	34513.95
626.72	34474.86
627.075	34563.44
627.43	34655.87
627.785	34575.42
628.14	34722.99
628.495	34719.14
628.85	34942.41
629.205	34702.42
629.559	35012.24
629.914	34988.52
630.269	35072.13
630.623	35018.34
630.978	34996.88
631.332	35254.95
631.687	35278
632.041	35179.7
632.396	35385.11
632.75	35200.26
633.104	35280.26
633.459	35164.56
633.813	35218.34
634.167	35291.56
634.521	35269.64
634.875	35397.77
635.229	35399.13
635.583	35212.69
635.937	35285.68
636.291	35237.32
636.645	35470.54
636.999	35244.33
637.352	35501.04
637.706	35226.47
638.06	35399.13
638.413	35365.91
638.767	35319.81
639.121	35341.5
639.474	35206.36
639.828	35267.38
640.181	35324.55
640.534	35311.9
640.888	35225.8
641.241	35116.65
641.594	35207.94
641.947	35419.01
642.301	35158
642.654	35223.76
643.007	35248.62
643.36	35225.57
643.713	35110.32
644.066	35423.53
644.419	35139.92
644.771	35011.57
645.124	34776.54
645.477	34584.23
645.83	34432.6
646.182	34346.5
646.535	34212.49
646.888	34349.89
647.24	34237.57
647.593	34282.77
647.945	34109.89
648.298	34072.38
648.65	34106.05
649.002	34116
649.355	34225.37
649.707	34127.07
650.059	34272.6
650.411	34590.56
650.763	34768.18
651.115	35002.98
651.467	34929.99
651.819	34940.38
652.171	34903.55
652.523	34886.37
652.875	34904.45
653.227	34705.58
653.578	34869.87
653.93	35011.57
654.282	34765.7
654.633	34583.78
654.985	34721.18
655.337	34795.07
655.688	34793.94
656.039	34790.55
656.391	34558.47
656.742	34652.25
657.094	34643.67
657.445	34800.95
657.796	34678.47
658.147	34528.19
658.498	34626.94
658.849	34593.72
659.2	34650.67
659.551	34630.78
659.902	34627.17
660.253	34590.79
660.604	34625.59
660.955	34460.85
661.306	34584.01
661.656	34534.52
662.007	34569.32
662.358	34498.81
662.708	34652.25
663.059	34485.25
663.409	34206.84
663.76	34541.52
664.11	34486.38
664.461	34655.87
664.811	34519.6
665.161	34556.44
665.511	34491.58
665.862	34474.63
666.212	34664.23
666.562	34673.5
666.912	34586.94
667.262	34510.79
667.612	34507.85
667.962	34673.95
668.312	34426.27
668.662	34718.01
669.011	34468.98
669.361	34482.77
669.711	34454.97
670.06	34226.05
670.41	34360.28
670.76	34362.77
671.109	34487.96
671.459	34440.05
671.808	34340.4
672.157	34434.86
672.507	34149.22
672.856	34240.29
673.205	34382.88
673.554	34400.51
673.904	34181.76
674.253	34414.07
674.602	34255.43
674.951	33840.52
675.3	33727.98
675.649	34173.17
675.998	34164.36
676.346	34223.56
676.695	34382.88
677.044	33943.34
677.393	34078.03
677.741	34230.57
678.09	33991.25
678.438	33913.97
678.787	34079.61
679.135	34100.4
679.484	33837.36
679.832	33958.03
680.181	33718.49
680.529	33930.92
680.877	33868.32
681.225	33759.39
681.573	33974.3
681.922	33729.11
682.27	33577.7
682.618	33674.43
682.966	33528.44
683.314	33684.82
683.661	33491.15
684.009	33454.54
684.357	33314.21
684.705	33241.44
685.053	33305.17
685.4	33297.94
685.748	33138.85
686.095	33096.81
686.443	32994.22
686.79	33040.54
687.138	32946.53
687.485	33125.74
687.832	32821.11
688.18	32851.4
688.527	32763.94
688.874	32648.69
689.221	32481.24
689.568	32585.64
689.915	32508.81
690.262	32570.05
690.609	32348.81
690.956	32331.18
691.303	32148.36
691.65	32065.65
691.997	32234.46
692.344	31859.11
692.69	31808.49
693.037	31907.24
693.383	31693.01
693.73	31777.98
694.077	31636.06
694.423	31628.15
694.769	31579.79
695.116	31514.03
695.462	31528.27
695.808	31338.89
696.155	31293.7
696.501	31086.7
696.847	31198.56
697.193	30946.14
697.539	30995.85
697.885	30808.29
698.231	30679.7
698.577	30636.77
698.923	30573.94
699.269	30573.72
699.614	30302.31
699.96	30187.51
700.306	30328.98
700.651	30147.74
700.997	30075.65
701.342	30130.79
701.688	29974.18
702.033	29970.79
702.379	29877.24
702.724	29814.19
703.069	29930.79
703.415	29479.28
703.76	29567.19
704.105	29659.16
704.45	29456.91
704.795	29235.22
705.14	29261.89
705.485	29230.93
705.83	29176.69
706.175	29209.68
706.52	29185.28
706.865	28971.5
707.209	28990.25
707.554	28805.85
707.899	28920.43
708.243	28786.42
708.588	28762.69
708.932	28518.18
709.277	28506.65
709.621	28577.16
709.966	28369.71
710.31	28439.76
710.654	28208.13
710.998	28310.72
711.342	28299.88
711.687	28133.78
712.031	27989.38
712.375	27974.01
712.719	28100.33
713.063	27808.36
713.407	28011.98
713.75	27882.71
714.094	27809.72
714.438	27753.23
714.782	27712.77
715.125	27569.95
715.469	27548.03
715.812	27444.53
716.156	27367.47
716.499	27317.53
716.843	27359.56
717.186	27303.29
717.53	27354.82
717.873	27285.44
718.216	27254.48
718.559	27131.55
718.902	26880.71
719.246	27006.8
719.589	26908.5
719.932	26881.38
720.275	26870.99
720.617	26777.66
720.96	26717.32
721.303	26733.36
721.646	26715.96
721.989	26581.05
722.331	26799.58
722.674	26552.13
723.016	26607.49
723.359	26482.07
723.701	26417.67
724.044	26305.58
724.386	26248.63
724.729	26342.19
725.071	26158.92
725.413	26168.63
725.755	26205.7
726.097	26097.68
726.439	25974.06
726.782	26059.71
727.124	26101.52
727.465	25982.65
727.807	25927.51
728.149	25856.1
728.491	25802.99
728.833	25900.39
729.175	25683.45
729.516	25702.43
729.858	25745.37
730.199	25660.85
730.541	25592.15
730.882	25683.9
731.224	25647.29
731.565	25382.21
731.906	25546.96
732.248	25460.4
732.589	25359.39
732.93	25275.55
733.271	25361.88
733.612	25264.02
733.953	25261.31
734.294	25191.48
734.635	25116.23
734.976	25186.06
735.317	25001.88
735.658	25005.73
735.999	25032.62
736.339	24983.58
736.68	25021.09
737.021	24930.02
737.361	24790.59
737.702	24904.03
738.042	24833.08
738.383	24721.89
738.723	24786.98
739.063	24722.12
739.404	24751.27
739.744	24589.69
740.084	24530.03
740.424	24636.7
740.764	24519.86
741.104	24652.29
741.444	24584.72
741.784	24429.92
742.124	24474.67
742.464	24426.98
742.804	24299.98
743.143	24250.27
743.483	24322.58
743.823	24136.82
744.162	24188.12
744.502	24198.97
744.841	24128.01
745.181	24131.63
745.52	24075.36
745.86	24072.87
746.199	23911.52
746.538	23957.39
746.877	23959.88
747.216	24055.02
747.556	23865.87
747.895	23801.01
748.234	23810.5
748.573	23732.77
748.911	23659.77
749.25	23741.13
749.589	23595.59
749.928	23700.45
750.267	23551.53
750.605	23564.18
750.944	23562.6
751.283	23444.19
751.621	23473.79
751.96	23315.15
752.298	23299.33
752.636	23226.79
752.975	23211.2
753.313	23136.85
753.651	23206
753.989	23069.51
754.327	23070.41
754.666	23054.82
755.004	22917.42
755.342	23032.22
755.679	22846.69
756.017	22769.63
756.355	22773.69
756.693	22732.11
757.031	22769.18
757.368	22598.11
757.706	22526.92
758.044	22475.4
758.381	22523.53
758.719	22342.97
759.056	22362.18
759.394	22255.29
759.731	22228.17
760.068	22180.72
760.405	22112.24
760.743	22070.44
761.08	22135.29
761.417	21945.69
761.754	21866.37
762.091	21864.34
762.428	21702.99
762.765	21721.07
763.102	21680.84
763.438	21501.64
763.775	21448.76
764.112	21447.18
764.449	21404.47
764.785	21227.52
765.122	21203.34
765.458	21068.2
765.795	21067.3
766.131	21076.79
766.467	20987.98
766.804	20807.19
767.14	20725.61
767.476	20714.09
767.812	20699.17
768.148	20740.98
768.485	20657.14
768.821	20489.91
769.157	20438.84
769.492	20414.89
769.828	20306.64
770.164	20230.49
770.5	20199.07
770.836	20206.53
771.171	20025.74
771.507	20068.46
771.842	19820.78
772.178	19798.41
772.513	19807.45
772.849	19743.49
773.184	19693.1
773.519	19621.01
773.855	19560.67
774.19	19443.16
774.525	19362.49
774.86	19427.57
775.195	19367.91
775.53	19219.66
775.865	19145.54
776.2	19102.15
776.535	18913.91
776.87	18966.11
777.205	18789.17
777.539	18741.03
777.874	18767.92
778.209	18631.88
778.543	18543.07
778.878	18416.07
779.212	18546.46
779.547	18318.9
779.881	18376.97
780.215	18180.6
780.55	18222.18
780.884	18135.62
781.218	18092.24
781.552	18076.19
781.886	18033.71
782.22	17892.47
782.554	17829.19
782.888	17680.72
783.222	17467.39
783.556	17551.46
783.889	17480.27
784.223	17347.62
784.557	17366.83
784.89	17371.35
785.224	17215.88
785.557	17166.84
785.891	17045.26
786.224	17092.94
786.558	17043.9
786.891	16956.22
787.224	16857.47
787.557	16790.12
787.891	16718.03
788.224	16789.9
788.557	16685.27
788.89	16656.57
789.223	16656.79
789.556	16478.95
789.888	16466.06
790.221	16338.38
790.554	16258.61
790.887	16325.05
791.219	16231.04
791.552	16152.17
791.884	16144.26
792.217	16062.23
792.549	16060.2
792.882	15935.46
793.214	15782.69
793.546	15757.61
793.879	15730.94
794.211	15675.35
794.543	15740.89
794.875	15624.5
795.207	15630.15
795.539	15555.81
795.871	15624.73
796.203	15433.55
796.535	15331.63
796.867	15251.18
797.198	15309.48
797.53	15295.47
797.862	15116.04
798.193	15197.17
798.525	15124.18
798.856	15118.76
799.188	14916.95
799.519	14943.84
799.85	14772.55
800.182	14827.01
800.513	14755.37
800.844	14677.64
801.175	14708.82
801.506	14636.06
801.837	14596.96
802.168	14580.46
802.499	14540.92
802.83	14482.39
803.161	14454.37
803.491	14478.55
803.822	14352.9
804.153	14283.07
804.483	14161.04
804.814	14146.35
805.145	14202.39
805.475	14151.1
805.805	14058.22
806.136	14065.45
806.466	14094.38
806.796	14019.35
807.126	13894.15
807.457	13949.29
807.787	13830.88
808.117	13892.8
808.447	13784.55
808.777	13836.75
809.107	13709.98
809.436	13647.83
809.766	13665.23
810.096	13634.95
810.426	13566.03
810.755	13495.07
811.085	13540.49
811.414	13563.32
811.744	13351.57
812.073	13325.58
812.403	13288.75
812.732	13249.2
813.061	13362.19
813.39	13220.27
813.719	13217.79
814.049	13270.44
814.378	13086.04
814.707	13142.08
815.036	13076.1
815.365	12954.52
815.693	12879.72
816.022	12930.11
816.351	12905.48
816.68	12710.23
817.008	12844.01
817.337	12754.3
817.665	12736.67
817.994	12764.01
818.322	12678.37
818.651	12672.94
818.979	12635.66
819.307	12637.46
819.636	12609.44
819.964	12546.62
820.292	12594.75
820.62	12571.03
820.948	12501.42
821.276	12560.86
821.604	12473.17
821.932	12558.37
822.259	12526.05
822.587	12517.47
822.915	12450.35
823.243	12518.82
823.57	12416.91
823.898	12453.74
824.225	12359.05
824.553	12377.58
824.88	12428.66
825.207	12423.91
825.535	12404.02
825.862	12489.9
826.189	12404.93
826.516	12504.13
826.843	12491.93
827.17	12407.64
827.497	12507.75
827.824	12482.67
828.151	12432.05
828.478	12350.69
828.805	12473.85
829.131	12402.22
829.458	12424.81
829.785	12374.65
830.111	12279.73
830.438	12468.2
830.764	12389.34
831.09	12381.2
831.417	12306.17
831.743	12378.71
832.069	12336
832.395	12290.35
832.722	12316.57
833.048	12321.54
833.374	12304.59
833.7	12206.29
834.026	12257.81
834.351	12298.26
834.677	12289.22
835.003	12336
835.329	12306.4
835.654	12157.48
835.98	12165.16
836.306	12187.98
836.631	12182.11
836.956	12219.4
837.282	12176.23
837.607	12074.99
837.932	12093.75
838.258	12049.01
838.583	12042.23
838.908	11978.95
839.233	12072.28
839.558	11964.26
839.883	11889.01
840.208	11918.16
840.533	11936.92
840.858	11942.57
841.182	11911.38
841.507	11899.63
841.832	11840.2
842.156	11781.67
842.481	11748.22
842.805	11829.35
843.13	11757.71
843.454	11679.98
843.778	11685.62
844.103	11622.58
844.427	11616.25
844.751	11612.18
845.075	11618.51
845.399	11468.68
845.723	11440.66
846.047	11476.14
846.371	11417.61
846.695	11404.95
847.019	11237.05
847.343	11302.58
847.666	11181.23
847.99	11140.1
848.313	11057.17
848.637	11094.91
848.96	11101.23
849.284	11054.91
849.607	10990.28
849.931	10861.47
850.254	10809.49
850.577	10857.85
850.9	10708.25
851.223	10717.74
851.546	10684.3
851.869	10562.94
852.192	10691.53
852.515	10530.4
852.838	10449.05
853.161	10513.45
853.483	10513
853.806	10371.99
854.129	10386
854.451	10325.66
854.774	10256.28
855.096	10259.22
855.419	10252.67
855.741	10220.13
856.063	10192.56
856.385	10130.64
856.708	10068.04
857.03	10068.49
857.352	10089.06
857.674	9998.21
857.996	10038.44
858.318	9936.74
858.64	9986.91
858.961	9984.88
859.283	9887.93
859.605	9843.41
859.926	9860.81
860.248	9883.86
860.57	9793.7
860.891	9804.54
861.212	9773.13
861.534	9747.6
861.855	9717.54
862.176	9682.06
862.498	9638.22
862.819	9658.79
863.14	9606.58
863.461	9606.36
863.782	9578.56
864.103	9622.4
864.424	9523.2
864.745	9565
865.065	9498.11
865.386	9494.27
865.707	9482.52
866.027	9456.98
866.348	9401.62
866.668	9438
866.989	9471.9
867.309	9322.98
867.63	9332.92
867.95	9282.52
868.27	9364.56
868.59	9321.17
868.91	9276.2
869.23	9269.42
869.55	9162.98
869.87	9205.46
870.19	9182.41
870.51	9220.61
870.83	9208.85
871.15	9199.14
871.469	9171.57
871.789	9207.72
872.109	9131.34
872.428	9059.03
872.748	9095.86
873.067	9129.53
873.386	9071.68
873.706	9071.91
874.025	9096.99
874.344	9027.84
874.663	9023.55
874.982	8968.18
875.301	9037.33
875.62	8958.24
875.939	9002.98
876.258	8932.7
876.577	8898.13
876.896	8948.97
877.214	8922.76
877.533	8894.29
877.852	8859.03
878.17	8933.83
878.489	8887.05
878.807	8885.25
879.125	8784.68
879.444	8853.38
879.762	8802.08
880.08	8820.39
880.398	8794.18
880.716	8806.38
881.034	8765.7
881.352	8721.41
881.67	8650.9
881.988	8687.06
882.306	8652.26
882.624	8626.27
882.941	8627.4
883.259	8604.58
883.577	8458.82
883.894	8568.42
884.212	8555.54
884.529	8467.63
884.846	8442.09
885.164	8467.63
885.481	8435.77
885.798	8409.55
886.115	8402.77
886.432	8406.16
886.75	8318.26
887.067	8375.2
887.383	8288.43
887.7	8344.7
888.017	8286.17
888.334	8258.6
888.651	8245.04
888.967	8279.39
889.284	8210.69
889.6	8139.96
889.917	8147.86
890.233	8156.23
890.55	8096.57
890.866	8113.29
891.182	8112.39
891.498	8062.67
891.815	8075.78
892.131	8004.37
892.447	7957.36
892.763	7986.97
893.079	7960.53
893.395	7873.75
893.71	7872.62
894.026	7835.1
894.342	7885.5
894.657	7833.07
894.973	7764.6
895.289	7717.14
895.604	7763.02
895.92	7684.15
896.235	7596.92
896.55	7661.32
896.865	7583.81
897.181	7579.97
897.496	7595.11
897.811	7574.09
898.126	7508.79
898.441	7516.47
898.756	7488
899.071	7428.79
899.386	7464.04
899.7	7371.61
900.015	7343.82
900.33	7276.48
900.644	7328.9
900.959	7324.61
901.273	7260.2
901.588	7236.48
901.902	7165.29
902.216	7220.66
902.531	7182.01
902.845	7172.98
903.159	7088.01
903.473	7113.77
903.787	7030.15
904.101	7010.95
904.415	6996.03
904.729	7017.73
905.042	6953.55
905.356	6920.78
905.67	6936.37
905.984	6858.86
906.297	6853.89
906.611	6793.1
906.924	6806.43
907.237	6810.5
907.551	6783.61
907.864	6736.6
908.177	6721.46
908.491	6682.82
908.804	6636.72
909.117	6659.32
909.43	6577.06
909.743	6563.73
910.056	6548.13
910.368	6541.13
910.681	6499.09
910.994	6444.63
911.307	6457.74
911.619	6389.94
911.932	6428.59
912.244	6289.16
912.557	6360.79
912.869	6322.6
913.181	6278.99
913.494	6224.3
913.806	6212.1
914.118	6188.59
914.43	6145.66
914.742	6197.86
915.054	6133.45
915.366	6114.92
915.678	6114.92
915.99	6095.26
916.302	6048.94
916.613	6002.16
916.925	6030.86
917.236	5990.41
917.548	5981.14
917.859	5932.33
918.171	5889.17
918.482	5900.47
918.794	5848.49
919.105	5813.46
919.416	5807.81
919.727	5808.72
920.038	5765.78
920.349	5733.47
920.66	5661.83
920.971	5708.61
921.282	5733.01
921.593	5585.9
921.903	5648.95
922.214	5601.94
922.525	5612.11
922.835	5538.44
923.146	5474.49
923.456	5519.91
923.767	5459.8
924.077	5479.23
924.387	5463.42
924.697	5402.63
925.008	5389.52
925.318	5357.66
925.628	5353.59
925.938	5340.48
926.248	5264.78
926.558	5305
926.867	5233.37
927.177	5243.76
927.487	5182.97
927.796	5165.12
928.106	5156.31
928.416	5165.34
928.725	5170.32
929.034	5046.03
929.344	5096.19
929.653	5075.18
929.962	5068.62
930.271	4972.81
930.581	4975.52
930.89	4960.38
931.199	4939.36
931.508	4926.93
931.817	4917.89
932.125	4868.4
932.434	4878.57
932.743	4869.08
933.051	4772.36
933.36	4801.29
933.669	4799.25
933.977	4752.47
934.286	4732.36
934.594	4736.88
934.902	4704.11
935.21	4653.27
935.519	4665.24
935.827	4641.97
936.135	4684
936.443	4592.93
936.751	4603.1
937.059	4576.89
937.367	4555.42
937.674	4538.24
937.982	4557
938.29	4516.55
938.597	4491.46
938.905	4462.99
939.213	4472.48
939.52	4445.36
939.827	4380.05
940.135	4356.78
940.442	4397.23
940.749	4320.62
941.056	4352.48
941.363	4274.07
941.67	4258.25
941.977	4270.9
942.284	4239.95
942.591	4236.78
942.898	4199.04
943.205	4193.62
943.511	4149.33
943.818	4174.64
944.125	4115.88
944.431	4130.57
944.738	4083.34
945.044	4086.95
945.35	4027.07
945.657	4010.12
945.963	3997.24
946.269	3989.78
946.575	4035.2
946.881	3965.83
947.187	3984.13
947.493	3928.09
947.799	3951.59
948.105	3926.73
948.41	3894.87
948.716	3894.19
949.022	3891.03
949.327	3867.53
949.633	3801.31
949.938	3805.61
950.244	3789.34
950.549	3764.25
950.854	3792.73
951.16	3755.89
951.465	3729.9
951.77	3682.9
952.075	3726.29
952.38	3672.05
952.685	3659.62
952.99	3684.48
953.294	3642.45
953.599	3656.01
953.904	3595.44
954.209	3541.88
954.513	3549.79
954.818	3583.92
955.122	3542.11
955.426	3513.41
955.731	3507.08
956.035	3500.98
956.339	3503.69
956.643	3470.02
956.948	3426.18
957.252	3411.72
957.556	3424.15
957.86	3427.54
958.163	3427.99
958.467	3415.79
958.771	3350.02
959.075	3367.88
959.378	3347.77
959.682	3337.82
959.985	3326.07
960.289	3289.69
960.592	3291.5
960.896	3280.42
961.199	3287.43
961.502	3270.48
961.805	3242.46
962.108	3198.16
962.411	3217.37
962.714	3217.37
963.017	3197.26
963.32	3192.06
963.623	3139.41
963.926	3146.64
964.228	3095.12
964.531	3098.51
964.833	3110.71
965.136	3058.06
965.438	3051.73
965.741	3081.78
966.043	3045.85
966.345	3065.96
966.648	3006.98
966.95	3000.2
967.252	2971.73
967.554	3003.59
967.856	3013.08
968.158	2931.96
968.46	2920.88
968.761	2903.48
969.063	2924.73
969.365	2917.95
969.666	2901.9
969.968	2857.16
970.269	2839.76
970.571	2861.22
970.872	2857.38
971.174	2852.86
971.475	2814.45
971.776	2811.51
972.077	2791.4
972.378	2800.66
972.679	2829.59
972.98	2769.7
973.281	2756.14
973.582	2750.94
973.883	2735.35
974.183	2723.15
974.484	2709.14
974.785	2667.33
975.085	2664.62
975.386	2654.9
975.686	2663.26
975.986	2639.54
976.287	2621.46
976.587	2629.59
976.887	2610.84
977.187	2584.62
977.487	2588.01
977.787	2577.84
978.087	2561.8
978.387	2564.96
978.687	2579.65
978.987	2541.01
979.286	2520.44
979.586	2543.04
979.885	2496.71
980.185	2483.83
980.484	2463.95
980.784	2437.73
981.083	2447.9
981.382	2432.53
981.682	2455.13
981.981	2423.72
982.28	2382.59
982.579	2390.5
982.878	2381.69
983.177	2360.67
983.475	2357.51
983.774	2365.64
984.073	2355.47
984.372	2300.33
984.67	2338.53
984.969	2342.82
985.267	2303.05
985.566	2316.15
985.864	2299.66
986.162	2289.49
986.461	2282.26
986.759	2279.54
987.057	2263.27
987.355	2258.08
987.653	2195.25
987.951	2248.13
988.249	2229.15
988.547	2208.81
988.844	2202.94
989.142	2169.72
989.44	2160.23
989.737	2183.05
990.035	2138.98
990.332	2152.77
990.63	2147.8
990.927	2119.77
991.224	2120
991.521	2110.96
991.819	2086.56
992.116	2095.37
992.413	2057.86
992.71	2035.94
993.006	2051.3
993.303	2053.79
993.6	2042.71
993.897	2054.69
994.193	2053.34
994.49	2009.5
994.787	2005.2
995.083	1968.59
995.379	1953.68
995.676	1979.67
995.972	1972.89
996.268	1974.92
996.565	1962.26
996.861	1937.18
997.157	1935.15
997.453	1942.15
997.749	1896.96
998.044	1912.32
998.34	1928.14
998.636	1895.15
998.932	1909.16
999.227	1841.59
999.523	1857.63
999.818	1833
1000.114	1844.75
1000.409	1850.86
1000.704	1826.22
1001	1811.53
1001.295	1779.44
1001.59	1789.84
1001.885	1795.26
1002.18	1769.95
1002.475	1767.69
1002.77	1720.92
1003.065	1731.54
1003.359	1747.13
1003.654	1725.43
1003.949	1708.49
1004.243	1696.06
1004.538	1693.57
1004.832	1693.8
1005.127	1700.58
1005.421	1688.83
1005.715	1642.95
1006.009	1669.39
1006.304	1644.31
1006.598	1646.34
1006.892	1623.29
1007.186	1617.42
1007.48	1605.89
1007.773	1590.75
1008.067	1582.39
1008.361	1560.02
1008.655	1583.07
1008.948	1557.3
1009.242	1593.69
1009.535	1536.06
1009.829	1529.51
1010.122	1536.97
1010.415	1516.17
1010.708	1513.01
1011.001	1484.31
1011.295	1501.49
1011.588	1505.33
1011.881	1517.3
1012.173	1490.19
1012.466	1447.48
1012.759	1468.94
1013.052	1429.17
1013.344	1452.9
1013.637	1444.54
1013.93	1428.27
1014.222	1427.14
1014.514	1413.8
1014.807	1398.89
1015.099	1406.8
1015.391	1383.97
1015.683	1384.88
1015.976	1379.68
1016.268	1387.59
1016.56	1350.08
1016.851	1331.32
1017.143	1348.27
1017.435	1310.3
1017.727	1332.9
1018.018	1315.95
1018.31	1306.01
1018.602	1290.64
1018.893	1299.68
1019.185	1273.47
1019.476	1275.73
1019.767	1252.68
1020.058	1283.41
1020.35	1241.38
1020.641	1250.42
1020.932	1270.31
1021.223	1245
1021.514	1218.78
1021.804	1200.7
1022.095	1217.88
1022.386	1191.66
1022.677	1201.61
1022.967	1183.08
1023.258	1173.58
1023.548	1171.78
1023.839	1166.81
1024.129	1148.05
1024.419	1159.8
1024.709	1143.98
1025	1158.44
1025.29	1151.89
1025.58	1103.98
1025.87	1086.81
1026.16	1090.42
1026.449	1095.39
1026.739	1089.52
1027.029	1103.08
1027.319	1077.77
1027.608	1078.67
1027.898	1082.29
1028.187	1070.08
1028.477	1052.01
1028.766	1074.15
1029.055	1050.65
1029.344	1059.24
1029.634	1032.57
1029.923	1026.24
1030.212	998.22
1030.501	1006.13
1030.79	997.54
1031.078	1002.97
1031.367	983.31
1031.656	1000.26
1031.945	993.02
1032.233	979.92
1032.522	972.91
1032.81	958.9
1033.099	933.14
1033.387	959.35
1033.675	954.83
1033.963	934.95
1034.251	935.85
1034.54	945.34
1034.828	944.44
1035.116	932.69
1035.403	892.46
1035.691	907.38
1035.979	886.13
1036.267	901.5
1036.554	896.08
1036.842	862.86
1037.129	879.13
1037.417	885.46
1037.704	875.06
1037.992	857.21
1038.279	850.43
1038.566	873.25
1038.853	873.25
1039.14	873.25
