Data from hue_270_FLMS001491_00064.txt Node
Date: Tue Feb 07 15:57:32 GMT 2017
User: dcchb
Spectrometer: FLMS00149
Trigger mode: 0
Integration Time (sec): 2.000000E-2
Scans to average: 10
Electric dark correction enabled: true
Nonlinearity correction enabled: false
Boxcar width: 0
XAxis mode: Wavelengths
Number of Pixels in Spectrum: 2048
>>>>>Begin Spectral Data<<<<<
341.393	-49.72
341.776	-49.72
342.16	-49.72
342.543	-54.69
342.927	-44.97
343.31	-57.85
343.693	-79.77
344.077	-70.96
344.46	-75.93
344.843	-46.55
345.226	-32.54
345.61	-32.32
345.993	-36.16
346.376	-16.27
346.759	21.02
347.142	38.87
347.525	46.1
347.908	60.79
348.291	63.5
348.674	102.82
349.057	115.25
349.44	122.93
349.823	136.72
350.206	143.95
350.588	177.17
350.971	204.29
351.354	227.11
351.737	225.76
352.119	255.59
352.502	247
352.884	273.89
353.267	252.42
353.65	273.89
354.032	314.79
354.414	290.61
354.797	301.01
355.179	309.6
355.562	326.77
355.944	334.45
356.326	319.54
356.709	332.42
357.091	336.49
357.473	329.26
357.855	313.44
358.238	354.79
358.62	323.38
359.002	354.79
359.384	333.32
359.766	340.78
360.148	336.04
360.53	321.57
360.912	340.78
361.294	326.55
361.676	320.9
362.057	353.66
362.439	345.53
362.821	336.94
363.203	305.53
363.584	334.68
363.966	318.18
364.348	306.88
364.729	318.18
365.111	292.65
365.493	301.24
365.874	320.22
366.256	299.65
366.637	305.3
367.019	281.57
367.4	300.33
367.781	309.37
368.163	291.29
368.544	316.15
368.925	310.95
369.306	311.4
369.688	307.79
370.069	309.37
370.45	312.99
370.831	295.59
371.212	288.58
371.593	303.04
371.974	306.88
372.355	294.91
372.736	297.39
373.117	306.21
373.498	307.56
373.879	294.91
374.26	309.37
374.641	311.18
375.021	308.24
375.402	306.21
375.783	305.3
376.163	320.44
376.544	339.2
376.925	324.51
377.305	301.24
377.686	322.93
378.066	308.92
378.447	302.59
378.827	323.83
379.208	339.88
379.588	316.38
379.968	313.66
380.349	296.49
380.729	338.52
381.109	333.78
381.489	344.17
381.87	338.07
382.25	332.87
382.63	334.91
383.01	336.71
383.39	325.19
383.77	333.1
384.15	337.62
384.53	332.19
384.91	345.3
385.29	358.63
385.67	359.09
386.049	358.41
386.429	357.28
386.809	356.15
387.189	362.48
387.568	325.19
387.948	360.89
388.328	345.98
388.707	362.02
389.087	359.76
389.466	330.16
389.846	367.22
390.225	361.57
390.605	362.93
390.984	359.09
391.363	362.02
391.743	382.36
392.122	376.94
392.501	368.8
392.881	365.41
393.26	387.79
393.639	379.43
394.018	397.05
394.397	392.31
394.776	400.44
395.155	379.43
395.534	386.88
395.913	386.88
396.292	408.8
396.671	397.5
397.05	392.53
397.429	403.38
397.808	409.48
398.186	381.23
398.565	401.8
398.944	410.16
399.323	396.83
399.701	413.55
400.08	416.71
400.458	409.71
400.837	423.49
401.215	424.17
401.594	414
401.972	442.25
402.351	421.23
402.729	432.98
403.107	413.77
403.486	453.77
403.864	419.42
404.242	434.34
404.62	433.89
404.999	437.28
405.377	427.79
405.755	435.69
406.133	448.58
406.511	441.12
406.889	446.32
407.267	465.75
407.645	468.01
408.023	472.3
408.401	499.2
408.779	498.74
409.156	493.09
409.534	491.06
409.912	508.69
410.29	533.55
410.667	510.5
411.045	538.29
411.422	532.87
411.8	515.69
412.178	502.13
412.555	533.09
412.933	543.26
413.31	555.24
413.687	565.63
414.065	563.15
414.442	587.1
414.819	592.3
415.197	597.27
415.574	583.04
415.951	598.18
416.328	599.53
416.705	611.96
417.082	603.37
417.46	626.42
417.837	622.81
418.214	638.63
418.591	652.86
418.967	640.44
419.344	642.02
419.721	665.97
420.098	668.23
420.475	653.09
420.852	695.35
421.228	677.04
421.605	696.7
421.982	705.52
422.358	700.55
422.735	720.66
423.111	734.9
423.488	743.71
423.864	771.05
424.241	800.43
424.617	763.37
424.994	791.84
425.37	776.7
425.746	796.14
426.123	810.83
426.499	819.87
426.875	805.18
427.251	828
427.627	877.04
428.003	865.51
428.379	882.46
428.756	870.26
429.132	889.92
429.507	907.77
429.883	922.24
430.259	941.22
430.635	917.49
431.011	937.38
431.387	960.88
431.763	979.18
432.138	959.3
432.514	976.25
432.89	969.24
433.265	1014.21
433.641	1031.61
434.016	1049.24
434.392	1044.49
434.767	1096.24
435.143	1084.72
435.518	1091.5
435.894	1131.04
436.269	1165.85
436.644	1145.96
437.02	1168.33
437.395	1184.15
437.77	1231.15
438.145	1240.65
438.52	1234.54
438.895	1229.12
439.271	1243.58
439.646	1289.23
440.021	1287.88
440.395	1295.11
440.77	1268.22
441.145	1326.07
441.52	1351.15
441.895	1335.33
442.27	1378.49
442.645	1365.84
443.019	1399.29
443.394	1381.88
443.769	1372.17
444.143	1431.37
444.518	1425.27
444.892	1459.17
445.267	1451.49
445.641	1437.48
446.016	1442
446.39	1466.18
446.764	1484.03
447.139	1470.92
447.513	1499.4
447.887	1511.82
448.262	1488.77
448.636	1524.48
449.01	1538.26
449.384	1541.88
449.758	1540.75
450.132	1577.59
450.506	1585.95
450.88	1597.02
451.254	1571.26
451.628	1590.69
452.002	1634.31
452.376	1646.96
452.75	1651.03
453.123	1692.38
453.497	1665.72
453.871	1690.8
454.244	1708.43
454.618	1730.8
454.992	1748.65
455.365	1748.2
455.739	1799.05
456.112	1813.06
456.486	1821.65
456.859	1790.91
457.232	1884.92
457.606	1852.83
457.979	1872.95
458.352	1911.81
458.725	1909.78
459.099	1930.57
459.472	1945.71
459.845	1947.75
460.218	1954.98
460.591	1997.46
460.964	2020.51
461.337	2042.66
461.71	2060.28
462.083	2110.68
462.456	2114.52
462.829	2079.49
463.201	2154.97
463.574	2121.98
463.947	2151.36
464.32	2198.13
464.692	2246.95
465.065	2220.96
465.438	2239.49
465.81	2244.91
466.183	2284.46
466.555	2345.02
466.928	2304.12
467.3	2312.93
467.672	2371.46
468.045	2409.43
468.417	2431.57
468.789	2441.29
469.161	2460.95
469.534	2479.48
469.906	2511.57
470.278	2532.14
470.65	2554.06
471.022	2646.48
471.394	2639.48
471.766	2688.52
472.138	2679.7
472.51	2714.73
472.882	2726.03
473.253	2768.29
473.625	2825.01
473.997	2922.18
474.369	2881.51
474.74	2876.53
475.112	2946.36
475.484	2948.62
475.855	3054.61
476.227	3019.58
476.598	3094.38
476.97	3102.07
477.341	3170.99
477.713	3221.16
478.084	3224.55
478.455	3276.07
478.827	3289.86
479.198	3425.67
479.569	3353.36
479.94	3473.13
480.311	3514.71
480.682	3560.36
481.053	3617.53
481.424	3645.1
481.795	3683.97
482.166	3761.71
482.537	3772.78
482.908	3821.37
483.279	3860.46
483.65	3919.22
484.021	3987.69
484.391	3979.1
484.762	3990.18
485.133	4006.67
485.503	4076.28
485.874	4148.37
486.244	4173.45
486.615	4217.06
486.985	4305.88
487.356	4375.48
487.726	4351.98
488.097	4481.46
488.467	4462.26
488.837	4514.23
489.207	4517.17
489.578	4670.84
489.948	4671.74
490.318	4710.84
490.688	4718.75
491.058	4765.98
491.428	4833.55
491.798	4858.63
492.168	4927.33
492.538	4935.24
492.908	5002.81
493.278	5061.11
493.648	5059.75
494.017	5076.93
494.387	5174.1
494.757	5162.12
495.126	5193.31
495.496	5202.12
495.866	5258.39
496.235	5292.29
496.605	5332.29
496.974	5303.82
497.344	5384.27
497.713	5392.63
498.082	5383.59
498.452	5460.42
498.821	5466.52
499.19	5498.84
499.559	5527.76
499.928	5558.95
500.298	5553.3
500.667	5603.92
501.036	5560.98
501.405	5601.66
501.774	5610.47
502.143	5640.53
502.512	5706.97
502.88	5760.07
503.249	5755.55
503.618	5744.93
503.987	5766.63
504.356	5742.67
504.724	5805.95
505.093	5746.97
505.462	5813.41
505.83	5806.18
506.199	5868.09
506.567	5960.75
506.936	5910.58
507.304	5971.37
507.672	5974.98
508.041	6010.46
508.409	6041.2
508.777	6036.68
509.145	6082.78
509.514	6078.94
509.882	6094.98
510.25	6082.1
510.618	6094.75
510.986	6093.85
511.354	6193.06
511.722	6236.22
512.09	6248.2
512.458	6198.48
512.826	6221.31
513.193	6289.78
513.561	6239.16
513.929	6289.33
514.297	6312.6
514.664	6360.96
515.032	6354.64
515.4	6344.01
515.767	6392.37
516.135	6387.63
516.502	6351.25
516.869	6454.29
517.237	6443.22
517.604	6368.87
517.972	6481.64
518.339	6457.46
518.706	6444.58
519.073	6508.53
519.44	6502.2
519.808	6569.77
520.175	6566.83
520.542	6541.3
520.909	6612.26
521.276	6606.38
521.643	6626.72
522.009	6632.37
522.376	6622.88
522.743	6649.54
523.11	6689.32
523.477	6717.34
523.843	6764.34
524.21	6828.3
524.577	6830.55
524.943	6873.49
525.31	6864.45
525.676	6898.8
526.043	6878.24
526.409	6910.78
526.776	6952.81
527.142	6934.73
527.508	6974.28
527.874	7021.28
528.241	7034.39
528.607	7036.88
528.973	7084.11
529.339	7036.43
529.705	7097.21
530.071	7121.39
530.437	7120.04
530.803	7201.84
531.169	7219.25
531.535	7161.39
531.901	7192.58
532.267	7219.47
532.632	7265.12
532.998	7241.17
533.364	7205.69
533.73	7250.88
534.095	7316.19
534.461	7374.95
534.826	7303.08
535.192	7384.21
535.557	7360.03
535.923	7273.71
536.288	7383.08
536.653	7409.3
537.019	7355.74
537.384	7357.32
537.749	7374.95
538.114	7364.55
538.479	7400.48
538.845	7394.38
539.21	7449.07
539.575	7420.14
539.94	7421.05
540.305	7426.92
540.67	7426.92
541.034	7467.6
541.399	7445
541.764	7494.72
542.129	7475.06
542.494	7531.78
542.858	7476.64
543.223	7545.34
543.587	7554.15
543.952	7537.43
544.316	7528.16
544.681	7525.23
545.045	7508.28
545.41	7563.64
545.774	7583.98
546.138	7554.38
546.503	7632.57
546.867	7573.13
547.231	7648.61
547.595	7640.7
547.959	7584.89
548.324	7662.62
548.688	7672.11
549.052	7612.46
549.416	7648.16
549.779	7683.87
550.143	7587.37
550.507	7727.71
550.871	7737.65
551.235	7693.13
551.599	7747.37
551.962	7768.61
552.326	7765.67
552.689	7757.99
553.053	7765.45
553.417	7734.71
553.78	7801.83
554.143	7824.88
554.507	7776.74
554.87	7783.75
555.234	7913.69
555.597	7780.13
555.96	7845.67
556.323	7856.52
556.686	7892.9
557.05	7928.83
557.413	7919.79
557.776	7939.23
558.139	8013.57
558.502	7989.39
558.865	7994.82
559.228	8027.81
559.59	8072.33
559.953	8102.16
560.316	8089.5
560.679	8112.1
561.041	8169.73
561.404	8193.46
561.767	8204.53
562.129	8221.03
562.492	8281.36
562.854	8264.19
563.217	8309.61
563.579	8316.39
563.941	8298.09
564.304	8347.13
564.666	8465.99
565.028	8369.5
565.39	8438.2
565.753	8489.95
566.115	8549.15
566.477	8556.16
566.839	8581.92
567.201	8618.76
567.563	8625.08
567.925	8670.28
568.287	8695.59
568.648	8710.28
569.01	8715.03
569.372	8812.42
569.734	8741.69
570.095	8809.03
570.457	8813.55
570.819	8897.85
571.18	8817.4
571.542	8922.03
571.903	8920.9
572.265	8921.8
572.626	8995.47
572.987	9002.25
573.349	9009.71
573.71	9067.33
574.071	9124.96
574.432	9137.39
574.794	9155.69
575.155	9152.3
575.516	9205.86
575.877	9237.05
576.238	9268.91
576.599	9290.38
576.96	9357.95
577.32	9276.82
577.681	9361.79
578.042	9436.59
578.403	9493.31
578.763	9458.06
579.124	9468
579.485	9545.06
579.845	9555.45
580.206	9564.49
580.566	9589.13
580.927	9628.22
581.287	9649.24
581.648	9646.75
582.008	9672.29
582.368	9693.98
582.728	9836.8
583.089	9773.08
583.449	9794.32
583.809	9823.92
584.169	9862.34
584.529	9880.42
584.889	9959.29
585.249	9900.98
585.609	9940.08
585.969	10052.17
586.329	10005.61
586.688	9987.08
587.048	10018.49
587.408	9994.99
587.768	10102.11
588.127	10107.53
588.487	10109.79
588.846	10176
589.206	10102.11
589.565	10192.95
589.925	10237.7
590.284	10210.35
590.643	10328.54
591.003	10418.26
591.362	10392.5
591.721	10295.1
592.08	10357.47
592.44	10432.04
592.799	10453.28
593.158	10422.1
593.517	10371.7
593.876	10460.06
594.235	10518.37
594.593	10566.95
594.952	10555.88
595.311	10522.89
595.67	10574.86
596.029	10624.81
596.387	10697.12
596.746	10742.54
597.104	10614.86
597.463	10680.85
597.822	10743.45
598.18	10658.02
598.538	10698.93
598.897	10820.28
599.255	10683.56
599.613	10848.53
599.972	10774.63
600.33	10879.04
600.688	10849.88
601.046	10831.35
601.404	10906.15
601.762	10848.53
602.12	10893.72
602.478	10952.03
602.836	11013.95
603.194	10912.26
603.552	10913.39
603.91	10888.98
604.268	10939.6
604.625	10970.56
604.983	10971.46
605.341	10933.95
605.698	11065.47
606.056	11024.12
606.413	11013.04
606.771	11021.63
607.128	11067.51
607.485	11029.77
607.843	11041.97
608.2	10986.6
608.557	11153.61
608.914	11112.25
609.272	11098.01
609.629	11120.61
609.986	11242.64
610.343	11107.28
610.7	11228.18
611.057	11216.88
611.414	11233.83
611.771	11191.34
612.127	11279.03
612.484	11211.23
612.841	11305.69
613.198	11245.13
613.554	11325.8
613.911	11356.76
614.267	11275.64
614.624	11391.34
614.98	11337.55
615.337	11368.74
615.693	11332.13
616.05	11358.35
616.406	11399.47
616.762	11402.86
617.118	11421.85
617.475	11474.5
617.831	11458
618.187	11535.74
618.543	11455.07
618.899	11507.04
619.255	11441.51
619.611	11512.24
619.967	11540.71
620.323	11543.65
620.678	11408.51
621.034	11498
621.39	11522.18
621.746	11462.3
622.101	11547.04
622.457	11478.12
622.812	11471.56
623.168	11522.86
623.523	11455.97
623.879	11563.99
624.234	11487.61
624.589	11511.79
624.945	11500.94
625.3	11548.17
625.655	11449.64
626.01	11487.61
626.365	11520.15
626.72	11456.65
627.075	11500.04
627.43	11503.2
627.785	11428.63
628.14	11496.65
628.495	11570.09
628.85	11517.66
629.205	11405.12
629.559	11516.08
629.914	11468.85
630.269	11490.09
630.623	11473.82
630.978	11422.3
631.332	11477.66
631.687	11448.96
632.041	11394.5
632.396	11474.27
632.75	11351.79
633.104	11399.02
633.459	11355.41
633.813	11354.5
634.167	11330.78
634.521	11313.37
634.875	11337.33
635.229	11283.09
635.583	11218.69
635.937	11343.2
636.291	11295.07
636.645	11300.49
636.999	11275.86
637.352	11229.76
637.706	11157.22
638.06	11192.47
638.413	11122.65
638.767	11174.85
639.121	11119.93
639.474	11119.71
639.828	11071.12
640.181	11107.73
640.534	11137.33
640.888	11071.35
641.241	11011.24
641.594	11083.55
641.947	11140.05
642.301	11138.24
642.654	11135.53
643.007	11035.42
643.36	11046.26
643.713	11090.33
644.066	11047.17
644.419	11043.33
644.771	10977.79
645.124	10853.27
645.477	10874.29
645.83	10797.23
646.182	10714.29
646.535	10665.93
646.888	10683.33
647.24	10648.08
647.593	10740.28
647.945	10603.11
648.298	10639.27
648.65	10570.34
649.002	10575.32
649.355	10625.26
649.707	10585.48
650.059	10702.09
650.411	10816.89
650.763	10775.08
651.115	10874.52
651.467	10933.95
651.819	10926.72
652.171	10882.65
652.523	10917.68
652.875	10874.29
653.227	10781.19
653.578	10912.03
653.93	10888.08
654.282	10815.99
654.633	10822.31
654.985	10857.79
655.337	10748.87
655.688	10821.64
656.039	10858.7
656.391	10764.46
656.742	10763.78
657.094	10810.56
657.445	10869.54
657.796	10808.08
658.147	10909.54
658.498	10803.11
658.849	10830.68
659.2	10871.13
659.551	10811.24
659.902	10846.72
660.253	10875.19
660.604	10891.47
660.955	10801.75
661.306	10901.63
661.656	10757.91
662.007	10797.46
662.358	10869.54
662.708	10913.16
663.059	10879.49
663.409	10775.99
663.76	10833.16
664.11	10801.75
664.461	10825.48
664.811	10867.28
665.161	10801.75
665.511	10820.51
665.862	10832.26
666.212	10829.09
666.562	10851.69
666.912	10740.06
667.262	10767.17
667.612	10833.84
667.962	10864.8
668.312	10775.54
668.662	10905.7
669.011	10896.66
669.361	10808.08
669.711	10812.6
670.06	10709.32
670.41	10808.08
670.76	10706.84
671.109	10813.73
671.459	10814.18
671.808	10785.71
672.157	10739.83
672.507	10753.39
672.856	10623
673.205	10724.24
673.554	10753.84
673.904	10705.93
674.253	10799.72
674.602	10753.16
674.951	10593.17
675.3	10500.74
675.649	10706.16
675.998	10632.71
676.346	10643.34
676.695	10740.28
677.044	10667.74
677.393	10614.86
677.741	10584.81
678.09	10592.26
678.438	10575.99
678.787	10557.91
679.135	10623.68
679.484	10488.09
679.832	10586.61
680.181	10488.54
680.529	10527.18
680.877	10430.23
681.225	10474.75
681.573	10566.28
681.922	10399.27
682.27	10426.17
682.618	10371.93
682.966	10327.19
683.314	10368.54
683.661	10371.48
684.009	10282.89
684.357	10301.88
684.705	10229.56
685.053	10239.73
685.4	10274.98
685.748	10155.67
686.095	10260.52
686.443	10193.4
686.79	10131.49
687.138	10122.45
687.485	10130.13
687.832	10077.93
688.18	10101.2
688.527	10032.28
688.874	10009.91
689.221	10046.06
689.568	9947.08
689.915	9957.93
690.262	9911.15
690.609	9857.14
690.956	9818.27
691.303	9837.93
691.65	9799.06
691.997	9786.18
692.344	9754.32
692.69	9692.63
693.037	9723.81
693.383	9645.62
693.73	9662.57
694.077	9551.61
694.423	9602.23
694.769	9537.15
695.116	9523.82
695.462	9489.24
695.808	9484.95
696.155	9526.76
696.501	9373.09
696.847	9411.73
697.193	9269.13
697.539	9356.59
697.885	9270.04
698.231	9239.08
698.577	9188.01
698.923	9257.61
699.269	9197.72
699.614	9127.44
699.96	9084.96
700.306	9099.2
700.651	9014
700.997	9008.35
701.342	8977.62
701.688	8976.49
702.033	8882.48
702.379	8911.63
702.724	8870.5
703.069	8933.1
703.415	8760.67
703.76	8844.29
704.105	8794.35
704.45	8810.16
704.795	8730.17
705.14	8689.72
705.485	8658.08
705.83	8618.3
706.175	8607.23
706.52	8588.47
706.865	8543.28
707.209	8520
707.554	8532.21
707.899	8523.17
708.243	8480.68
708.588	8448.82
708.932	8466.22
709.277	8393.9
709.621	8376.95
709.966	8350.97
710.31	8341.25
710.654	8277.3
710.998	8299.89
711.342	8261.03
711.687	8233
712.031	8265.77
712.375	8190.75
712.719	8174.47
713.063	8251.76
713.407	8266.22
713.75	8184.42
714.094	8138.09
714.438	8103.29
714.782	8142.16
715.125	8071.88
715.469	8077.75
715.812	8108.26
716.156	8013.12
716.499	8007.47
716.843	8032.78
717.186	7991.2
717.53	8051.31
717.873	8019
718.216	8001.37
718.559	7942.39
718.902	7882.96
719.246	7925.22
719.589	7882.96
719.932	7863.07
720.275	7893.35
720.617	7904.42
720.96	7868.27
721.303	7867.36
721.646	7871.21
721.989	7853.13
722.331	7888.83
722.674	7768.61
723.016	7816.07
723.359	7778.33
723.701	7785.56
724.044	7788.5
724.386	7768.38
724.729	7790.76
725.071	7721.83
725.413	7797.08
725.755	7779.46
726.097	7724.09
726.439	7673.02
726.782	7720.7
727.124	7751.43
727.465	7712.79
727.807	7687.71
728.149	7659.23
728.491	7673.24
728.833	7700.81
729.175	7650.65
729.516	7701.27
729.858	7681.38
730.199	7673.92
730.541	7629.63
730.882	7614.94
731.224	7685.9
731.565	7646.35
731.906	7644.54
732.248	7666.92
732.589	7642.96
732.93	7584.21
733.271	7559.12
733.612	7605.22
733.953	7614.49
734.294	7604.77
734.635	7624.43
734.976	7572.23
735.317	7633.25
735.658	7544.21
735.999	7611.33
736.339	7531.1
736.68	7617.88
737.021	7586.69
737.361	7621.95
737.702	7615.39
738.042	7633.02
738.383	7588.95
738.723	7680.48
739.063	7630.99
739.404	7597.31
739.744	7658.1
740.084	7632.12
740.424	7647.93
740.764	7633.02
741.104	7687.26
741.444	7678.44
741.784	7685.67
742.124	7738.78
742.464	7707.59
742.804	7672.11
743.143	7674.15
743.483	7709.4
743.823	7746.24
744.162	7743.53
744.502	7743.75
744.841	7786.01
745.181	7819.23
745.52	7824.2
745.86	7899.45
746.199	7897.65
746.538	7908.72
746.877	7950.3
747.216	8019
747.556	8010.41
747.895	8021.94
748.234	8056.51
748.573	8119.11
748.911	8109.39
749.25	8258.09
749.589	8240.69
749.928	8328.14
750.267	8364.98
750.605	8405.2
750.944	8490.17
751.283	8458.99
751.621	8637.74
751.96	8576.95
752.298	8768.13
752.636	8802.71
752.975	8899.65
753.313	8964.74
753.651	9105.98
753.989	9092.64
754.327	9185.97
754.666	9296.25
755.004	9470.03
755.342	9500.09
755.679	9649.92
756.017	9736.47
756.355	9901.89
756.693	9950.47
757.031	10092.39
757.368	10255.1
757.706	10316.79
758.044	10441.76
758.381	10578.03
758.719	10704.35
759.056	10887.17
759.394	11004.46
759.731	11126.94
760.068	11213.26
760.405	11377.33
760.743	11533.71
761.08	11705.91
761.417	11808.5
761.754	11997.2
762.091	12104.54
762.428	12264.08
762.765	12450.75
763.102	12698.65
763.438	12764.64
763.775	12863.39
764.112	13095.25
764.449	13276.71
764.785	13337.73
765.122	13455.69
765.458	13595.12
765.795	13782.91
766.131	13922.12
766.467	14043.7
766.804	14192.85
767.14	14235.11
767.476	14511.03
767.812	14479.17
768.148	14671.25
768.485	14724.58
768.821	14895.88
769.157	15110.34
769.492	15175.65
769.828	15361.4
770.164	15326.38
770.5	15449.31
770.836	15569.99
771.171	15627.61
771.507	15688.4
771.842	15807.04
772.178	15960.03
772.513	16121.38
772.849	16157.99
773.184	16209.74
773.519	16275.28
773.855	16360.93
774.19	16428.49
774.525	16467.14
774.86	16540.58
775.195	16749.62
775.53	16729.96
775.865	16772.67
776.2	16846.56
776.535	16793.91
776.87	16875.04
777.205	16886.79
777.539	16963.62
777.874	17132.88
778.209	17011.76
778.543	17059.21
778.878	17080.68
779.212	17214.24
779.547	17027.57
779.881	17258.76
780.215	17290.17
780.55	17282.94
780.884	17169.94
781.218	17265.08
781.552	17267.79
781.886	17314.12
782.22	17197.97
782.554	17271.18
782.888	17211.52
783.222	17252.2
783.556	17210.62
783.889	17251.75
784.223	17093.11
784.557	17088.82
784.89	17286.1
785.224	17270.28
785.557	17215.14
785.891	17178.98
786.224	17230.06
786.558	17259.66
786.891	17049.04
787.224	17045.43
787.557	17054.01
787.891	17081.13
788.224	17097.63
788.557	17135.14
788.89	17075.48
789.223	17159.77
789.556	16960.68
789.888	16957.97
790.221	16989.84
790.554	16854.7
790.887	17036.39
791.219	16833.46
791.552	16883.17
791.884	16807.02
792.217	16837.07
792.549	16772.89
792.882	16685.89
793.214	16724.98
793.546	16695.61
793.879	16554.37
794.211	16497.42
794.543	16680.92
794.875	16587.59
795.207	16681.14
795.539	16601.82
795.871	16579.68
796.203	16448.16
796.535	16255.62
796.867	16262.62
797.198	16293.81
797.53	16316.86
797.862	16199.57
798.193	16268.72
798.525	16213.81
798.856	16127.03
799.188	16021.95
799.519	15958.9
799.85	15938.56
800.182	16049.75
800.513	16034.38
800.844	15864.44
801.175	16011.78
801.506	15975.4
801.837	15871.45
802.168	15895.85
802.499	15812.69
802.83	15704.9
803.161	15709.64
803.491	15788.74
803.822	15694.95
804.153	15621.51
804.483	15481.4
804.814	15445.7
805.145	15468.75
805.475	15380.16
805.805	15432.81
806.136	15378.35
806.466	15478.01
806.796	15351.46
807.126	15264.68
807.457	15199.37
807.787	15211.8
808.117	15155.31
808.447	15125.48
808.777	15284.8
809.107	15105.82
809.436	15047.51
809.766	15058.59
810.096	15054.75
810.426	15019.72
810.755	14979.95
811.085	15028.31
811.414	14976.78
811.744	14770.23
812.073	14889.33
812.403	14853.39
812.732	14777.92
813.061	14803
813.39	14709.22
813.719	14734.3
814.049	14808.2
814.378	14604.14
814.707	14628.99
815.036	14554.19
815.365	14580.86
815.693	14379.96
816.022	14474.42
816.351	14374.99
816.68	14331.15
817.008	14431.03
817.337	14313.75
817.665	14301.77
817.994	14288.89
818.322	14345.61
818.651	14247.76
818.979	14206.63
819.307	14252.51
819.636	14253.64
819.964	14113.08
820.292	14234.65
820.62	14192.17
820.948	14125.5
821.276	14196.46
821.604	14100.19
821.932	14154.66
822.259	14103.13
822.587	14099.74
822.915	14124.37
823.243	14112.4
823.57	14064.49
823.898	14083.25
824.225	14010.48
824.553	14057.26
824.88	14125.73
825.207	14161.21
825.535	14034.66
825.862	14084.83
826.189	14080.08
826.516	14154.66
826.843	14200.3
827.17	14209.34
827.497	14158.5
827.824	14111.27
828.151	14137.71
828.478	14159.4
828.805	14267.42
829.131	14102.91
829.458	14155.79
829.785	14052.06
830.111	14123.47
830.438	14168.44
830.764	14177.71
831.09	14194.88
831.417	14050.48
831.743	14165.05
832.069	14170.47
832.395	14070.36
832.722	14167.76
833.048	14074.43
833.374	14138.61
833.7	14080.31
834.026	14044.6
834.351	14124.83
834.677	14098.39
835.003	14069.23
835.329	14082.57
835.654	14061.1
835.98	13926.19
836.306	13939.97
836.631	13938.62
836.956	13954.21
837.282	13881.89
837.607	13915.11
837.932	13950.37
838.258	13861.33
838.583	13938.16
838.908	13742.01
839.233	13814.33
839.558	13816.13
839.883	13754.21
840.208	13695.69
840.533	13666.53
840.858	13714.67
841.182	13667.89
841.507	13635.57
841.832	13582.47
842.156	13529.36
842.481	13529.36
842.805	13479.19
843.13	13484.62
843.454	13485.97
843.778	13458.63
844.103	13333.89
844.427	13350.84
844.751	13370.5
845.075	13350.38
845.399	13326.43
845.723	13209.14
846.047	13219.09
846.371	13108.81
846.695	13092.99
847.019	13087.11
847.343	12975.7
847.666	12926.21
847.99	12869.94
848.313	12850.96
848.637	12673.34
848.96	12765.99
849.284	12698.2
849.607	12507.69
849.931	12605.54
850.254	12582.72
850.577	12440.35
850.9	12373.69
851.223	12360.13
851.546	12270.41
851.869	12244.2
852.192	12291.43
852.515	12169.17
852.838	12141.6
853.161	12167.59
853.483	12065.9
853.806	12023.19
854.129	12019.57
854.451	12010.76
854.774	11882.63
855.096	11854.38
855.419	11950.42
855.741	11918.56
856.063	11797.66
856.385	11746.13
856.708	11648.28
857.03	11588.85
857.352	11640.6
857.674	11620.49
857.996	11589.3
858.318	11506.82
858.64	11519.7
858.961	11359.93
859.283	11413.94
859.605	11377.33
859.926	11408.51
860.248	11344.79
860.57	11314.28
860.891	11314.96
861.212	11241.96
861.534	11172.59
861.855	11150.44
862.176	11161.97
862.498	11191.8
862.819	11142.98
863.14	11039.48
863.461	11073.61
863.782	11074.96
864.103	10996.77
864.424	11077
864.745	11036.32
865.065	10900.96
865.386	10897.79
865.707	10914.06
866.027	10919.71
866.348	10919.26
866.668	10961.07
866.989	10833.39
867.309	10761.3
867.63	10785.03
867.95	10806.95
868.27	10779.15
868.59	10766.5
868.91	10713.84
869.23	10747.74
869.55	10688.31
869.87	10703.22
870.19	10699.83
870.51	10686.05
870.83	10684.69
871.15	10658.48
871.469	10535.54
871.789	10690.11
872.109	10586.39
872.428	10489.44
872.748	10572.6
873.067	10509.33
873.386	10608.76
873.706	10476.11
874.025	10476.11
874.344	10408.99
874.663	10419.39
874.982	10364.25
875.301	10415.32
875.62	10365.38
875.939	10374.42
876.258	10381.87
876.577	10327.86
876.896	10324.93
877.214	10315.66
877.533	10246.06
877.852	10330.58
878.17	10261.2
878.489	10266.4
878.807	10187.3
879.125	10197.92
879.444	10138.94
879.762	10180.07
880.08	10154.99
880.398	10132.16
880.716	10125.16
881.034	10014.43
881.352	10021.88
881.67	10044.71
881.988	10034.76
882.306	9986.63
882.624	10004.03
882.941	9976.91
883.259	9886.75
883.577	9879.51
883.894	9819.18
884.212	9910.93
884.529	9827.99
884.846	9820.53
885.164	9779.4
885.481	9803.13
885.798	9754.77
886.115	9619.18
886.432	9688.78
886.75	9611.5
887.067	9603.82
887.383	9569.47
887.7	9614.89
888.017	9572.18
888.334	9618.28
888.651	9510.26
888.967	9560.43
889.284	9522.46
889.6	9456.02
889.917	9400.88
890.233	9384.16
890.55	9303.94
890.866	9401.79
891.182	9310.72
891.498	9258.51
891.815	9231.4
892.131	9187.56
892.447	9193.43
892.763	9142.58
893.079	9152.08
893.395	9185.75
893.71	9094.9
894.026	9048.8
894.342	9056.94
894.657	8995.24
894.973	8973.32
895.289	8944.85
895.604	8950.05
895.92	8942.14
896.235	8851.74
896.55	8850.39
896.865	8786.21
897.181	8727.91
897.496	8748.92
897.811	8727.45
898.126	8677.51
898.441	8728.13
898.756	8679.09
899.071	8607.01
899.386	8600.45
899.7	8541.92
900.015	8461.02
900.33	8405.65
900.644	8362.04
900.959	8362.04
901.273	8357.29
901.588	8353
901.902	8274.58
902.216	8199.56
902.531	8243.85
902.845	8184.64
903.159	8167.92
903.473	8121.14
903.787	8080.24
904.101	8032.78
904.415	8049.73
904.729	7979.9
905.042	7990.52
905.356	7969.06
905.67	7972.67
905.984	7915.27
906.297	7887.93
906.611	7813.35
906.924	7754.82
907.237	7817.65
907.551	7786.91
907.864	7734.03
908.177	7748.5
908.491	7680.7
908.804	7654.26
909.117	7560.48
909.43	7611.33
909.743	7554.15
910.056	7536.52
910.368	7456.75
910.681	7443.87
910.994	7372.91
911.307	7432.12
911.619	7330.43
911.932	7278.68
912.244	7197.32
912.557	7322.75
912.869	7192.81
913.181	7109.64
913.494	7149.42
913.806	7074.62
914.118	7075.75
914.43	7043.66
914.742	7046.59
915.054	7024.45
915.366	7010.44
915.678	6956.88
915.99	6879.37
916.302	6837.11
916.613	6856.99
916.925	6834.62
917.236	6838.69
917.548	6752.82
917.859	6775.42
918.171	6772.93
918.482	6704.46
918.794	6708.3
919.105	6707.85
919.416	6630.33
919.727	6579.71
920.038	6609.09
920.349	6516.66
920.66	6503.11
920.971	6525.48
921.282	6469.89
921.593	6448.19
921.903	6418.14
922.214	6403.22
922.525	6343.56
922.835	6280.06
923.146	6297.01
923.456	6284.58
923.767	6226.28
924.077	6210.23
924.387	6258.59
924.697	6139.05
925.008	6153.28
925.318	6136.34
925.628	6173.17
925.938	6079.39
926.248	6077.58
926.558	6054.3
926.867	5997.36
927.177	6001.88
927.487	5953.52
927.796	5890.01
928.106	5899.73
928.416	5896.57
928.725	5882.11
929.034	5845.95
929.344	5832.39
929.653	5765.05
929.962	5727.31
930.271	5759.17
930.581	5726.86
930.89	5674.43
931.199	5676.91
931.508	5709.23
931.817	5680.3
932.125	5699.51
932.434	5604.15
932.743	5546.75
933.051	5535.22
933.36	5469.69
933.669	5520.98
933.977	5483.92
934.286	5443.92
934.594	5406.64
934.902	5383.36
935.21	5378.84
935.519	5381.78
935.827	5358.96
936.135	5340.42
936.443	5249.13
936.751	5257.04
937.059	5235.57
937.367	5258.84
937.674	5236.47
937.982	5190.37
938.29	5171.39
938.597	5167.77
938.905	5117.61
939.213	5087.1
939.52	5057.72
939.827	5063.14
940.135	5073.54
940.442	5021.34
940.749	5005.74
941.056	5025.86
941.363	4935.01
941.67	4998.06
941.977	4853.66
942.284	4861.34
942.591	4845.52
942.898	4836.48
943.205	4834.45
943.511	4810.49
943.818	4763.72
944.125	4775.24
944.431	4755.36
944.738	4728.92
945.044	4723.27
945.35	4700.44
945.657	4621.35
945.963	4647.79
946.269	4603.49
946.575	4629.26
946.881	4576.6
947.187	4593.55
947.493	4542.25
947.799	4547.45
948.105	4544.06
948.41	4490.73
948.716	4517.4
949.022	4431.97
949.327	4454.35
949.633	4420.67
949.938	4402.37
950.244	4431.75
950.549	4326.67
950.854	4320.34
951.16	4310.4
951.465	4328.47
951.77	4295.48
952.075	4271.75
952.38	4208.7
952.685	4251.64
952.99	4222.04
953.294	4189.49
953.599	4151.53
953.904	4133.68
954.209	4100.01
954.513	4118.99
954.818	4084.64
955.122	4105.2
955.426	4129.38
955.731	4010.29
956.035	3982.04
956.339	4000.35
956.643	4017.3
956.948	3995.83
957.252	3941.59
957.556	3966.68
957.86	3961.25
958.163	3942.04
958.467	3887.81
958.771	3864.08
959.075	3872.44
959.378	3827.24
959.682	3824.98
959.985	3815.27
960.289	3848.71
960.592	3779.11
960.896	3749.96
961.199	3773.91
961.502	3765.55
961.805	3726.68
962.108	3690.75
962.411	3657.98
962.714	3608.72
963.017	3652.56
963.32	3647.59
963.623	3633.12
963.926	3595.84
964.228	3584.99
964.531	3588.38
964.833	3570.08
965.136	3544.09
965.438	3540.7
965.741	3521.72
966.043	3449.4
966.345	3472.68
966.648	3499.79
966.95	3460.47
967.252	3440.14
967.554	3397.2
967.856	3442.85
968.158	3352.68
968.46	3391.78
968.761	3357.65
969.063	3383.41
969.365	3339.57
969.666	3348.39
969.968	3265.45
970.269	3275.85
970.571	3308.61
970.872	3252.57
971.174	3240.59
971.475	3228.84
971.776	3207.37
972.077	3201.5
972.378	3183.65
972.679	3180.71
972.98	3170.31
973.281	3164.44
973.582	3121.95
973.883	3151.1
974.183	3087.38
974.484	3111.78
974.785	3084.89
975.085	3111.33
975.386	3090.77
975.686	3041.28
975.986	3016.19
976.287	3040.6
976.587	2984.33
976.887	2997.44
977.187	3014.61
977.487	2968.74
977.787	2945.46
978.087	2939.36
978.387	2935.06
978.687	2914.5
978.987	2905.23
979.286	2879.02
979.586	2851
979.885	2843.99
980.185	2843.32
980.484	2887.83
980.784	2843.99
981.083	2825.46
981.382	2779.36
981.682	2789.08
981.981	2801.96
982.28	2756.76
982.579	2738.69
982.878	2729.42
983.177	2738.46
983.475	2702.08
983.774	2711.12
984.073	2692.58
984.372	2668.4
984.67	2667.27
984.969	2630.21
985.267	2617.11
985.566	2595.86
985.864	2608.74
986.162	2598.12
986.461	2599.03
986.759	2548.18
987.057	2554.28
987.355	2580.27
987.653	2547.96
987.951	2553.61
988.249	2513.15
988.547	2523.32
988.844	2493.04
989.142	2503.66
989.44	2462.08
989.737	2482.87
990.035	2429.31
990.332	2453.95
990.63	2420.05
990.927	2435.42
991.224	2401.74
991.521	2382.76
991.819	2358.58
992.116	2364.23
992.413	2344.57
992.71	2337.57
993.006	2352.03
993.303	2360.62
993.6	2314.97
993.897	2315.65
994.193	2321.97
994.49	2276.78
994.787	2262.77
995.083	2259.6
995.379	2283.78
995.676	2262.99
995.972	2227.06
996.268	2212.6
996.565	2211.24
996.861	2184.35
997.157	2178.02
997.453	2168.3
997.749	2161.07
998.044	2153.39
998.34	2145.03
998.636	2120.17
998.932	2104.58
999.227	2124.46
999.523	2122.43
999.818	2067.97
1000.114	2085.37
1000.409	2069.78
1000.704	2050.34
1001	2065.71
1001.295	2038.36
1001.59	1989.55
1001.885	2017.8
1002.18	2014.18
1002.475	2006.27
1002.77	1983
1003.065	1960.4
1003.359	1928.76
1003.654	1944.13
1003.949	1919.05
1004.243	1893.96
1004.538	1893.51
1004.832	1903.45
1005.127	1872.27
1005.421	1889.22
1005.715	1831.14
1006.009	1839.95
1006.304	1831.82
1006.598	1852.83
1006.892	1819.84
1007.186	1810.57
1007.48	1804.47
1007.773	1779.16
1008.067	1810.35
1008.361	1769.9
1008.655	1761.54
1008.948	1748.65
1009.242	1736.9
1009.535	1764.93
1009.829	1747.07
1010.122	1707.98
1010.415	1733.51
1010.708	1703.01
1011.001	1677.24
1011.295	1668.43
1011.588	1668.2
1011.881	1657.58
1012.173	1676.34
1012.466	1639.05
1012.759	1618.94
1013.052	1609
1013.344	1650.35
1013.637	1609.9
1013.93	1607.19
1014.222	1589.56
1014.514	1583.46
1014.807	1545.04
1015.099	1548.89
1015.391	1539.17
1015.683	1519.06
1015.976	1526.51
1016.268	1532.84
1016.56	1505.5
1016.851	1507.08
1017.143	1497.14
1017.435	1491.94
1017.727	1485.16
1018.018	1472.96
1018.31	1457.81
1018.602	1464.59
1018.893	1394.09
1019.185	1406.74
1019.476	1401.55
1019.767	1412.84
1020.058	1418.72
1020.35	1397.48
1020.641	1376.01
1020.932	1358.38
1021.223	1352.51
1021.514	1349.12
1021.804	1343.24
1022.095	1333.98
1022.386	1344.82
1022.677	1316.58
1022.967	1303.92
1023.258	1290.81
1023.548	1291.27
1023.839	1285.39
1024.129	1291.94
1024.419	1251.27
1024.709	1272.06
1025	1267.54
1025.29	1230.48
1025.58	1221.21
1025.87	1225.05
1026.16	1212.85
1026.449	1217.82
1026.739	1191.83
1027.029	1225.5
1027.319	1186.18
1027.608	1187.99
1027.898	1183.02
1028.187	1144.15
1028.477	1165.62
1028.766	1176.69
1029.055	1150.7
1029.344	1142.34
1029.634	1136.92
1029.923	1128.56
1030.212	1124.04
1030.501	1116.58
1030.79	1092.63
1031.078	1094.89
1031.367	1088.33
1031.656	1084.27
1031.945	1068.67
1032.233	1086.53
1032.522	1052.18
1032.81	1055.57
1033.099	1038.39
1033.387	1049.92
1033.675	1036.36
1033.963	1023.48
1034.251	1041.33
1034.54	1005.17
1034.828	1013.08
1035.116	999.3
1035.403	1016.7
1035.691	965.17
1035.979	1003.36
1036.267	972.18
1036.554	977.83
1036.842	953.2
1037.129	957.49
1037.417	943.93
1037.704	975.57
1037.992	919.07
1038.279	943.7
1038.566	940.09
1038.853	940.09
1039.14	940.09
