Data from hue_230_FLMS001491_00013.txt Node
Date: Tue Feb 07 16:36:51 GMT 2017
User: dcchb
Spectrometer: FLMS00149
Trigger mode: 0
Integration Time (sec): 2.000000E-2
Scans to average: 10
Electric dark correction enabled: true
Nonlinearity correction enabled: false
Boxcar width: 0
XAxis mode: Wavelengths
Number of Pixels in Spectrum: 2048
>>>>>Begin Spectral Data<<<<<
341.393	-6.74
341.776	-6.74
342.16	-6.74
342.543	-53.97
342.927	-51.26
343.31	-94.87
343.693	-58.04
344.077	-64.36
344.46	-66.17
344.843	-62.33
345.226	-54.65
345.61	-29.56
345.993	-22.1
346.376	-11.03
346.759	22.19
347.142	14.28
347.525	48.85
347.908	70.1
348.291	95.18
348.674	93.37
349.057	119.14
349.44	133.15
349.823	159.36
350.206	181.73
350.588	197.1
350.971	196.87
351.354	216.31
351.737	227.38
352.119	249.98
352.502	258.57
352.884	269.19
353.267	274.16
353.65	285.91
354.032	297.44
354.414	333.14
354.797	308.96
355.179	316.19
355.562	332.91
355.944	330.2
356.326	321.39
356.709	340.37
357.091	325.68
357.473	316.64
357.855	332.69
358.238	357.55
358.62	345.12
359.002	341.95
359.384	322.29
359.766	336.53
360.148	347.15
360.53	338.79
360.912	348.73
361.294	335.17
361.676	320.26
362.057	335.17
362.439	334.27
362.821	328.4
363.203	335.4
363.584	313.93
363.966	310.77
364.348	309.19
364.729	336.53
365.111	315.29
365.493	310.54
365.874	327.49
366.256	304.67
366.637	311.67
367.019	329.98
367.4	312.58
367.781	314.16
368.163	307.38
368.544	295.85
368.925	318.45
369.306	318.68
369.688	297.21
370.069	297.89
370.45	306.93
370.831	315.06
371.212	318.23
371.593	298.57
371.974	315.51
372.355	313.71
372.736	311.45
373.117	311.45
373.498	319.58
373.879	315.97
374.26	311.45
374.641	308.51
375.021	310.77
375.402	318
375.783	322.52
376.163	313.93
376.544	322.75
376.925	303.76
377.305	334.27
377.686	315.97
378.066	309.19
378.447	336.08
378.827	342.63
379.208	326.14
379.588	335.85
379.968	333.37
380.349	328.62
380.729	345.8
381.109	319.81
381.489	329.98
381.87	335.4
382.25	325.46
382.63	329.07
383.01	325.68
383.39	324.78
383.77	350.99
384.15	345.34
384.53	334.5
384.91	346.02
385.29	334.72
385.67	349.41
386.049	360.71
386.429	368.85
386.809	349.86
387.189	360.71
387.568	346.47
387.948	353.71
388.328	365.46
388.707	367.72
389.087	366.13
389.466	347.15
389.846	368.39
390.225	372.91
390.605	370.88
390.984	337.21
391.363	359.58
391.743	388.51
392.122	384.89
392.501	362.74
392.881	365.46
393.26	368.39
393.639	397.55
394.018	389.18
394.397	386.25
394.776	374.95
395.155	370.65
395.534	380.6
395.913	394.83
396.292	380.82
396.671	376.3
397.05	402.29
397.429	395.74
397.808	398.9
398.186	383.08
398.565	404.55
398.944	417.88
399.323	419.47
399.701	396.19
400.08	407.26
400.458	406.13
400.837	414.04
401.215	405
401.594	419.24
401.972	431.22
402.351	425.57
402.729	419.69
403.107	428.51
403.486	431.22
403.864	424.21
404.242	432.57
404.62	452.69
404.999	441.39
405.377	454.95
405.755	442.52
406.133	447.49
406.511	467.15
406.889	459.47
407.267	461.95
407.645	463.53
408.023	479.35
408.401	491.1
408.779	475.74
409.156	486.58
409.534	495.4
409.912	508.96
410.29	512.12
410.667	528.16
411.045	528.39
411.422	536.98
411.8	543.98
412.178	527.03
412.555	530.65
412.933	534.04
413.31	548.73
413.687	549.86
414.065	557.99
414.442	578.78
414.819	565.45
415.197	573.36
415.574	602.51
415.951	629.63
416.328	618.33
416.705	639.35
417.082	618.33
417.46	622.85
417.837	649.74
418.214	636.18
418.591	642.96
418.967	667.37
419.344	678.89
419.721	687.93
420.098	671.66
420.475	687.03
420.852	677.09
421.228	703.75
421.605	697.43
421.982	730.64
422.358	722.28
422.735	728.38
423.111	745.11
423.488	761.15
423.864	756.41
424.241	768.38
424.617	794.37
424.994	777.65
425.37	814.48
425.746	808.16
426.123	831.66
426.499	837.31
426.875	839.12
427.251	859.23
427.627	881.15
428.003	869.85
428.379	890.19
428.756	904.43
429.132	919.34
429.507	918.89
429.883	931.09
430.259	922.28
430.635	962.28
431.011	973.35
431.387	999.34
431.763	1007.93
432.138	1005.67
432.514	1029.85
432.89	1001.82
433.265	1063.07
433.641	1081.14
434.016	1083.18
434.392	1103.97
434.767	1124.31
435.143	1114.36
435.518	1157.98
435.894	1159.79
436.269	1197.3
436.644	1211.08
437.02	1204.76
437.395	1201.59
437.77	1243.63
438.145	1230.74
438.52	1271.65
438.895	1285.43
439.271	1305.54
439.646	1336.73
440.021	1341.02
440.395	1349.39
440.77	1335.83
441.145	1372.44
441.52	1408.82
441.895	1418.08
442.27	1429.16
442.645	1436.16
443.019	1457.86
443.394	1422.38
443.769	1458.31
444.143	1480.91
444.518	1462.38
444.892	1508.48
445.267	1513.9
445.641	1521.58
446.016	1533.56
446.39	1564.97
446.764	1559.78
447.139	1572.66
447.513	1575.82
447.887	1595.03
448.262	1570.62
448.636	1628.47
449.01	1629.83
449.384	1655.82
449.758	1634.58
450.132	1661.92
450.506	1659.89
450.88	1696.95
451.254	1700.34
451.628	1686.33
452.002	1749.15
452.376	1750.05
452.75	1762.03
453.123	1769.94
453.497	1798.41
453.871	1812.42
454.244	1832.08
454.618	1861.24
454.992	1876.38
455.365	1862.37
455.739	1924.06
456.112	1928.13
456.486	1952.76
456.859	1933.32
457.232	1984.17
457.606	1987.11
457.979	1997.05
458.352	2033.89
458.725	2072.3
459.099	2072.76
459.472	2136.03
459.845	2172.87
460.218	2165.64
460.591	2172.64
460.964	2173.32
461.337	2245.41
461.71	2278.85
462.083	2296.71
462.456	2230.27
462.829	2306.87
463.201	2361.34
463.574	2335.35
463.947	2369.7
464.32	2404.72
464.692	2449.7
465.065	2484.72
465.438	2483.14
465.81	2503.93
466.183	2542.8
466.555	2550.03
466.928	2590.93
467.3	2605.85
467.672	2594.78
468.045	2676.81
468.417	2675
468.789	2724.04
469.161	2771.95
469.534	2785.73
469.906	2825.73
470.278	2857.82
470.65	2827.31
471.022	2979.4
471.394	2992.51
471.766	2961.55
472.138	3025.05
472.51	3104.14
472.882	3116.8
473.253	3176.23
473.625	3185.27
473.997	3249.67
474.369	3255.78
474.74	3288.09
475.112	3378.71
475.484	3443.34
475.855	3468.43
476.227	3438.6
476.598	3528.54
476.97	3584.13
477.341	3671.58
477.713	3679.04
478.084	3725.14
478.455	3774.86
478.827	3854.4
479.198	3949.77
479.569	3934.85
479.94	4004.91
480.311	4038.35
480.682	4106.6
481.053	4214.39
481.424	4277.67
481.795	4283.55
482.166	4349.76
482.537	4419.36
482.908	4495.97
483.279	4504.1
483.65	4581.62
484.021	4662.52
484.391	4695.74
484.762	4754.95
485.133	4784.55
485.503	4840.37
485.874	4916.52
486.244	4963.98
486.615	5077.2
486.985	5104.54
487.356	5132.11
487.726	5163.75
488.097	5281.26
488.467	5300.69
488.837	5402.39
489.207	5465.44
489.578	5478.99
489.948	5591.53
490.318	5631.76
490.688	5629.05
491.058	5709.72
491.428	5791.75
491.798	5787.01
492.168	5934.12
492.538	5866.55
492.908	5986.1
493.278	6106.55
493.648	6074.01
494.017	6145.19
494.387	6128.69
494.757	6191.07
495.126	6234
495.496	6249.82
495.866	6302.48
496.235	6343.83
496.605	6343.83
496.974	6488.01
497.344	6539.31
497.713	6511.74
498.082	6509.93
498.452	6570.72
498.821	6576.14
499.19	6621.56
499.559	6642.58
499.928	6686.19
500.298	6657.27
500.667	6803.25
501.036	6773.88
501.405	6808.22
501.774	6867.21
502.143	6904.27
502.512	6926.41
502.88	6953.53
503.249	6966.41
503.618	6953.98
503.987	7028.33
504.356	6990.59
504.724	7063.36
505.093	7048.22
505.462	7060.42
505.83	7092.96
506.199	7163.47
506.567	7208.67
506.936	7222.68
507.304	7269
507.672	7259.51
508.041	7301.32
508.409	7335.89
508.777	7371.83
509.145	7375.22
509.514	7444.37
509.882	7479.85
510.25	7443.69
510.618	7469.45
510.986	7504.93
511.354	7520.97
511.722	7530.69
512.09	7645.72
512.458	7620.41
512.826	7578.15
513.193	7645.04
513.561	7623.12
513.929	7661.08
514.297	7773.85
514.664	7735.88
515.032	7770.69
515.4	7801.65
515.767	7795.77
516.135	7795.54
516.502	7749.9
516.869	7857.24
517.237	7860.85
517.604	7791.48
517.972	7866.95
518.339	7914.64
518.706	7901.53
519.073	7895.65
519.44	7854.3
519.808	7943.56
520.175	7893.39
520.542	8006.61
520.909	7969.55
521.276	7974.3
521.643	8067.17
522.009	8053.39
522.376	8082.09
522.743	8108.08
523.11	8146.04
523.477	8179.49
523.843	8199.83
524.21	8245.25
524.577	8300.16
524.943	8276.89
525.31	8311.91
525.676	8343.78
526.043	8326.83
526.409	8359.6
526.776	8436.66
527.142	8381.97
527.508	8390.1
527.874	8403.44
528.241	8451.8
528.607	8462.19
528.973	8468.29
529.339	8420.16
529.705	8512.36
530.071	8508.52
530.437	8502.64
530.803	8539.25
531.169	8586.48
531.535	8485.47
531.901	8489.31
532.267	8538.8
532.632	8498.8
532.998	8499.48
533.364	8596.65
533.73	8567.73
534.095	8577.67
534.461	8543.32
534.826	8507.62
535.192	8505.58
535.557	8583.09
535.923	8561.4
536.288	8560.95
536.653	8576.77
537.019	8574.96
537.384	8549.42
537.749	8545.81
538.114	8495.64
538.479	8499.03
538.845	8463.32
539.21	8439.37
539.575	8461.29
539.94	8475.07
540.305	8536.54
540.67	8422.19
541.034	8409.99
541.399	8478.46
541.764	8481.85
542.129	8489.31
542.494	8482.53
542.858	8398.01
543.223	8447.5
543.587	8443.21
543.952	8361.86
544.316	8441.63
544.681	8341.07
545.045	8384
545.41	8379.26
545.774	8355.75
546.138	8274.85
546.503	8372.48
546.867	8395.53
547.231	8365.25
547.595	8294.29
547.959	8296.32
548.324	8262.88
548.688	8255.42
549.052	8286.38
549.416	8209.32
549.779	8225.81
550.143	8244.12
550.507	8257.45
550.871	8268.53
551.235	8249.99
551.599	8256.1
551.962	8181.97
552.326	8233.95
552.689	8270.56
553.053	8212.26
553.417	8205.48
553.78	8235.98
554.143	8196.21
554.507	8183.33
554.87	8200.96
555.234	8265.59
555.597	8194.18
555.96	8197.11
556.323	8175.42
556.686	8218.58
557.05	8208.19
557.413	8151.01
557.776	8214.74
558.139	8235.08
558.502	8216.55
558.865	8182.65
559.228	8177
559.59	8275.98
559.953	8243.67
560.316	8280.73
560.679	8270.56
561.041	8306.26
561.404	8287.73
561.767	8327.28
562.129	8240.96
562.492	8301.74
562.854	8323.67
563.217	8311.46
563.579	8377.68
563.941	8382.42
564.304	8387.84
564.666	8379.94
565.028	8399.14
565.39	8345.59
565.753	8471.01
566.115	8491.34
566.477	8481.18
566.839	8485.24
567.201	8553.72
567.563	8512.59
567.925	8619.93
568.287	8580.38
568.648	8592.36
569.01	8626.48
569.372	8673.03
569.734	8646.37
570.095	8683.88
570.457	8638.46
570.819	8603.66
571.18	8637.1
571.542	8767.27
571.903	8746.93
572.265	8779.92
572.626	8758.23
572.987	8776.31
573.349	8833.48
573.71	8771.56
574.071	8830.09
574.432	8801.17
574.794	8874.16
575.155	8911.9
575.516	8868.74
575.877	8941.28
576.238	8951.67
576.599	9016.08
576.96	8958.22
577.32	8965.68
577.681	9019.24
578.042	9027.15
578.403	9026.92
578.763	9028.28
579.124	9068.5
579.485	9088.16
579.845	9099.01
580.206	9096.75
580.566	9142.85
580.927	9178.11
581.287	9184.66
581.648	9162.97
582.008	9238.22
582.368	9176.98
582.728	9237.31
583.089	9291.55
583.449	9221.72
583.809	9242.06
584.169	9357.99
584.529	9197.54
584.889	9303.53
585.249	9264.88
585.609	9312.79
585.969	9341.04
586.329	9346.01
586.688	9383.3
587.048	9450.87
587.408	9318.44
587.768	9349.18
588.127	9364.09
588.487	9391.89
588.846	9456.97
589.206	9362.28
589.565	9341.04
589.925	9447.03
590.284	9422.62
590.643	9399.34
591.003	9513.92
591.362	9500.36
591.721	9465.33
592.08	9458.78
592.44	9488.38
592.799	9526.12
593.158	9484.09
593.517	9500.36
593.876	9555.5
594.235	9484.31
594.593	9550.53
594.952	9547.81
595.311	9495.84
595.67	9623.52
596.029	9607.02
596.387	9685.44
596.746	9593.24
597.104	9622.84
597.463	9616.74
597.822	9740.8
598.18	9639.34
598.538	9564.54
598.897	9659
599.255	9554.59
599.613	9644.08
599.972	9691.54
600.33	9655.61
600.688	9584.65
601.046	9703.29
601.404	9700.35
601.762	9684.76
602.12	9717.98
602.478	9675.72
602.836	9771.54
603.194	9651.09
603.552	9735.61
603.91	9661.26
604.268	9764.08
604.625	9734.93
604.983	9698.32
605.341	9780.58
605.698	9796.17
606.056	9709.39
606.413	9767.7
606.771	9776.96
607.128	9780.8
607.485	9805.89
607.843	9765.21
608.2	9846.79
608.557	9842.27
608.914	9846.11
609.272	9894.02
609.629	9858.99
609.986	9877.97
610.343	9882.04
610.7	9918.43
611.057	9902.61
611.414	9862.61
611.771	9912.1
612.127	9926.11
612.484	9921.82
612.841	9997.52
613.198	9965.2
613.554	10000.46
613.911	10042.49
614.267	10006.78
614.624	9983.28
614.98	10033.22
615.337	10037.52
615.693	10029.16
616.05	9937.41
616.406	10010.4
616.762	9977.18
617.118	10036.16
617.475	10073.45
617.831	10065.54
618.187	10059.66
618.543	10097.63
618.899	10155.03
619.255	10160.68
619.611	10073.9
619.967	10122.26
620.323	10158.87
620.678	10113.67
621.034	10128.82
621.39	10108.7
621.746	10114.8
622.101	10280
622.457	10105.54
622.812	10180.79
623.168	10094.69
623.523	10155.03
623.879	10149.38
624.234	10014.69
624.589	10129.49
624.945	10090.4
625.3	10191.19
625.655	10094.01
626.01	10162.49
626.365	10188.48
626.72	10110.96
627.075	10053.79
627.43	10140.57
627.785	10064.64
628.14	10082.94
628.495	10090.17
628.85	10101.7
629.205	10057.18
629.559	10056.05
629.914	10076.84
630.269	10006.56
630.623	10075.71
630.978	10019.21
631.332	10026.67
631.687	9997.75
632.041	9986.22
632.396	10000.91
632.75	9966.11
633.104	9939.44
633.459	9931.76
633.813	9965.2
634.167	9955.03
634.521	9935.37
634.875	9918.65
635.229	9936.05
635.583	9909.61
635.937	9853.12
636.291	9842.72
636.645	9917.07
636.999	9891.76
637.352	9882.49
637.706	9872.33
638.06	9847.47
638.413	9849.95
638.767	9783.06
639.121	9806.11
639.474	9719.79
639.828	9739.9
640.181	9748.49
640.534	9795.04
640.888	9726.57
641.241	9716.4
641.594	9637.3
641.947	9694.48
642.301	9727.7
642.654	9693.35
643.007	9776.06
643.36	9630.98
643.713	9671.2
644.066	9679.56
644.419	9663.29
644.771	9551.66
645.124	9504.43
645.477	9494.48
645.83	9446.57
646.182	9406.8
646.535	9366.35
646.888	9393.92
647.24	9255.39
647.593	9392.11
647.945	9308.95
648.298	9250.19
648.65	9212.68
649.002	9286.58
649.355	9326.35
649.707	9313.7
650.059	9409.06
650.411	9460.13
650.763	9512.79
651.115	9632.78
651.467	9480.02
651.819	9485.67
652.171	9578.32
652.523	9504.65
652.875	9472.11
653.227	9439.12
653.578	9476.18
653.93	9582.16
654.282	9487.93
654.633	9461.71
654.985	9506.23
655.337	9474.6
655.688	9520.24
656.039	9503.3
656.391	9463.3
656.742	9495.16
657.094	9532.67
657.445	9535.84
657.796	9507.14
658.147	9427.14
658.498	9500.13
658.849	9500.81
659.2	9523.41
659.551	9435.73
659.902	9511.43
660.253	9446.35
660.604	9505.33
660.955	9496.29
661.306	9491.32
661.656	9419.68
662.007	9476.86
662.358	9463.75
662.708	9513.92
663.059	9492.45
663.409	9459.45
663.76	9483.41
664.11	9464.2
664.461	9527.7
664.811	9520.7
665.161	9466.23
665.511	9493.35
665.862	9504.2
666.212	9506.23
666.562	9546.91
666.912	9489.06
667.262	9492
667.612	9466.69
667.962	9467.59
668.312	9475.5
668.662	9532.22
669.011	9429.62
669.361	9436.86
669.711	9429.4
670.06	9490.41
670.41	9482.05
670.76	9397.99
671.109	9485.67
671.459	9458.1
671.808	9400.7
672.157	9441.6
672.507	9394.37
672.856	9349.18
673.205	9395.95
673.554	9426.01
673.904	9422.85
674.253	9478.44
674.602	9345.56
674.951	9202.29
675.3	9173.81
675.649	9396.18
675.998	9346.46
676.346	9336.75
676.695	9285.22
677.044	9232.12
677.393	9313.02
677.741	9295.39
678.09	9328.16
678.438	9256.07
678.787	9307.59
679.135	9298.33
679.484	9189.41
679.832	9204.55
680.181	9186.69
680.529	9194.83
680.877	9164.1
681.225	9197.99
681.573	9247.71
681.922	9129.97
682.27	9084.1
682.618	9087.71
682.966	9082.29
683.314	9147.82
683.661	9056.53
684.009	9051.78
684.357	9014.72
684.705	9012.69
685.053	8994.38
685.4	9035.51
685.748	8920.71
686.095	8970.2
686.443	8842.75
686.79	8959.35
687.138	8931.11
687.485	8866.25
687.832	8856.31
688.18	8869.41
688.527	8842.07
688.874	8813.37
689.221	8767.72
689.568	8766.59
689.915	8666.48
690.262	8703.54
690.609	8703.77
690.956	8655.18
691.303	8669.19
691.65	8615.18
691.997	8618.8
692.344	8510.1
692.69	8526.82
693.037	8561.63
693.383	8466.49
693.73	8499.03
694.077	8438.01
694.423	8419.48
694.769	8394.62
695.116	8360.5
695.462	8351.91
695.808	8344.91
696.155	8358.47
696.501	8261.52
696.847	8261.97
697.193	8119.6
697.539	8214.52
697.885	8149.43
698.231	8129.55
698.577	8163.9
698.923	8088.87
699.269	8077.57
699.614	8010.91
699.96	7995.76
700.306	7991.92
700.651	7925.94
700.997	7913.73
701.342	7894.3
701.688	7840.51
702.033	7840.29
702.379	7824.92
702.724	7740.63
703.069	7774.53
703.415	7736.79
703.76	7643.01
704.105	7720.07
704.45	7659.73
704.795	7643.01
705.14	7571.82
705.485	7624.7
705.83	7553.29
706.175	7564.59
706.52	7513.52
706.865	7542.44
707.209	7426.51
707.554	7443.46
707.899	7460.86
708.243	7387.87
708.588	7393.97
708.932	7367.53
709.277	7325.5
709.621	7305.39
709.966	7250.25
710.31	7315.1
710.654	7229.46
710.998	7238.72
711.342	7247.31
711.687	7229.91
712.031	7211.83
712.375	7185.39
712.719	7201.66
713.063	7171.15
713.407	7175.67
713.75	7132.06
714.094	7134.32
714.438	7052.51
714.782	7111.49
715.125	7111.27
715.469	7103.36
715.812	7080.76
716.156	6959.63
716.499	7008.45
716.843	7010.03
717.186	7003.7
717.53	6998.5
717.873	6983.36
718.216	6944.49
718.559	6950.14
718.902	6892.97
719.246	6911.95
719.589	6918.96
719.932	6892.52
720.275	6886.87
720.617	6840.09
720.96	6843.03
721.303	6873.53
721.646	6883.7
721.989	6811.84
722.331	6850.26
722.674	6890.26
723.016	6786.98
723.359	6865.85
723.701	6858.39
724.044	6766.42
724.386	6808.68
724.729	6749.02
725.071	6756.93
725.413	6760.09
725.755	6752.86
726.097	6756.93
726.439	6673.77
726.782	6706.31
727.124	6764.16
727.465	6719.41
727.807	6701.11
728.149	6721
728.491	6689.81
728.833	6736.36
729.175	6731.84
729.516	6701.34
729.858	6699.75
730.199	6702.47
730.541	6689.58
730.882	6720.54
731.224	6695.23
731.565	6672.18
731.906	6717.83
732.248	6699.08
732.589	6719.41
732.93	6584.05
733.271	6692.52
733.612	6702.24
733.953	6685.52
734.294	6720.32
734.635	6660.66
734.976	6677.38
735.317	6676.7
735.658	6658.62
735.999	6650.04
736.339	6683.71
736.68	6722.58
737.021	6721.9
737.361	6705.85
737.702	6648.91
738.042	6692.75
738.383	6638.51
738.723	6692.3
739.063	6648.23
739.404	6686.87
739.744	6723.26
740.084	6653.65
740.424	6719.41
740.764	6784.72
741.104	6715.35
741.444	6695.23
741.784	6692.97
742.124	6767.32
742.464	6705.85
742.804	6762.58
743.143	6781.11
743.483	6772.07
743.823	6752.63
744.162	6766.64
744.502	6860.43
744.841	6838.28
745.181	6934.1
745.52	6880.09
745.86	6930.03
746.199	6941.33
746.538	6965.06
746.877	7056.13
747.216	7046.41
747.556	7051.16
747.895	7076.92
748.234	7113.98
748.573	7087.54
748.911	7171.15
749.25	7233.75
749.589	7259.06
749.928	7321.66
750.267	7396.01
750.605	7396.23
750.944	7482.11
751.283	7522.1
751.621	7584.93
751.96	7621.31
752.298	7625.83
752.636	7752.83
752.975	7807.97
753.313	7851.59
753.651	7914.86
753.989	8077.57
754.327	8059.49
754.666	8131.13
755.004	8248.19
755.342	8365.02
755.679	8429.88
756.017	8481.4
756.355	8598.91
756.693	8729.76
757.031	8820.83
757.368	8929.07
757.706	9009.52
758.044	9089.29
758.381	9245
758.719	9379.23
759.056	9440.02
759.394	9530.64
759.731	9600.92
760.068	9816.51
760.405	9869.16
760.743	10030.74
761.08	10062.83
761.417	10157.29
761.754	10342.82
762.091	10460.11
762.428	10529.71
762.765	10670.95
763.102	10794.33
763.438	10874.78
763.775	10982.13
764.112	11180.09
764.449	11337.6
764.785	11351.83
765.122	11406.3
765.458	11487.65
765.795	11641.77
766.131	11785.95
766.467	11891.71
766.804	11901.2
767.14	11947.98
767.476	12080.63
767.812	12239.27
768.148	12329.21
768.485	12393.84
768.821	12477.68
769.157	12477.23
769.492	12614.85
769.828	12664.12
770.164	12690.78
770.5	12788.63
770.836	12805.36
771.171	12808.52
771.507	13016.42
771.842	12907.27
772.178	13114.27
772.513	13166.93
772.849	13090.32
773.184	13180.94
773.519	13402.63
773.855	13243.54
774.19	13321.73
774.525	13385.23
774.86	13468.61
775.195	13544.54
775.53	13500.48
775.865	13590.65
776.2	13443.98
776.535	13448.95
776.87	13508.84
777.205	13581.38
777.539	13566.01
777.874	13610.31
778.209	13498.22
778.543	13678.55
778.878	13647.59
779.212	13665.45
779.547	13643.3
779.881	13661.15
780.215	13642.62
780.55	13731.43
780.884	13711.55
781.218	13633.13
781.552	13646.46
781.886	13694.37
782.22	13678.33
782.554	13562.62
782.888	13553.58
783.222	13564.88
783.556	13565.56
783.889	13589.74
784.223	13506.13
784.557	13460.48
784.89	13532.79
785.224	13468.39
785.557	13551.78
785.891	13479.46
786.224	13455.28
786.558	13551.32
786.891	13366.47
787.224	13386.81
787.557	13341.39
787.891	13394.49
788.224	13459.35
788.557	13382.29
788.89	13334.83
789.223	13348.84
789.556	13287.83
789.888	13268.17
790.221	13257.77
790.554	13127.83
790.887	13234.72
791.219	13157.21
791.552	13157.21
791.884	13045.8
792.217	13007.61
792.549	13079.7
792.882	12992.7
793.214	12962.87
793.546	12901.4
793.879	12948.4
794.211	12845.35
794.543	12869.53
794.875	12908.86
795.207	12858.91
795.539	12808.07
795.871	12844.68
796.203	12728.3
796.535	12644.91
796.867	12710.22
797.198	12637.22
797.53	12650.33
797.862	12580.95
798.193	12575.08
798.525	12515.65
798.856	12503.67
799.188	12381.19
799.519	12383.9
799.85	12338.93
800.182	12374.63
800.513	12418.25
800.844	12259.38
801.175	12286.72
801.506	12303.9
801.837	12227.29
802.168	12273.84
802.499	12207.18
802.83	12136.67
803.161	12057.58
803.491	12091.02
803.822	12128.54
804.153	12019.84
804.483	12012.61
804.814	11943.23
805.145	11963.12
805.475	11941.65
805.805	11893.06
806.136	11870.46
806.466	11868.2
806.796	11877.02
807.126	11677.7
807.457	11751.37
807.787	11786.4
808.117	11726.29
808.447	11630.25
808.777	11657.14
809.107	11616.01
809.436	11618.49
809.766	11605.16
810.096	11455.33
810.426	11519.06
810.755	11507.99
811.085	11521.1
811.414	11488.78
811.744	11374.88
812.073	11389.57
812.403	11277.26
812.732	11354.32
813.061	11337.15
813.39	11263.02
813.719	11259.63
814.049	11296.24
814.378	11199.52
814.707	11195.91
815.036	11119.98
815.365	11152.52
815.693	11092.63
816.022	11112.52
816.351	11111.61
816.68	11010.83
817.008	11122.91
817.337	10889.47
817.665	10962.01
817.994	11006.31
818.322	10886.76
818.651	10868.46
818.979	10843.83
819.307	10929.47
819.636	10918.17
819.964	10837.05
820.292	10900.55
820.62	10796.82
820.948	10779.19
821.276	10823.49
821.604	10794.56
821.932	10746.43
822.259	10820.55
822.587	10803.83
822.915	10728.12
823.243	10814
823.57	10792.3
823.898	10786.65
824.225	10717.95
824.553	10762.47
824.88	10797.95
825.207	10812.87
825.535	10790.72
825.862	10792.53
826.189	10771.51
826.516	10819.87
826.843	10815.58
827.17	10854.9
827.497	10825.07
827.824	10790.49
828.151	10884.28
828.478	10797.27
828.805	10872.07
829.131	10842.02
829.458	10850.15
829.785	10761.57
830.111	10748.91
830.438	10864.62
830.764	10785.97
831.09	10887.67
831.417	10676.6
831.743	10797.5
832.069	10753.21
832.395	10715.69
832.722	10723.15
833.048	10800.21
833.374	10820.77
833.7	10670.27
834.026	10706.65
834.351	10744.39
834.677	10750.27
835.003	10766.54
835.329	10715.24
835.654	10627.79
835.98	10684.28
836.306	10687.44
836.631	10623.49
836.956	10663.49
837.282	10642.47
837.607	10594.57
837.932	10592.76
838.258	10544.4
838.583	10570.61
838.908	10547.79
839.233	10554.12
839.558	10468.69
839.883	10477.28
840.208	10475.25
840.533	10471.41
840.858	10463.5
841.182	10438.19
841.507	10401.12
841.832	10374.01
842.156	10335.82
842.481	10330.39
842.805	10289.94
843.13	10366.32
843.454	10245.87
843.778	10236.84
844.103	10240.68
844.427	10197.06
844.751	10168.81
845.075	10147.35
845.399	10145.31
845.723	10047.24
846.047	10075.48
846.371	10067.8
846.695	10024.41
847.019	9983.51
847.343	9882.95
847.666	9842.04
847.99	9785.77
848.313	9844.76
848.637	9727.47
848.96	9770.18
849.284	9723.85
849.607	9658.77
849.931	9600.24
850.254	9590.98
850.577	9458.32
850.9	9588.26
851.223	9409.06
851.546	9402.28
851.869	9382.62
852.192	9459
852.515	9325.67
852.838	9300.59
853.161	9285.67
853.483	9136.75
853.806	9173.81
854.129	9220.36
854.451	9140.14
854.774	9101.5
855.096	9073.48
855.419	9045.91
855.741	8957.32
856.063	8989.86
856.385	8952.8
856.708	8928.17
857.03	8915.97
857.352	8887.49
857.674	8806.36
857.996	8865.57
858.318	8766.14
858.64	8795.29
858.961	8732.02
859.283	8722.3
859.605	8667.61
859.926	8753.48
860.248	8640.95
860.57	8627.61
860.891	8676.65
861.212	8588.07
861.534	8583.55
861.855	8509.2
862.176	8563.88
862.498	8572.7
862.819	8529.08
863.14	8524.11
863.461	8452.25
863.782	8449.76
864.103	8450.67
864.424	8470.1
864.745	8450.67
865.065	8393.27
865.386	8363.44
865.707	8344.91
866.027	8377.9
866.348	8332.93
866.668	8353.95
866.989	8405.92
867.309	8298.58
867.63	8313.72
867.95	8344.68
868.27	8196.89
868.59	8263.1
868.91	8260.84
869.23	8212.48
869.55	8240.28
869.87	8211.8
870.19	8220.39
870.51	8186.27
870.83	8198.02
871.15	8172.26
871.469	8151.92
871.789	8181.07
872.109	8171.58
872.428	8092.03
872.748	8132.71
873.067	8058.14
873.386	8104.46
873.706	8038.7
874.025	8043.22
874.344	8036.44
874.663	8003.45
874.982	8006.84
875.301	7948.76
875.62	7987.63
875.939	7973.39
876.258	7925.03
876.577	7891.13
876.896	7993.28
877.214	7870.8
877.533	7955.31
877.852	7867.63
878.17	7884.35
878.489	7910.79
878.807	7800.74
879.125	7853.17
879.444	7870.34
879.762	7791.48
880.08	7820.85
880.398	7776.34
880.716	7852.49
881.034	7739.05
881.352	7735.66
881.67	7679.84
881.988	7678.71
882.306	7677.58
882.624	7686.62
882.941	7667.19
883.259	7679.61
883.577	7640.29
883.894	7560.97
884.212	7656.79
884.529	7629.67
884.846	7566.4
885.164	7571.37
885.481	7527.3
885.798	7531.14
886.115	7469.22
886.432	7483.01
886.75	7464.03
887.067	7522.33
887.383	7512.61
887.7	7432.62
888.017	7379.28
888.334	7404.59
888.651	7368.44
888.967	7341.54
889.284	7317.59
889.6	7257.25
889.917	7213.19
890.233	7219.97
890.55	7173.41
890.866	7231.04
891.182	7196.46
891.498	7133.19
891.815	7166.41
892.131	7118.95
892.447	7141.78
892.763	7072.85
893.079	7063.36
893.395	7054.77
893.71	7019.74
894.026	7022.46
894.342	6920.31
894.657	6905.85
894.973	6947.43
895.289	6840.09
895.604	6901.1
895.92	6852.07
896.235	6795.57
896.55	6811.16
896.865	6759.19
897.181	6730.71
897.496	6776.59
897.811	6753.54
898.126	6694.56
898.441	6666.99
898.756	6700.43
899.071	6627.89
899.386	6558.06
899.7	6608.68
900.015	6557.16
900.33	6483.71
900.644	6477.39
900.959	6466.54
901.273	6465.64
901.588	6482.13
901.902	6483.04
902.216	6405.52
902.531	6396.48
902.845	6332.53
903.159	6326.43
903.473	6338.86
903.787	6283.04
904.101	6250.5
904.415	6251.86
904.729	6194.46
905.042	6179.77
905.356	6179.99
905.67	6152.87
905.984	6203.04
906.297	6118.3
906.611	6085.31
906.924	6074.23
907.237	6035.82
907.551	6058.41
907.864	6020.45
908.177	5962.37
908.491	5967.12
908.804	5904.29
909.117	5871.98
909.43	5880.34
909.743	5855.71
910.056	5865.65
910.368	5853.67
910.681	5806.22
910.994	5782.94
911.307	5727.12
911.619	5721.02
911.932	5699.1
912.244	5654.58
912.557	5663.62
912.869	5648.48
913.181	5563.06
913.494	5600.57
913.806	5548.82
914.118	5525.09
914.43	5490.29
914.742	5510.41
915.054	5526.45
915.366	5475.6
915.678	5458.88
915.99	5404.65
916.302	5373.91
916.613	5357.87
916.925	5349.05
917.236	5318.77
917.548	5306.8
917.859	5313.8
918.171	5264.54
918.482	5229.96
918.794	5230.87
919.105	5216.4
919.416	5165.56
919.727	5111.32
920.038	5187.48
920.349	5075.84
920.66	5079.46
920.971	5113.58
921.282	5096.86
921.593	5037.2
921.903	5049.85
922.214	5013.02
922.525	5014.15
922.835	4982.74
923.146	4914.26
923.456	4939.35
923.767	4879.91
924.077	4893.47
924.387	4860.03
924.697	4842.4
925.008	4790.42
925.318	4807.6
925.628	4776.64
925.938	4796.98
926.248	4791.1
926.558	4754.49
926.867	4716.75
927.177	4708.85
927.487	4705.23
927.796	4641.05
928.106	4620.26
928.416	4628.85
928.725	4596.53
929.034	4594.05
929.344	4558.11
929.653	4603.54
929.962	4502.75
930.271	4512.69
930.581	4512.69
930.89	4460.49
931.199	4450.32
931.508	4497.1
931.817	4431.56
932.125	4431.56
932.434	4418.68
932.743	4352.24
933.051	4299.36
933.36	4347.5
933.669	4309.31
933.977	4328.52
934.286	4288.29
934.594	4253.72
934.902	4219.14
935.21	4230.89
935.519	4253.26
935.827	4204.23
936.135	4160.61
936.443	4172.36
936.751	4119.71
937.059	4161.51
937.367	4156.32
937.674	4069.31
937.982	4100.73
938.29	4042.2
938.597	4072.7
938.905	4020.05
939.213	3997
939.52	3936.89
939.827	3957.23
940.135	3994.74
940.442	3967.4
940.749	3929.2
941.056	3965.14
941.363	3891.92
941.67	3900.96
941.977	3838.13
942.284	3829.55
942.591	3824.12
942.898	3818.93
943.205	3802.88
943.511	3782.09
943.818	3813.73
944.125	3786.38
944.431	3744.8
944.738	3730.34
945.044	3738.02
945.35	3653.05
945.657	3666.16
945.963	3643.79
946.269	3623.68
946.575	3609.89
946.881	3569.21
947.187	3598.37
947.493	3562.89
947.799	3596.11
948.105	3513.62
948.41	3530.12
948.716	3532.15
949.022	3490.12
949.327	3510.01
949.633	3456.45
949.938	3443.57
950.244	3435.43
950.549	3420.29
950.854	3415.77
951.16	3386.85
951.465	3379.61
951.77	3388.88
952.075	3382.55
952.38	3338.26
952.685	3321.76
952.99	3349.11
953.294	3303.23
953.599	3293.97
953.904	3312.05
954.209	3249.22
954.513	3285.15
954.818	3220.52
955.122	3245.38
955.426	3209.68
955.731	3168.32
956.035	3176.68
956.339	3184.37
956.643	3172.84
956.948	3161.99
957.252	3132.62
957.556	3097.59
957.86	3107.08
958.163	3123.12
958.467	3066.4
958.771	3086.29
959.075	3054.2
959.378	3060.07
959.682	3021.43
959.985	3042
960.289	3050.58
960.592	3000.19
960.896	2999.96
961.199	2995.44
961.502	2977.37
961.805	2945.73
962.108	2951.38
962.411	2900.08
962.714	2918.38
963.017	2889.91
963.32	2897.14
963.623	2902.79
963.926	2893.75
964.228	2839.97
964.531	2821.89
964.833	2817.6
965.136	2802.68
965.438	2792.74
965.741	2800.65
966.043	2768.33
966.345	2770.82
966.648	2758.84
966.95	2741.21
967.252	2710.93
967.554	2696.92
967.856	2733.53
968.158	2731.95
968.46	2679.29
968.761	2684.94
969.063	2640.88
969.365	2682.68
969.666	2661.67
969.968	2594.1
970.269	2618.96
970.571	2569.24
970.872	2588.22
971.174	2582.12
971.475	2593.19
971.776	2588.22
972.077	2536.7
972.378	2552.97
972.679	2526.08
972.98	2542.57
973.281	2513.2
973.582	2496.25
973.883	2504.16
974.183	2517.94
974.484	2493.08
974.785	2458.06
975.085	2448.79
975.386	2470.71
975.686	2433.65
975.986	2433.65
976.287	2430.49
976.587	2406.08
976.887	2404.5
977.187	2369.02
977.487	2354.33
977.787	2343.71
978.087	2364.73
978.387	2333.09
978.687	2347.33
978.987	2296.93
979.286	2307.1
979.586	2282.02
979.885	2315.01
980.185	2294.22
980.484	2255.35
980.784	2266.88
981.083	2237.27
981.382	2258.06
981.682	2246.76
981.981	2206.31
982.28	2220.55
982.579	2218.06
982.878	2183.04
983.177	2186.2
983.475	2152.98
983.774	2164.05
984.073	2159.76
984.372	2159.76
984.67	2120.44
984.969	2135.58
985.267	2161.79
985.566	2141.91
985.864	2097.84
986.162	2114.56
986.461	2086.32
986.759	2086.99
987.057	2079.08
987.355	2062.59
987.653	2041.12
987.951	2077.73
988.249	2049.48
988.547	2025.98
988.844	2017.16
989.142	1992.53
989.44	1980.33
989.737	1983.27
990.035	1997.73
990.332	1986.88
990.63	1978.07
990.927	1934.45
991.224	1983.04
991.521	1962.7
991.819	1917.51
992.116	1955.02
992.413	1884.96
992.71	1903.5
993.006	1916.83
993.303	1886.09
993.6	1851.52
993.897	1871.41
994.193	1867.79
994.49	1837.28
994.787	1820.11
995.083	1826.66
995.379	1852.2
995.676	1835.02
995.972	1811.97
996.268	1797.96
996.565	1848.36
996.861	1796.83
997.157	1747.57
997.453	1749.15
997.749	1743.95
998.044	1736.95
998.34	1767.45
998.636	1776.72
998.932	1726.1
999.227	1736.04
999.523	1721.35
999.818	1693.33
1000.114	1698.53
1000.409	1667.12
1000.704	1705.08
1001	1653.11
1001.295	1654.01
1001.59	1637.06
1001.885	1691.3
1002.18	1671.86
1002.475	1624.63
1002.77	1644.29
1003.065	1588.48
1003.359	1608.81
1003.654	1622.82
1003.949	1593.9
1004.243	1566.55
1004.538	1566.78
1004.832	1542.83
1005.127	1540.57
1005.421	1539.44
1005.715	1535.14
1006.009	1494.01
1006.304	1527.91
1006.598	1497.86
1006.892	1525.43
1007.186	1493.34
1007.48	1501.25
1007.773	1491.53
1008.067	1475.03
1008.361	1450.17
1008.655	1438.87
1008.948	1463.73
1009.242	1425.99
1009.535	1454.69
1009.829	1449.5
1010.122	1429.84
1010.415	1414.69
1010.708	1410.4
1011.001	1398.88
1011.295	1384.41
1011.588	1413.11
1011.881	1371.98
1012.173	1379.89
1012.466	1374.92
1012.759	1375.15
1013.052	1352.1
1013.344	1338.09
1013.637	1318.65
1013.93	1340.35
1014.222	1312.55
1014.514	1307.35
1014.807	1297.64
1015.099	1298.77
1015.391	1287.69
1015.683	1292.89
1015.976	1276.84
1016.268	1263.96
1016.56	1255.38
1016.851	1249.05
1017.143	1246.34
1017.435	1226.45
1017.727	1239.78
1018.018	1198.2
1018.31	1210.63
1018.602	1212.21
1018.893	1181.71
1019.185	1188.26
1019.476	1174.02
1019.767	1179.9
1020.058	1170.63
1020.35	1173.34
1020.641	1164.98
1020.932	1159.79
1021.223	1125.21
1021.514	1131.54
1021.804	1137.87
1022.095	1117.98
1022.386	1113.91
1022.677	1096.28
1022.967	1134.02
1023.258	1098.09
1023.548	1086.57
1023.839	1084.76
1024.129	1062.39
1024.419	1077.75
1024.709	1073.46
1025	1040.92
1025.29	1043.4
1025.58	1048.83
1025.87	1039.34
1026.16	1038.21
1026.449	1035.04
1026.739	1040.24
1027.029	1012.9
1027.319	981.71
1027.608	1020.81
1027.898	986.23
1028.187	1000.02
1028.477	983.52
1028.766	964.99
1029.055	977.19
1029.344	972.45
1029.634	959.11
1029.923	958.44
1030.212	950.98
1030.501	942.39
1030.79	930.41
1031.078	945.55
1031.367	925.89
1031.656	928.83
1031.945	898.78
1032.233	927.25
1032.522	907.82
1032.81	928.61
1033.099	917.08
1033.387	853.81
1033.675	883.63
1033.963	889.96
1034.251	857.87
1034.54	880.25
1034.828	857.19
1035.116	855.16
1035.403	863.97
1035.691	851.77
1035.979	838.44
1036.267	845.9
1036.554	812.9
1036.842	853.35
1037.129	823.52
1037.417	821.72
1037.704	824.65
1037.992	812.45
1038.279	813.81
1038.566	813.58
1038.853	813.58
1039.14	813.58
