Data from hue_320_FLMS001491_7.txt Node
Date: Mon Feb 06 15:46:37 GMT 2017
User: dcchb
Spectrometer: FLMS00149
Trigger mode: 0
Integration Time (sec): 2.000000E-2
Scans to average: 10
Electric dark correction enabled: true
Nonlinearity correction enabled: false
Boxcar width: 0
XAxis mode: Wavelengths
Number of Pixels in Spectrum: 2048
>>>>>Begin Spectral Data<<<<<
341.393	-4.12
341.776	-4.12
342.16	-4.12
342.543	-54.74
342.927	-69.21
343.31	-64.01
343.693	-80.28
344.077	-78.47
344.46	-61.98
344.843	-58.36
345.226	-39.15
345.61	-56.78
345.993	-33.05
346.376	-19.49
346.759	24.35
347.142	34.29
347.525	53.05
347.908	70.68
348.291	67.29
348.674	105.93
349.057	135.99
349.44	126.72
349.823	155.87
350.206	186.15
350.588	175.08
350.971	233.16
351.354	227.96
351.737	223.21
352.119	251.01
352.502	255.53
352.884	269.09
353.267	272.7
353.65	290.56
354.032	278.13
354.414	302.31
354.797	305.7
355.179	313.83
355.562	306.83
355.944	322.42
356.326	342.31
356.709	338.47
357.091	341.18
357.473	346.38
357.855	329.65
358.238	360.39
358.62	338.01
359.002	353.38
359.384	332.59
359.766	332.36
360.148	351.35
360.53	329.2
360.912	338.47
361.294	330.1
361.676	338.92
362.057	343.66
362.439	331.69
362.821	329.2
363.203	346.83
363.584	311.8
363.966	331.69
364.348	313.61
364.729	330.33
365.111	313.61
365.493	309.31
365.874	323.1
366.256	301.63
366.637	336.88
367.019	321.52
367.4	317.9
367.781	335.53
368.163	302.99
368.544	298.01
368.925	294.85
369.306	321.97
369.688	317.68
370.069	295.3
370.45	311.12
370.831	326.94
371.212	330.1
371.593	318.58
371.974	312.7
372.355	315.19
372.736	308.41
373.117	304.12
373.498	301.4
373.879	326.94
374.26	308.64
374.641	312.48
375.021	314.96
375.402	320.16
375.783	297.34
376.163	321.74
376.544	343.44
376.925	345.25
377.305	295.98
377.686	315.42
378.066	338.69
378.447	337.11
378.827	322.65
379.208	318.35
379.588	322.65
379.968	345.47
380.349	337.34
380.729	343.44
381.109	341.86
381.489	335.3
381.87	311.57
382.25	326.26
382.63	334.4
383.01	341.86
383.39	374.4
383.77	333.27
384.15	344.12
384.53	338.92
384.91	365.36
385.29	346.15
385.67	364.23
386.049	369.2
386.429	370.33
386.809	358.35
387.189	342.08
387.568	356.09
387.948	366.49
388.328	359.93
388.707	374.62
389.087	357.9
389.466	347.5
389.846	354.96
390.225	381.18
390.605	382.98
390.984	366.94
391.363	352.48
391.743	379.82
392.122	369.43
392.501	385.92
392.881	370.33
393.26	372.82
393.639	376.66
394.018	377.33
394.397	397.45
394.776	378.46
395.155	396.32
395.534	371.46
395.913	387.5
396.292	384.11
396.671	372.59
397.05	398.13
397.429	381.85
397.808	394.74
398.186	395.64
398.565	394.28
398.944	396.09
399.323	388.86
399.701	401.51
400.08	405.36
400.458	402.87
400.837	422.53
401.215	402.64
401.594	412.36
401.972	413.27
402.351	408.75
402.729	403.32
403.107	422.98
403.486	443.77
403.864	415.98
404.242	421.63
404.62	446.03
404.999	437.67
405.377	435.41
405.755	438.35
406.133	437.9
406.511	469.76
406.889	451.68
407.267	451.46
407.645	456.88
408.023	450.1
408.401	468.86
408.779	457.78
409.156	470.67
409.534	484.45
409.912	481.74
410.29	497.78
410.667	519.03
411.045	502.08
411.422	492.81
411.8	499.59
412.178	531.91
412.555	543.21
412.933	540.49
413.31	549.08
413.687	538.01
414.065	539.59
414.442	566.03
414.819	544.56
415.197	575.07
415.574	588.85
415.951	588.63
416.328	591.34
416.705	574.62
417.082	613.26
417.46	623.43
417.837	614.39
418.214	631.79
418.591	629.08
418.967	619.81
419.344	656.65
419.721	651.23
420.098	656.2
420.475	666.14
420.852	702.07
421.228	656.88
421.605	674.28
421.982	693.03
422.358	677.44
422.735	696.2
423.111	711.11
423.488	709.76
423.864	716.99
424.241	722.41
424.617	741.17
424.994	748.62
425.37	746.82
425.746	755.63
426.123	758.34
426.499	775.06
426.875	776.65
427.251	757.44
427.627	802.18
428.003	796.31
428.379	824.1
428.756	809.41
429.132	830.43
429.507	823.65
429.883	832.46
430.259	855.97
430.635	862.52
431.011	881.95
431.387	904.33
431.763	872.01
432.138	918.34
432.514	918.34
432.89	926.7
433.265	934.61
433.641	954.04
434.016	947.26
434.392	953.36
434.767	980.93
435.143	982.74
435.518	989.3
435.894	974.38
436.269	1032.01
436.644	1041.05
437.02	1048.5
437.395	1060.03
437.77	1050.76
438.145	1044.89
438.52	1080.82
438.895	1066.13
439.271	1078.11
439.646	1092.8
440.021	1100.93
440.395	1097.09
440.77	1114.04
441.145	1097.32
441.52	1139.35
441.895	1121.27
442.27	1147.71
442.645	1122.4
443.019	1145.9
443.394	1154.04
443.769	1163.53
444.143	1150.42
444.518	1195.84
444.892	1215.05
445.267	1145.22
445.641	1172.79
446.016	1199.23
446.39	1200.36
446.764	1202.17
447.139	1208.5
447.513	1198.78
447.887	1188.84
448.262	1210.76
448.636	1205.79
449.01	1203.53
449.384	1250.53
449.758	1250.31
450.132	1237.43
450.506	1263.41
450.88	1248.5
451.254	1268.84
451.628	1298.89
452.002	1290.31
452.376	1306.12
452.75	1321.72
453.123	1306.12
453.497	1340.7
453.871	1314.71
454.244	1361.72
454.618	1334.6
454.992	1358.1
455.365	1357.42
455.739	1361.04
456.112	1384.09
456.486	1397.87
456.859	1402.17
457.232	1435.16
457.606	1389.74
457.979	1406.23
458.352	1427.7
458.725	1444.2
459.099	1484.2
459.472	1493.92
459.845	1496.63
460.218	1511.09
460.591	1511.09
460.964	1482.16
461.337	1532.56
461.71	1553.57
462.083	1605.55
462.456	1563.74
462.829	1578.43
463.201	1607.58
463.574	1591.54
463.947	1640.35
464.32	1651.2
464.692	1660.69
465.065	1648.26
465.438	1655.04
465.81	1677.64
466.183	1694.81
466.555	1741.59
466.928	1742.04
467.3	1738.88
467.672	1751.08
468.045	1796.51
468.417	1789.5
468.789	1804.64
469.161	1789.73
469.534	1832.89
469.906	1865.66
470.278	1886.45
470.65	1871.98
471.022	1903.17
471.394	1915.6
471.766	1954.02
472.138	1940.23
472.51	2011.42
472.882	2020.68
473.253	2015.94
473.625	2011.42
473.997	2065.2
474.369	2060.45
474.74	2102.71
475.112	2134.35
475.484	2146.55
475.855	2187
476.227	2174.12
476.598	2242.6
476.97	2245.99
477.341	2290.5
477.713	2312.2
478.084	2302.26
478.455	2367.79
478.827	2379.32
479.198	2454.12
479.569	2440.33
479.94	2504.96
480.311	2481.69
480.682	2535.02
481.053	2568.24
481.424	2586.77
481.795	2642.13
482.166	2646.43
482.537	2665.86
482.908	2721.68
483.279	2729.36
483.65	2792.41
484.021	2818.63
484.391	2855.46
484.762	2836.71
485.133	2865.18
485.503	2921.67
485.874	2916.48
486.244	2988.11
486.615	3023.14
486.985	3023.82
487.356	3076.02
487.726	3098.85
488.097	3161.44
488.467	3141.56
488.837	3217.71
489.207	3237.37
489.578	3276.47
489.948	3345.39
490.318	3356.69
490.688	3338.16
491.058	3385.62
491.428	3398.05
491.798	3440.76
492.168	3481.21
492.538	3484.6
492.908	3562.34
493.278	3555.1
493.648	3578.83
494.017	3634.42
494.387	3627.42
494.757	3703.12
495.126	3690.47
495.496	3736.12
495.866	3732.05
496.235	3741.54
496.605	3765.27
496.974	3767.98
497.344	3839.84
497.713	3831.93
498.082	3860.41
498.452	3864.25
498.821	3882.55
499.19	3900.41
499.559	3937.69
499.928	3950.57
500.298	3952.16
500.667	4004.58
501.036	4003
501.405	4030.8
501.774	3978.82
502.143	4066.96
502.512	4075.77
502.88	4068.99
503.249	4088.88
503.618	4109.44
503.987	4168.87
504.356	4202.77
504.724	4174.97
505.093	4198.93
505.462	4198.48
505.83	4223.79
506.199	4258.59
506.567	4278.25
506.936	4222.66
507.304	4303.33
507.672	4323.67
508.041	4291.58
508.409	4339.94
508.777	4322.54
509.145	4357.8
509.514	4383.11
509.882	4404.8
510.25	4396.44
510.618	4422.2
510.986	4410.45
511.354	4468.75
511.722	4489.09
512.09	4489.32
512.458	4487.06
512.826	4473.05
513.193	4506.72
513.561	4531.12
513.929	4559.37
514.297	4599.14
514.664	4633.27
515.032	4593.5
515.4	4634.4
515.767	4689.76
516.135	4621.06
516.502	4660.61
516.869	4695.19
517.237	4685.7
517.604	4695.19
517.972	4708.07
518.339	4756.2
518.706	4743.55
519.073	4709.65
519.44	4751.46
519.808	4793.49
520.175	4809.08
520.542	4876.43
520.909	4822.19
521.276	4886.82
521.643	4867.84
522.009	4917.33
522.376	4926.14
522.743	4951.68
523.11	4967.27
523.477	5028.06
523.843	5005.91
524.21	5037.1
524.577	5041.17
524.943	5054.27
525.31	5110.77
525.676	5170.2
526.043	5124.55
526.409	5158.23
526.776	5198
527.142	5246.59
527.508	5201.39
527.874	5246.59
528.241	5287.04
528.607	5346.02
528.973	5353.7
529.339	5340.37
529.705	5410.42
530.071	5452.23
530.437	5430.31
530.803	5470.31
531.169	5528.16
531.535	5478.9
531.901	5568.16
532.267	5564.77
532.632	5599.8
532.998	5589.85
533.364	5628.27
533.73	5619
534.095	5693.58
534.461	5724.54
534.826	5762.73
535.192	5769.28
535.557	5779.9
535.923	5770.41
536.288	5794.82
536.653	5830.3
537.019	5824.42
537.384	5898.09
537.749	5902.39
538.114	5926.57
538.479	5958.66
538.845	5937.19
539.21	5926.12
539.575	6057.41
539.94	6022.61
540.305	6066.22
540.67	6050.18
541.034	6117.3
541.399	6144.64
541.764	6146
542.129	6183.06
542.494	6144.87
542.858	6218.54
543.223	6272.09
543.587	6268.48
543.952	6265.54
544.316	6324.52
544.681	6328.14
545.045	6351.64
545.41	6365.65
545.774	6441.58
546.138	6375.37
546.503	6528.59
546.867	6455.37
547.231	6475.71
547.595	6494.01
547.959	6573.33
548.324	6581.01
548.688	6548.47
549.052	6626.89
549.416	6616.49
549.779	6617.17
550.143	6639.54
550.507	6741.24
550.871	6717.28
551.235	6738.75
551.599	6828.01
551.962	6766.32
552.326	6819.2
552.689	6865.75
553.053	6881.34
553.417	6898.29
553.78	6942.59
554.143	6886.77
554.507	6930.16
554.87	6917.05
555.234	7048.8
555.597	6941.91
555.96	6981
556.323	7061.9
556.686	7069.36
557.05	7059.87
557.413	7059.42
557.776	7148.23
558.139	7211.05
558.502	7144.61
558.865	7184.61
559.228	7220.77
559.59	7244.95
559.953	7282.69
560.316	7278.4
560.679	7256.48
561.041	7344.61
561.404	7291.5
561.767	7452.85
562.129	7489.01
562.492	7463.48
562.854	7430.03
563.217	7484.27
563.579	7497.15
563.941	7485.62
564.304	7558.16
564.666	7629.12
565.028	7564.26
565.39	7623.47
565.753	7681.78
566.115	7662.79
566.477	7680.42
566.839	7691.27
567.201	7778.04
567.563	7697.82
567.925	7831.6
568.287	7863.92
568.648	7869.79
569.01	7905.72
569.372	8013.74
569.734	7947.53
570.095	8005.38
570.457	8026.63
570.819	8059.62
571.18	8082.22
571.542	8145.49
571.903	8191.37
572.265	8202.44
572.626	8274.53
572.987	8342.32
573.349	8354.3
573.71	8406.28
574.071	8477.91
574.432	8522.21
574.794	8635.65
575.155	8672.71
575.516	8677.46
575.877	8716.32
576.238	8825.93
576.599	8900.27
576.96	8937.11
577.32	8983.89
577.681	9105.24
578.042	9167.84
578.403	9206.71
578.763	9389.08
579.124	9469.98
579.485	9570.77
579.845	9653.25
580.206	9762.4
580.566	9844.43
580.927	9972.11
581.287	10124.42
581.648	10265.66
582.008	10394.25
582.368	10540.46
582.728	10784.52
583.089	10889.15
583.449	11015.47
583.809	11221.57
584.169	11367.78
584.529	11453.2
584.889	11818.62
585.249	12029.68
585.609	12108.78
585.969	12396.23
586.329	12575.88
586.688	12859.72
587.048	13052.03
587.408	13287.05
587.768	13517.1
588.127	13778.56
588.487	13953.25
588.846	14364.54
589.206	14561.37
589.565	14779.67
589.925	15154.35
590.284	15329.48
590.643	15644.28
591.003	16006.75
591.362	16404.94
591.721	16547.76
592.08	17014.19
592.44	17166.72
592.799	17564.23
593.158	17819.36
593.517	18161.95
593.876	18476.75
594.235	18780.24
594.593	19088.93
594.952	19410.51
595.311	19704.06
595.67	20012.75
596.029	20509.46
596.387	20826.97
596.746	21184.47
597.104	21413.17
597.463	21661.52
597.822	22086.82
598.18	22406.36
598.538	22648.84
598.897	23100.81
599.255	23200.92
599.613	23840.67
599.972	24079.31
600.33	24319.98
600.688	24593.2
601.046	24933.75
601.404	25401.76
601.762	25607.41
602.12	26077.45
602.478	26362.19
602.836	26611.67
603.194	26754.49
603.552	27099.8
603.91	27307.02
604.268	27697.07
604.625	27851.64
604.983	28260.67
605.341	28430.16
605.698	28835.57
606.056	29167.76
606.413	29437.59
606.771	29711.48
607.128	30016.78
607.485	30115.76
607.843	30423.55
608.2	30772.47
608.557	31148.05
608.914	31146.02
609.272	31565.44
609.629	31986.9
609.986	32110.06
610.343	32153.67
610.7	32844.73
611.057	32865.97
611.414	32970.38
611.771	33203.36
612.127	33512.06
612.484	33689.23
612.841	34029.78
613.198	34093.51
613.554	34315.88
613.911	34630.9
614.267	34736.21
614.624	34879.03
614.98	35013.94
615.337	35343.42
615.693	35525.11
616.05	35612.11
616.406	35909.06
616.762	35966.68
617.118	36097.75
617.475	36276.5
617.831	36551.75
618.187	36650.96
618.543	36797.62
618.899	37257.49
619.255	37190.83
619.611	37309.02
619.967	37537.26
620.323	37678.73
620.678	37638.95
621.034	37741.55
621.39	37917.82
621.746	38009.34
622.101	38422.44
622.457	38189.22
622.812	38550.57
623.168	38661.75
623.523	38674.86
623.879	39015.19
624.234	38705.59
624.589	38976.09
624.945	38998.47
625.3	39151
625.655	39195.52
626.01	39350.32
626.365	39461.96
626.72	39403.43
627.075	39558
627.43	39571.11
627.785	39526.59
628.14	39713.93
628.495	39812.23
628.85	39978.55
629.205	39757.54
629.559	40208.83
629.914	39912.34
630.269	39976.07
630.623	39968.84
630.978	39974.71
631.332	40146.46
631.687	40271.88
632.041	39996.63
632.396	40298.77
632.75	40134.03
633.104	40386
633.459	40137.87
633.813	40045.67
634.167	40205.44
634.521	40109.17
634.875	40382.38
635.229	40226.46
635.583	40197.08
635.937	40261.94
636.291	40203.86
636.645	40270.98
636.999	40140.58
637.352	40193.01
637.706	40132.45
638.06	40369.73
638.413	40277.75
638.767	40225.33
639.121	40342.84
639.474	40172.22
639.828	40187.59
640.181	40281.82
640.534	40299.9
640.888	40112.11
641.241	39983.52
641.594	40156.85
641.947	40217.87
642.301	40000.93
642.654	40200.02
643.007	40046.57
643.36	40053.81
643.713	40102.62
644.066	40091.54
644.419	39925.45
644.771	39884.32
645.124	39419.02
645.477	39266.93
645.83	39163.21
646.182	39021.52
646.535	38979.94
646.888	38966.38
647.24	38791.47
647.593	39108.75
647.945	39000.95
648.298	38746.72
648.65	38705.37
649.002	38778.58
649.355	38927.96
649.707	38856.77
650.059	38928.41
650.411	39477.55
650.763	39464.67
651.115	39849.74
651.467	39722.51
651.819	39749.63
652.171	39703.76
652.523	39638.68
652.875	39722.29
653.227	39411.79
653.578	39715.74
653.93	39721.61
654.282	39445.69
654.633	39390.77
654.985	39559.13
655.337	39510.77
655.688	39597.32
656.039	39728.16
656.391	39255.18
656.742	39362.07
657.094	39407.72
657.445	39518.45
657.796	39461.28
658.147	39493.14
658.498	39439.81
658.849	39529.98
659.2	39414.95
659.551	39266.93
659.902	39410.88
660.253	39271.91
660.604	39456.76
660.955	39179.03
661.306	39325.69
661.656	39263.77
662.007	39327.27
662.358	39231.91
662.708	39222.19
663.059	39266.71
663.409	38977.9
663.76	39339.93
664.11	39274.17
664.461	39310.32
664.811	39268.97
665.161	39173.83
665.511	39161.17
665.862	39177.67
666.212	39292.02
666.562	39295.18
666.912	39318.68
667.262	39155.75
667.612	39151.68
667.962	39222.19
668.312	39057.45
668.662	39321.4
669.011	39108.97
669.361	39178.57
669.711	39106.71
670.06	39064.45
670.41	39052.02
670.76	38964.79
671.109	39181.29
671.459	39071.68
671.808	38984.91
672.157	39004.79
672.507	38894.74
672.856	38948.52
673.205	39000.95
673.554	39053.83
673.904	38922.99
674.253	39058.58
674.602	38944.46
674.951	38470.57
675.3	38297.92
675.649	38879.15
675.998	38839.37
676.346	38770.22
676.695	38829.88
677.044	38441.87
677.393	38775.42
677.741	38738.13
678.09	38634.41
678.438	38529.55
678.787	38675.31
679.135	38734.97
679.484	38319.16
679.832	38517.12
680.181	38225.61
680.529	38348.99
680.877	38373.4
681.225	38207.75
681.573	38597.12
681.922	38195.78
682.27	38069.9
682.618	38141.31
682.966	37994.88
683.314	38152.39
683.661	37963.24
684.009	37908.55
684.357	37738.61
684.705	37700.87
685.053	37791.27
685.4	37785.16
685.748	37553.31
686.095	37582.68
686.443	37424.04
686.79	37269.25
687.138	37453.65
687.485	37480.99
687.832	37237.83
688.18	37326.87
688.527	37111.28
688.874	37146.31
689.221	37103.15
689.568	36836.94
689.915	36844.17
690.262	36947.9
690.609	36652.31
690.956	36761.24
691.303	36645.76
691.65	36453.22
691.997	36378.42
692.344	36271.31
692.69	36312.44
693.037	36203.74
693.383	35978.88
693.73	36067.92
694.077	35974.59
694.423	35982.95
694.769	35720.81
695.116	35710.64
695.462	35675.62
695.808	35500.25
696.155	35586.35
696.501	35298.22
696.847	35373.48
697.193	35094.61
697.539	35237.21
697.885	34937.1
698.231	34787.96
698.577	34892.36
698.923	34779.82
699.269	34733.72
699.614	34437
699.96	34481.97
700.306	34606.27
700.651	34248.31
700.997	34238.14
701.342	34126.5
701.688	34127.41
702.033	33927.19
702.379	33983.68
702.724	33858.49
703.069	33825.95
703.415	33397.48
703.76	33544.82
704.105	33551.15
704.45	33422.12
704.795	33345.51
705.14	33242.91
705.485	33164.95
705.83	32933.99
706.175	33104.61
706.52	33105.06
706.865	32946.42
707.209	32754.11
707.554	32674.34
707.899	32837.05
708.243	32677.28
708.588	32593.21
708.932	32323.84
709.277	32402.48
709.621	32397.28
709.966	32161.36
710.31	32208.81
710.654	31913.68
710.998	31980.57
711.342	32083.17
711.687	31995.94
712.031	31790.52
712.375	31638.43
712.719	31894.7
713.063	31657.42
713.407	31656.29
713.75	31559.79
714.094	31437.99
714.438	31424.43
714.782	31466.46
715.125	31208.61
715.469	31426.91
715.812	31197.77
716.156	31122.52
716.499	31023.08
716.843	31153.93
717.186	30854.5
717.53	31082.74
717.873	30947.6
718.216	30842.07
718.559	30843.88
718.902	30656.31
719.246	30707.84
719.589	30544
719.932	30409.54
720.275	30512.14
720.617	30394.4
720.96	30233.05
721.303	30330.45
721.646	30350.56
721.989	30063.33
722.331	30252.48
722.674	30153.05
723.016	30124.58
723.359	29998.02
723.701	29886.84
724.044	29915.77
724.386	29753.74
724.729	29844.13
725.071	29818.37
725.413	29708.31
725.755	29759.39
726.097	29671.71
726.439	29455.21
726.782	29429.68
727.124	29603.01
727.465	29313.52
727.807	29326.18
728.149	29330.25
728.491	29263.13
728.833	29186.97
729.175	29202.79
729.516	29165.5
729.858	29095.9
730.199	29069.46
730.541	28970.26
730.882	29002.12
731.224	28991.72
731.565	28827.66
731.906	28807.55
732.248	28811.62
732.589	28622.24
732.93	28602.81
733.271	28572.07
733.612	28728
733.953	28682.58
734.294	28595.58
734.635	28447.56
734.976	28519.19
735.317	28366.2
735.658	28343.38
735.999	28440.55
736.339	28310.61
736.68	28365.75
737.021	28276.26
737.361	28139.09
737.702	28282.14
738.042	28127.57
738.383	28017.96
738.723	28150.62
739.063	27913.11
739.404	28055.03
739.744	27967.34
740.084	27866.56
740.424	27834.24
740.764	27835.14
741.104	27875.82
741.444	27781.13
741.784	27727.12
742.124	27752.66
742.464	27621.59
742.804	27690.29
743.143	27563.29
743.483	27667.46
743.823	27441.03
744.162	27410.07
744.502	27448.04
744.841	27245.1
745.181	27449.62
745.52	27247.59
745.86	27237.65
746.199	27232.22
746.538	27172.79
746.877	27253.01
747.216	27164.65
747.556	27049.63
747.895	26918.33
748.234	26865.45
748.573	26925.11
748.911	26947.26
749.25	26811.44
749.589	26726.25
749.928	26739.58
750.267	26739.35
750.605	26705.68
750.944	26633.59
751.283	26539.58
751.621	26568.28
751.96	26296.43
752.298	26336.2
752.636	26428.4
752.975	26249.42
753.313	26105.7
753.651	26260.04
753.989	26173.04
754.327	26194.96
754.666	25967.4
755.004	25973.27
755.342	26102.99
755.679	26039.03
756.017	25737.35
756.355	25751.13
756.693	25566.95
757.031	25762.43
757.368	25652.83
757.706	25553.85
758.044	25500.97
758.381	25511.82
758.719	25390.01
759.056	25349.33
759.394	25328.09
759.731	25095.78
760.068	25130.36
760.405	24969.68
760.743	24981.43
761.08	25037.25
761.417	24821.44
761.754	24801.78
762.091	24769.69
762.428	24586.42
762.765	24475.91
763.102	24630.48
763.438	24406.53
763.775	24402.69
764.112	24380.55
764.449	24401.34
764.785	24239.53
765.122	24083.83
765.458	23957.05
765.795	24027.79
766.131	23854.91
766.467	23816.04
766.804	23609.49
767.14	23613.79
767.476	23604.07
767.812	23448.82
768.148	23506.22
768.485	23350.74
768.821	23221.03
769.157	23219.9
769.492	23179
769.828	23055.61
770.164	22789.4
770.5	22841.38
770.836	22876.18
771.171	22692.23
771.507	22721.15
771.842	22464.66
772.178	22534.94
772.513	22400.03
772.849	22383.99
773.184	22229.64
773.519	22282.52
773.855	22156.65
774.19	22021.74
774.525	22024
774.86	21940.16
775.195	21912.81
775.53	21758.47
775.865	21642.09
776.2	21498.14
776.535	21362.77
776.87	21385.6
777.205	21274.86
777.539	21214.07
777.874	21281.19
778.209	21094.53
778.543	21016.34
778.878	20913.74
779.212	20910.35
779.547	20648.89
779.881	20763.92
780.215	20559.18
780.55	20683.47
780.884	20502.46
781.218	20400.31
781.552	20500.2
781.886	20270.6
782.22	20252.97
782.554	20053.65
782.888	19991.96
783.222	19887.56
783.556	19878.52
783.889	19868.12
784.223	19642.59
784.557	19489.6
784.89	19711.97
785.224	19529.37
785.557	19443.95
785.891	19401.69
786.224	19382.48
786.558	19317.18
786.891	19238.31
787.224	19041.02
787.557	19003.29
787.891	18984.53
788.224	19023.4
788.557	18909.95
788.89	18789.28
789.223	18832.44
789.556	18646.68
789.888	18628.61
790.221	18595.39
790.554	18434.94
790.887	18398.33
791.219	18367.37
791.552	18318.56
791.884	18243.31
792.217	18150.2
792.549	18091.9
792.882	18073.14
793.214	17921.96
793.546	17914.5
793.879	17813.94
794.211	17662.53
794.543	17747.95
794.875	17664.34
795.207	17705.92
795.539	17592.7
795.871	17559.93
796.203	17441.74
796.535	17375.08
796.867	17340.73
797.198	17298.25
797.53	17312.71
797.862	17241.75
798.193	17199.27
798.525	17122.43
798.856	17116.1
799.188	16949.1
799.519	16941.64
799.85	16866.17
800.182	16740.52
800.513	16777.36
800.844	16674.53
801.175	16637.47
801.506	16682.89
801.837	16597.25
802.168	16517.48
802.499	16484.03
802.83	16375.33
803.161	16347.08
803.491	16307.09
803.822	16349.12
804.153	16292.85
804.483	16103.25
804.814	15994.1
805.145	16059.63
805.475	15950.71
805.805	15869.36
806.136	15962.01
806.466	15848.34
806.796	15839.53
807.126	15781.68
807.457	15685.18
807.787	15738.06
808.117	15648.35
808.447	15549.82
808.777	15519.54
809.107	15519.99
809.436	15489.48
809.766	15479.76
810.096	15330.16
810.426	15337.39
810.755	15352.99
811.085	15214.01
811.414	15194.57
811.744	15118.64
812.073	15087.23
812.403	15114.12
812.732	15078.19
813.061	15011.07
813.39	14914.81
813.719	14892.89
814.049	14950.96
814.378	14884.07
814.707	14823.06
815.036	14787.13
815.365	14682.95
815.693	14586.9
816.022	14675.49
816.351	14563.63
816.68	14515.49
817.008	14574.48
817.337	14421.71
817.665	14428.26
817.994	14438.66
818.322	14390.98
818.651	14366.12
818.979	14288.16
819.307	14322.5
819.636	14267.59
819.964	14214.49
820.292	14262.85
820.62	14180.81
820.948	14125.67
821.276	14101.27
821.604	14162.73
821.932	14120.02
822.259	14143.53
822.587	14061.04
822.915	14046.35
823.243	14163.64
823.57	14035.73
823.898	14125.67
824.225	13981.72
824.553	14016.3
824.88	14113.47
825.207	14109.18
825.535	14016.3
825.862	14045.45
826.189	14077.31
826.516	14042.29
826.843	14099.46
827.17	14097.2
827.497	14067.82
827.824	14029.41
828.151	14137.65
828.478	14028.28
828.805	14034.38
829.131	14048.16
829.458	13937.88
829.785	13966.58
830.111	13959.35
830.438	13989.41
830.764	14053.36
831.09	14046.81
831.417	13928.39
831.743	13986.02
832.069	14032.12
832.395	13920.93
832.722	13963.87
833.048	13841.61
833.374	13943.31
833.7	13798.22
834.026	13830.31
834.351	13883.87
834.677	13846.13
835.003	13863.53
835.329	13884.1
835.654	13850.65
835.98	13745.57
836.306	13780.82
836.631	13677.32
836.956	13862.63
837.282	13739.92
837.607	13671.45
837.932	13647.95
838.258	13638.23
838.583	13571.56
838.908	13526.82
839.233	13632.35
839.558	13551.9
839.883	13556.2
840.208	13466.48
840.533	13493.6
840.858	13447.95
841.182	13530.44
841.507	13489.98
841.832	13347.39
842.156	13361.63
842.481	13339.93
842.805	13296.77
843.13	13289.99
843.454	13219.71
843.778	13255.87
844.103	13213.61
844.427	13122.99
844.751	13188.75
845.075	13139.49
845.399	13033.73
845.723	12996.21
846.047	12985.82
846.371	12897.23
846.695	12949.43
847.019	12748.53
847.343	12782.43
847.666	12708.76
847.99	12596
848.313	12613.62
848.637	12528.43
848.96	12518.71
849.284	12444.14
849.607	12309.68
849.931	12341.31
850.254	12290.92
850.577	12230.58
850.9	12116.46
851.223	12064.71
851.546	12029.46
851.869	12003.47
852.192	12135.22
852.515	11884.15
852.838	11906.98
853.161	11863.13
853.483	11796.7
853.806	11779.29
854.129	11713.99
854.451	11721.22
854.774	11608
855.096	11625.17
855.419	11559.64
855.741	11516.48
856.063	11480.32
856.385	11453.2
856.708	11507.44
857.03	11315.58
857.352	11357.84
857.674	11303.6
857.996	11278.97
858.318	11294.79
858.64	11245.75
858.961	11241.68
859.283	11169.37
859.605	11064.74
859.926	11079.65
860.248	11087.56
860.57	10964.85
860.891	11036.72
861.212	10958.3
861.534	10972.31
861.855	10998.98
862.176	10981.12
862.498	10925.08
862.819	10892.99
863.14	10869.49
863.461	10825.2
863.782	10805.08
864.103	10809.83
864.424	10725.54
864.745	10780.68
865.065	10725.99
865.386	10709.94
865.707	10656.84
866.027	10707.68
866.348	10638.99
866.668	10702.26
866.989	10539.55
867.309	10538.88
867.63	10539.33
867.95	10573.22
868.27	10485.54
868.59	10520.12
868.91	10509.27
869.23	10452.32
869.55	10390.86
869.87	10518.76
870.19	10446.67
870.51	10439.89
870.83	10434.25
871.15	10388.82
871.469	10333.91
871.789	10313.8
872.109	10389.5
872.428	10253.01
872.748	10326.45
873.067	10292.33
873.386	10343.17
873.706	10290.07
874.025	10205.32
874.344	10204.65
874.663	10249.84
874.982	10188.83
875.301	10097.76
875.62	10106.12
875.939	10102.5
876.258	10129.62
876.577	10019.57
876.896	10088.72
877.214	10022.96
877.533	10071.77
877.852	10034.03
878.17	10019.12
878.489	10044.2
878.807	10012.56
879.125	9953.81
879.444	9983.41
879.762	9899.8
880.08	9866.35
880.398	9840.81
880.716	9903.64
881.034	9842.17
881.352	9826.35
881.67	9895.73
881.988	9717.43
882.306	9732.79
882.624	9782.29
882.941	9722.17
883.259	9651.89
883.577	9642.85
883.894	9595.4
884.212	9635.85
884.529	9646.47
884.846	9624.55
885.164	9592.23
885.481	9535.51
885.798	9519.47
886.115	9486.02
886.432	9505.91
886.75	9491.45
887.067	9421.84
887.383	9421.39
887.7	9444.44
888.017	9351.34
888.334	9360.6
888.651	9289.42
888.967	9301.39
889.284	9255.29
889.6	9189.31
889.917	9140.72
890.233	9205.13
890.55	9123.09
890.866	9187.72
891.182	9188.18
891.498	9098.46
891.815	9101.85
892.131	8982.98
892.447	9004.23
892.763	8996.09
893.079	9004.9
893.395	8929.65
893.71	8939.37
894.026	8874.29
894.342	8840.84
894.657	8790.67
894.973	8837.23
895.289	8721.3
895.604	8783.89
895.92	8705.03
896.235	8691.24
896.55	8644.01
896.865	8617.34
897.181	8620.28
897.496	8620.96
897.811	8575.09
898.126	8508.87
898.441	8484.92
898.756	8415.09
899.071	8422.32
899.386	8394.07
899.7	8358.59
900.015	8321.76
900.33	8267.75
900.644	8286.96
900.959	8262.33
901.273	8178.49
901.588	8157.92
901.902	8218.94
902.216	8134.64
902.531	8067.98
902.845	8036.12
903.159	8079.05
903.473	8013.97
903.787	7982.56
904.101	7907.08
904.415	7923.35
904.729	7858.95
905.042	7851.71
905.356	7790.02
905.67	7749.34
905.984	7799.74
906.297	7783.24
906.611	7698.27
906.924	7711.15
907.237	7701.66
907.551	7638.39
907.864	7548.9
908.177	7626.64
908.491	7575.56
908.804	7511.61
909.117	7378.28
909.43	7363.37
909.743	7436.36
910.056	7380.09
910.368	7374.44
910.681	7269.58
910.994	7287.66
911.307	7232.52
911.619	7237.49
911.932	7261
912.244	7176.25
912.557	7174.67
912.869	7117.04
913.181	7070.04
913.494	7090.38
913.806	7012.19
914.118	7018.74
914.43	6956.82
914.742	6940.33
915.054	6953.88
915.366	6916.37
915.678	6856.49
915.99	6836.6
916.302	6813.1
916.613	6767
916.925	6775.36
917.236	6766.55
917.548	6690.39
917.859	6677.96
918.171	6608.13
918.482	6654.23
918.794	6578.75
919.105	6580.34
919.416	6516.38
919.727	6484.07
920.038	6491.52
920.349	6432.99
920.66	6405.65
920.971	6357.52
921.282	6396.84
921.593	6313.9
921.903	6323.17
922.214	6292.43
922.525	6231.87
922.835	6268.93
923.146	6234.58
923.456	6183.28
923.767	6113.46
924.077	6174.24
924.387	6115.71
924.697	6076.85
925.008	6061.48
925.318	6034.59
925.628	6093.57
925.938	5948.94
926.248	5941.03
926.558	5882.95
926.867	5929.51
927.177	5827.81
927.487	5847.25
927.796	5797.08
928.106	5783.75
928.416	5767.93
928.725	5721.83
929.034	5729.96
929.344	5715.27
929.653	5669.85
929.962	5647.25
930.271	5596.41
930.581	5589.85
930.89	5616.74
931.199	5568.84
931.508	5532.91
931.817	5524.09
932.125	5515.5
932.434	5499.46
932.743	5450.2
933.051	5409.07
933.36	5414.04
933.669	5372.91
933.977	5348.28
934.286	5307.83
934.594	5291.1
934.902	5250.65
935.21	5242.97
935.519	5267.38
935.827	5187.15
936.135	5215.85
936.443	5086.36
936.751	5094.05
937.059	5113.03
937.367	5112.13
937.674	5095.63
937.982	5115.74
938.29	5029.42
938.597	4987.83
938.905	5020.83
939.213	4939.02
939.52	4947.84
939.827	4916.65
940.135	4901.96
940.442	4866.26
940.749	4857.89
941.056	4871.23
941.363	4785.81
941.67	4775.86
941.977	4794.17
942.284	4759.82
942.591	4785.13
942.898	4711.23
943.205	4720.5
943.511	4668.75
943.818	4658.13
944.125	4654.28
944.431	4694.74
944.738	4606.38
945.044	4592.37
945.35	4532.93
945.657	4540.39
945.963	4492.93
946.269	4516.21
946.575	4558.69
946.881	4489.32
947.187	4441.63
947.493	4433.27
947.799	4393.95
948.105	4420.17
948.41	4360.73
948.716	4332.26
949.022	4377
949.327	4334.07
949.633	4307.85
949.938	4245.71
950.244	4287.97
950.549	4254.52
950.854	4240.06
951.16	4181.3
951.465	4166.84
951.77	4174.3
952.075	4111.47
952.38	4131.81
952.685	4149.44
952.99	4089.78
953.294	4096.33
953.599	4032.38
953.904	4082.55
954.209	4040.74
954.513	3993.06
954.818	4007.75
955.122	3980.18
955.426	3987.41
955.731	3943.57
956.035	3923.91
956.339	3912.16
956.643	3916.45
956.948	3838.03
957.252	3866.96
957.556	3836.9
957.86	3831.71
958.163	3804.59
958.467	3770.01
958.771	3803.91
959.075	3746.06
959.378	3741.77
959.682	3713.29
959.985	3733.86
960.289	3678.94
960.592	3725.5
960.896	3652.73
961.199	3617.93
961.502	3672.39
961.805	3625.16
962.108	3586.97
962.411	3595.33
962.714	3562.11
963.017	3548.1
963.32	3574.09
963.623	3543.81
963.926	3523.47
964.228	3496.35
964.531	3444.37
964.833	3471.94
965.136	3485.5
965.438	3382.68
965.741	3427.88
966.043	3388.1
966.345	3380.87
966.648	3391.49
966.95	3354.43
967.252	3321.44
967.554	3287.77
967.856	3331.38
968.158	3290.93
968.46	3253.64
968.761	3263.36
969.063	3239.41
969.365	3237.15
969.666	3258.16
969.968	3180.42
970.269	3190.59
970.571	3222.23
970.872	3185.85
971.174	3175.45
971.475	3188.11
971.776	3137.49
972.077	3135
972.378	3126.87
972.679	3098.39
972.98	3094.55
973.281	3038.28
973.582	3089.81
973.883	3046.87
974.183	3031.95
974.484	3024.5
974.785	3020.2
975.085	2965.97
975.386	2960.09
975.686	2976.14
975.986	2919.87
976.287	2933.88
976.587	2945.63
976.887	2929.13
977.187	2909.02
977.487	2888.46
977.787	2859.3
978.087	2841.68
978.387	2812.52
978.687	2871.51
978.987	2814.11
979.286	2801.45
979.586	2766.65
979.885	2776.37
980.185	2783.15
980.484	2754.9
980.784	2728.91
981.083	2736.37
981.382	2740.21
981.682	2727.56
981.981	2695.24
982.28	2687.1
982.579	2677.84
982.878	2668.8
983.177	2670.83
983.475	2635.13
983.774	2649.82
984.073	2635.58
984.372	2596.26
984.67	2616.37
984.969	2590.16
985.267	2592.42
985.566	2549.03
985.864	2537.96
986.162	2532.31
986.461	2537.5
986.759	2524.4
987.057	2523.72
987.355	2494.79
987.653	2463.38
987.951	2452.08
988.249	2440.56
988.547	2445.53
988.844	2415.93
989.142	2445.53
989.44	2403.72
989.737	2403.04
990.035	2355.36
990.332	2391.75
990.63	2362.82
990.927	2379.54
991.224	2360.11
991.521	2351.75
991.819	2309.26
992.116	2298.64
992.413	2304.74
992.71	2293.22
993.006	2284.86
993.303	2275.59
993.6	2260.68
993.897	2247.34
994.193	2246.66
994.49	2244.18
994.787	2229.04
995.083	2220.22
995.379	2216.38
995.676	2185.65
995.972	2201.69
996.268	2156.95
996.565	2191.75
996.861	2128.02
997.157	2129.15
997.453	2141.58
997.749	2105.2
998.044	2089.15
998.34	2112.2
998.636	2094.8
998.932	2077.18
999.227	2061.13
999.523	2067.91
999.818	2060.68
1000.114	2030.62
1000.409	2007.12
1000.704	2048.25
1001	2022.26
1001.295	2017.74
1001.59	1990.17
1001.885	2006.9
1002.18	1955.15
1002.475	1943.4
1002.77	1937.29
1003.065	1908.82
1003.359	1933.9
1003.654	1926.9
1003.949	1907.24
1004.243	1897.97
1004.538	1869.95
1004.832	1897.29
1005.127	1842.15
1005.421	1853.23
1005.715	1834.92
1006.009	1817.97
1006.304	1833.79
1006.598	1799.44
1006.892	1802.16
1007.186	1779.56
1007.48	1771.42
1007.773	1756.51
1008.067	1736.17
1008.361	1763.06
1008.655	1752.89
1008.948	1744.3
1009.242	1735.94
1009.535	1701.37
1009.829	1699.33
1010.122	1717.41
1010.415	1693.23
1010.708	1686.45
1011.001	1688.94
1011.295	1665.89
1011.588	1656.62
1011.881	1601.26
1012.173	1631.54
1012.466	1598.32
1012.759	1614.36
1013.052	1616.4
1013.344	1582.27
1013.637	1577.3
1013.93	1562.84
1014.222	1580.47
1014.514	1558.77
1014.807	1528.26
1015.099	1542.5
1015.391	1558.32
1015.683	1525.33
1015.976	1514.93
1016.268	1517.42
1016.56	1471.54
1016.851	1483.75
1017.143	1491.2
1017.435	1458.89
1017.727	1469.06
1018.018	1469.28
1018.31	1456.63
1018.602	1440.36
1018.893	1431.77
1019.185	1399.68
1019.476	1417.53
1019.767	1413.92
1020.058	1367.14
1020.35	1395.84
1020.641	1349.51
1020.932	1383.86
1021.223	1366.01
1021.514	1335.95
1021.804	1348.16
1022.095	1331.66
1022.386	1306.58
1022.677	1308.16
1022.967	1279.91
1023.258	1290.31
1023.548	1284.88
1023.839	1294.37
1024.129	1274.71
1024.419	1271.55
1024.709	1263.19
1025	1238.1
1025.29	1241.04
1025.58	1226.13
1025.87	1228.61
1026.16	1218.22
1026.449	1228.39
1026.739	1208.95
1027.029	1195.17
1027.319	1192.68
1027.608	1189.06
1027.898	1194.04
1028.187	1174.15
1028.477	1159.69
1028.766	1170.99
1029.055	1127.82
1029.344	1124.66
1029.634	1110.42
1029.923	1108.84
1030.212	1105.9
1030.501	1090.31
1030.79	1098.9
1031.078	1114.04
1031.367	1071.1
1031.656	1087.6
1031.945	1073.81
1032.233	1037.2
1032.522	1050.54
1032.81	1044.44
1033.099	1048.73
1033.387	1059.35
1033.675	1027.71
1033.963	1013.7
1034.251	1011.67
1034.54	1005.11
1034.828	1003.31
1035.116	989.3
1035.403	1002.18
1035.691	974.61
1035.979	979.35
1036.267	985.23
1036.554	936.64
1036.842	969.18
1037.129	940.94
1037.417	936.87
1037.704	938.45
1037.992	927.38
1038.279	934.16
1038.566	911.11
1038.853	911.11
1039.14	911.11
