Data from hue_22_FLMS001491_00054.txt Node
Date: Tue Feb 07 17:10:19 GMT 2017
User: dcchb
Spectrometer: FLMS00149
Trigger mode: 0
Integration Time (sec): 2.000000E-2
Scans to average: 10
Electric dark correction enabled: true
Nonlinearity correction enabled: false
Boxcar width: 0
XAxis mode: Wavelengths
Number of Pixels in Spectrum: 2048
>>>>>Begin Spectral Data<<<<<
341.393	-4.65
341.776	-4.65
342.16	-4.65
342.543	-48.49
342.927	-67.02
343.31	-83.51
343.693	-74.48
344.077	-69.05
344.46	-59.11
344.843	-50.75
345.226	-46.68
345.61	-45.32
345.993	-8.94
346.376	5.52
346.759	11.62
347.142	21.79
347.525	44.84
347.908	75.13
348.291	90.94
348.674	86.2
349.057	101.79
349.44	142.47
349.823	111.73
350.206	176.59
350.588	200.32
350.971	193.99
351.354	237.38
351.737	232.41
352.119	248.45
352.502	264.72
352.884	294.33
353.267	281
353.65	284.61
354.032	266.98
354.414	299.98
354.797	312.18
355.179	323.71
355.562	319.64
355.944	325.97
356.326	323.48
356.709	356.25
357.091	340.2
357.473	339.07
357.855	330.49
358.238	331.62
358.62	328.9
359.002	331.39
359.384	325.06
359.766	346.98
360.148	337.72
360.53	355.57
360.912	334.33
361.294	317.83
361.676	338.62
362.057	329.13
362.439	332.52
362.821	311.96
363.203	326.87
363.584	360.99
363.966	298.62
364.348	303.14
364.729	293.65
365.111	334.55
365.493	324.38
365.874	306.76
366.256	328.68
366.637	319.19
367.019	317.6
367.4	340.88
367.781	323.48
368.163	328.68
368.544	307.89
368.925	321.22
369.306	326.87
369.688	332.75
370.069	313.99
370.45	313.99
370.831	309.02
371.212	337.27
371.593	300.66
371.974	316.02
372.355	337.94
372.736	332.97
373.117	302.92
373.498	330.71
373.879	304.72
374.26	312.41
374.641	306.08
375.021	306.31
375.402	309.24
375.783	332.75
376.163	338.4
376.544	327.55
376.925	358.51
377.305	304.72
377.686	339.98
378.066	326.87
378.447	349.02
378.827	336.59
379.208	342.01
379.588	316.7
379.968	332.07
380.349	347.43
380.729	351.05
381.109	341.11
381.489	343.59
381.87	328.23
382.25	343.82
382.63	344.04
383.01	333.88
383.39	335.68
383.77	339.98
384.15	343.14
384.53	335.91
384.91	354.21
385.29	338.17
385.67	354.21
386.049	360.54
386.429	360.32
386.809	353.54
387.189	380.43
387.568	352.41
387.948	381.78
388.328	363.48
388.707	350.37
389.087	377.49
389.466	383.37
389.846	359.19
390.225	345.63
390.605	372.97
390.984	367.09
391.363	383.14
391.743	357.6
392.122	369.81
392.501	345.63
392.881	382.69
393.26	377.26
393.639	398.28
394.018	398.05
394.397	384.72
394.776	374.78
395.155	387.21
395.534	388.34
395.913	370.94
396.292	386.76
396.671	393.53
397.05	392.63
397.429	383.14
397.808	397.83
398.186	392.18
398.565	374.1
398.944	398.73
399.323	386.3
399.701	409.58
400.08	396.02
400.458	409.58
400.837	395.12
401.215	404.83
401.594	428.79
401.972	429.24
402.351	405.96
402.729	422.91
403.107	393.76
403.486	426.75
403.864	436.7
404.242	439.18
404.62	414.1
404.999	420.2
405.377	428.11
405.755	428.56
406.133	431.05
406.511	449.8
406.889	428.11
407.267	438.05
407.645	448.9
408.023	426.08
408.401	434.89
408.779	438.28
409.156	433.99
409.534	440.54
409.912	445.06
410.29	434.66
410.667	470.37
411.045	460.65
411.422	461.78
411.8	471.5
412.178	485.74
412.555	448.22
412.933	483.7
413.31	473.98
413.687	483.48
414.065	481.44
414.442	485.06
414.819	487.32
415.197	488.22
415.574	511.95
415.951	481.89
416.328	495.68
416.705	476.47
417.082	502.91
417.46	488.9
417.837	497.03
418.214	522.12
418.591	502.46
418.967	527.09
419.344	508.33
419.721	536.13
420.098	529.12
420.475	541.33
420.852	536.58
421.228	546.53
421.605	539.29
421.982	539.29
422.358	539.29
422.735	525.51
423.111	540.42
423.488	556.92
423.864	544.49
424.241	565.06
424.617	554.43
424.994	557.15
425.37	564.83
425.746	571.38
426.123	571.16
426.499	568.45
426.875	574.1
427.251	589.24
427.627	602.34
428.003	596.92
428.379	599.18
428.756	602.12
429.132	602.57
429.507	616.81
429.883	588.33
430.259	627.43
430.635	630.14
431.011	652.06
431.387	646.18
431.763	645.05
432.138	637.37
432.514	669.69
432.89	633.08
433.265	638.73
433.641	664.71
434.016	674.21
434.392	669.91
434.767	693.87
435.143	692.96
435.518	702
435.894	690.25
436.269	726.18
436.644	711.94
437.02	716.24
437.395	703.13
437.77	729.57
438.145	751.94
438.52	716.46
438.895	740.19
439.271	733.64
439.646	726.18
440.021	767.08
440.395	743.81
440.77	755.79
441.145	762.79
441.52	758.5
441.895	776.58
442.27	777.93
442.645	790.13
443.019	788.55
443.394	775.45
443.769	791.49
444.143	782.9
444.518	808.89
444.892	795.11
445.267	793.52
445.641	818.16
446.016	812.28
446.39	805.5
446.764	819.74
447.139	817.93
447.513	828.33
447.887	840.98
448.262	851.83
448.636	828.78
449.01	852.28
449.384	820.19
449.758	872.17
450.132	854.77
450.506	874.43
450.88	878.27
451.254	883.01
451.628	906.52
452.002	886.4
452.376	909.23
452.75	913.97
453.123	950.13
453.497	925.05
453.871	948.1
454.244	967.31
454.618	932.28
454.992	956.68
455.365	976.57
455.739	982.45
456.112	992.16
456.486	1003.91
456.859	1018.83
457.232	1006.63
457.606	1061.31
457.979	1023.35
458.352	1032.61
458.725	1037.81
459.099	1069.22
459.472	1066.51
459.845	1103.35
460.218	1092.95
460.591	1112.39
460.964	1100.41
461.337	1151.26
461.71	1141.76
462.083	1167.3
462.456	1156.68
462.829	1191.48
463.201	1185.6
463.574	1215.66
463.947	1207.3
464.32	1213.4
464.692	1229.22
465.065	1200.75
465.438	1247.52
465.81	1292.27
466.183	1282.78
466.555	1298.37
466.928	1327.97
467.3	1318.71
467.672	1355.54
468.045	1375.43
468.417	1381.98
468.789	1399.16
469.161	1402.77
469.534	1441.87
469.906	1455.43
470.278	1462.21
470.65	1488.42
471.022	1503.79
471.394	1523.45
471.766	1538.82
472.138	1540.4
472.51	1589.44
472.882	1631.69
473.253	1625.59
473.625	1676.21
473.997	1712.82
474.369	1692.94
474.74	1744.01
475.112	1766.83
475.484	1805.02
475.855	1853.84
476.227	1850.9
476.598	1899.26
476.97	1908.98
477.341	1962.31
477.713	1969.99
478.084	1992.14
478.455	2031.46
478.827	2068.29
479.198	2136.99
479.569	2155.75
479.94	2186.93
480.311	2199.82
480.682	2270.32
481.053	2305.8
481.424	2369.53
481.795	2419.47
482.166	2426.02
482.537	2478.68
482.908	2502.18
483.279	2563.42
483.65	2622.4
484.021	2704.21
484.391	2720.48
484.762	2744.21
485.133	2768.84
485.503	2833.7
485.874	2873.47
486.244	2898.55
486.615	2978.55
486.985	3046.12
487.356	3099.9
487.726	3172.44
488.097	3207.02
488.467	3235.72
488.837	3297.87
489.207	3364.53
489.578	3400.91
489.948	3386.68
490.318	3478.43
490.688	3494.47
491.058	3564.75
491.428	3606.33
491.798	3661.02
492.168	3725.2
492.538	3748.47
492.908	3795.48
493.278	3885.65
493.648	3863.27
494.017	3929.94
494.387	3977.85
494.757	3997.96
495.126	4039.31
495.496	4063.95
495.866	4096.71
496.235	4151.85
496.605	4223.49
496.974	4201.34
497.344	4280.44
497.713	4283.15
498.082	4313.43
498.452	4348.01
498.821	4396.37
499.19	4418.97
499.559	4483.6
499.928	4496.93
500.298	4514.33
500.667	4568.34
501.036	4587.32
501.405	4647.66
501.774	4609.24
502.143	4717.49
502.512	4686.98
502.88	4752.52
503.249	4721.33
503.618	4749.58
503.987	4794.78
504.356	4898.05
504.724	4828.9
505.093	4875.22
505.462	4911.83
505.83	4928.78
506.199	4917.94
506.567	5010.36
506.936	5011.27
507.304	5076.35
507.672	5116.35
508.041	5164.93
508.409	5165.16
508.777	5200.64
509.145	5199.51
509.514	5249.23
509.882	5267.98
510.25	5262.33
510.618	5289.45
510.986	5308.89
511.354	5362.44
511.722	5443.8
512.09	5417.58
512.458	5381.65
512.826	5484.93
513.193	5514.08
513.561	5497.58
513.929	5542.55
514.297	5572.61
514.664	5544.36
515.032	5667.52
515.4	5651.7
515.767	5658.03
516.135	5672.72
516.502	5648.09
516.869	5758.82
517.237	5810.79
517.604	5754.52
517.972	5792.94
518.339	5863
518.706	5815.99
519.073	5853.73
519.44	5858.7
519.808	5934.18
520.175	5974.86
520.542	6009.21
520.909	6006.27
521.276	6036.78
521.643	6091.46
522.009	6106.38
522.376	6146.15
522.743	6171.01
523.11	6261.4
523.477	6236.32
523.843	6257.34
524.21	6332.81
524.577	6370.1
524.943	6382.76
525.31	6396.09
525.676	6463.43
526.043	6464.79
526.409	6548.4
526.776	6568.06
527.142	6621.17
527.508	6574.62
527.874	6627.5
528.241	6684.67
528.607	6741.62
528.973	6758.57
529.339	6775.51
529.705	6856.87
530.071	6820.94
530.437	6936.87
530.803	6977.09
531.169	7023.64
531.535	7025.22
531.901	7055.28
532.267	7109.97
532.632	7154.26
532.998	7164.43
533.364	7161.49
533.73	7130.98
534.095	7243.98
534.461	7238.78
534.826	7279.23
535.192	7340.02
535.557	7367.59
535.923	7384.99
536.288	7396.74
536.653	7377.76
537.019	7488.72
537.384	7493.69
537.749	7611.65
538.114	7559.22
538.479	7603.06
538.845	7629.28
539.21	7600.13
539.575	7619.11
539.94	7664.08
540.305	7725.09
540.67	7701.82
541.034	7755.6
541.399	7852.55
541.764	7788.59
542.129	7914.47
542.494	7920.34
542.858	7963.28
543.223	7938.65
543.587	7974.58
543.952	7969.61
544.316	8065.65
544.681	8115.37
545.045	8111.3
545.41	8179.09
545.774	8184.06
546.138	8227.23
546.503	8201.92
546.867	8267
547.231	8233.78
547.595	8329.6
547.959	8326.66
548.324	8382.93
548.688	8445.53
549.052	8468.35
549.416	8474.45
549.779	8461.35
550.143	8491.4
550.507	8538.18
550.871	8584.05
551.235	8609.82
551.599	8662.92
551.962	8624.96
552.326	8703.15
552.689	8744.95
553.053	8668.57
553.417	8713.09
553.78	8813.43
554.143	8801
554.507	8847.1
554.87	8909.47
555.234	8992.63
555.597	8960.54
555.96	8970.71
556.323	9052.52
556.686	9007.09
557.05	9120.09
557.413	9106.98
557.776	9119.41
558.139	9154.66
558.502	9222
558.865	9238.5
559.228	9292.06
559.59	9339.97
559.953	9342.9
560.316	9383.13
560.679	9409.79
561.041	9520.98
561.404	9489.57
561.767	9561.2
562.129	9521.66
562.492	9604.59
562.854	9588.77
563.217	9584.03
563.579	9679.39
563.941	9709.9
564.304	9751.03
564.666	9818.15
565.028	9804.36
565.39	9854.98
565.753	9890.23
566.115	9940.85
566.477	9958.48
566.839	9959.84
567.201	10035.99
567.563	10075.77
567.925	10158.93
568.287	10157.35
568.648	10135.2
569.01	10206.38
569.372	10292.94
569.734	10271.02
570.095	10322.77
570.457	10403.22
570.819	10363.22
571.18	10422.88
571.542	10556.88
571.903	10588.3
572.265	10573.61
572.626	10586.49
572.987	10648.41
573.349	10795.3
573.71	10769.76
574.071	10815.18
574.432	10846.82
574.794	10949.42
575.155	11040.03
575.516	11059.02
575.877	11147.6
576.238	11209.52
576.599	11275.06
576.96	11375.17
577.32	11384.66
577.681	11577.87
578.042	11653.8
578.403	11661.26
578.763	11757.53
579.124	11924.08
579.485	11998.88
579.845	12091.08
580.206	12176.73
580.566	12343.5
580.927	12423.73
581.287	12574.01
581.648	12660.33
582.008	12902.81
582.368	12912.3
582.728	13077.95
583.089	13317.49
583.449	13425.06
583.809	13630.7
584.169	13714.09
584.529	13866.4
584.889	14128.31
585.249	14340.74
585.609	14432.71
585.969	14774.63
586.329	14952.02
586.688	15151.11
587.048	15318.11
587.408	15461.84
587.768	15822.06
588.127	16142.5
588.487	16196.96
588.846	16587.69
589.206	16713.78
589.565	17018.41
589.925	17389.02
590.284	17589.92
590.643	17914.2
591.003	18212.73
591.362	18434.64
591.721	18662.21
592.08	18923.22
592.44	19259.48
592.799	19520.04
593.158	19755.29
593.517	20104.88
593.876	20446.57
594.235	20783.06
594.593	21063.73
594.952	21400.44
595.311	21645.18
595.67	21903.03
596.029	22467.76
596.387	22722.89
596.746	23077.91
597.104	23406.04
597.463	23627.73
597.822	24031.56
598.18	24178.67
598.538	24494.37
598.897	24991.76
599.255	25023.17
599.613	25639.65
599.972	25844.84
600.33	26151.28
600.688	26493.87
601.046	26794.87
601.404	27161.19
601.762	27399.15
602.12	27806.37
602.478	28166.36
602.836	28385.12
603.194	28599.8
603.552	28901.49
603.91	29182.38
604.268	29422.83
604.625	29619.89
604.983	30060.33
605.341	30265.52
605.698	30547.54
606.056	30964.48
606.413	31173.29
606.771	31575.99
607.128	31904.12
607.485	31883.1
607.843	32234.51
608.2	32505.46
608.557	32833.59
608.914	32906.8
609.272	33415.49
609.629	33751.98
609.986	33932.77
610.343	34114.91
610.7	34445.07
611.057	34533.2
611.414	34658.4
611.771	34968.67
612.127	35280.08
612.484	35319.62
612.841	35849.78
613.198	35840.74
613.554	35935.65
613.911	36373.61
614.267	36440.04
614.624	36590.55
614.98	36998
615.337	37220.14
615.693	37326.58
616.05	37390.53
616.406	37739.67
616.762	37753.91
617.118	37950.97
617.475	38207
617.831	38323.61
618.187	38579.65
618.543	38585.52
618.899	39098.96
619.255	38948
619.611	39099.86
619.967	39493.52
620.323	39638.38
620.678	39432.96
621.034	39514.31
621.39	39651.03
621.746	39722.9
622.101	40299.6
622.457	40031.59
622.812	40147.52
623.168	40492.59
623.523	40410.56
623.879	40759.03
624.234	40497.34
624.589	40760.38
624.945	40966.71
625.3	41024.56
625.655	41071.34
626.01	41066.14
626.365	41335.74
626.72	41356.07
627.075	41329.18
627.43	41396.98
627.785	41507.26
628.14	41615.95
628.495	41647.37
628.85	41575.95
629.205	41482.4
629.559	41827.02
629.914	41583.41
630.269	41778.44
630.623	41733.46
630.978	41724.65
631.332	42193.11
631.687	42122.83
632.041	41919.67
632.396	41999.45
632.75	41864.53
633.104	42107.24
633.459	41963.29
633.813	42020.24
634.167	42151.08
634.521	42164.87
634.875	42233.11
635.229	42185.43
635.583	41980.24
635.937	42062.5
636.291	42173.91
636.645	42117.86
636.999	42009.62
637.352	42170.97
637.706	42004.19
638.06	42180.68
638.413	42112.89
638.767	42094.59
639.121	42122.61
639.474	42116.73
639.828	42029.95
640.181	42060.69
640.534	42130.74
640.888	42089.39
641.241	42001.71
641.594	42010.52
641.947	42191.08
642.301	41932.56
642.654	42101.14
643.007	42111.53
643.36	42175.94
643.713	41954.02
644.066	42176.39
644.419	41771.88
644.771	41582.73
645.124	41351.1
645.477	41278.79
645.83	40947.95
646.182	40853.49
646.535	40785.47
646.888	41011.68
647.24	40754.06
647.593	41057.1
647.945	40898.01
648.298	40645.36
648.65	40637
649.002	40562.42
649.355	40779.14
649.707	40687.84
650.059	40942.3
650.411	41372.8
650.763	41383.42
651.115	41790.86
651.467	41602.85
651.819	41600.13
652.171	41610.76
652.523	41389.07
652.875	41565.11
653.227	41324.66
653.578	41748.38
653.93	41639.68
654.282	41372.8
654.633	41366.69
654.985	41570.53
655.337	41443.98
655.688	41436.07
656.039	41559.46
656.391	41201.05
656.742	41270.2
657.094	41367.15
657.445	41515.17
657.796	41299.58
658.147	41247.15
658.498	41416.86
658.849	41304.1
659.2	41363.53
659.551	41296.41
659.902	41453.25
660.253	41330.09
660.604	41355.62
660.955	41144.78
661.306	41326.02
661.656	41205.34
662.007	41324.89
662.358	41375.96
662.708	41227.49
663.059	41246.7
663.409	41039.7
663.76	41299.58
664.11	41316.3
664.461	41386.13
664.811	41286.47
665.161	41290.31
665.511	41124.44
665.862	41156.3
666.212	41172.12
666.562	41211.67
666.912	41123.76
667.262	41108.4
667.612	41186.81
667.962	41153.37
668.312	41149.75
668.662	41155.4
669.011	41104.1
669.361	41061.39
669.711	41104.33
670.06	41022.98
670.41	40989.76
670.76	41018.68
671.109	41192.69
671.459	41027.49
671.808	41021.85
672.157	41021.62
672.507	40832.47
672.856	40868.4
673.205	40829.31
673.554	40971.22
673.904	41030.21
674.253	41194.5
674.602	40814.39
674.951	40526.04
675.3	40325.82
675.649	40873.37
675.998	40854.84
676.346	40839.48
676.695	40851
677.044	40599.03
677.393	40773.72
677.741	40761.29
678.09	40617.11
678.438	40475.64
678.787	40694.4
679.135	40720.16
679.484	40516.55
679.832	40684.9
680.181	40298.02
680.529	40456.66
680.877	40205.82
681.225	40292.82
681.573	40537.79
681.922	40210.12
682.27	40102.55
682.618	40161.53
682.966	40093.51
683.314	40143.9
683.661	40035.88
684.009	39729.45
684.357	39809.45
684.705	39726.06
685.053	39811.26
685.4	39654.42
685.748	39632.96
686.095	39667.08
686.443	39452.62
686.79	39404.71
687.138	39516.12
687.485	39422.34
687.832	39364.94
688.18	39339.4
688.527	39038.62
688.874	39219.63
689.221	38984.61
689.568	38821.45
689.915	38756.14
690.262	38884.27
690.609	38795.01
690.956	38669.14
691.303	38587.11
691.65	38362.71
691.997	38411.29
692.344	38253.33
692.69	38268.92
693.037	38251.75
693.383	37884.3
693.73	38048.36
694.077	37635.49
694.423	37733.8
694.769	37711.2
695.116	37575.16
695.462	37496.06
695.808	37306.24
696.155	37547.13
696.501	37321.38
696.847	37198.67
697.193	36968.84
697.539	37071.89
697.885	36836.64
698.231	36811.56
698.577	36899.24
698.923	36733.82
699.269	36542.19
699.614	36362.31
699.96	36401.63
700.306	36422.87
700.651	36031.69
700.997	36158.92
701.342	36075.99
701.688	36065.37
702.033	35721.19
702.379	35826.95
702.724	35661.31
703.069	35729.33
703.415	35407.53
703.76	35514.19
704.105	35454.31
704.45	35378.6
704.795	35224.26
705.14	35052.74
705.485	35040.08
705.83	34964.15
706.175	34972.29
706.52	34840.99
706.865	34737.72
707.209	34797.83
707.554	34529.36
707.899	34579.53
708.243	34503.82
708.588	34506.31
708.932	34162.14
709.277	34155.36
709.621	34273.77
709.966	34065.19
710.31	33978.41
710.654	33789.04
710.998	33829.27
711.342	33758.53
711.687	33750.4
712.031	33672.89
712.375	33514.02
712.719	33553.79
713.063	33656.62
713.407	33449.84
713.75	33271.54
714.094	33292.56
714.438	33149.51
714.782	33229.06
715.125	33192.67
715.469	33202.84
715.812	32966.69
716.156	32820.93
716.499	32824.77
716.843	32897.76
717.186	32616.42
717.53	32719.01
717.873	32732.12
718.216	32659.81
718.559	32423.65
718.902	32285.58
719.246	32335.75
719.589	32313.83
719.932	32029.99
720.275	32131.68
720.617	32110.44
720.96	31971.69
721.303	31930.78
721.646	32053.27
721.989	31756.78
722.331	31954.96
722.674	31813.5
723.016	31816.21
723.359	31758.59
723.701	31875.19
724.044	31528.99
724.386	31371.7
724.729	31684.92
725.071	31468.65
725.413	31413.28
725.755	31444.24
726.097	31263.23
726.439	31248.09
726.782	31179.84
727.124	31321.31
727.465	31018.72
727.807	31065.27
728.149	30986.4
728.491	30943.92
728.833	31096
729.175	30859.17
729.516	30801.32
729.858	30781.44
730.199	30868.21
730.541	30758.84
730.882	30603.36
731.224	30936.46
731.565	30550.93
731.906	30541.67
732.248	30566.53
732.589	30490.82
732.93	30303.93
733.271	30352.07
733.612	30373.31
733.953	30356.14
734.294	30211.28
734.635	30282.47
734.976	30196.59
735.317	30135.13
735.658	30115.47
735.999	30180.77
736.339	29941.91
736.68	30093.09
737.021	30041.12
737.361	29809.03
737.702	29931.06
738.042	29812.2
738.383	29786.89
738.723	29785.53
739.063	29673.89
739.404	29606.33
739.744	29722.93
740.084	29555.03
740.424	29630.05
740.764	29612.2
741.104	29675.7
741.444	29511.87
741.784	29370.4
742.124	29343.06
742.464	29360.68
742.804	29247.01
743.143	29374.47
743.483	29277.07
743.823	29077.07
744.162	29134.93
744.502	29159.56
744.841	29004.99
745.181	29230.29
745.52	29130.41
745.86	28971.09
746.199	28986.46
746.538	28877.53
746.877	28971.77
747.216	28924.76
747.556	28903.29
747.895	28907.59
748.234	28679.12
748.573	28696.29
748.911	28602.51
749.25	28539.91
749.589	28437.77
749.928	28500.82
750.267	28593.7
750.605	28504.89
750.944	28342.4
751.283	28230.32
751.621	28260.6
751.96	28200.49
752.298	28189.87
752.636	28229.41
752.975	28153.26
753.313	27875.07
753.651	28071.45
753.989	27826.03
754.327	27942.19
754.666	27861.29
755.004	27900.83
755.342	27845.24
755.679	27736.09
756.017	27631.46
756.355	27640.95
756.693	27599.83
757.031	27542.88
757.368	27384.24
757.706	27379.72
758.044	27271.47
758.381	27470.79
758.719	27402.77
759.056	27236.67
759.394	27234.19
759.731	27067.18
760.068	26937.7
760.405	26804.59
760.743	26760.75
761.08	26884.59
761.417	26764.59
761.754	26668.1
762.091	26597.82
762.428	26554.2
762.765	26436.69
763.102	26419.74
763.438	26312.63
763.775	26216.36
764.112	26164.16
764.449	26239.86
764.785	26069.92
765.122	25839.42
765.458	25769.14
765.795	25770.04
766.131	25654.57
766.467	25669.03
766.804	25544.96
767.14	25428.81
767.476	25459.54
767.812	25256.61
768.148	25193.56
768.485	25259.32
768.821	25026.11
769.157	24987.01
769.492	24883.29
769.828	24958.31
770.164	24719
770.5	24604.2
770.836	24563.75
771.171	24456.63
771.507	24388.84
771.842	24255.73
772.178	24264.77
772.513	24106.81
772.849	24047.6
773.184	24029.52
773.519	23970.09
773.855	23783.65
774.19	23826.37
774.525	23658.01
774.86	23642.19
775.195	23661.4
775.53	23545.47
775.865	23293.5
776.2	23267.74
776.535	23008.76
776.87	23182.31
777.205	23076.1
777.539	22874.53
777.874	22985.94
778.209	22746.17
778.543	22711.59
778.878	22646.51
779.212	22503.24
779.547	22359.06
779.881	22500.3
780.215	22332.39
780.55	22261.89
780.884	22186.41
781.218	22051.95
781.552	22126.3
781.886	22002.91
782.22	21914.55
782.554	21881.56
782.888	21621.23
783.222	21564.96
783.556	21538.52
783.889	21479.53
784.223	21256.49
784.557	21227.11
784.89	21288.13
785.224	21171.75
785.557	21016.5
785.891	20942.6
786.224	20862.38
786.558	20957.06
786.891	20666.67
787.224	20699.89
787.557	20609.73
787.891	20572.67
788.224	20400.69
788.557	20343.74
788.89	20445.21
789.223	20396.85
789.556	20090.87
789.888	20156.63
790.221	20030.98
790.554	19961.83
790.887	19966.58
791.219	19814.49
791.552	19723.2
791.884	19607.72
792.217	19697.89
792.549	19611.11
792.882	19484.78
793.214	19369.76
793.546	19456.08
793.879	19319.14
794.211	19186.71
794.543	19226.49
794.875	19165.92
795.207	19228.97
795.539	19060.84
795.871	19096.77
796.203	18903.56
796.535	18671.02
796.867	18811.58
797.198	18801.19
797.53	18731.58
797.862	18516.45
798.193	18574.3
798.525	18422.21
798.856	18394.19
799.188	18277.13
799.519	18281.2
799.85	18167.76
800.182	18095.44
800.513	18192.16
800.844	17934.09
801.175	18118.27
801.506	18000.98
801.837	17987.42
802.168	17901.1
802.499	17803.7
802.83	17685.74
803.161	17670.59
803.491	17630.82
803.822	17595.79
804.153	17546.3
804.483	17422.69
804.814	17352.86
805.145	17402.58
805.475	17373.2
805.805	17199.87
806.136	17349.93
806.466	17279.87
806.796	17205.52
807.126	17152.19
807.457	16996.71
807.787	16983.16
808.117	16937.96
808.447	16864.06
808.777	16911.74
809.107	16838.98
809.436	16695.93
809.766	16707.23
810.096	16751.07
810.426	16546.56
810.755	16521.92
811.085	16534.81
811.414	16543.39
811.744	16383.62
812.073	16467.69
812.403	16322.83
812.732	16207.36
813.061	16295.94
813.39	16199.67
813.719	16124.19
814.049	16196.51
814.378	16109.73
814.707	16057.3
815.036	16034.93
815.365	15922.84
815.693	15799.68
816.022	15816.18
816.351	15714.94
816.68	15705.9
817.008	15772.57
817.337	15568.73
817.665	15528.05
817.994	15607.82
818.322	15564.21
818.651	15479.01
818.979	15489.86
819.307	15589.52
819.636	15513.82
819.964	15430.2
820.292	15421.16
820.62	15387.94
820.948	15294.16
821.276	15318.11
821.604	15348.4
821.932	15380.03
822.259	15383.88
822.587	15245.57
822.915	15325.35
823.243	15391.33
823.57	15215.52
823.898	15331.9
824.225	15222.07
824.553	15224.33
824.88	15172.36
825.207	15282.18
825.535	15198.34
825.862	15309.75
826.189	15173.03
826.516	15272.47
826.843	15211.9
827.17	15309.53
827.497	15227.5
827.824	15194.05
828.151	15276.08
828.478	15169.42
828.805	15255.06
829.131	15231.79
829.458	15195.86
829.785	15114.96
830.111	15197.44
830.438	15193.15
830.764	15183.2
831.09	15218.46
831.417	15091.45
831.743	15163.77
832.069	15185.69
832.395	15115.18
832.722	15099.59
833.048	15141.85
833.374	15106.82
833.7	15057.78
834.026	15063.43
834.351	15080.83
834.677	15102.75
835.003	14996.54
835.329	14993.15
835.654	15032.7
835.98	14972.36
836.306	14986.37
836.631	14881.29
836.956	14942.98
837.282	14912.25
837.607	14877
837.932	14847.62
838.258	14892.14
838.583	14760.39
838.908	14736.89
839.233	14799.03
839.558	14690.56
839.883	14617.12
840.208	14682.2
840.533	14593.39
840.858	14608.3
841.182	14579.83
841.507	14571.24
841.832	14537.34
842.156	14496.89
842.481	14450.34
842.805	14449.44
843.13	14368.76
843.454	14368.08
843.778	14335.99
844.103	14311.59
844.427	14260.51
844.751	14208.31
845.075	14204.47
845.399	14134.64
845.723	14067.07
846.047	14049
846.371	13937.81
846.695	13956.57
847.019	13917.02
847.343	13751.83
847.666	13693.75
847.99	13651.49
848.313	13690.81
848.637	13637.25
848.96	13557.71
849.284	13456.69
849.607	13461.21
849.931	13356.36
850.254	13283.14
850.577	13255.34
850.9	13156.36
851.223	13190.03
851.546	13172.18
851.869	13068.91
852.192	13057.83
852.515	12890.83
852.838	12861.91
853.161	12910.95
853.483	12771.06
853.806	12753.89
854.129	12772.64
854.451	12646.77
854.774	12549.6
855.096	12647.22
855.419	12573.33
855.741	12515.48
856.063	12511.63
856.385	12362.26
856.708	12349.83
857.03	12312.77
857.352	12350.06
857.674	12312.32
857.996	12240
858.318	12196.39
858.64	12194.58
858.961	12144.19
859.283	12091.76
859.605	11951.2
859.926	12038.65
860.248	12044.53
860.57	11922.05
860.891	11953.23
861.212	11917.07
861.534	11767.93
861.855	11925.21
862.176	11805.66
862.498	11824.19
862.819	11820.58
863.14	11724.08
863.461	11752.56
863.782	11680.02
864.103	11657.19
864.424	11680.7
864.745	11684.31
865.065	11589.4
865.386	11558.67
865.707	11541.72
866.027	11531.55
866.348	11555.28
866.668	11571.55
866.989	11495.16
867.309	11392.57
867.63	11477.09
867.95	11458.78
868.27	11404.54
868.59	11395.05
868.91	11455.62
869.23	11428.27
869.55	11302.17
869.87	11331.55
870.19	11282.29
870.51	11358.22
870.83	11357.99
871.15	11266.24
871.469	11291.1
871.789	11289.52
872.109	11247.26
872.428	11111.22
872.748	11164.78
873.067	11153.25
873.386	11162.97
873.706	11145.57
874.025	10999.36
874.344	10979.25
874.663	11074.61
874.982	11009.75
875.301	11013.82
875.62	10961.39
875.939	10929.98
876.258	10915.29
876.577	10898.12
876.896	10911.68
877.214	10930.43
877.533	10845.01
877.852	10781.51
878.17	10875.07
878.489	10809.53
878.807	10800.04
879.125	10751.45
879.444	10769.53
879.762	10800.72
880.08	10712.13
880.398	10693.38
880.716	10663.55
881.034	10659.93
881.352	10631.91
881.67	10604.11
881.988	10622.64
882.306	10526.15
882.624	10556.88
882.941	10458.35
883.259	10515.98
883.577	10520.95
883.894	10464.68
884.212	10438.92
884.529	10422.2
884.846	10424.68
885.164	10395.98
885.481	10318.25
885.798	10343.33
886.115	10246.84
886.432	10278.92
886.75	10268.98
887.067	10252.03
887.383	10162.77
887.7	10202.54
888.017	10206.61
888.334	10139.95
888.651	10145.59
888.967	10012.26
889.284	10041.87
889.6	10029.89
889.917	9891.59
890.233	9963.45
890.55	9883.45
890.866	9924.36
891.182	9840.52
891.498	9875.32
891.815	9781.31
892.131	9790.58
892.447	9778.37
892.763	9714.19
893.079	9640.98
893.395	9692.05
893.71	9647.08
894.026	9597.36
894.342	9629.22
894.657	9495.89
894.973	9483.47
895.289	9491.6
895.604	9452.05
895.92	9416.8
896.235	9359.4
896.55	9320.53
896.865	9403.24
897.181	9313.98
897.496	9312.4
897.811	9197.37
898.126	9226.97
898.441	9213.87
898.756	9205.51
899.071	9111.5
899.386	9097.49
899.7	8995.34
900.015	9020.43
900.33	8931.39
900.644	8912.18
900.959	8960.99
901.273	8860.88
901.588	8816.36
901.902	8789.92
902.216	8794.67
902.531	8725.75
902.845	8760.32
903.159	8698.4
903.473	8654.33
903.787	8657.95
904.101	8595.81
904.415	8569.82
904.729	8503.15
905.042	8539.31
905.356	8455.92
905.67	8435.13
905.984	8440.33
906.297	8427.67
906.611	8364.62
906.924	8378.86
907.237	8337.28
907.551	8234.01
907.864	8298.41
908.177	8209.15
908.491	8140.9
908.804	8154.69
909.117	8091.86
909.43	8031.75
909.743	8006.89
910.056	7999.44
910.368	7975.48
910.681	7915.14
910.994	7963.73
911.307	7874.24
911.619	7850.97
911.932	7814.58
912.244	7771.19
912.557	7740.23
912.869	7672.67
913.181	7683.29
913.494	7648.71
913.806	7579.56
914.118	7616.62
914.43	7550.18
914.742	7573.69
915.054	7505.66
915.366	7490.98
915.678	7469.73
915.99	7397.19
916.302	7384.54
916.613	7368.94
916.925	7287.82
917.236	7317.19
917.548	7281.26
917.859	7227.93
918.171	7177.76
918.482	7215.28
918.794	7099.57
919.105	7147.48
919.416	7054.83
919.727	7051.21
920.038	7045.11
920.349	6972.8
920.66	7005.56
920.971	6953.81
921.282	6965.79
921.593	6808.51
921.903	6842.18
922.214	6833.37
922.525	6790.88
922.835	6815.29
923.146	6646.93
923.456	6717.21
923.767	6695.52
924.077	6626.37
924.387	6609.19
924.697	6611.22
925.008	6559.25
925.318	6544.56
925.628	6522.41
925.938	6469.08
926.248	6395.86
926.558	6384.56
926.867	6361.29
927.177	6404.68
927.487	6306.37
927.796	6257.56
928.106	6295.3
928.416	6225.02
928.725	6200.16
929.034	6207.85
929.344	6200.61
929.653	6162.87
929.962	6139.37
930.271	6101.63
930.581	6039.71
930.89	6078.36
931.199	6045.14
931.508	5986.16
931.817	5984.8
932.125	5959.72
932.434	5912.03
932.743	5840.17
933.051	5890.11
933.36	5829.55
933.669	5790
933.977	5801.3
934.286	5778.93
934.594	5772.83
934.902	5688.08
935.21	5712.04
935.519	5695.77
935.827	5642.66
936.135	5569.22
936.443	5585.26
936.751	5559.95
937.059	5571.03
937.367	5510.69
937.674	5481.54
937.982	5489.22
938.29	5448.32
938.597	5496.45
938.905	5382.1
939.213	5396.57
939.52	5340.07
939.827	5337.36
940.135	5319.06
940.442	5278.15
940.749	5291.94
941.056	5282.67
941.363	5219.85
941.67	5151.38
941.977	5188.21
942.284	5161.32
942.591	5100.76
942.898	5084.71
943.205	5100.76
943.511	5046.75
943.818	5082
944.125	5058.5
944.431	5048.78
944.738	5006.97
945.044	4972.17
945.35	4916.58
945.657	4914.77
945.963	4872.97
946.269	4866.86
946.575	4868.67
946.881	4805.62
947.187	4805.4
947.493	4818.73
947.799	4750.03
948.105	4758.39
948.41	4763.82
948.716	4709.13
949.022	4665.51
949.327	4654.44
949.633	4629.13
949.938	4637.27
950.244	4577.83
950.549	4588.45
950.854	4581.9
951.16	4533.99
951.465	4567.21
951.77	4537.83
952.075	4514.1
952.38	4524.27
952.685	4448.12
952.99	4385.07
953.294	4415.8
953.599	4409.47
953.904	4359.76
954.209	4317.05
954.513	4319.08
954.818	4304.62
955.122	4294
955.426	4251.96
955.731	4241.12
956.035	4277.5
956.339	4211.06
956.643	4213.55
956.948	4169.25
957.252	4182.59
957.556	4139.43
957.86	4095.36
958.163	4130.16
958.467	4070.73
958.771	4094.91
959.075	4039.31
959.378	4016.04
959.682	4016.94
959.985	3989.6
960.289	3968.13
960.592	3947.57
960.896	3951.41
961.199	3946.66
961.502	3888.36
961.805	3901.92
962.108	3837.06
962.411	3869.15
962.714	3835.25
963.017	3820.79
963.32	3822.82
963.623	3796.38
963.926	3792.54
964.228	3783.95
964.531	3718.19
964.833	3729.72
965.136	3721.13
965.438	3685.43
965.741	3689.95
966.043	3662.38
966.345	3619.66
966.648	3618.53
966.95	3628.93
967.252	3611.53
967.554	3640.46
967.856	3569.5
968.158	3537.63
968.46	3591.19
968.761	3533.79
969.063	3536.05
969.365	3477.75
969.666	3487.46
969.968	3469.61
970.269	3458.54
970.571	3453.34
970.872	3422.83
971.174	3405.66
971.475	3373.57
971.776	3368.15
972.077	3352.55
972.378	3371.76
972.679	3350.52
972.98	3349.84
973.281	3279.56
973.582	3309.84
973.883	3292.22
974.183	3227.36
974.484	3218.32
974.785	3224.65
975.085	3214.03
975.386	3247.02
975.686	3168.15
975.986	3184.2
976.287	3137.87
976.587	3179.22
976.887	3189.85
977.187	3107.14
977.487	3117.53
977.787	3081.6
978.087	3082.28
978.387	3066.23
978.687	3046.57
978.987	3019.23
979.286	3010.19
979.586	2977.65
979.885	2992.11
980.185	2987.59
980.484	2973.81
980.784	3003.64
981.083	2952.11
981.382	2911.43
981.682	2946.69
981.981	2926.8
982.28	2897.2
982.579	2875.05
982.878	2899.23
983.177	2832.34
983.475	2859.46
983.774	2826.69
984.073	2817.43
984.372	2783.08
984.67	2777.43
984.969	2801.61
985.267	2732.46
985.566	2773.13
985.864	2754.83
986.162	2725.68
986.461	2660.37
986.759	2710.99
987.057	2684.55
987.355	2654.27
987.653	2662.4
987.951	2653.14
988.249	2632.35
988.547	2607.94
988.844	2603.19
989.142	2595.06
989.44	2535.17
989.737	2589.18
990.035	2567.04
990.332	2542.18
990.63	2564.55
990.927	2564.55
991.224	2551.44
991.521	2548.73
991.819	2508.06
992.116	2487.49
992.413	2467.6
992.71	2451.11
993.006	2454.95
993.303	2454.27
993.6	2437.55
993.897	2404.33
994.193	2407.49
994.49	2396.19
994.787	2415.63
995.083	2363.2
995.379	2371.79
995.676	2373.6
995.972	2356.65
996.268	2311.45
996.565	2283.43
996.861	2308.51
997.157	2294.05
997.453	2256.08
997.749	2263.32
998.044	2281.17
998.34	2254.05
998.636	2232.13
998.932	2219.48
999.227	2228.29
999.523	2211.57
999.818	2181.51
1000.114	2192.13
1000.409	2161.4
1000.704	2149.87
1001	2150.78
1001.295	2131.57
1001.59	2134.73
1001.885	2129.31
1002.18	2083.66
1002.475	2138.57
1002.77	2085.24
1003.065	2025.13
1003.359	2039.59
1003.654	2053.15
1003.949	2045.92
1004.243	2025.36
1004.538	2038.69
1004.832	2017.45
1005.127	1990.56
1005.421	1952.82
1005.715	1995.07
1006.009	1953.72
1006.304	1948.07
1006.598	1909.65
1006.892	1916.88
1007.186	1898.35
1007.48	1920.27
1007.773	1916.88
1008.067	1872.37
1008.361	1880.95
1008.655	1886.15
1008.948	1872.37
1009.242	1841.18
1009.535	1814.06
1009.829	1837.34
1010.122	1817.45
1010.415	1814.74
1010.708	1802.31
1011.001	1762.76
1011.295	1757.34
1011.588	1749.66
1011.881	1723.9
1012.173	1758.92
1012.466	1723.22
1012.759	1707.4
1013.052	1710.34
1013.344	1711.92
1013.637	1669.66
1013.93	1673.05
1014.222	1676.44
1014.514	1648.64
1014.807	1673.73
1015.099	1637.12
1015.391	1619.04
1015.683	1618.14
1015.976	1652.71
1016.268	1602.09
1016.56	1596.22
1016.851	1607.51
1017.143	1575.88
1017.435	1551.24
1017.727	1555.76
1018.018	1554.63
1018.31	1526.84
1018.602	1529.32
1018.893	1501.3
1019.185	1510.79
1019.476	1517.57
1019.767	1496.1
1020.058	1487.29
1020.35	1485.03
1020.641	1449.78
1020.932	1427.63
1021.223	1442.09
1021.514	1430.12
1021.804	1447.07
1022.095	1420.17
1022.386	1384.24
1022.677	1352.15
1022.967	1354.87
1023.258	1385.83
1023.548	1336.56
1023.839	1358.03
1024.129	1367.07
1024.419	1346.05
1024.709	1317.58
1025	1336.33
1025.29	1301.31
1025.58	1338.14
1025.87	1280.07
1026.16	1269.9
1026.449	1278.26
1026.739	1254.76
1027.029	1266.73
1027.319	1256.11
1027.608	1226.28
1027.898	1249.11
1028.187	1212.27
1028.477	1225.15
1028.766	1215.66
1029.055	1219.95
1029.344	1191.71
1029.634	1196.68
1029.923	1168.66
1030.212	1177.02
1030.501	1170.01
1030.79	1165.27
1031.078	1149.67
1031.367	1143.12
1031.656	1133.18
1031.945	1154.19
1032.233	1122.1
1032.522	1112.16
1032.81	1101.31
1033.099	1139.05
1033.387	1078.94
1033.675	1063.12
1033.963	1059.05
1034.251	1059.96
1034.54	1054.99
1034.828	1044.82
1035.116	1050.01
1035.403	1049.11
1035.691	1037.36
1035.979	1022.9
1036.267	1033.97
1036.554	1022.67
1036.842	1005.72
1037.129	1005.95
1037.417	997.81
1037.704	988.32
1037.992	989
1038.279	966.4
1038.566	961.66
1038.853	961.66
1039.14	961.66
