Data from hue_32_FLMS001491_00005.txt Node
Date: Tue Feb 07 17:22:50 GMT 2017
User: dcchb
Spectrometer: FLMS00149
Trigger mode: 0
Integration Time (sec): 2.000000E-2
Scans to average: 10
Electric dark correction enabled: true
Nonlinearity correction enabled: false
Boxcar width: 0
XAxis mode: Wavelengths
Number of Pixels in Spectrum: 2048
>>>>>Begin Spectral Data<<<<<
341.393	-11.55
341.776	-11.55
342.16	-11.55
342.543	-68.5
342.927	-34.15
343.31	-61.95
343.693	-60.37
344.077	-71.21
344.46	-48.61
344.843	-55.62
345.226	-49.52
345.61	-31.67
345.993	-8.16
346.376	-8.39
346.759	2.46
347.142	18.05
347.525	34.1
347.908	67.09
348.291	74.09
348.674	91.04
349.057	108.67
349.44	146.18
349.823	146.41
350.206	162.23
350.588	207.65
350.971	210.36
351.354	223.92
351.737	246.07
352.119	256.46
352.502	249.68
352.884	296.46
353.267	290.59
353.65	317.93
354.032	306.86
354.414	325.16
354.797	315.67
355.179	344.37
355.562	312.96
355.944	344.14
356.326	326.52
356.709	339.17
357.091	353.18
357.473	333.3
357.855	344.82
358.238	326.74
358.62	351.15
359.002	332.39
359.384	362
359.766	364.26
360.148	330.13
360.53	323.81
360.912	345.05
361.294	324.48
361.676	315.44
362.057	350.92
362.439	333.3
362.821	336.23
363.203	331.49
363.584	337.82
363.966	341.88
364.348	317.03
364.729	339.4
365.111	343.24
365.493	325.61
365.874	336.91
366.256	333.52
366.637	336.23
367.019	310.02
367.4	305.05
367.781	313.41
368.163	326.97
368.544	309.34
368.925	309.57
369.306	324.93
369.688	326.74
370.069	306.4
370.45	329.68
370.831	327.65
371.212	315.22
371.593	294.88
371.974	327.87
372.355	315.44
372.736	317.03
373.117	313.18
373.498	301.21
373.879	324.26
374.26	312.73
374.641	304.14
375.021	329.45
375.402	300.08
375.783	326.97
376.163	343.01
376.544	330.81
376.925	342.56
377.305	338.95
377.686	341.21
378.066	323.58
378.447	363.13
378.827	343.47
379.208	335.56
379.588	351.15
379.968	344.6
380.349	374.2
380.729	343.47
381.109	327.87
381.489	329.91
381.87	329.91
382.25	342.34
382.63	329.68
383.01	356.12
383.39	342.56
383.77	353.63
384.15	342.11
384.53	335.1
384.91	328.78
385.29	364.71
385.67	350.02
386.049	358.61
386.429	350.92
386.809	352.05
387.189	374.43
387.568	334.88
387.948	357.93
388.328	371.49
388.707	368.32
389.087	378.94
389.466	368.55
389.846	356.35
390.225	345.5
390.605	373.52
390.984	383.69
391.363	364.48
391.743	370.58
392.122	377.59
392.501	385.27
392.881	377.81
393.26	409.23
393.639	374.88
394.018	381.2
394.397	387.98
394.776	397.25
395.155	381.88
395.534	387.08
395.913	375.56
396.292	379.4
396.671	388.21
397.05	376.23
397.429	389.11
397.808	384.59
398.186	406.29
398.565	398.38
398.944	398.38
399.323	402.22
399.701	411.49
400.08	403.58
400.458	386.85
400.837	388.89
401.215	398.38
401.594	396.12
401.972	427.76
402.351	420.3
402.729	436.34
403.107	416.23
403.486	414.88
403.864	416.91
404.242	423.69
404.62	411.71
404.999	441.09
405.377	434.76
405.755	454.2
406.133	433.63
406.511	418.49
406.889	433.41
407.267	425.27
407.645	439.06
408.023	450.36
408.401	445.16
408.779	439.96
409.156	449.9
409.534	460.07
409.912	455.1
410.29	449.9
410.667	463.24
411.045	458.49
411.422	470.92
411.8	493.29
412.178	474.76
412.555	478.6
412.933	472.95
413.31	484.03
413.687	486.29
414.065	476.57
414.442	498.49
414.819	481.99
415.197	519.05
415.574	499.85
415.951	501.65
416.328	503.46
416.705	507.76
417.082	521.77
417.46	511.82
417.837	522.67
418.214	522.44
418.591	513.18
418.967	522.22
419.344	526.06
419.721	534.65
420.098	528.32
420.475	526.29
420.852	531.26
421.228	533.07
421.605	526.51
421.982	545.27
422.358	547.53
422.735	560.18
423.111	560.41
423.488	539.84
423.864	553.86
424.241	569.45
424.617	575.78
424.994	549.56
425.37	564.48
425.746	568.09
426.123	578.71
426.499	587.98
426.875	588.2
427.251	618.03
427.627	605.83
428.003	615.55
428.379	633.63
428.756	634.08
429.132	611.93
429.507	624.59
429.883	610.13
430.259	630.69
430.635	623.91
431.011	657.13
431.387	651.25
431.763	657.36
432.138	668.2
432.514	662.78
432.89	667.98
433.265	669.78
433.641	669.56
434.016	668.2
434.392	692.38
434.767	700.74
435.143	696
435.518	718.37
435.894	712.72
436.269	710.46
436.644	727.64
437.02	747.97
437.395	717.92
437.77	740.07
438.145	745.94
438.52	729.44
438.895	752.04
439.271	753.17
439.646	762.89
440.021	789.78
440.395	785.49
440.77	769.67
441.145	781.87
441.52	817.13
441.895	781.19
442.27	782.32
442.645	814.64
443.019	800.63
443.394	833.85
443.769	835.66
444.143	803.57
444.518	827.29
444.892	816.67
445.267	835.88
445.641	857.35
446.016	844.7
446.39	849.21
446.764	841.08
447.139	852.38
447.513	857.12
447.887	848.54
448.262	883.56
448.636	879.5
449.01	862.55
449.384	868.65
449.758	893.73
450.132	902.09
450.506	895.99
450.88	900.29
451.254	896.45
451.628	920.85
452.002	920.63
452.376	924.69
452.75	938.7
453.123	928.99
453.497	963.56
453.871	965.82
454.244	975.99
454.618	999.27
454.992	971.02
455.365	960.17
455.739	1012.37
456.112	1007.4
456.486	1004.92
456.859	1032.26
457.232	1072.71
457.606	1043.33
457.979	1045.82
458.352	1078.81
458.725	1067.51
459.099	1112.71
459.472	1096.89
459.845	1128.76
460.218	1137.34
460.591	1133.05
460.964	1147.51
461.337	1171.01
461.71	1167.62
462.083	1216.44
462.456	1192.48
462.829	1220.96
463.201	1239.71
463.574	1249.88
463.947	1261.63
464.32	1304.34
464.692	1284.68
465.065	1296.89
465.438	1302.54
465.81	1319.94
466.183	1338.02
466.555	1382.08
466.928	1383.44
467.3	1386.83
467.672	1390.9
468.045	1425.92
468.417	1420.95
468.789	1454.17
469.161	1510.44
469.534	1525.36
469.906	1536.2
470.278	1572.81
470.65	1545.24
471.022	1616.88
471.394	1659.14
471.766	1674.28
472.138	1676.09
472.51	1691.9
472.882	1714.95
473.253	1784.11
473.625	1767.38
473.997	1803.09
474.369	1850.09
474.74	1867.27
475.112	1911.79
475.484	1950.43
475.855	2008.05
476.227	2029.07
476.598	2064.1
476.97	2078.34
477.341	2144.77
477.713	2186.81
478.084	2234.04
478.455	2311.1
478.827	2328.72
479.198	2394.94
479.569	2410.98
479.94	2519.68
480.311	2563.29
480.682	2599.68
481.053	2676.29
481.424	2779.79
481.795	2797.86
482.166	2868.82
482.537	2884.19
482.908	2973.68
483.279	3030.85
483.65	3132.77
484.021	3206.22
484.391	3274.91
484.762	3344.52
485.133	3371.63
485.503	3454.57
485.874	3577.73
486.244	3635.13
486.615	3688.69
486.985	3814.33
487.356	3885.75
487.726	3982.47
488.097	4073.08
488.467	4080.32
488.837	4228.56
489.207	4220.43
489.578	4366.64
489.948	4434.66
490.318	4527.99
490.688	4541.1
491.058	4712.84
491.428	4780.86
491.798	4882.78
492.168	4973.4
492.538	5059.5
492.908	5126.62
493.278	5192.38
493.648	5253.17
494.017	5374.52
494.387	5446.83
494.757	5510.56
495.126	5602.08
495.496	5679.82
495.866	5762.76
496.235	5810.44
496.605	5885.92
496.974	5982.19
497.344	6064.22
497.713	6118.68
498.082	6193.03
498.452	6302.18
498.821	6374.72
499.19	6349.18
499.559	6450.42
499.928	6529.29
500.298	6631.21
500.667	6684.54
501.036	6774.93
501.405	6834.14
501.774	6849.96
502.143	6995.49
502.512	7011.99
502.88	7086.34
503.249	7095.38
503.618	7272.1
503.987	7242.04
504.356	7271.42
504.724	7360.46
505.093	7416.73
505.462	7474.13
505.83	7582.82
506.199	7622.82
506.567	7692.42
506.936	7754.8
507.304	7791.86
507.672	7834.57
508.041	7896.94
508.409	7976.49
508.777	8046.99
509.145	8150.72
509.514	8141
509.882	8199.3
510.25	8242.69
510.618	8289.02
510.986	8353.88
511.354	8459.64
511.722	8523.59
512.09	8586.41
512.458	8525.4
512.826	8628.45
513.193	8683.13
513.561	8692.17
513.929	8790.48
514.297	8877.7
514.664	9008.77
515.032	8997.7
515.4	9091.48
515.767	9024.37
516.135	9169.45
516.502	9070.47
516.869	9250.58
517.237	9321.76
517.604	9260.97
517.972	9368.54
518.339	9427.07
518.706	9472.27
519.073	9464.36
519.44	9533.96
519.808	9581.41
520.175	9635.88
520.542	9730.34
520.909	9794.74
521.276	9797.91
521.643	9894.63
522.009	9909.32
522.376	10021.4
522.743	10041.74
523.11	10144.79
523.477	10245.35
523.843	10269.08
524.21	10416.2
524.577	10447.61
524.943	10464.78
525.31	10498
525.676	10587.26
526.043	10688.73
526.409	10620.94
526.776	10798.78
527.142	10756.98
527.508	10863.87
527.874	10970.08
528.241	11060.47
528.607	11027.48
528.973	11208.49
529.339	11254.37
529.705	11286
530.071	11385.44
530.437	11403.51
530.803	11448.71
531.169	11521.7
531.535	11572.55
531.901	11635.15
532.267	11632.21
532.632	11768.7
532.998	11747.23
533.364	11859.32
533.73	11807.34
534.095	12001.92
534.461	12036.04
534.826	12071.29
535.192	12105.64
535.557	12232.42
535.923	12209.59
536.288	12284.39
536.653	12301.8
537.019	12268.12
537.384	12371.85
537.749	12376.82
538.114	12489.13
538.479	12541.79
538.845	12569.81
539.21	12595.35
539.575	12577.95
539.94	12711.95
540.305	12785.62
540.67	12855.9
541.034	12932.29
541.399	12881.89
541.764	12930.71
542.129	13067.2
542.494	13004.15
542.858	13088.67
543.223	13156.24
543.587	13198.27
543.952	13243.69
544.316	13315.78
544.681	13389.45
545.045	13442.33
545.41	13469
545.774	13516.68
546.138	13538.37
546.503	13504.93
546.867	13607.07
547.231	13768.42
547.595	13767.52
547.959	13775.88
548.324	13852.94
548.688	13778.37
549.052	13878.02
549.416	13953.28
549.779	14029.89
550.143	13997.8
550.507	14075.08
550.871	14157.79
551.235	14131.35
551.599	14287.96
551.962	14311.69
552.326	14331.12
552.689	14452.7
553.053	14441.63
553.417	14475.3
553.78	14614.28
554.143	14559.14
554.507	14598.91
554.87	14671.45
555.234	14819.24
555.597	14798
555.96	14818.57
556.323	14835.06
556.686	14833.71
557.05	14962.06
557.413	15092.23
557.776	15145.34
558.139	15106.24
558.502	15163.87
558.865	15281.6
559.228	15346.46
559.59	15425.78
559.953	15401.6
560.316	15485.89
560.679	15527.25
561.041	15645.66
561.404	15689.73
561.767	15807.47
562.129	15671.65
562.492	15925.43
562.854	15882.49
563.217	15887.46
563.579	15922.26
563.941	15965.2
564.304	16079.77
564.666	16154.35
565.028	16212.43
565.39	16131.75
565.753	16298.75
566.115	16240.67
566.477	16379.2
566.839	16439.31
567.201	16561.34
567.563	16565.86
567.925	16668.46
568.287	16700.55
568.648	16733.54
569.01	16889.25
569.372	16988.23
569.734	16943.48
570.095	17129.92
570.457	17200.88
570.819	17200.2
571.18	17291.72
571.542	17308.67
571.903	17411.72
572.265	17502.34
572.626	17519.96
572.987	17638.15
573.349	17655.78
573.71	17713.4
574.071	17879.73
574.432	17950.69
574.794	18109.55
575.155	18163.11
575.516	18205.37
575.877	18293.05
576.238	18398.36
576.599	18448.98
576.96	18548.64
577.32	18763.77
577.681	18820.72
578.042	19001.51
578.403	19067.04
578.763	19243.99
579.124	19339.8
579.485	19500.02
579.845	19764.65
580.206	19756.06
580.566	20037.41
580.927	20160.57
581.287	20314.92
581.648	20392.88
582.008	20646.66
582.368	20678.3
582.728	20930.49
583.089	21152.18
583.449	21341.33
583.809	21527.77
584.169	21679.85
584.529	21772.28
584.889	22114.19
585.249	22315.32
585.609	22489.78
585.969	22857.45
586.329	22862.42
586.688	23253.6
587.048	23480.48
587.408	23656.52
587.768	23876.63
588.127	24088.15
588.487	24240.92
588.846	24626.44
589.206	24669.61
589.565	25013.55
589.925	25323.6
590.284	25539.41
590.643	25851.04
591.003	26042.68
591.362	26390.92
591.721	26613.96
592.08	26783.45
592.44	27218.24
592.799	27469.08
593.158	27670.88
593.517	27938.22
593.876	28204.43
594.235	28418.21
594.593	28671.53
594.952	29018.87
595.311	29199.88
595.67	29428.35
596.029	29850.94
596.387	30030.14
596.746	30398.04
597.104	30453.41
597.463	30669
597.822	31139.49
598.18	31247.06
598.538	31443.89
598.897	31921.62
599.255	31885.01
599.613	32564.77
599.972	32518.66
600.33	32856.96
600.688	33013.57
601.046	33368.59
601.404	33522.03
601.762	33738.52
602.12	34116.59
602.478	34092.63
602.836	34462.12
603.194	34488.56
603.552	34610.14
603.91	34889.22
604.268	35197.01
604.625	35206.73
604.983	35721.74
605.341	35677.23
605.698	35953.83
606.056	36271.79
606.413	36292.35
606.771	36652.57
607.128	36803.07
607.485	36754.03
607.843	36925.78
608.2	37325.54
608.557	37536.39
608.914	37529.38
609.272	37941.57
609.629	37924.17
609.986	38236.93
610.343	38248.46
610.7	38732.29
611.057	38717.37
611.414	38719.63
611.771	38922.56
612.127	39291.14
612.484	39194.2
612.841	39517.8
613.198	39505.37
613.554	39695.88
613.911	39889.77
614.267	40004.12
614.624	40020.39
614.98	40322.08
615.337	40447.27
615.693	40420.15
616.05	40583.54
616.406	40979.91
616.762	40900.59
617.118	41082.06
617.475	40951.44
617.831	41310.52
618.187	41417.41
618.543	41477.53
618.899	41743.73
619.255	41793.22
619.611	41819.66
619.967	41911.19
620.323	42163.16
620.678	42082.26
621.034	42077.28
621.39	42153.67
621.746	42238.18
622.101	42737.83
622.457	42435.69
622.812	42537.61
623.168	42737.83
623.523	42731.96
623.879	42937.6
624.234	42590.94
624.589	42816.25
624.945	42935.57
625.3	43105.51
625.655	43025.51
626.01	43090.14
626.365	43316.12
626.72	43093.98
627.075	43150.02
627.43	43189.57
627.785	43236.35
628.14	43296.46
628.495	43383.01
628.85	43374.65
629.205	43337.36
629.559	43547.98
629.914	43366.06
630.269	43604.93
630.623	43559.05
630.978	43462.56
631.332	43618.71
631.687	43722.44
632.041	43653.74
632.396	43732.61
632.75	43357.93
633.104	43629.56
633.459	43450.35
633.813	43453.52
634.167	43553.85
634.521	43536.45
634.875	43559.96
635.229	43461.65
635.583	43405.61
635.937	43443.12
636.291	43431.82
636.645	43374.88
636.999	43390.02
637.352	43591.37
637.706	43332.39
638.06	43530.8
638.413	43355.22
638.767	43371.03
639.121	43410.81
639.474	43133.3
639.828	43179.63
640.181	43250.59
640.534	43232.73
640.888	43076.81
641.241	43023.02
641.594	43155
641.947	43216.91
642.301	43084.94
642.654	43123.36
643.007	43209.91
643.36	43139.18
643.713	43093.98
644.066	43289.91
644.419	42950.03
644.771	42783.93
645.124	42479.53
645.477	42461
645.83	42166.55
646.182	42044.52
646.535	41823.05
646.888	42019.21
647.24	41751.42
647.593	42002.48
647.945	41913.45
648.298	41683.62
648.65	41733.11
649.002	41524.76
649.355	41743.73
649.707	41672.77
650.059	41891.07
650.411	42399.08
650.763	42498.29
651.115	42812.18
651.467	42609.25
651.819	42614.67
652.171	42640.66
652.523	42484.05
652.875	42551.85
653.227	42393.21
653.578	42462.36
653.93	42483.37
654.282	42463.94
654.633	42293.77
654.985	42498.74
655.337	42420.33
655.688	42391.4
656.039	42416.71
656.391	42302.81
656.742	42199.77
657.094	42248.58
657.445	42472.53
657.796	42265.53
658.147	42268.92
658.498	42237.96
658.849	42420.78
659.2	42254.45
659.551	42054.46
659.902	42299.88
660.253	42305.53
660.604	42257.62
660.955	42067.57
661.306	42287.45
661.656	42071.18
662.007	42087.45
662.358	42267.11
662.708	42135.14
663.059	42000.68
663.409	41860.79
663.76	42146.66
664.11	42183.04
664.461	42207.45
664.811	42195.7
665.161	41983.95
665.511	42029.15
665.862	42026.66
666.212	42235.47
666.562	42096.94
666.912	41983.27
667.262	41952.99
667.612	42024.63
667.962	41978.3
668.312	42056.27
668.662	42029.38
669.011	42147.34
669.361	41945.54
669.711	41971.98
670.06	41875.71
670.41	41855.14
670.76	41720.68
671.109	42016.72
671.459	41976.72
671.808	41790.51
672.157	41933.11
672.507	41671.19
672.856	41903.5
673.205	41701.47
673.554	41849.94
673.904	41668.93
674.253	41812.43
674.602	41649.27
674.951	41216.74
675.3	40883.64
675.649	41698.08
675.998	41591.65
676.346	41608.82
676.695	41708.03
677.044	41440.92
677.393	41680.91
677.741	41487.47
678.09	41462.61
678.438	41367.7
678.787	41420.58
679.135	41324.31
679.484	41184.88
679.832	41293.58
680.181	41145.33
680.529	41220.81
680.877	41086.8
681.225	41047.03
681.573	41265.55
681.922	40895.62
682.27	40919.35
682.618	40957.09
682.966	40846.13
683.314	40821.27
683.661	40940.82
684.009	40669.64
684.357	40651.78
684.705	40486.14
685.053	40550.32
685.4	40495.4
685.748	40275.75
686.095	40445.24
686.443	40179.93
686.79	40240.5
687.138	40322.98
687.485	40208.86
687.832	40053.83
688.18	40006.6
688.527	39899.04
688.874	39915.76
689.221	39638.93
689.568	39652.49
689.915	39589.89
690.262	39574.07
690.609	39483.68
690.956	39357.81
691.303	39434.19
691.65	39132.95
691.997	39121.43
692.344	38958.27
692.69	38880.08
693.037	38986.29
693.383	38545.4
693.73	38778.16
694.077	38556.02
694.423	38429.47
694.769	38482.12
695.116	38363.48
695.462	38354.44
695.808	38137.05
696.155	38308.12
696.501	37935.7
696.847	38003.49
697.193	37677.17
697.539	37803.95
697.885	37573.67
698.231	37424.07
698.577	37466.56
698.923	37326
699.269	37190.63
699.614	37119.22
699.96	37024.31
700.306	37042.61
700.651	37009.39
700.997	36770.98
701.342	36669.74
701.688	36565.56
702.033	36511.55
702.379	36545.68
702.724	36531.67
703.069	36483.31
703.415	36219.13
703.76	36088.97
704.105	36079.93
704.45	36011.23
704.795	35772.82
705.14	35711.58
705.485	35678.36
705.83	35508.87
706.175	35589.09
706.52	35428.87
706.865	35304.35
707.209	35447.18
707.554	35327.86
707.899	35388.42
708.243	35033.85
708.588	35082.44
708.932	34717.93
709.277	34912.27
709.621	34842.22
709.966	34627.31
710.31	34691.71
710.654	34465.05
710.998	34558.16
711.342	34448.78
711.687	34319.97
712.031	34165.63
712.375	34147.32
712.719	34296.7
713.063	34148.68
713.407	34288.11
713.75	34003.37
714.094	34040.43
714.438	33821.46
714.782	33799.54
715.125	33730.16
715.469	33715.47
715.812	33639.77
716.156	33439.32
716.499	33427.79
716.843	33463.72
717.186	33302.15
717.53	33330.62
717.873	33463.72
718.216	33288.14
718.559	33103.06
718.902	32829.39
719.246	33079.55
719.589	32818.54
719.932	32790.75
720.275	32776.06
720.617	32655.84
720.96	32522.51
721.303	32611.32
721.646	32671.2
721.989	32492.68
722.331	32608.15
722.674	32400.93
723.016	32446.58
723.359	32349.86
723.701	32430.31
724.044	32163.19
724.386	32054.27
724.729	32190.31
725.071	32043.65
725.413	32098.34
725.755	31973.59
726.097	31832.36
726.439	31788.97
726.782	31769.08
727.124	31810.66
727.465	31732.02
727.807	31659.25
728.149	31636.43
728.491	31494.74
728.833	31595.98
729.175	31472.36
729.516	31416.32
729.858	31327.28
730.199	31398.69
730.541	31393.27
730.882	31299.04
731.224	31392.82
731.565	31180.85
731.906	31110.34
732.248	31144.24
732.589	31059.95
732.93	30819.95
733.271	30827.18
733.612	30852.95
733.953	30997.57
734.294	30786.05
734.635	30780.41
734.976	30821.53
735.317	30615.44
735.658	30707.86
735.999	30543.58
736.339	30484.37
736.68	30600.52
737.021	30457.48
737.361	30305.62
737.702	30506.06
738.042	30223.13
738.383	30250.48
738.723	30382.22
739.063	30226.75
739.404	30264.94
739.744	30162.57
740.084	30033.53
740.424	30200.31
740.764	30027.2
741.104	30033.31
741.444	29905.85
741.784	29951.95
742.124	29935
742.464	29873.99
742.804	29859.98
743.143	29777.27
743.483	29799.64
743.823	29530.72
744.162	29596.03
744.502	29558.06
744.841	29523.72
745.181	29579.08
745.52	29402.59
745.86	29494.56
746.199	29321.46
746.538	29356.71
746.877	29366.21
747.216	29253.21
747.556	29343.83
747.895	29342.25
748.234	29222.25
748.573	29248.02
748.911	29059.09
749.25	29107
749.589	28958.31
749.928	29017.51
750.267	28912.66
750.605	28940.45
750.944	28797.41
751.283	28704.3
751.621	28782.27
751.96	28680.8
752.298	28634.7
752.636	28583.63
752.975	28538.66
753.313	28340.47
753.651	28502.95
753.989	28406
754.327	28272.45
754.666	28128.27
755.004	28102.74
755.342	28139.12
755.679	28020.93
756.017	27976.41
756.355	28175.95
756.693	27951.1
757.031	27930.31
757.368	27711.11
757.706	27765.8
758.044	27655.74
758.381	27682.63
758.719	27639.25
759.056	27508.63
759.394	27433.6
759.731	27363.09
760.068	27222.76
760.405	27145.02
760.743	26996.1
761.08	27131.91
761.417	26920.85
761.754	26955.2
762.091	26860.51
762.428	26853.73
762.765	26570.8
763.102	26708.87
763.438	26485.6
763.775	26441.31
764.112	26453.51
764.449	26457.36
764.785	26255.1
765.122	26141.88
765.458	26119.96
765.795	26128.32
766.131	26031.6
766.467	25901.66
766.804	25801.55
767.14	25578.73
767.476	25737.15
767.812	25432.52
768.148	25562.92
768.485	25439.53
768.821	25331.51
769.157	25321.34
769.492	25225.52
769.828	25233.21
770.164	24949.37
770.5	24915.93
770.836	24980.11
771.171	24714.35
771.507	24658.53
771.842	24505.54
772.178	24620.12
772.513	24379.44
772.849	24310.74
773.184	24377.18
773.519	24196.62
773.855	24120.69
774.19	23996.85
774.525	23857.65
774.86	23906.01
775.195	23859.68
775.53	23554.38
775.865	23559.13
776.2	23427.15
776.535	23268.51
776.87	23249.53
777.205	23147.84
777.539	23072.59
777.874	23163.43
778.209	22877.34
778.543	22959.59
778.878	22800.73
779.212	22789.66
779.547	22550.34
779.881	22730.67
780.215	22539.27
780.55	22538.14
780.884	22281.42
781.218	22317.58
781.552	22391.25
781.886	22165.04
782.22	22056.57
782.554	21963.69
782.888	21756.01
783.222	21739.06
783.556	21607.31
783.889	21604.83
784.223	21483.02
784.557	21347.43
784.89	21400.54
785.224	21316.02
785.557	21262.24
785.891	21228.11
786.224	21138.4
786.558	21041.9
786.891	20861.8
787.224	20806.43
787.557	20698.41
787.891	20767.11
788.224	20707
788.557	20643.04
788.89	20640.11
789.223	20550.84
789.556	20405.76
789.888	20321.92
790.221	20332.32
790.554	20163.96
790.887	20096.17
791.219	20126
791.552	19916.74
791.884	19918.77
792.217	19876.29
792.549	19774.82
792.882	19697.98
793.214	19614.37
793.546	19617.76
793.879	19399.69
794.211	19295.74
794.543	19391.55
794.875	19267.49
795.207	19352.68
795.539	19236.75
795.871	19171.9
796.203	19104.78
796.535	18876.76
796.867	18797.9
797.198	18875.18
797.53	18925.12
797.862	18642.87
798.193	18766.03
798.525	18584.34
798.856	18675.86
799.188	18443.33
799.519	18399.49
799.85	18364.01
800.182	18302.77
800.513	18300.06
800.844	18090.34
801.175	18274.52
801.506	18213.96
801.837	17990.46
802.168	17975.54
802.499	17992.04
802.83	17851.71
803.161	17885.6
803.491	17787.98
803.822	17793.4
804.153	17755.89
804.483	17562.22
804.814	17442
805.145	17451.04
805.475	17510.47
805.805	17303.25
806.136	17384.6
806.466	17283.81
806.796	17292.85
807.126	17155
807.457	17139.63
807.787	17160.42
808.117	17063.03
808.447	17062.57
808.777	16939.19
809.107	17066.87
809.436	16892.63
809.766	16888.79
810.096	16749.59
810.426	16686.31
810.755	16745.29
811.085	16732.87
811.414	16623.94
811.744	16503.94
812.073	16513.89
812.403	16451.06
812.732	16399.09
813.061	16451.74
813.39	16230.28
813.719	16298.75
814.049	16333.33
814.378	16173.78
814.707	16214.46
815.036	16105.54
815.365	16020.34
815.693	15987.8
816.022	16041.58
816.351	15897.41
816.68	15831.65
817.008	15952.55
817.337	15652.67
817.665	15713.46
817.994	15719.33
818.322	15633.68
818.651	15597.53
818.979	15487.25
819.307	15645.66
819.636	15584.19
819.964	15398.21
820.292	15531.31
820.62	15487.02
820.948	15508.49
821.276	15606.12
821.604	15372.9
821.932	15501.94
822.259	15442.96
822.587	15444.99
822.915	15269.17
823.243	15383.07
823.57	15395.05
823.898	15420.58
824.225	15325.44
824.553	15364.99
824.88	15342.39
825.207	15482.73
825.535	15437.08
825.862	15409.74
826.189	15316.63
826.516	15388.49
826.843	15449.06
827.17	15377.87
827.497	15420.81
827.824	15395.05
828.151	15320.02
828.478	15274.15
828.805	15414.26
829.131	15214.94
829.458	15253.13
829.785	15284.09
830.111	15287.93
830.438	15336.07
830.764	15299.91
831.09	15334.03
831.417	15230.76
831.743	15303.07
832.069	15217.88
832.395	15231.44
832.722	15285.45
833.048	15157.31
833.374	15261.49
833.7	15205
834.026	15149.18
834.351	15161.61
834.677	15162.51
835.003	15132.68
835.329	15073.7
835.654	15164.77
835.98	15066.24
836.306	15090.2
836.631	15017.43
836.956	15073.25
837.282	15018.33
837.607	15018.33
837.932	14935.85
838.258	14924.55
838.583	14953.02
838.908	14810.66
839.233	14815.63
839.558	14800.94
839.883	14825.57
840.208	14704.9
840.533	14759.81
840.858	14689.08
841.182	14743.76
841.507	14724.33
841.832	14628.06
842.156	14591.23
842.481	14553.71
842.805	14508.29
843.13	14473.04
843.454	14449.31
843.778	14423.77
844.103	14351.23
844.427	14330.22
844.751	14356.88
845.075	14311.69
845.399	14261.29
845.723	14116.66
846.047	14184.68
846.371	14036.89
846.695	14029.89
847.019	13907.63
847.343	13822.66
847.666	13854.3
847.99	13790.12
848.313	13725.94
848.637	13747.86
848.96	13667.18
849.284	13623.57
849.607	13452.73
849.931	13491.82
850.254	13355.1
850.577	13335.44
850.9	13207.99
851.223	13185.61
851.546	13149.46
851.869	13015.9
852.192	13223.13
852.515	12993.08
852.838	12967.31
853.161	12957.6
853.483	12913.98
853.806	12788.11
854.129	12863.14
854.451	12727.09
854.774	12699.75
855.096	12722.58
855.419	12629.47
855.741	12594.44
856.063	12581.11
856.385	12523.48
856.708	12488.91
857.03	12390.38
857.352	12457.27
857.674	12323.72
857.996	12385.86
858.318	12320.78
858.64	12188.58
858.961	12211.85
859.283	12236.26
859.605	12182.02
859.926	12192.19
860.248	12095.47
860.57	12019.32
860.891	12043.04
861.212	11991.75
861.534	11925.99
861.855	11922.82
862.176	11956.49
862.498	11879.21
862.819	11826.33
863.14	11845.76
863.461	11786.78
863.782	11762.37
864.103	11816.38
864.424	11807.12
864.745	11784.07
865.065	11726.9
865.386	11666.33
865.707	11598.99
866.027	11670.85
866.348	11630.17
866.668	11568.03
866.989	11580.68
867.309	11535.04
867.63	11478.31
867.95	11544.3
868.27	11398.09
868.59	11439.22
868.91	11408.71
869.23	11404.64
869.55	11317.64
869.87	11318.09
870.19	11338.2
870.51	11440.12
870.83	11287.36
871.15	11271.31
871.469	11300.69
871.789	11267.7
872.109	11313.35
872.428	11204.65
872.748	11273.8
873.067	11194.93
873.386	11211.65
873.706	11237.64
874.025	11121.94
874.344	11095.73
874.663	11096.18
874.982	11106.12
875.301	11121.26
875.62	11029.74
875.939	10974.37
876.258	10988.16
876.577	10995.61
876.896	10999.91
877.214	11006.01
877.533	11004.2
877.852	10912.91
878.17	10913.81
878.489	10949.74
878.807	10902.28
879.125	10926.46
879.444	10829.07
879.762	10867.93
880.08	10724.44
880.398	10800.59
880.716	10724.89
881.034	10763.53
881.352	10778.9
881.67	10736.64
881.988	10717.66
882.306	10694.83
882.624	10595.63
882.941	10594.04
883.259	10523.99
883.577	10580.03
883.894	10559.24
884.212	10486.93
884.529	10477.66
884.846	10372.13
885.164	10464.1
885.481	10395.18
885.798	10408.29
886.115	10291
886.432	10329.87
886.75	10328.97
887.067	10321.73
887.383	10164
887.7	10225.69
888.017	10222.53
888.334	10247.16
888.651	10177.11
888.967	10163.77
889.284	10086.71
889.6	10055.53
889.917	9989.77
890.233	10042.87
890.55	9934.63
890.866	10046.04
891.182	9932.59
891.498	9901.63
891.815	9895.08
892.131	9851.92
892.447	9823.89
892.763	9737.79
893.079	9746.83
893.395	9724.91
893.71	9686.95
894.026	9714.29
894.342	9633.39
894.657	9536.9
894.973	9557.69
895.289	9544.35
895.604	9511.13
895.92	9499.16
896.235	9426.39
896.55	9423.68
896.865	9408.76
897.181	9403.79
897.496	9318.14
897.811	9282.89
898.126	9248.32
898.441	9206.74
898.756	9213.51
899.071	9134.65
899.386	9183.69
899.7	9137.58
900.015	9058.26
900.33	8997.48
900.644	8981.88
900.959	8966.74
901.273	8925.84
901.588	8933.75
901.902	8927.19
902.216	8823.47
902.531	8772.85
902.845	8750.02
903.159	8762
903.473	8755.45
903.787	8625.06
904.101	8668.9
904.415	8658.28
904.729	8604.94
905.042	8520.65
905.356	8561.55
905.67	8544.83
905.984	8523.59
906.297	8438.39
906.611	8412.63
906.924	8396.81
907.237	8368.34
907.551	8304.39
907.864	8324.72
908.177	8273.2
908.491	8283.6
908.804	8214.9
909.117	8091.51
909.43	8145.52
909.743	8014.45
910.056	8017.61
910.368	8000.67
910.681	7967.22
910.994	7983.26
911.307	7896.94
911.619	7868.69
911.932	7914.57
912.244	7827.34
912.557	7805.64
912.869	7738.98
913.181	7738.07
913.494	7687.45
913.806	7649.94
914.118	7632.99
914.43	7574.01
914.742	7546.44
915.054	7520.68
915.366	7515.93
915.678	7442.71
915.99	7417.86
916.302	7439.78
916.613	7292.89
916.925	7302.83
917.236	7304.19
917.548	7317.75
917.859	7279.55
918.171	7256.28
918.482	7212.21
918.794	7155.72
919.105	7177.86
919.416	7060.58
919.727	7057.87
920.038	7049.28
920.349	6983.29
920.66	6978.09
920.971	6950.75
921.282	6914.37
921.593	6928.83
921.903	6885.67
922.214	6864.88
922.525	6793.01
922.835	6823.75
923.146	6740.13
923.456	6735.61
923.767	6658.78
924.077	6672.11
924.387	6646.8
924.697	6586.92
925.008	6562.29
925.318	6597.76
925.628	6511.21
925.938	6509.63
926.248	6442.29
926.558	6380.37
926.867	6372.23
927.177	6423.08
927.487	6336.08
927.796	6279.81
928.106	6280.03
928.416	6274.84
928.725	6239.13
929.034	6187.38
929.344	6220.37
929.653	6110.32
929.962	6127.04
930.271	6117.55
930.581	6115.74
930.89	6048.17
931.199	6004.33
931.508	6045.24
931.817	6042.07
932.125	5998.91
932.434	6004.33
932.743	5921.62
933.051	5888.86
933.36	5885.92
933.669	5819.25
933.977	5800.5
934.286	5776.32
934.594	5826.26
934.902	5716.88
935.21	5698.8
935.519	5661.52
935.827	5659.71
936.135	5612.03
936.443	5576.1
936.751	5553.72
937.059	5616.55
937.367	5540.84
937.674	5535.65
937.982	5533.39
938.29	5479.83
938.597	5456.1
938.905	5370.45
939.213	5377.91
939.52	5360.73
939.827	5352.15
940.135	5314.41
940.442	5307.85
940.749	5242.77
941.056	5304.69
941.363	5221.98
941.67	5186.95
941.977	5170.91
942.284	5118.03
942.591	5114.41
942.898	5118.71
943.205	5114.19
943.511	5083.23
943.818	5052.27
944.125	5076.22
944.431	5026.96
944.738	5013.4
945.044	4967.75
945.35	4925.27
945.657	4934.53
945.963	4875.78
946.269	4896.79
946.575	4829.68
946.881	4821.54
947.187	4871.93
947.493	4814.08
947.799	4805.72
948.105	4788.77
948.41	4692.73
948.716	4763.46
949.022	4705.16
949.327	4675.56
949.633	4647.08
949.938	4666.52
950.244	4623.35
950.549	4592.17
950.854	4577.7
951.16	4558.04
951.465	4542
951.77	4548.78
952.075	4502.23
952.38	4483.47
952.685	4459.06
952.99	4418.61
953.294	4439.86
953.599	4443.47
953.904	4392.85
954.209	4317.15
954.513	4313.76
954.818	4262.68
955.122	4280.09
955.426	4255.23
955.731	4259.52
956.035	4237.37
956.339	4239.86
956.643	4229.47
956.948	4204.15
957.252	4177.49
957.556	4155.34
957.86	4129.13
958.163	4135.68
958.467	4086.42
958.771	4124.16
959.075	4068.11
959.378	4062.69
959.682	4031.28
959.985	4037.83
960.289	4018.85
960.592	3986.53
960.896	3990.38
961.199	3985.63
961.502	3942.69
961.805	3920.09
962.108	3872.41
962.411	3903.37
962.714	3861.11
963.017	3897.5
963.32	3872.41
963.623	3792.41
963.926	3810.72
964.228	3814.79
964.531	3758.29
964.833	3761.23
965.136	3694.34
965.438	3714.9
965.741	3692.53
966.043	3690.72
966.345	3648.69
966.648	3694.11
966.95	3647.56
967.252	3571.63
967.554	3606.88
967.856	3611.63
968.158	3544.51
968.46	3554.68
968.761	3579.99
969.063	3526.88
969.365	3528.01
969.666	3496.38
969.968	3457.51
970.269	3457.28
970.571	3432.88
970.872	3443.05
971.174	3417.73
971.475	3373.89
971.776	3415.93
972.077	3378.64
972.378	3400.79
972.679	3325.31
972.98	3329.6
973.281	3340.45
973.582	3341.35
973.883	3255.03
974.183	3277.4
974.484	3294.8
974.785	3231.3
975.085	3209.83
975.386	3229.04
975.686	3188.81
975.986	3233.56
976.287	3156.72
976.587	3145.65
976.887	3146.56
977.187	3123.51
977.487	3110.62
977.787	3112.21
978.087	3150.62
978.387	3080.34
978.687	3069.72
978.987	3075.6
979.286	3020.46
979.586	3022.27
979.885	2992.89
980.185	2979.78
980.484	2966.9
980.784	2956.73
981.083	2984.53
981.382	2923.28
981.682	2930.06
981.981	2911.08
982.28	2903.62
982.579	2891.2
982.878	2890.52
983.177	2888.03
983.475	2886.22
983.774	2854.13
984.073	2793.12
984.372	2809.62
984.67	2834.47
984.969	2819.11
985.267	2768.94
985.566	2737.3
985.864	2747.02
986.162	2708.38
986.461	2702.95
986.759	2719.22
987.057	2673.35
987.355	2687.13
987.653	2654.82
987.951	2678.32
988.249	2645.1
988.547	2667.02
988.844	2625.44
989.142	2619.79
989.44	2576.63
989.737	2575.27
990.035	2593.58
990.332	2607.36
990.63	2545.67
990.927	2573.92
991.224	2508.83
991.521	2536.4
991.819	2514.03
992.116	2525.33
992.413	2477.65
992.71	2465.67
993.006	2457.08
993.303	2469.06
993.6	2440.13
993.897	2446.24
994.193	2450.53
994.49	2394.71
994.787	2395.61
995.083	2378.44
995.379	2356.29
995.676	2367.14
995.972	2300.25
996.268	2322.4
996.565	2325.56
996.861	2322.4
997.157	2299.57
997.453	2298.67
997.749	2290.31
998.044	2266.13
998.34	2248.95
998.636	2221.38
998.932	2212.57
999.227	2185.9
999.523	2206.24
999.818	2221.16
1000.114	2197.43
1000.409	2192.23
1000.704	2142.97
1001	2182.97
1001.295	2118.11
1001.59	2146.81
1001.885	2142.51
1002.18	2076.08
1002.475	2095.06
1002.77	2086.92
1003.065	2074.72
1003.359	2066.13
1003.654	2042.4
1003.949	2028.84
1004.243	2022.29
1004.538	1976.64
1004.832	1992.91
1005.127	2010.77
1005.421	1979.13
1005.715	1945.68
1006.009	1965.12
1006.304	1986.13
1006.598	1926.25
1006.892	1938.68
1007.186	1907.49
1007.48	1911.56
1007.773	1923.76
1008.067	1898.23
1008.361	1886.48
1008.655	1853.26
1008.948	1866.14
1009.242	1870.43
1009.535	1835.18
1009.829	1863.65
1010.122	1809.19
1010.415	1793.82
1010.708	1791.79
1011.001	1768.51
1011.295	1760.38
1011.588	1765.35
1011.881	1747.72
1012.173	1736.42
1012.466	1731.23
1012.759	1726.48
1013.052	1724.45
1013.344	1694.39
1013.637	1679.25
1013.93	1689.87
1014.222	1685.58
1014.514	1664.11
1014.807	1646.48
1015.099	1644
1015.391	1633.6
1015.683	1625.24
1015.976	1617.78
1016.268	1583.66
1016.56	1594.51
1016.851	1585.92
1017.143	1582.53
1017.435	1555.41
1017.727	1550.44
1018.018	1543.89
1018.31	1554.96
1018.602	1535.52
1018.893	1517.67
1019.185	1515.64
1019.476	1508.63
1019.767	1515.41
1020.058	1472.48
1020.35	1492.36
1020.641	1461.63
1020.932	1462.98
1021.223	1427.05
1021.514	1409.88
1021.804	1429.09
1022.095	1401.74
1022.386	1391.8
1022.677	1428.18
1022.967	1394.51
1023.258	1407.84
1023.548	1371.24
1023.839	1316.55
1024.129	1344.57
1024.419	1335.08
1024.709	1333.5
1025	1350.22
1025.29	1320.84
1025.58	1291.92
1025.87	1296.66
1026.16	1293.27
1026.449	1284.01
1026.739	1274.74
1027.029	1252.14
1027.319	1259.83
1027.608	1250.56
1027.898	1248.3
1028.187	1265.7
1028.477	1232.26
1028.766	1220.96
1029.055	1187.96
1029.344	1180.73
1029.634	1175.99
1029.923	1182.54
1030.212	1144.8
1030.501	1169.88
1030.79	1173.95
1031.078	1143.9
1031.367	1138.92
1031.656	1144.35
1031.945	1123.78
1032.233	1124.91
1032.522	1109.32
1032.81	1117.68
1033.099	1125.82
1033.387	1084.46
1033.675	1103.67
1033.963	1066.61
1034.251	1071.13
1034.54	1068.64
1034.828	1071.58
1035.116	1058.47
1035.403	1048.31
1035.691	1032.49
1035.979	1007.85
1036.267	1009.89
1036.554	1039.94
1036.842	994.3
1037.129	1005.82
1037.417	996.33
1037.704	996.56
1037.992	968.99
1038.279	987.06
1038.566	992.71
1038.853	992.71
1039.14	992.71
