Data from hue_330_FLMS001491_36.txt Node
Date: Mon Feb 06 15:45:18 GMT 2017
User: dcchb
Spectrometer: FLMS00149
Trigger mode: 0
Integration Time (sec): 2.000000E-2
Scans to average: 10
Electric dark correction enabled: true
Nonlinearity correction enabled: false
Boxcar width: 0
XAxis mode: Wavelengths
Number of Pixels in Spectrum: 2048
>>>>>Begin Spectral Data<<<<<
341.393	-3.19
341.776	-3.19
342.16	-3.19
342.543	-41.61
342.927	-76.64
343.31	-62.4
343.693	-63.76
344.077	-66.92
344.46	-54.04
344.843	-56.52
345.226	-39.12
345.61	-20.82
345.993	-28.73
346.376	-12.23
346.759	-0.25
347.142	-4.77
347.525	28.22
347.908	71.38
348.291	87.2
348.674	107.31
349.057	115.45
349.44	118.61
349.823	143.02
350.206	152.51
350.588	182.79
350.971	218.72
351.354	216.92
351.737	226.18
352.119	239.51
352.502	272.73
352.884	264.6
353.267	260.3
353.65	301.21
354.032	287.2
354.414	298.95
354.797	295.78
355.179	337.36
355.562	315.9
355.944	321.55
356.326	335.56
356.709	341.43
357.091	334.88
357.473	330.58
357.855	330.58
358.238	335.33
358.62	322.68
359.002	341.66
359.384	335.56
359.766	322.45
360.148	337.14
360.53	349.34
360.912	349.57
361.294	335.78
361.676	333.07
362.057	327.19
362.439	337.59
362.821	316.12
363.203	308.21
363.584	311.83
363.966	326.97
364.348	294.65
364.729	320.87
365.111	321.55
365.493	327.87
365.874	305.5
366.256	311.38
366.637	306.86
367.019	293.07
367.4	295.33
367.781	299.85
368.163	292.62
368.544	310.02
368.925	295.78
369.306	300.53
369.688	313.18
370.069	305.5
370.45	293.07
370.831	300.98
371.212	309.34
371.593	310.92
371.974	315.9
372.355	323.13
372.736	314.54
373.117	325.84
373.498	289.68
373.879	307.08
374.26	304.6
374.641	299.4
375.021	316.57
375.402	330.58
375.783	309.79
376.163	324.26
376.544	332.62
376.925	336.01
377.305	322.22
377.686	323.81
378.066	313.64
378.447	317.48
378.827	343.69
379.208	321.32
379.588	319.74
379.968	340.08
380.349	328.1
380.729	328.78
381.109	331.71
381.489	339.4
381.87	327.19
382.25	348.66
382.63	339.85
383.01	326.97
383.39	324.93
383.77	339.62
384.15	327.19
384.53	327.65
384.91	340.08
385.29	341.21
385.67	328.78
386.049	336.01
386.429	340.98
386.809	336.46
387.189	335.33
387.568	349.34
387.948	365.16
388.328	368.78
388.707	343.92
389.087	342.11
389.466	339.62
389.846	361.54
390.225	351.83
390.605	340.53
390.984	357.02
391.363	371.71
391.743	371.26
392.122	349.57
392.501	348.66
392.881	360.19
393.26	357.02
393.639	378.72
394.018	378.04
394.397	355.67
394.776	369.45
395.155	393.63
395.534	353.63
395.913	363.58
396.292	361.77
396.671	355.67
397.05	350.7
397.429	359.74
397.808	371.71
398.186	392.73
398.565	385.72
398.944	380.07
399.323	390.92
399.701	373.75
400.08	402.22
400.458	397.48
400.837	380.07
401.215	386.18
401.594	379.85
401.972	366.29
402.351	383.01
402.729	397.25
403.107	374.43
403.486	406.97
403.864	393.86
404.242	395.89
404.62	422.79
404.999	404.25
405.377	417.81
405.755	402.45
406.133	405.61
406.511	407.19
406.889	405.16
407.267	420.98
407.645	433.86
408.023	418.27
408.401	451.49
408.779	435.89
409.156	433.86
409.534	447.19
409.912	424.37
410.29	469.34
410.667	468.21
411.045	463.91
411.422	479.96
411.8	468.21
412.178	477.02
412.555	464.82
412.933	469.56
413.31	478.15
413.687	490.13
414.065	494.87
414.442	500.75
414.819	529
415.197	516.12
415.574	528.32
415.951	530.13
416.328	524.7
416.705	541.2
417.082	533.07
417.46	538.49
417.837	541.65
418.214	556.12
418.591	557.02
418.967	580.97
419.344	583.69
419.721	580.97
420.098	584.36
420.475	574.42
420.852	597.7
421.228	584.82
421.605	615.32
421.982	614.64
422.358	623.68
422.735	606.06
423.111	635.89
423.488	620.97
423.864	644.93
424.241	636.57
424.617	651.25
424.994	665.94
425.37	650.58
425.746	668.2
426.123	678.82
426.499	665.26
426.875	681.99
427.251	694.19
427.627	702.78
428.003	704.59
428.379	704.36
428.756	712.95
429.132	728.09
429.507	732.16
429.883	777.13
430.259	736
430.635	742.55
431.011	764.47
431.387	782.32
431.763	789.1
432.138	777.8
432.514	820.06
432.89	790.46
433.265	791.14
433.641	835.66
434.016	820.97
434.392	833.62
434.767	849.89
435.143	850.8
435.518	887.18
435.894	863.68
436.269	866.39
436.644	891.93
437.02	895.99
437.395	878.59
437.77	918.59
438.145	927.4
438.52	911.81
438.895	917.91
439.271	932.83
439.646	969.66
440.021	942.32
440.395	927.63
440.77	942.09
441.145	946.84
441.52	975.99
441.895	972.38
442.27	992.26
442.645	985.71
443.019	1016.22
443.394	1008.76
443.769	966.5
444.143	1015.76
444.518	1017.12
444.892	996.78
445.267	1001.75
445.641	1003.79
446.016	1035.42
446.39	1041.53
446.764	1020.28
447.139	1019.38
447.513	1040.85
447.887	1029.1
448.262	1055.31
448.636	1047.85
449.01	1053.5
449.384	1085.14
449.758	1073.84
450.132	1098.7
450.506	1076.33
450.88	1071.81
451.254	1064.35
451.628	1093.05
452.002	1094.41
452.376	1115.87
452.75	1111.58
453.123	1110.9
453.497	1111.35
453.871	1119.72
454.244	1158.59
454.618	1161.98
454.992	1168.08
455.365	1143.67
455.739	1166.72
456.112	1192.03
456.486	1205.14
456.859	1180.28
457.232	1201.3
457.606	1216.66
457.979	1196.55
458.352	1226.15
458.725	1243.55
459.099	1256.21
459.472	1268.19
459.845	1269.09
460.218	1294.4
460.591	1307.51
460.964	1283.55
461.337	1289.2
461.71	1309.77
462.083	1345.47
462.456	1321.29
462.829	1341.41
463.201	1371.69
463.574	1344.12
463.947	1360.16
464.32	1397.45
464.692	1423.66
465.065	1443.1
465.438	1399.93
465.81	1427.5
466.183	1432.7
466.555	1483.77
466.928	1439.26
467.3	1465.7
467.672	1471.57
468.045	1523.77
468.417	1548.18
468.789	1544.79
469.161	1504.11
469.534	1560.38
469.906	1595.41
470.278	1585.01
470.65	1575.52
471.022	1650.55
471.394	1646.93
471.766	1649.42
472.138	1673.37
472.51	1681.74
472.882	1707.95
473.253	1714.5
473.625	1753.82
473.997	1752.92
474.369	1817.78
474.74	1765.58
475.112	1813.71
475.484	1832.69
475.855	1868.85
476.227	1849.87
476.598	1905.23
476.97	1914.95
477.341	1963.54
477.713	1978.22
478.084	1951.56
478.455	1998.11
478.827	2047.6
479.198	2093.02
479.569	2094.38
479.94	2148.84
480.311	2157.43
480.682	2163.98
481.053	2194.49
481.424	2268.84
481.795	2261.83
482.166	2310.19
482.537	2302.96
482.908	2324.88
483.279	2362.62
483.65	2394.94
484.021	2407.82
484.391	2451.43
484.762	2476.06
485.133	2459.57
485.503	2516.74
485.874	2555.16
486.244	2558.55
486.615	2603.97
486.985	2625.67
487.356	2670.18
487.726	2684.19
488.097	2756.51
488.467	2742.72
488.837	2802.16
489.207	2766.9
489.578	2817.75
489.948	2860.69
490.318	2861.37
490.688	2880.57
491.058	2919.89
491.428	2951.31
491.798	2969.61
492.168	3064.98
492.538	3043.73
492.908	3061.36
493.278	3088.03
493.648	3090.29
494.017	3169.15
494.387	3168.7
494.757	3192.2
495.126	3211.64
495.496	3234.24
495.866	3272.43
496.235	3258.87
496.605	3289.6
496.974	3335.03
497.344	3310.62
497.713	3344.52
498.082	3322.6
498.452	3362.6
498.821	3386.1
499.19	3389.71
499.559	3388.81
499.928	3404.18
500.298	3474.68
500.667	3517.39
501.036	3465.64
501.405	3499.99
501.774	3506.32
502.143	3527.79
502.512	3522.82
502.88	3577.05
503.249	3567.34
503.618	3589.93
503.987	3589.71
504.356	3581.12
504.724	3625.41
505.093	3678.29
505.462	3625.87
505.83	3647.56
506.199	3673.77
506.567	3691.17
506.936	3706.09
507.304	3748.8
507.672	3751.74
508.041	3736.82
508.409	3760.32
508.777	3766.43
509.145	3791.06
509.514	3801
509.882	3844.16
510.25	3799.42
510.618	3858.63
510.986	3844.16
511.354	3886.65
511.722	3883.94
512.09	3937.5
512.458	3901.11
512.826	3922.81
513.193	3945.63
513.561	3932.07
513.929	3930.72
514.297	3980.43
514.664	4013.65
515.032	3974.33
515.4	3995.8
515.767	4026.08
516.135	4071.28
516.502	4015.46
516.869	4056.59
517.237	4083.03
517.604	4007.1
517.972	4102.01
518.339	4077.38
518.706	4102.24
519.073	4084.38
519.44	4074.44
519.808	4140.88
520.175	4117.15
520.542	4156.25
520.909	4175.23
521.276	4164.38
521.643	4156.47
522.009	4154.21
522.376	4180.65
522.743	4234.21
523.11	4245.96
523.477	4284.15
523.843	4278.96
524.21	4304.72
524.577	4305.17
524.943	4332.29
525.31	4364.6
525.676	4384.26
526.043	4418.61
526.409	4429.01
526.776	4467.42
527.142	4506.97
527.508	4527.54
527.874	4522.11
528.241	4558.27
528.607	4536.8
528.973	4554.43
529.339	4515.33
529.705	4652.28
530.071	4629.68
530.437	4633.07
530.803	4656.57
531.169	4652.05
531.535	4662.9
531.901	4718.49
532.267	4754.65
532.632	4786.51
532.998	4793.52
533.364	4793.74
533.73	4787.19
534.095	4805.72
534.461	4862.89
534.826	4861.31
535.192	4886.4
535.557	4908.32
535.923	4915.1
536.288	4918.94
536.653	4993.06
537.019	4960.97
537.384	4970.69
537.749	4994.87
538.114	5039.16
538.479	5062.66
538.845	5120.97
539.21	5062.21
539.575	5107.18
539.94	5144.7
540.305	5177.24
540.67	5129.55
541.034	5185.37
541.399	5207.29
541.764	5204.13
542.129	5226.95
542.494	5220.63
542.858	5293.84
543.223	5278.25
543.587	5304.92
543.952	5341.3
544.316	5349.44
544.681	5382.66
545.045	5406.61
545.41	5411.58
545.774	5507.62
546.138	5500.84
546.503	5501.52
546.867	5493.61
547.231	5513.95
547.595	5531.35
547.959	5598.24
548.324	5550.33
548.688	5579.26
549.052	5643.21
549.416	5634.85
549.779	5622.87
550.143	5660.84
550.507	5694.51
550.871	5731.12
551.235	5695.87
551.599	5718.92
551.962	5776.54
552.326	5802.98
552.689	5797.33
553.053	5818.8
553.417	5807.5
553.78	5858.57
554.143	5847.73
554.507	5872.36
554.87	5912.13
555.234	5924.34
555.597	5903.09
555.96	5995.97
556.323	5914.17
556.686	5960.49
557.05	6006.82
557.413	5989.87
557.776	6032.13
558.139	6054.95
558.502	6083.43
558.865	6106.7
559.228	6138.34
559.59	6119.13
559.953	6140.6
560.316	6228.06
560.679	6141.96
561.041	6188.06
561.404	6187.38
561.767	6261.28
562.129	6235.29
562.492	6345.34
562.854	6288.85
563.217	6333.59
563.579	6314.38
563.941	6353.48
564.304	6368.39
564.666	6415.17
565.028	6388.5
565.39	6379.69
565.753	6444.77
566.115	6517.09
566.477	6507.37
566.839	6478.45
567.201	6571.78
567.563	6568.39
567.925	6638.44
568.287	6625.56
568.648	6624.66
569.01	6662.4
569.372	6719.34
569.734	6697.2
570.095	6748.04
570.457	6799.57
570.819	6812.45
571.18	6797.76
571.542	6918.43
571.903	6911.43
572.265	6955.27
572.626	6996.85
572.987	7029.17
573.349	7056.51
573.71	7111.42
574.071	7113.68
574.432	7158.88
574.794	7272.77
575.155	7313.68
575.516	7320.01
575.877	7407.23
576.238	7403.17
576.599	7505.09
576.96	7567.68
577.32	7604.52
577.681	7700.79
578.042	7808.35
578.403	7863.04
578.763	7966.77
579.124	8005.64
579.485	8147.55
579.845	8240.21
580.206	8322.24
580.566	8393.65
580.927	8527.43
581.287	8673.19
581.648	8780.98
582.008	8953.86
582.368	9015.1
582.728	9192.5
583.089	9328.77
583.449	9473.39
583.809	9713.39
584.169	9831.58
584.529	9970.11
584.889	10162.42
585.249	10264.79
585.609	10510.88
585.969	10721.72
586.329	10939.8
586.688	11072.9
587.048	11342.72
587.408	11499.56
587.768	11780.45
588.127	11997.17
588.487	12252.08
588.846	12562.13
589.206	12615.46
589.565	12892.29
589.925	13301.09
590.284	13444.82
590.643	13735.88
591.003	14039.15
591.362	14306.49
591.721	14548.52
592.08	14738.79
592.44	15121.83
592.799	15301.49
593.158	15604.76
593.517	15947.8
593.876	16196.83
594.235	16463.04
594.593	16765.41
594.952	17053.53
595.311	17372.85
595.67	17676.57
596.029	17938.94
596.387	18206.95
596.746	18540.73
597.104	18725.81
597.463	19021.62
597.822	19425
598.18	19614.82
598.538	19898.88
598.897	20274.24
599.255	20465.2
599.613	20917.39
599.972	21103.15
600.33	21406.87
600.688	21664.03
601.046	22056.79
601.404	22247.75
601.762	22520.06
602.12	22915.53
602.478	23180.83
602.836	23325.23
603.194	23537.88
603.552	23778.33
603.91	24010.19
604.268	24360.24
604.625	24487.92
604.983	24944.85
605.341	25090.16
605.698	25453.99
606.056	25730.37
606.413	25827.09
606.771	26215.78
607.128	26406.74
607.485	26503
607.843	26665.49
608.2	27124.46
608.557	27436.09
608.914	27547.27
609.272	27849.41
609.629	28092.34
609.986	28355.84
610.343	28492.1
610.7	28802.15
611.057	28856.61
611.414	29121.92
611.771	29271.74
612.127	29602.13
612.484	29756.93
612.841	29964.83
613.198	30013.19
613.554	30251.61
613.911	30487.31
614.267	30676.45
614.624	30740.18
614.98	30939.05
615.337	31094.07
615.693	31355.53
616.05	31428.3
616.406	31802.75
616.762	31717.1
617.118	32024.89
617.475	32101.73
617.831	32335.39
618.187	32401.83
618.543	32556.63
618.899	32804.53
619.255	32931.31
619.611	32964.53
619.967	33221.02
620.323	33309.83
620.678	33222.38
621.034	33319.55
621.39	33478.19
621.746	33623.49
622.101	33955.92
622.457	33797.95
622.812	33998.85
623.168	34085.86
623.523	34250.6
623.879	34331.5
624.234	34338.05
624.589	34429.8
624.945	34567.65
625.3	34652.85
625.655	34819.85
626.01	34759.74
626.365	34925.83
626.72	34949.11
627.075	35030.69
627.43	35069.11
627.785	35062.78
628.14	35238.14
628.495	35298.7
628.85	35387.52
629.205	35337.12
629.559	35523.33
629.914	35388.87
630.269	35494.41
630.623	35418.48
630.978	35466.84
631.332	35675.64
631.687	35763.55
632.041	35543.9
632.396	35716.77
632.75	35604.69
633.104	35651.24
633.459	35656.89
633.813	35751.8
634.167	35759.48
634.521	35611.69
634.875	35779.14
635.229	35782.08
635.583	35644.01
635.937	35718.81
636.291	35574.18
636.645	35774.62
636.999	35776.21
637.352	35867.05
637.706	35723.78
638.06	35849.88
638.413	35826.83
638.767	35723.1
639.121	35794.74
639.474	35559.94
639.828	35686.94
640.181	35805.13
640.534	35748.41
640.888	35615.98
641.241	35539.15
641.594	35670.67
641.947	35592.48
642.301	35684.01
642.654	35757.9
643.007	35819.14
643.36	35671.58
643.713	35583.44
644.066	35774.85
644.419	35561.52
644.771	35415.54
645.124	34963.57
645.477	35084.92
645.83	34890.81
646.182	34740.75
646.535	34659.63
646.888	34797.7
647.24	34539.85
647.593	34687.42
647.945	34624.15
648.298	34553.19
648.65	34385.51
649.002	34414.66
649.355	34660.76
649.707	34519.29
650.059	34679.51
650.411	35075.66
650.763	35153.17
651.115	35369.21
651.467	35307.97
651.819	35420.06
652.171	35403.56
652.523	35455.99
652.875	35490.56
653.227	35192.49
653.578	35391.13
653.93	35302.09
654.282	35078.82
654.633	35201.31
654.985	35116.56
655.337	35130.12
655.688	35226.62
656.039	35116.56
656.391	34981.65
656.742	35052.84
657.094	35062.1
657.445	35209.89
657.796	35073.4
658.147	35004.7
658.498	35026.62
658.849	34971.26
659.2	35043.12
659.551	35012.61
659.902	35228.88
660.253	34916.34
660.604	34995.21
660.955	34937.36
661.306	35090.35
661.656	34949.11
662.007	34987.75
662.358	35066.17
662.708	34975.55
663.059	34836.34
663.409	34815.33
663.76	34906.17
664.11	34992.27
664.461	35065.04
664.811	34975.1
665.161	34965.38
665.511	35007.19
665.862	34870.92
666.212	34996.34
666.562	35116.34
666.912	34955.89
667.262	34951.82
667.612	34902.1
667.962	35003.12
668.312	34881.99
668.662	35034.08
669.011	34869.11
669.361	34856
669.711	34876.12
670.06	34891.03
670.41	34700.3
670.76	34821.66
671.109	34934.65
671.459	34816.91
671.808	34682.45
672.157	34853.52
672.507	34675.9
672.856	34694.43
673.205	34616.01
673.554	34726.06
673.904	34677.7
674.253	34965.15
674.602	34682.9
674.951	34151.62
675.3	34005.41
675.649	34668.21
675.998	34661.89
676.346	34601.55
676.695	34842.67
677.044	34548.44
677.393	34570.59
677.741	34697.14
678.09	34487.43
678.438	34384.83
678.787	34477.03
679.135	34479.97
679.484	34302.35
679.832	34399.29
680.181	34219.64
680.529	34298.05
680.877	34125.4
681.225	34234.55
681.573	34394.1
681.922	34167.43
682.27	33954.56
682.618	34057.38
682.966	33926.54
683.314	34068
683.661	33830.04
684.009	33830.95
684.357	33658.75
684.705	33660.56
685.053	33716.83
685.4	33710.27
685.748	33445.42
686.095	33428.25
686.443	33467.11
686.79	33367.46
687.138	33391.86
687.485	33508.7
687.832	33319.77
688.18	33300.57
688.527	33195.03
688.874	33135.37
689.221	33010.4
689.568	33037.75
689.915	32998.2
690.262	32952.33
690.609	32884.08
690.956	32701.94
691.303	32692.9
691.65	32651.99
691.997	32522.73
692.344	32364.32
692.69	32359.57
693.037	32346.24
693.383	32146.47
693.73	32098.79
694.077	32066.02
694.423	32059.92
694.769	31960.04
695.116	31982.41
695.462	31809.98
695.808	31634.39
696.155	31838.23
696.501	31485.25
696.847	31630.78
697.193	31379.94
697.539	31436.21
697.885	31166.84
698.231	31075.31
698.577	31147.85
698.923	31135.88
699.269	30968.42
699.614	30820.63
699.96	30714.19
700.306	30800.97
700.651	30676.91
700.997	30557.81
701.342	30490.02
701.688	30480.07
702.033	30300.87
702.379	30397.36
702.724	30245.5
703.069	30333.64
703.415	29960.99
703.76	29973.42
704.105	30035.11
704.45	29965.74
704.795	29729.81
705.14	29715.12
705.485	29612.07
705.83	29596.93
706.175	29681.9
706.52	29536.6
706.865	29353.55
707.209	29323.95
707.554	29235.36
707.899	29358.52
708.243	29153.1
708.588	29025.65
708.932	28928.93
709.277	28886.67
709.621	28891.19
709.966	28702.04
710.31	28801.93
710.654	28634.93
710.998	28610.52
711.342	28523.97
711.687	28540.92
712.031	28432.44
712.375	28172.34
712.719	28363.07
713.063	28392.22
713.407	28344.99
713.75	28166.24
714.094	28172.79
714.438	28044.66
714.782	28068.84
715.125	27786.13
715.469	27980.25
715.812	27893.93
716.156	27706.36
716.499	27827.26
716.843	27740.94
717.186	27613.03
717.53	27627.27
717.873	27539.36
718.216	27478.12
718.559	27420.95
718.902	27342.98
719.246	27314.06
719.589	27266.6
719.932	27085.81
720.275	27076.55
720.617	27173.04
720.96	27151.35
721.303	26971.24
721.646	27171.91
721.989	26771.47
722.331	27042.65
722.674	26891.24
723.016	27001.97
723.359	26831.81
723.701	26772.83
724.044	26633.17
724.386	26644.02
724.729	26609.22
725.071	26625.03
725.413	26570.12
725.755	26490.8
726.097	26402.22
726.439	26268.89
726.782	26343.69
727.124	26459.62
727.465	26248.77
727.807	26296
728.149	26171.94
728.491	26197.25
728.833	26143.01
729.175	26093.07
729.516	26069.57
729.858	25980.31
730.199	26061.21
730.541	25911.15
730.882	25924.04
731.224	25946.86
731.565	25733.53
731.906	25844.94
732.248	25778.28
732.589	25649.92
732.93	25573.76
733.271	25623.25
733.612	25571.73
733.953	25637.49
734.294	25509.13
734.635	25340.32
734.976	25469.81
735.317	25432.75
735.658	25381.68
735.999	25390.04
736.339	25270.04
736.68	25327.89
737.021	25241.57
737.361	25169.03
737.702	25327.44
738.042	25153.43
738.383	25176.03
738.723	25206.99
739.063	25030.73
739.404	25161.34
739.744	24982.37
740.084	24799.77
740.424	24942.59
740.764	24864.85
741.104	24936.72
741.444	24810.62
741.784	24663.96
742.124	24866.21
742.464	24707.12
742.804	24561.13
743.143	24588.93
743.483	24560
743.823	24442.72
744.162	24451.76
744.502	24576.27
744.841	24413.12
745.181	24438.2
745.52	24353.68
745.86	24400.01
746.199	24286.11
746.538	24234.59
746.877	24332.67
747.216	24343.29
747.556	24182.84
747.895	24147.13
748.234	24143.52
748.573	24033.24
748.911	24066.68
749.25	23990.53
749.589	23965.44
749.928	23914.37
750.267	23881.15
750.605	23748.73
750.944	23787.14
751.283	23706.92
751.621	23778.1
751.96	23578.11
752.298	23597.77
752.636	23645
752.975	23486.13
753.313	23400.49
753.651	23613.59
753.989	23332.47
754.327	23246.82
754.666	23172.47
755.004	23175.18
755.342	23278.23
755.679	23067.84
756.017	22938.13
756.355	23165.46
756.693	23010.21
757.031	22989.2
757.368	22822.87
757.706	22884.79
758.044	22789.2
758.381	22820.39
758.719	22762.99
759.056	22680.96
759.394	22674.86
759.731	22411.36
760.068	22523
760.405	22381.98
760.743	22272.61
761.08	22353.06
761.417	22167.52
761.754	22150.35
762.091	22253.85
762.428	22045.49
762.765	21867.19
763.102	21948.55
763.438	21850.47
763.775	21647.99
764.112	21711.72
764.449	21711.94
764.785	21713.3
765.122	21460.88
765.458	21450.48
765.795	21340.2
766.131	21305.4
766.467	21220.43
766.804	21218.85
767.14	21009.59
767.476	21050.04
767.812	20964.39
768.148	21020.44
768.485	20791.29
768.821	20700.67
769.157	20696.15
769.492	20641.01
769.828	20605.98
770.164	20453.9
770.5	20466.1
770.836	20504.52
771.171	20318.08
771.507	20246.67
771.842	20086.45
772.178	20161.93
772.513	19980.46
772.849	20079.22
773.184	19898.88
773.519	19812.33
773.855	19840.35
774.19	19709.06
774.525	19645.33
774.86	19634.26
775.195	19585.9
775.53	19454.83
775.865	19383.19
776.2	19214.61
776.535	19085.35
776.87	19112.46
777.205	18971.9
777.539	18891.23
777.874	18988.4
778.209	18786.6
778.543	18708.41
778.878	18621.63
779.212	18623.66
779.547	18506.38
779.881	18633.61
780.215	18329.43
780.55	18370.11
780.884	18356.1
781.218	18223
781.552	18296.89
781.886	18125.37
782.22	18074.98
782.554	18022.77
782.888	17861.87
783.222	17854.64
783.556	17710.92
783.889	17650.81
784.223	17615.33
784.557	17595.89
784.89	17504.37
785.224	17503.01
785.557	17407.88
785.891	17393.64
786.224	17253.53
786.558	17366.97
786.891	17148.45
787.224	17058.73
787.557	16985.74
787.891	16935.35
788.224	16945.97
788.557	16974.21
788.89	16828.46
789.223	16886.53
789.556	16696.71
789.888	16585.52
790.221	16615.58
790.554	16531.29
790.887	16473.66
791.219	16437.51
791.552	16330.16
791.884	16317.06
792.217	16205.2
792.549	16246.1
792.882	16130.17
793.214	16072.77
793.546	16066.44
793.879	15888.14
794.211	15917.52
794.543	15839.1
794.875	15837.52
795.207	15809.5
795.539	15692.44
795.871	15731.76
796.203	15513.01
796.535	15503.07
796.867	15534.93
797.198	15442.96
797.53	15419.91
797.862	15253.81
798.193	15354.37
798.525	15183.3
798.856	15251.1
799.188	15098.56
799.519	14974.95
799.85	14988.5
800.182	14911.9
800.513	14943.31
800.844	14821.5
801.175	14938.56
801.506	14807.49
801.837	14838.9
802.168	14728.62
802.499	14699.7
802.83	14590.55
803.161	14555.52
803.491	14585.35
803.822	14545.58
804.153	14513.71
804.483	14429.87
804.814	14318.69
805.145	14337.22
805.475	14287.05
805.805	14255.19
806.136	14197.11
806.466	14200.28
806.796	14211.12
807.126	14005.48
807.457	13945.82
807.787	14090.45
808.117	13968.19
808.447	13956.21
808.777	14011.13
809.107	13914.41
809.436	13807.29
809.766	13838.48
810.096	13802.77
810.426	13730.23
810.755	13721.64
811.085	13700.63
811.414	13648.65
811.744	13522.33
812.073	13563.91
812.403	13524.81
812.732	13483.46
813.061	13441.2
813.39	13361.43
813.719	13294.54
814.049	13393.29
814.378	13336.12
814.707	13272.39
815.036	13121.43
815.365	13195.33
815.693	13006.64
816.022	13123.92
816.351	13014.32
816.68	12993.3
817.008	13011.61
817.337	12883.7
817.665	12907.88
817.994	12847.77
818.322	12871.05
818.651	12783.59
818.979	12717.38
819.307	12856.81
819.636	12775.68
819.964	12638.74
820.292	12814.78
820.62	12692.29
820.948	12685.74
821.276	12688.9
821.604	12645.06
821.932	12642.8
822.259	12723.03
822.587	12657.94
822.915	12588.12
823.243	12681.9
823.57	12552.18
823.898	12618.17
824.225	12586.99
824.553	12487.33
824.88	12516.7
825.207	12616.82
825.535	12569.58
825.862	12583.14
826.189	12527.33
826.516	12556.7
826.843	12581.56
827.17	12673.08
827.497	12575.91
827.824	12529.59
828.151	12612.52
828.478	12546.76
828.805	12585.18
829.131	12537.5
829.458	12521.9
829.785	12438.29
830.111	12516.25
830.438	12506.76
830.764	12520.77
831.09	12525.97
831.417	12458.85
831.743	12515.57
832.069	12462.69
832.395	12474.67
832.722	12481.45
833.048	12474.67
833.374	12532.98
833.7	12442.81
834.026	12412.07
834.351	12465.86
834.677	12453.2
835.003	12446.65
835.329	12423.15
835.654	12391.28
835.98	12313.77
836.306	12390.61
836.631	12296.6
836.956	12326.43
837.282	12318.74
837.607	12265.64
837.932	12231.29
838.258	12228.58
838.583	12160.56
838.908	12158.97
839.233	12165.53
839.558	12175.02
839.883	12107.9
840.208	12129.14
840.533	12079.2
840.858	12033.33
841.182	12055.47
841.507	12011.18
841.832	11952.65
842.156	11905.87
842.481	11966.89
842.805	11890.73
843.13	11852.77
843.454	11892.99
843.778	11792.43
844.103	11737.97
844.427	11767.35
844.751	11779.78
845.075	11740.91
845.399	11588.14
845.723	11556.96
846.047	11599.21
846.371	11503.62
846.695	11506.56
847.019	11395.83
847.343	11418.2
847.666	11335.72
847.99	11336.62
848.313	11277.42
848.637	11289.84
848.96	11147.48
849.284	11157.19
849.607	11074.03
849.931	10997.65
850.254	10982.06
850.577	10972.56
850.9	10874.49
851.223	10831.33
851.546	10755.4
851.869	10716.98
852.192	10750.2
852.515	10616.42
852.838	10639.24
853.161	10676.53
853.483	10551.56
853.806	10547.72
854.129	10516.31
854.451	10472.01
854.774	10349.08
855.096	10472.46
855.419	10310.89
855.741	10269.31
856.063	10314.05
856.385	10258.23
856.708	10241.28
857.03	10237.67
857.352	10224.56
857.674	10134.62
857.996	10081.29
858.318	10088.52
858.64	10054.62
858.961	10076.77
859.283	9952.93
859.605	9897.79
859.926	9949.09
860.248	9916.1
860.57	9903.67
860.891	9955.19
861.212	9878.36
861.534	9773.73
861.855	9768.53
862.176	9777.34
862.498	9785.25
862.819	9820.05
863.14	9737.79
863.461	9702.54
863.782	9730.34
864.103	9610.11
864.424	9679.49
864.745	9746.16
865.065	9574.41
865.386	9592.94
865.707	9552.26
866.027	9597.01
866.348	9602.43
866.668	9493.51
866.989	9542.09
867.309	9458.48
867.63	9451.93
867.95	9411.48
868.27	9417.8
868.59	9387.52
868.91	9361.08
869.23	9444.47
869.55	9319.27
869.87	9341.65
870.19	9355.43
870.51	9345.71
870.83	9424.13
871.15	9291.25
871.469	9326.28
871.789	9323.57
872.109	9286.51
872.428	9196.34
872.748	9195.66
873.067	9279.28
873.386	9192.5
873.706	9179.39
874.025	9164.25
874.344	9093.29
874.663	9121.54
874.982	9177.13
875.301	9136.91
875.62	9062.11
875.939	8992.96
876.258	9010.81
876.577	9012.16
876.896	8998.15
877.214	9050.13
877.533	9020.07
877.852	8971.26
878.17	9020.75
878.489	8917.25
878.807	8895.78
879.125	8866.41
879.444	8903.92
879.762	8844.48
880.08	8924.03
880.398	8781.44
880.716	8798.84
881.034	8787.31
881.352	8819.85
881.67	8739.18
881.988	8813.07
882.306	8726.75
882.624	8736.69
882.941	8700.99
883.259	8668.22
883.577	8665.73
883.894	8635.45
884.212	8580.99
884.529	8587.09
884.846	8657.6
885.164	8586.41
885.481	8573.98
885.798	8516.81
886.115	8448.79
886.432	8469.58
886.75	8475.91
887.067	8424.38
887.383	8451.73
887.7	8426.87
888.017	8349.81
888.334	8435
888.651	8333.76
888.967	8331.05
889.284	8276.82
889.6	8209.7
889.917	8264.61
890.233	8162.69
890.55	8233.88
890.866	8193.2
891.182	8146.65
891.498	8110.04
891.815	8077.5
892.131	8059.87
892.447	8118.63
892.763	8042.02
893.079	7997.28
893.395	7937.84
893.71	7969.25
894.026	7920.67
894.342	7888.8
894.657	7883.83
894.973	7873.66
895.289	7875.92
895.604	7863.27
895.92	7741.92
896.235	7769.26
896.55	7757.28
896.865	7791.86
897.181	7717.96
897.496	7704.4
897.811	7648.13
898.126	7660.56
898.441	7638.64
898.756	7628.25
899.071	7529.27
899.386	7585.31
899.7	7444.52
900.015	7442.26
900.33	7363.39
900.644	7383.73
900.959	7407.01
901.273	7389.38
901.588	7308.71
901.902	7279.33
902.216	7237.97
902.531	7198.65
902.845	7225.32
903.159	7118.43
903.473	7176.05
903.787	7143.06
904.101	7054.48
904.415	7075.04
904.729	7033.46
905.042	7015.38
905.356	6979
905.67	6962.95
905.984	6970.86
906.297	6937.64
906.611	6863.29
906.924	6858.77
907.237	6852.67
907.551	6831.66
907.864	6765.44
908.177	6751.66
908.491	6758.21
908.804	6723.18
909.117	6681.83
909.43	6633.7
909.743	6684.32
910.056	6597.09
910.368	6563.87
910.681	6532.23
910.994	6518.44
911.307	6508.95
911.619	6431.22
911.932	6477.32
912.244	6418.11
912.557	6433.25
912.869	6381.95
913.181	6424.89
913.494	6336.75
913.806	6302.63
914.118	6284.55
914.43	6248.4
914.742	6207.49
915.054	6212.92
915.366	6141.05
915.678	6178.11
915.99	6132.92
916.302	6103.09
916.613	6095.63
916.925	6049.3
917.236	6022.19
917.548	6003.66
917.859	6044.56
918.171	5940.38
918.482	5887.05
918.794	5884.11
919.105	5913.49
919.416	5852.25
919.727	5836.65
920.038	5792.36
920.349	5769.09
920.66	5746.49
920.971	5770.89
921.282	5740.16
921.593	5669.65
921.903	5671.91
922.214	5639.82
922.525	5608.86
922.835	5637.34
923.146	5522.99
923.456	5580.62
923.767	5500.39
924.077	5537
924.387	5481.64
924.697	5481.64
925.008	5466.95
925.318	5429.89
925.628	5402.77
925.938	5345.59
926.248	5349.44
926.558	5340.4
926.867	5364.35
927.177	5295.65
927.487	5195.54
927.796	5262.43
928.106	5212.04
928.416	5207.07
928.725	5142.44
929.034	5126.16
929.344	5139.5
929.653	5127.75
929.962	5092.49
930.271	5081.19
930.581	5047.97
930.89	4985.15
931.199	4991.48
931.508	5026.51
931.817	4945.83
932.125	4943.8
932.434	4935.66
932.743	4902.22
933.051	4874.87
933.36	4854.08
933.669	4832.16
933.977	4817.47
934.286	4782.9
934.594	4773.41
934.902	4710.36
935.21	4744.93
935.519	4743.12
935.827	4723.46
936.135	4701.54
936.443	4693.41
936.751	4631.49
937.059	4628.55
937.367	4601.66
937.674	4566.86
937.982	4517.14
938.29	4516.24
938.597	4539.97
938.905	4489.12
939.213	4491.61
939.52	4438.05
939.827	4479.18
940.135	4417.26
940.442	4400.76
940.749	4407.09
941.056	4391.04
941.363	4342.91
941.67	4357.82
941.977	4340.65
942.284	4293.19
942.591	4243.93
942.898	4281.89
943.205	4235.79
943.511	4180.88
943.818	4188.11
944.125	4233.08
944.431	4194.21
944.738	4189.47
945.044	4131.84
945.35	4123.03
945.657	4070.83
945.963	4079.19
946.269	4095.91
946.575	4059.53
946.881	4019.98
947.187	4007.32
947.493	3969.36
947.799	4005.29
948.105	3977.27
948.41	3919.42
948.716	3994.22
949.022	3923.03
949.327	3925.29
949.633	3843.49
949.938	3881.9
950.244	3870.38
950.549	3803.49
950.854	3767.56
951.16	3812.53
951.465	3758.52
951.77	3765.3
952.075	3748.8
952.38	3720.78
952.685	3744.73
952.99	3658.63
953.294	3640.1
953.599	3659.08
953.904	3634.68
954.209	3595.58
954.513	3601.91
954.818	3564.85
955.122	3593.78
955.426	3558.07
955.731	3510.39
956.035	3552.42
956.339	3525.98
956.643	3480.56
956.948	3481.69
957.252	3467.68
957.556	3518.52
957.86	3442.59
958.163	3434.23
958.467	3415.02
958.771	3400.11
959.075	3361.01
959.378	3351.07
959.682	3384.97
959.985	3357.85
960.289	3331.18
960.592	3352.65
960.896	3278.76
961.199	3287.34
961.502	3263.39
961.805	3257.29
962.108	3238.76
962.411	3279.66
962.714	3176.61
963.017	3197.63
963.32	3180
963.623	3168.02
963.926	3161.02
964.228	3140.23
964.531	3168.02
964.833	3107.69
965.136	3127.57
965.438	3078.76
965.741	3108.14
966.043	3046.45
966.345	3048.71
966.648	3075.6
966.95	2997.41
967.252	3021.59
967.554	3006.9
967.856	2998.76
968.158	2953.34
968.46	2974.13
968.761	2935.26
969.063	2956.73
969.365	2928.03
969.666	2914.25
969.968	2890.52
970.269	2897.52
970.571	2916.96
970.872	2877.64
971.174	2863.17
971.475	2883.96
971.776	2806.23
972.077	2755.38
972.378	2840.58
972.679	2756.28
972.98	2769.39
973.281	2756.06
973.582	2751.31
973.883	2765.55
974.183	2724.42
974.484	2737.07
974.785	2728.94
975.085	2697.08
975.386	2681.26
975.686	2652.33
975.986	2654.82
976.287	2667.7
976.587	2647.81
976.887	2638.32
977.187	2658.88
977.487	2607.13
977.787	2643.07
978.087	2584.76
978.387	2581.6
978.687	2539.79
978.987	2544.99
979.286	2570.07
979.586	2520.58
979.885	2490.3
980.185	2528.72
980.484	2500.92
980.784	2494.82
981.083	2479.23
981.382	2439.68
981.682	2464.31
981.981	2425.9
982.28	2471.09
982.579	2388.38
982.878	2442.85
983.177	2407.59
983.475	2401.94
983.774	2376.18
984.073	2397.2
984.372	2350.42
984.67	2374.6
984.969	2360.81
985.267	2352.68
985.566	2294.6
985.864	2360.36
986.162	2298.89
986.461	2332.57
986.759	2289.4
987.057	2263.64
987.355	2255.28
987.653	2254.15
987.951	2259.12
988.249	2238.33
988.547	2236.3
988.844	2181.84
989.142	2199.24
989.44	2201.27
989.737	2140.71
990.035	2181.16
990.332	2164.66
990.63	2159.01
990.927	2159.01
991.224	2125.79
991.521	2147.49
991.819	2140.48
992.116	2098
992.413	2118.33
992.71	2099.35
993.006	2084.44
993.303	2074.95
993.6	2049.18
993.897	2064.55
994.193	2041.95
994.49	2034.72
994.787	2002.4
995.083	2033.14
995.379	2002.18
995.676	1943.2
995.972	1997.43
996.268	1978.22
996.565	1948.4
996.861	1975.96
997.157	1944.55
997.453	1940.26
997.749	1915.4
998.044	1924.67
998.34	1896.87
998.636	1866.82
998.932	1871.79
999.227	1891
999.523	1862.97
999.818	1832.69
1000.114	1845.8
1000.409	1839.92
1000.704	1835.4
1001	1799.25
1001.295	1798.12
1001.59	1828.85
1001.885	1792.02
1002.18	1760.83
1002.475	1775.29
1002.77	1741.39
1003.065	1766.03
1003.359	1752.92
1003.654	1725.35
1003.949	1738.23
1004.243	1749.53
1004.538	1720.15
1004.832	1715.18
1005.127	1697.78
1005.421	1689.87
1005.715	1685.8
1006.009	1661.17
1006.304	1660.72
1006.598	1651
1006.892	1633.83
1007.186	1624.34
1007.48	1630.21
1007.773	1637.22
1008.067	1613.71
1008.361	1619.82
1008.655	1589.76
1008.948	1594.28
1009.242	1574.17
1009.535	1591.57
1009.829	1556.77
1010.122	1536.88
1010.415	1507.05
1010.708	1542.76
1011.001	1540.04
1011.295	1503.66
1011.588	1491.23
1011.881	1485.58
1012.173	1521.74
1012.466	1444.91
1012.759	1493.04
1013.052	1463.44
1013.344	1431.57
1013.637	1427.96
1013.93	1439.03
1014.222	1437.9
1014.514	1433.83
1014.807	1402.87
1015.099	1401.52
1015.391	1411.91
1015.683	1393.38
1015.976	1401.97
1016.268	1396.55
1016.56	1371.91
1016.851	1350.9
1017.143	1348.18
1017.435	1352.25
1017.727	1336.66
1018.018	1313.84
1018.31	1341.63
1018.602	1331.01
1018.893	1308.64
1019.185	1276.55
1019.476	1283.1
1019.767	1289.2
1020.058	1269.99
1020.35	1270.45
1020.641	1254.18
1020.932	1237
1021.223	1231.58
1021.514	1226.83
1021.804	1224.12
1022.095	1200.84
1022.386	1222.54
1022.677	1217.57
1022.967	1200.17
1023.258	1186.83
1023.548	1172.37
1023.839	1187.51
1024.129	1186.16
1024.419	1166.49
1024.709	1145.03
1025	1161.3
1025.29	1115.65
1025.58	1128.98
1025.87	1149.77
1026.16	1067.97
1026.449	1097.12
1026.739	1097.34
1027.029	1080.85
1027.319	1089.66
1027.608	1095.54
1027.898	1079.04
1028.187	1075.42
1028.477	1059.83
1028.766	1042.88
1029.055	1053.73
1029.344	1027.52
1029.634	1051.24
1029.923	1017.35
1030.212	1034.07
1030.501	1016.67
1030.79	1012.83
1031.078	1019.15
1031.367	1011.92
1031.656	999.04
1031.945	980.96
1032.233	980.96
1032.522	978.25
1032.81	952.04
1033.099	955.43
1033.387	949.33
1033.675	933.05
1033.963	942.77
1034.251	958.14
1034.54	948.42
1034.828	943.68
1035.116	923.79
1035.403	913.39
1035.691	914.52
1035.979	926.73
1036.267	897.35
1036.554	877.91
1036.842	891.47
1037.129	901.19
1037.417	867.75
1037.704	869.78
1037.992	859.84
1038.279	857.12
1038.566	835.43
1038.853	835.43
1039.14	835.43
