Data from hue_10_FLMS001491_13.txt Node
Date: Mon Feb 06 15:31:29 GMT 2017
User: dcchb
Spectrometer: FLMS00149
Trigger mode: 0
Integration Time (sec): 2.000000E-2
Scans to average: 10
Electric dark correction enabled: true
Nonlinearity correction enabled: false
Boxcar width: 0
XAxis mode: Wavelengths
Number of Pixels in Spectrum: 2048
>>>>>Begin Spectral Data<<<<<
341.393	-9.18
341.776	-9.18
342.16	-9.18
342.543	-64.77
342.927	-66.13
343.31	-59.35
343.693	-88.73
344.077	-68.16
344.46	-63.42
344.843	-56.64
345.226	-41.72
345.61	-41.95
345.993	-27.94
346.376	0.76
346.759	6.19
347.142	43.7
347.525	33.98
347.908	57.94
348.291	77.37
348.674	109.23
349.057	118.73
349.44	137.03
349.823	150.59
350.206	155.56
350.588	194.43
350.971	206.86
351.354	206.41
351.737	240.53
352.119	279.17
352.502	277.59
352.884	284.6
353.267	283.69
353.65	288.44
354.032	298.38
354.414	310.59
354.797	307.2
355.179	312.84
355.562	329.12
355.944	329.57
356.326	329.57
356.709	339.96
357.091	327.31
357.473	327.76
357.855	328.44
358.238	351.71
358.62	355.78
359.002	347.42
359.384	337.25
359.766	346.29
360.148	333.86
360.53	347.42
360.912	340.87
361.294	336.35
361.676	339.28
362.057	329.79
362.439	326.86
362.821	348.55
363.203	340.41
363.584	308.1
363.966	309
364.348	314.65
364.729	318.04
365.111	320.3
365.493	310.36
365.874	327.53
366.256	331.38
366.637	303.13
367.019	302.68
367.4	318.95
367.781	313.07
368.163	324.82
368.544	324.37
368.925	309.68
369.306	318.49
369.688	295.67
370.069	293.18
370.45	299.74
370.831	306.29
371.212	319.62
371.593	316.01
371.974	321.43
372.355	307.87
372.736	312.17
373.117	313.07
373.498	317.14
373.879	308.78
374.26	313.52
374.641	302.45
375.021	292.73
375.402	319.4
375.783	325.95
376.163	299.96
376.544	334.77
376.925	327.53
377.305	323.69
377.686	333.41
378.066	311.49
378.447	319.62
378.827	331.38
379.208	319.62
379.588	331.38
379.968	338.38
380.349	338.15
380.729	310.81
381.109	332.73
381.489	322.34
381.87	324.14
382.25	332.73
382.63	313.07
383.01	326.86
383.39	322.79
383.77	337.48
384.15	351.04
384.53	337.48
384.91	346.97
385.29	344.93
385.67	377.48
386.049	350.58
386.429	354.88
386.809	345.61
387.189	358.49
387.568	356.01
387.948	356.46
388.328	339.96
388.707	354.65
389.087	347.19
389.466	350.81
389.846	348.78
390.225	371.15
390.605	357.36
390.984	342.22
391.363	376.35
391.743	369.11
392.122	352.39
392.501	346.74
392.881	350.36
393.26	357.36
393.639	352.62
394.018	363.92
394.397	374.09
394.776	357.82
395.155	362.56
395.534	382.45
395.913	383.8
396.292	377.25
396.671	369.57
397.05	381.32
397.429	370.7
397.808	374.99
398.186	381.32
398.565	368.66
398.944	368.89
399.323	383.35
399.701	374.76
400.08	391.26
400.458	380.19
400.837	391.03
401.215	386.06
401.594	397.14
401.972	394.88
402.351	372.28
402.729	383.58
403.107	401.43
403.486	394.42
403.864	382
404.242	389.68
404.62	388.32
404.999	400.07
405.377	408.66
405.755	416.34
406.133	413.86
406.511	410.24
406.889	403.24
407.267	405.05
407.645	410.02
408.023	400.53
408.401	433.52
408.779	421.99
409.156	417.47
409.534	416.8
409.912	404.14
410.29	428.55
410.667	420.86
411.045	431.03
411.422	424.93
411.8	434.2
412.178	443.01
412.555	438.72
412.933	442.56
413.31	433.75
413.687	455.44
414.065	437.36
414.442	429.45
414.819	462.9
415.197	464.03
415.574	464.71
415.951	461.09
416.328	464.03
416.705	481.65
417.082	451.6
417.46	451.6
417.837	473.07
418.214	480.98
418.591	471.94
418.967	476.23
419.344	474.2
419.721	486.17
420.098	472.39
420.475	476.91
420.852	480.98
421.228	478.72
421.605	474.2
421.982	497.02
422.358	493.18
422.735	475.55
423.111	512.61
423.488	495.21
423.864	501.99
424.241	473.52
424.617	503.35
424.994	503.12
425.37	497.92
425.746	484.14
426.123	509.22
426.499	514.2
426.875	525.95
427.251	524.14
427.627	542.67
428.003	535.66
428.379	538.38
428.756	555.78
429.132	521.65
429.507	525.49
429.883	556.23
430.259	585.83
430.635	548.09
431.011	568.88
431.387	549.67
431.763	561.43
432.138	559.62
432.514	569.56
432.89	579.28
433.265	586.28
433.641	585.61
434.016	586.74
434.392	591.71
434.767	596.45
435.143	617.92
435.518	617.24
435.894	592.84
436.269	609.33
436.644	601.65
437.02	613.63
437.395	646.62
437.77	622.89
438.145	631.71
438.52	631.25
438.895	643.91
439.271	630.35
439.646	654.3
440.021	654.98
440.395	663.57
440.77	680.07
441.145	656.79
441.52	673.74
441.895	681.2
442.27	670.35
442.645	693.17
443.019	689.11
443.394	708.09
443.769	698.82
444.143	690.01
444.518	698.6
444.892	676.68
445.267	694.53
445.641	709.67
446.016	740.18
446.39	678.71
446.764	725.72
447.139	711.48
447.513	701.76
447.887	697.24
448.262	725.94
448.636	746.28
449.01	738.82
449.384	736.56
449.758	734.53
450.132	739.5
450.506	744.25
450.88	769.56
451.254	758.93
451.628	771.14
452.002	775.66
452.376	770.01
452.75	806.17
453.123	768.2
453.497	772.27
453.871	809.1
454.244	818.14
454.618	823.34
454.992	839.84
455.365	824.47
455.739	830.12
456.112	812.04
456.486	823.79
456.859	836.22
457.232	854.07
457.606	854.3
457.979	854.53
458.352	863.79
458.725	861.76
459.099	882.77
459.472	906.5
459.845	916.22
460.218	921.19
460.591	931.59
460.964	913.96
461.337	947.86
461.71	948.99
462.083	937.01
462.456	946.05
462.829	965.26
463.201	961.64
463.574	975.65
463.947	994.18
464.32	1005.26
464.692	1025.14
465.065	1006.16
465.438	1002.32
465.81	1058.14
466.183	1047.29
466.555	1050.9
466.928	1061.75
467.3	1091.58
467.672	1085.25
468.045	1096.1
468.417	1122.99
468.789	1134.07
469.161	1161.41
469.534	1172.26
469.906	1195.08
470.278	1182.2
470.65	1199.83
471.022	1237.79
471.394	1257.45
471.766	1245.7
472.138	1275.31
472.51	1279.6
472.882	1328.86
473.253	1299.94
473.625	1342.42
473.997	1344.91
474.369	1364.79
474.74	1382.2
475.112	1407.28
475.484	1441.63
475.855	1477.33
476.227	1488.18
476.598	1518.69
476.97	1519.82
477.341	1597.33
477.713	1609.31
478.084	1589.42
478.455	1662.64
478.827	1683.43
479.198	1742.86
479.569	1703.54
479.94	1765.01
480.311	1796.87
480.682	1833.03
481.053	1871.9
481.424	1930.88
481.795	1921.16
482.166	1952.58
482.537	1979.69
482.908	2080.71
483.279	2076.64
483.65	2128.16
484.021	2145.11
484.391	2165.68
484.762	2174.04
485.133	2193.7
485.503	2291.55
485.874	2312.34
486.244	2346.46
486.615	2421.26
486.985	2393.47
487.356	2435.73
487.726	2522.05
488.097	2523.41
488.467	2562.73
488.837	2630.52
489.207	2633.24
489.578	2726.79
489.948	2738.77
490.318	2751.65
490.688	2769.05
491.058	2816.06
491.428	2844.76
491.798	2877.3
492.168	2991.64
492.538	3009.5
492.908	3020.57
493.278	3061.25
493.648	3078.42
494.017	3105.31
494.387	3172.66
494.757	3159.55
495.126	3219.44
495.496	3217.18
495.866	3291.98
496.235	3339.66
496.605	3359.77
496.974	3364.74
497.344	3391.41
497.713	3410.84
498.082	3460.33
498.452	3500.78
498.821	3515.02
499.19	3509.82
499.559	3547.79
499.928	3571.06
500.298	3609.93
500.667	3644.73
501.036	3639.99
501.405	3692.87
501.774	3670.04
502.143	3700.78
502.512	3733.32
502.88	3769.03
503.249	3764.96
503.618	3776.71
503.987	3794.11
504.356	3844.28
504.724	3806.54
505.093	3873.66
505.462	3860.77
505.83	3894.9
506.199	3944.84
506.567	4015.12
506.936	3965.18
507.304	3987.78
507.672	4060.77
508.041	4049.02
508.409	4107.1
508.777	4112.97
509.145	4142.35
509.514	4168.11
509.882	4121.33
510.25	4147.32
510.618	4184.83
510.986	4145.74
511.354	4226.64
511.722	4250.59
512.09	4231.39
512.458	4245.4
512.826	4345.96
513.193	4310.25
513.561	4277.94
513.929	4359.74
514.297	4378.27
514.664	4404.04
515.032	4395.45
515.4	4412.4
515.767	4351.83
516.135	4447.43
516.502	4399.29
516.869	4473.64
517.237	4449.23
517.604	4455.33
517.972	4498.05
518.339	4514.54
518.706	4492.85
519.073	4514.54
519.44	4540.98
519.808	4602.9
520.175	4620.98
520.542	4625.5
520.909	4667.76
521.276	4682
521.643	4674.54
522.009	4690.13
522.376	4761.99
522.743	4718.38
523.11	4750.92
523.477	4773.74
523.843	4825.72
524.21	4874.76
524.577	4853.97
524.943	4875.44
525.31	4943.01
525.676	4933.06
526.043	4963.8
526.409	4983.46
526.776	4998.6
527.142	5047.64
527.508	5078.37
527.874	5091.02
528.241	5113.62
528.607	5098.03
528.973	5196.78
529.339	5161.3
529.705	5226.16
530.071	5221.19
530.437	5273.39
530.803	5268.42
531.169	5357.68
531.535	5272.94
531.901	5343.22
532.267	5348.42
532.632	5414.63
532.998	5395.42
533.364	5423.44
533.73	5513.84
534.095	5472.94
534.461	5509.54
534.826	5525.14
535.192	5579.6
535.557	5579.37
535.923	5614.4
536.288	5610.56
536.653	5603.1
537.019	5612.82
537.384	5680.84
537.749	5698.01
538.114	5706.38
538.479	5722.19
538.845	5732.82
539.21	5766.94
539.575	5759.71
539.94	5814.62
540.305	5837.22
540.67	5858.91
541.034	5847.61
541.399	5939.59
541.764	5922.19
542.129	5956.09
542.494	5955.18
542.858	6025.01
543.223	6067.95
543.587	6042.41
543.952	6075.41
544.316	6078.12
544.681	6039.25
545.045	6122.41
545.41	6158.57
545.774	6169.19
546.138	6203.99
546.503	6229.07
546.867	6210.77
547.231	6288.51
547.595	6298
547.959	6366.7
548.324	6330.77
548.688	6360.14
549.052	6396.98
549.416	6389.52
549.779	6432.68
550.143	6473.36
550.507	6500.7
550.871	6508.39
551.235	6545.45
551.599	6527.6
551.962	6570.31
552.326	6540.48
552.689	6575.96
553.053	6609.85
553.417	6605.79
553.78	6679.23
554.143	6667.03
554.507	6690.3
554.87	6785.22
555.234	6774.37
555.597	6740.7
555.96	6773.47
556.323	6842.84
556.686	6837.42
557.05	6839
557.413	6870.19
557.776	6873.12
558.139	6866.12
558.502	6939.79
558.865	6958.09
559.228	7052.1
559.59	7005.1
559.953	7006.68
560.316	7090.29
560.679	7097.07
561.041	7136.62
561.404	7107.69
561.767	7242.83
562.129	7117.19
562.492	7184.75
562.854	7201.7
563.217	7200.8
563.579	7227.47
563.941	7269.27
564.304	7332.32
564.666	7328.93
565.028	7341.59
565.39	7372.55
565.753	7429.27
566.115	7452.32
566.477	7497.06
566.839	7483.05
567.201	7557.85
567.563	7515.37
567.925	7603.95
568.287	7621.13
568.648	7626.1
569.01	7675.82
569.372	7713.78
569.734	7702.03
570.095	7809.82
570.457	7829.48
570.819	7827.9
571.18	7817.51
571.542	7893.66
571.903	7941.12
572.265	7901.12
572.626	8002.59
572.987	8037.16
573.349	8098.18
573.71	8129.36
574.071	8105.86
574.432	8194.22
574.794	8260.88
575.155	8297.72
575.516	8303.6
575.877	8434.21
576.238	8458.85
576.599	8519.86
576.96	8584.04
577.32	8607.09
577.681	8724.6
578.042	8919.17
578.403	8911.26
578.763	8909.68
579.124	9066.29
579.485	9168.88
579.845	9245.49
580.206	9337.92
580.566	9448.65
580.927	9524.81
581.287	9737.91
581.648	9810.45
582.008	10009.54
582.368	9950.11
582.728	10221.51
583.089	10355.07
583.449	10512.12
583.809	10654.72
584.169	10835.05
584.529	10963.86
584.889	11215.16
585.249	11297.64
585.609	11437.3
585.969	11634.58
586.329	11829.6
586.688	12109.6
587.048	12207.67
587.408	12378.29
587.768	12657.15
588.127	12832.97
588.487	13008.33
588.846	13409.68
589.206	13482.89
589.565	13823.45
589.925	14030
590.284	14242.42
590.643	14501.85
591.003	14806.48
591.362	15086.24
591.721	15414.82
592.08	15591.77
592.44	15899.33
592.799	16179.77
593.158	16426.77
593.517	16617.05
593.876	17049.35
594.235	17273.98
594.593	17592.84
594.952	17866.96
595.311	18079.38
595.67	18442.09
596.029	18795.52
596.387	19158.23
596.746	19335.85
597.104	19672.56
597.463	19938.54
597.822	20285.2
598.18	20367.46
598.538	20710.27
598.897	21119.3
599.255	21285.63
599.613	21866.4
599.972	22031.14
600.33	22368.99
600.688	22447.86
601.046	22857.79
601.404	23301.39
601.762	23469.98
602.12	23902.73
602.478	24145.66
602.836	24332.78
603.194	24378.88
603.552	24803.27
603.91	24985.64
604.268	25400.32
604.625	25666.3
604.983	25991.27
605.341	26083.47
605.698	26443.23
606.056	26752.38
606.413	26932.26
606.771	27143.78
607.128	27501.73
607.485	27685.46
607.843	27870.09
608.2	28214.71
608.557	28561.14
608.914	28555.94
609.272	28877.29
609.629	29205.19
609.986	29437.28
610.343	29616.26
610.7	29948.9
611.057	30067.54
611.414	30276.12
611.771	30467.98
612.127	30799.5
612.484	31021.19
612.841	31079.72
613.198	31135.99
613.554	31384.34
613.911	31789.31
614.267	31830.89
614.624	32064.1
614.98	32188.84
615.337	32563.75
615.693	32607.36
616.05	32715.16
616.406	33126.9
616.762	33085.77
617.118	33210.74
617.475	33372.99
617.831	33622.48
618.187	33802.81
618.543	33844.17
618.899	34242.8
619.255	34203.25
619.611	34433.53
619.967	34582.68
620.323	34871.03
620.678	34723.24
621.034	34720.08
621.39	34910.35
621.746	34961.2
622.101	35478.47
622.457	35232.83
622.812	35539.72
623.168	35691.8
623.523	35702.87
623.879	35878.46
624.234	35688.41
624.589	35975.18
624.945	35962.98
625.3	36262.63
625.655	36261.28
626.01	36335.17
626.365	36410.43
626.72	36435.28
627.075	36402.52
627.43	36654.26
627.785	36551.67
628.14	36633.25
628.495	36779
628.85	36752.79
629.205	36707.14
629.559	37034.14
629.914	36949.4
630.269	36970.41
630.623	36993.69
630.978	36838.21
631.332	37128.37
631.687	37326.56
632.041	37110.52
632.396	37225.32
632.75	37198.43
633.104	37334.7
633.459	37083.63
633.813	37054.48
634.167	37230.07
634.521	37246.79
634.875	37236.85
635.229	37275.49
635.583	37188.71
635.937	37166.57
636.291	37250.4
636.645	37188.94
636.999	37343.74
637.352	37421.93
637.706	37165.89
638.06	37251.08
638.413	37312.55
638.767	37152.78
639.121	37461.7
639.474	36950.07
639.828	37188.71
640.181	37318.43
640.534	37256.05
640.888	37148.71
641.241	36995.72
641.594	37144.87
641.947	37228.48
642.301	37180.35
642.654	37225.32
643.007	37124.08
643.36	37221.25
643.713	37130.41
644.066	37240.69
644.419	37017.87
644.771	36805.67
645.124	36481.39
645.477	36528.62
645.83	36304.44
646.182	36105.12
646.535	36076.2
646.888	36123.65
647.24	35986.26
647.593	36280.71
647.945	36098.8
648.298	36032.81
648.65	36023.09
649.002	35872.81
649.355	36009.31
649.707	35949.87
650.059	36049.31
650.411	36530.42
650.763	36658.78
651.115	36955.95
651.467	36804.77
651.819	36762.73
652.171	36835.95
652.523	36746.24
652.875	36830.98
653.227	36530.2
653.578	36868.04
653.93	36839.34
654.282	36572
654.633	36682.28
654.985	36545.79
655.337	36688.39
655.688	36611.78
656.039	36718.89
656.391	36543.08
656.742	36633.47
657.094	36623.98
657.445	36621.72
657.796	36515.73
658.147	36529.52
658.498	36569.52
658.849	36622.62
659.2	36479.35
659.551	36404.33
659.902	36559.58
660.253	36501.27
660.604	36626.24
660.955	36214.73
661.306	36541.04
661.656	36401.39
662.007	36432.12
662.358	36361.39
662.708	36556.86
663.059	36461.95
663.409	36180.15
663.76	36473.93
664.11	36465.57
664.461	36548.05
664.811	36411.1
665.161	36408.84
665.511	36412.23
665.862	36465.79
666.212	36337.66
666.562	36450.2
666.912	36435.51
667.262	36521.61
667.612	36467.83
667.962	36415.85
668.312	36136.31
668.662	36445.91
669.011	36350.99
669.361	36282.52
669.711	36257.89
670.06	36214.73
670.41	36266.93
670.76	36246.14
671.109	36365.46
671.459	36207.04
671.808	36192.35
672.157	36388.05
672.507	36025.58
672.856	36102.64
673.205	36175.4
673.554	36252.92
673.904	36203.88
674.253	36289.98
674.602	36156.2
674.951	35708.3
675.3	35560.05
675.649	36126.14
675.998	36108.51
676.346	36106.71
676.695	36147.38
677.044	35895.64
677.393	36017.44
677.741	36172.24
678.09	35801.18
678.438	35895.41
678.787	35926.37
679.135	36009.53
679.484	35661.75
679.832	35907.62
680.181	35597.79
680.529	35790.33
680.877	35677.79
681.225	35593.5
681.573	35772.03
681.922	35536.33
682.27	35443.9
682.618	35418.81
682.966	35425.82
683.314	35379.49
683.661	35378.59
684.009	35139.5
684.357	35120.29
684.705	35051.14
685.053	35192.83
685.4	35118.03
685.748	34881.65
686.095	34816.57
686.443	34904.7
686.79	34683.24
687.138	34813.86
687.485	34744.48
687.832	34591.04
688.18	34662.22
688.527	34423.13
688.874	34524.83
689.221	34411.84
689.568	34440.54
689.915	34208.68
690.262	34321.89
690.609	34236.02
690.956	34077.83
691.303	34003.03
691.65	33914.67
691.997	33972.52
692.344	33775.47
692.69	33666.77
693.037	33725.07
693.383	33482.37
693.73	33558.52
694.077	33353.56
694.423	33270.85
694.769	33130.29
695.116	33108.82
695.462	33044.41
695.808	32953.34
696.155	33034.92
696.501	32847.58
696.847	32739.34
697.193	32536.63
697.539	32680.81
697.885	32435.62
698.231	32333.25
698.577	32406.01
698.923	32351.32
699.269	32207.83
699.614	31933.93
699.96	31856.87
700.306	31916.53
700.651	31833.82
700.997	31694.17
701.342	31642.19
701.688	31666.82
702.033	31662.3
702.379	31472.25
702.724	31273.39
703.069	31544.34
703.415	31167.63
703.76	31206.95
704.105	31310.45
704.45	31059.16
704.795	30808.77
705.14	30844.25
705.485	30813.96
705.83	30723.57
706.175	30778.71
706.52	30640.18
706.865	30473.41
707.209	30437.7
707.554	30313.19
707.899	30451.26
708.243	30140.31
708.588	30395.44
708.932	30013.98
709.277	30096.02
709.621	30033.19
709.966	29768.57
710.31	29890.37
710.654	29697.61
710.998	29671.85
711.342	29622.13
711.687	29581.68
712.031	29523.15
712.375	29293.55
712.719	29441.12
713.063	29299.65
713.407	29531.06
713.75	29179.66
714.094	29240.45
714.438	29184.4
714.782	29145.99
715.125	28982.83
715.469	29129.49
715.812	28968.14
716.156	28807.24
716.499	28760.46
716.843	28857.86
717.186	28655.15
717.53	28852.43
717.873	28731.76
718.216	28774.92
718.559	28540.58
718.902	28401.6
719.246	28397.53
719.589	28212
719.932	28134.26
720.275	28118.89
720.617	28263.75
720.96	28201.83
721.303	28094.71
721.646	28081.83
721.989	27873.48
722.331	28072.57
722.674	27892.91
723.016	27941.04
723.359	27866.92
723.701	27842.52
724.044	27599.36
724.386	27619.02
724.729	27757.55
725.071	27491.79
725.413	27640.71
725.755	27517.78
726.097	27421.51
726.439	27281.63
726.782	27442.3
727.124	27398.01
727.465	27211.57
727.807	27349.87
728.149	27226.04
728.491	27268.52
728.833	27213.83
729.175	27073.27
729.516	27035.76
729.858	27022.88
730.199	26931.13
730.541	26961.64
730.882	26910.34
731.224	26947.62
731.565	26727.74
731.906	26885.71
732.248	26756.67
732.589	26673.06
732.93	26609.78
733.271	26547.64
733.612	26605.03
733.953	26534.98
734.294	26576.34
734.635	26466.96
734.976	26523.46
735.317	26380.86
735.658	26395.77
735.999	26307.42
736.339	26301.54
736.68	26370.24
737.021	26286.17
737.361	26114.2
737.702	26237.13
738.042	26147.87
738.383	26049.34
738.723	26120.53
739.063	26026.97
739.404	26070.36
739.744	26111.04
740.084	25882.57
740.424	25952.85
740.764	26030.59
741.104	25904.49
741.444	25860.2
741.784	25793.3
742.124	25857.48
742.464	25765.73
742.804	25757.15
743.143	25623.37
743.483	25684.61
743.823	25574.55
744.162	25496.82
744.502	25568
744.841	25454.33
745.181	25579.98
745.52	25488.91
745.86	25458.4
746.199	25327.1
746.538	25326.42
746.877	25389.7
747.216	25346.54
747.556	25319.64
747.895	25268.35
748.234	25148.12
748.573	25089.14
748.911	24993.1
749.25	25105.64
749.589	25010.27
749.928	24904.97
750.267	24973.21
750.605	24941.12
750.944	24857.28
751.283	24845.76
751.621	24907.23
751.96	24680.79
752.298	24749.04
752.636	24763.95
752.975	24587.69
753.313	24522.6
753.651	24607.8
753.989	24493
754.327	24510.85
754.666	24323.74
755.004	24417.3
755.342	24305.89
755.679	24364.42
756.017	24186.34
756.355	24251.42
756.693	24031.77
757.031	24273.8
757.368	24039
757.706	23965.33
758.044	23933.69
758.381	23952.45
758.719	23840.14
759.056	23807.14
759.394	23794.71
759.731	23585.68
760.068	23597.88
760.405	23517.88
760.743	23489.86
761.08	23467.49
761.417	23413.25
761.754	23374.16
762.091	23457.1
762.428	23373.03
762.765	23115.86
763.102	23210.55
763.438	23027.5
763.775	22882.65
764.112	22993.6
764.449	22904.79
764.785	22825.02
765.122	22686.27
765.458	22656.21
765.795	22628.64
766.131	22572.82
766.467	22530.34
766.804	22398.82
767.14	22290.35
767.476	22341.87
767.812	22144.59
768.148	22262.78
768.485	22094.42
768.821	22027.98
769.157	21964.03
769.492	21972.61
769.828	21869.57
770.164	21624.83
770.5	21605.84
770.836	21614.88
771.171	21469.58
771.507	21401.33
771.842	21255.57
772.178	21264.61
772.513	21219.64
772.849	21143.26
773.184	21030.04
773.519	20950.72
773.855	20981.68
774.19	20805.87
774.525	20775.36
774.86	20775.36
775.195	20750.73
775.53	20566.1
775.865	20441.13
776.2	20317.97
776.535	20190.97
776.87	20249.04
777.205	20191.64
777.539	20071.87
777.874	20244.52
778.209	19941.71
778.543	19868.04
778.878	19815.61
779.212	19786.01
779.547	19604.09
779.881	19721.37
780.215	19506.92
780.55	19480.02
780.884	19395.06
781.218	19379.01
781.552	19358.45
781.886	19207.04
782.22	19087.94
782.554	19063.76
782.888	18882.53
783.222	18877.78
783.556	18841.17
783.889	18784.9
784.223	18691.8
784.557	18541.52
784.89	18608.86
785.224	18504.23
785.557	18427.4
785.891	18416.1
786.224	18310.79
786.558	18219.27
786.891	18191.02
787.224	18050.23
787.557	18064.69
787.891	17999.61
788.224	17957.8
788.557	17900.41
788.89	17852.04
789.223	17790.58
789.556	17710.58
789.888	17600.75
790.221	17584.48
790.554	17518.04
790.887	17484.82
791.219	17388.33
791.552	17366.86
791.884	17302
792.217	17193.3
792.549	17095
792.882	17014.33
793.214	16913.99
793.546	17010.48
793.879	16838.06
794.211	16768.23
794.543	16888.68
794.875	16748.34
795.207	16778.85
795.539	16660.44
795.871	16624.73
796.203	16484.62
796.535	16435.13
796.867	16408.47
797.198	16347.9
797.53	16304.97
797.862	16252.09
798.193	16291.18
798.525	16111.07
798.856	16164.18
799.188	16016.84
799.519	15936.84
799.85	15835.6
800.182	15938.2
800.513	15920.34
800.844	15700.69
801.175	15769.39
801.506	15692.78
801.837	15667.47
802.168	15640.8
802.499	15570.75
802.83	15499.56
803.161	15472.67
803.491	15442.16
803.822	15385.89
804.153	15318.1
804.483	15204.66
804.814	15194.04
805.145	15134.83
805.475	15114.72
805.805	15028.62
806.136	15058.67
806.466	15038.56
806.796	15018.9
807.126	14947.26
807.457	14807.15
807.787	14898.68
808.117	14694.84
808.447	14712.92
808.777	14764.89
809.107	14767.15
809.436	14750.43
809.766	14750.21
810.096	14600.38
810.426	14574.84
810.755	14509.99
811.085	14444.45
811.414	14513.83
811.744	14299.82
812.073	14316.54
812.403	14268.18
812.732	14145.93
813.061	14206.49
813.39	14140.28
813.719	14081.97
814.049	14170.56
814.378	14149.77
814.707	14020.28
815.036	14014.86
815.365	13945.48
815.693	13792.26
816.022	13899.61
816.351	13832.72
816.68	13672.27
817.008	13767.86
817.337	13717.92
817.665	13660.29
817.994	13611.48
818.322	13613.96
818.651	13635.66
818.979	13447.19
819.307	13568.77
819.636	13545.04
819.964	13427.08
820.292	13434.31
820.62	13555.66
820.948	13424.36
821.276	13448.77
821.604	13401.99
821.932	13446.51
822.259	13363.35
822.587	13331.94
822.915	13315.89
823.243	13432.27
823.57	13369.68
823.898	13348.43
824.225	13366.06
824.553	13357.7
824.88	13348.89
825.207	13359.51
825.535	13235.22
825.862	13376.46
826.189	13278.38
826.516	13296.68
826.843	13314.99
827.17	13434.76
827.497	13371.48
827.824	13337.14
828.151	13330.13
828.478	13372.16
828.805	13300.3
829.131	13263.24
829.458	13325.61
829.785	13218.95
830.111	13286.29
830.438	13286.06
830.764	13267.98
831.09	13326.97
831.417	13214.2
831.743	13240.87
832.069	13293.52
832.395	13181.21
832.722	13251.49
833.048	13229.79
833.374	13188.89
833.7	13135.33
834.026	13147.54
834.351	13166.52
834.677	13168.55
835.003	13203.58
835.329	13160.87
835.654	13188.89
835.98	13046.07
836.306	13062.57
836.631	12998.84
836.956	13035.45
837.282	13062.57
837.607	12988.22
837.932	12914.55
838.258	12989.35
838.583	12956.81
838.908	12906.64
839.233	12898.05
839.558	12865.06
839.883	12755.46
840.208	12817.15
840.533	12743.93
840.858	12745.74
841.182	12772.4
841.507	12813.31
841.832	12645.63
842.156	12543.71
842.481	12574.22
842.805	12603.82
843.13	12578.74
843.454	12642.92
843.778	12455.35
844.103	12501.9
844.427	12401.79
844.751	12381.23
845.075	12377.16
845.399	12354.34
845.723	12262.81
846.047	12258.75
846.371	12240.89
846.695	12197.96
847.019	12157.96
847.343	12072.76
847.666	12018.98
847.99	11960
848.313	11941.69
848.637	11848.36
848.96	11785.54
849.284	11808.81
849.607	11717.97
849.931	11784.18
850.254	11612.89
850.577	11532.66
850.9	11474.59
851.223	11489.73
851.546	11412.21
851.869	11341.48
852.192	11419.22
852.515	11294.48
852.838	11286.79
853.161	11227.59
853.483	11218.09
853.806	11124.76
854.129	11149.4
854.451	11110.53
854.774	11032.34
855.096	11059
855.419	10940.59
855.741	10899.69
856.063	10861.04
856.385	10884.54
856.708	10839.57
857.03	10807.71
857.352	10771.78
857.674	10689.75
857.996	10726.36
858.318	10644.78
858.64	10609.98
858.961	10674.61
859.283	10640.93
859.605	10520.49
859.926	10598
860.248	10508.51
860.57	10493.59
860.891	10548.96
861.212	10432.58
861.534	10406.82
861.855	10354.16
862.176	10391
862.498	10287.5
862.819	10367.27
863.14	10343.54
863.461	10286.59
863.782	10203.43
864.103	10226.93
864.424	10153.04
864.745	10203.21
865.065	10174.05
865.386	10114.4
865.707	10088.41
866.027	10140.84
866.348	10106.94
866.668	10118.01
866.989	9979.03
867.309	9961.63
867.63	10060.84
867.95	10010.22
868.27	9882.08
868.59	9995.98
868.91	9876.66
869.23	9972.03
869.55	9941.29
869.87	9945.81
870.19	9901.07
870.51	9859.49
870.83	9838.47
871.15	9874.4
871.469	9753.95
871.789	9834.4
872.109	9852.71
872.428	9739.04
872.748	9830.56
873.067	9825.36
873.386	9742.65
873.706	9717.34
874.025	9713.5
874.344	9683.9
874.663	9691.58
874.982	9648.42
875.301	9612.71
875.62	9666.27
875.939	9553.28
876.258	9534.52
876.577	9544.01
876.896	9538.59
877.214	9517.35
877.533	9553.05
877.852	9499.95
878.17	9501.53
878.489	9483.23
878.807	9480.74
879.125	9456.79
879.444	9402.55
879.762	9413.62
880.08	9395.54
880.398	9379.05
880.716	9331.36
881.034	9337.69
881.352	9318.03
881.67	9301.31
881.988	9348.31
882.306	9292.04
882.624	9238.49
882.941	9268.99
883.259	9163.46
883.577	9174.98
883.894	9164.14
884.212	9137.7
884.529	9033.29
884.846	9144.25
885.164	9038.72
885.481	9028.1
885.798	9089.56
886.115	9032.84
886.432	8992.39
886.75	8919.17
887.067	8973.86
887.383	8943.8
887.7	8887.76
888.017	8834.43
888.334	8870.59
888.651	8835.56
888.967	8816.12
889.284	8746.97
889.6	8804.15
889.917	8775.45
890.233	8709.46
890.55	8629.91
890.866	8673.53
891.182	8686.64
891.498	8584.27
891.815	8601.67
892.131	8550.59
892.447	8531.84
892.763	8495
893.079	8507.66
893.395	8410.49
893.71	8494.1
894.026	8424.72
894.342	8393.99
894.657	8331.17
894.973	8280.09
895.289	8311.96
895.604	8330.71
895.92	8276.93
896.235	8257.04
896.55	8193.32
896.865	8209.36
897.181	8188.57
897.496	8143.6
897.811	8135.01
898.126	8058.18
898.441	8079.65
898.756	8054.79
899.071	8002.81
899.386	8001.91
899.7	7883.95
900.015	7844.17
900.33	7827.68
900.644	7839.65
900.959	7845.75
901.273	7822.7
901.588	7770.73
901.902	7717.17
902.216	7697.06
902.531	7633.1
902.845	7634.01
903.159	7603.5
903.473	7561.24
903.787	7541.13
904.101	7496.84
904.415	7487.12
904.729	7473.79
905.042	7433.56
905.356	7381.13
905.67	7399.21
905.984	7438.99
906.297	7361.02
906.611	7301.81
906.924	7328.03
907.237	7294.81
907.551	7243.51
907.864	7184.98
908.177	7188.37
908.491	7169.61
908.804	7130.74
909.117	7061.82
909.43	7042.16
909.743	7078.54
910.056	7036.51
910.368	6987.7
910.681	6921.48
910.994	6842.62
911.307	6894.14
911.619	6815.05
911.932	6832.22
912.244	6757.42
912.557	6771.66
912.869	6703.41
913.181	6704.09
913.494	6713.58
913.806	6710.87
914.118	6650.31
914.43	6629.29
914.742	6587.48
915.054	6545.9
915.366	6549.52
915.678	6488.73
915.99	6500.48
916.302	6443.08
916.613	6428.39
916.925	6410.09
917.236	6393.14
917.548	6348.39
917.859	6303.87
918.171	6265.46
918.482	6299.13
918.794	6239.24
919.105	6264.33
919.416	6188.62
919.727	6146.59
920.038	6140.71
920.349	6111.11
920.66	6054.16
920.971	6069.3
921.282	6037.44
921.593	6020.49
921.903	5973.04
922.214	5971.91
922.525	5925.35
922.835	5894.62
923.146	5883.32
923.456	5830.44
923.767	5861.4
924.077	5844
924.387	5813.04
924.697	5806.71
925.008	5758.58
925.318	5733.04
925.628	5720.84
925.938	5649.2
926.248	5611.24
926.558	5615.98
926.867	5638.81
927.177	5558.81
927.487	5558.81
927.796	5535.53
928.106	5508.87
928.416	5452.14
928.725	5521.07
929.034	5418.02
929.344	5427.74
929.653	5383.9
929.962	5332.15
930.271	5393.62
930.581	5327.4
930.89	5288.76
931.199	5246.5
931.508	5262.55
931.817	5241.3
932.125	5213.73
932.434	5260.74
932.743	5148.2
933.051	5134.41
933.36	5111.59
933.669	5082.21
933.977	5051.03
934.286	5085.15
934.594	5044.92
934.902	5018.71
935.21	4976.45
935.519	4999.5
935.827	4955.21
936.135	4950.24
936.443	4931.03
936.751	4858.94
937.059	4874.98
937.367	4857.13
937.674	4827.75
937.982	4852.39
938.29	4747.98
938.597	4764.48
938.905	4751.15
939.213	4710.24
939.52	4714.31
939.827	4722.67
940.135	4668.21
940.442	4601.77
940.749	4661.21
941.056	4595.22
941.363	4613.75
941.67	4555.45
941.977	4528.78
942.284	4486.75
942.591	4514.77
942.898	4502.34
943.205	4524.71
943.511	4464.37
943.818	4406.3
944.125	4429.8
944.431	4366.3
944.738	4392.51
945.044	4371.04
945.35	4333.3
945.657	4322.91
945.963	4299.63
946.269	4283.59
946.575	4273.19
946.881	4281.33
947.187	4235.23
947.493	4219.86
947.799	4214.21
948.105	4180.77
948.41	4152.07
948.716	4143.48
949.022	4162.46
949.327	4159.75
949.633	4074.55
949.938	4088.79
950.244	4061.9
950.549	4045.63
950.854	4003.37
951.16	3996.14
951.465	3968.79
951.77	3955.91
952.075	3955.01
952.38	3913.43
952.685	3934.22
952.99	3889.93
953.294	3875.01
953.599	3833.2
953.904	3822.58
954.209	3830.27
954.513	3804.73
954.818	3800.66
955.122	3796.82
955.426	3763.6
955.731	3735.58
956.035	3738.97
956.339	3714.34
956.643	3713.21
956.948	3656.49
957.252	3657.16
957.556	3660.33
957.86	3641.12
958.163	3639.09
958.467	3629.14
958.771	3612.42
959.075	3604.96
959.378	3580.33
959.682	3586.66
959.985	3528.81
960.289	3515.02
960.592	3501.69
960.896	3451.07
961.199	3486.32
961.502	3459.43
961.805	3501.69
962.108	3420.79
962.411	3404.52
962.714	3382.37
963.017	3413.55
963.32	3379.88
963.623	3337.4
963.926	3363.61
964.228	3334.46
964.531	3330.84
964.833	3333.1
965.136	3308.25
965.438	3281.81
965.741	3266.44
966.043	3256.72
966.345	3207.91
966.648	3216.27
966.95	3198.64
967.252	3198.87
967.554	3183.05
967.856	3173.79
968.158	3139.89
968.46	3145.99
968.761	3130.17
969.063	3102.38
969.365	3108.93
969.666	3084.07
969.968	3034.58
970.269	3086.56
970.571	3038.65
970.872	3000.68
971.174	3023.73
971.475	2989.38
971.776	2997.75
972.077	2966.79
972.378	2992.55
972.679	2960.68
972.98	2937.41
973.281	2929.95
973.582	2934.7
973.883	2885.66
974.183	2894.02
974.484	2927.24
974.785	2838.43
975.085	2846.79
975.386	2866
975.686	2815.6
975.986	2813.34
976.287	2815.6
976.587	2784.42
976.887	2774.25
977.187	2743.97
977.487	2747.36
977.787	2749.62
978.087	2717.08
978.387	2712.78
978.687	2713.46
978.987	2712.56
979.286	2655.61
979.586	2646.12
979.885	2696.06
980.185	2603.86
980.484	2597.98
980.784	2605.67
981.083	2640.02
981.382	2574.93
981.682	2570.86
981.981	2594.82
982.28	2550.07
982.579	2572.45
982.878	2567.25
983.177	2523.18
983.475	2518.44
983.774	2507.59
984.073	2480.7
984.372	2466.91
984.67	2480.47
984.969	2477.76
985.267	2461.71
985.566	2452.22
985.864	2436.18
986.162	2404.32
986.461	2400.93
986.759	2426.24
987.057	2357.99
987.355	2360.02
987.653	2363.64
987.951	2360.02
988.249	2356.86
988.547	2360.47
988.844	2290.87
989.142	2321.38
989.44	2313.02
989.737	2313.7
990.035	2296.97
990.332	2252.91
990.63	2256.07
990.927	2238.44
991.224	2232.12
991.521	2238.67
991.819	2168.16
992.116	2214.26
992.413	2208.61
992.71	2203.64
993.006	2179.46
993.303	2183.76
993.6	2164.55
993.897	2124.32
994.193	2142.85
994.49	2146.02
994.787	2132.68
995.083	2078.9
995.379	2098.33
995.676	2100.82
995.972	2088.39
996.268	2088.17
996.565	2058.56
996.861	2076.64
997.157	2063.31
997.453	2050.2
997.749	2016.98
998.044	2022.63
998.34	1991.9
998.636	2006.36
998.932	1996.87
999.227	1961.62
999.523	1983.08
999.818	1958.68
1000.114	1911.9
1000.409	1922.07
1000.704	1925.01
1001	1938.34
1001.295	1909.19
1001.59	1930.43
1001.885	1887.04
1002.18	1897.44
1002.475	1892.69
1002.77	1868.06
1003.065	1831.9
1003.359	1848.85
1003.654	1857.89
1003.949	1821.51
1004.243	1810.43
1004.538	1829.87
1004.832	1809.53
1005.127	1801.17
1005.421	1784.67
1005.715	1734.95
1006.009	1773.15
1006.304	1739.25
1006.598	1742.19
1006.892	1752.58
1007.186	1715.75
1007.48	1705.8
1007.773	1698.12
1008.067	1666.26
1008.361	1667.39
1008.655	1671.23
1008.948	1662.41
1009.242	1645.47
1009.535	1626.48
1009.829	1623.32
1010.122	1608.63
1010.415	1616.54
1010.708	1615.18
1011.001	1580.38
1011.295	1571.12
1011.588	1562.08
1011.881	1583.55
1012.173	1561.4
1012.466	1580.83
1012.759	1528.63
1013.052	1530.67
1013.344	1548.07
1013.637	1522.53
1013.93	1490.67
1014.222	1496.54
1014.514	1501.06
1014.807	1469.65
1015.099	1473.04
1015.391	1474.4
1015.683	1471.68
1015.976	1460.16
1016.268	1462.65
1016.56	1425.58
1016.851	1435.3
1017.143	1425.36
1017.435	1409.31
1017.727	1412.93
1018.018	1410.22
1018.31	1371.57
1018.602	1374.96
1018.893	1362.31
1019.185	1366.83
1019.476	1350.78
1019.767	1339.71
1020.058	1354.63
1020.35	1329.77
1020.641	1319.15
1020.932	1293.61
1021.223	1294.51
1021.514	1304.23
1021.804	1280.28
1022.095	1278.24
1022.386	1270.56
1022.677	1240.05
1022.967	1255.87
1023.258	1235.53
1023.548	1220.84
1023.839	1198.02
1024.129	1219.04
1024.419	1230.79
1024.709	1223.1
1025	1187.17
1025.29	1187.62
1025.58	1174.74
1025.87	1161.18
1026.16	1153.27
1026.449	1180.84
1026.739	1162.54
1027.029	1165.7
1027.319	1143.33
1027.608	1131.13
1027.898	1136.1
1028.187	1094.29
1028.477	1081.41
1028.766	1099.72
1029.055	1112.15
1029.344	1066.72
1029.634	1066.27
1029.923	1085.71
1030.212	1066.5
1030.501	1055.42
1030.79	1077.8
1031.078	1074.41
1031.367	1031.02
1031.656	1051.81
1031.945	1040.28
1032.233	1042.32
1032.522	1020.4
1032.81	1000.28
1033.099	982.43
1033.387	1022.88
1033.675	1023.56
1033.963	989.89
1034.251	971.36
1034.54	944.24
1034.828	975.65
1035.116	986.27
1035.403	962.77
1035.691	949.21
1035.979	954.86
1036.267	947.86
1036.554	939.72
1036.842	924.58
1037.129	911.25
1037.417	917.57
1037.704	911.47
1037.992	914.86
1038.279	892.26
1038.566	897.01
1038.853	897.01
1039.14	897.01
