Data from hue_32_FLMS001491_00001.txt Node
Date: Tue Feb 07 17:22:49 GMT 2017
User: dcchb
Spectrometer: FLMS00149
Trigger mode: 0
Integration Time (sec): 2.000000E-2
Scans to average: 10
Electric dark correction enabled: true
Nonlinearity correction enabled: false
Boxcar width: 0
XAxis mode: Wavelengths
Number of Pixels in Spectrum: 2048
>>>>>Begin Spectral Data<<<<<
341.393	-21.23
341.776	-21.23
342.16	-21.23
342.543	-58.97
342.927	-73.88
343.31	-69.59
343.693	-71.4
344.077	-70.27
344.46	-70.72
344.843	-60.32
345.226	-39.08
345.61	-18.97
345.993	-18.29
346.376	7.02
346.759	18.09
347.142	25.55
347.525	40.47
347.908	58.09
348.291	56.96
348.674	102.38
349.057	110.07
349.44	125.43
349.823	145.32
350.206	162.27
350.588	207.24
350.971	193.68
351.354	227.8
351.737	257.86
352.119	267.8
352.502	266.67
352.884	254.7
353.267	269.61
353.65	300.12
354.032	295.83
354.414	291.98
354.797	324.98
355.179	341.25
355.562	308.25
355.944	319.55
356.326	344.64
356.709	338.31
357.091	353.45
357.473	353
357.855	333.79
358.238	332.21
358.62	355.03
359.002	348.93
359.384	370.17
359.766	340.34
360.148	354.36
360.53	334.47
360.912	334.02
361.294	342.15
361.676	340.34
362.057	347.58
362.439	344.41
362.821	320.68
363.203	353
363.584	337.86
363.966	324.07
364.348	340.8
364.729	345.99
365.111	323.85
365.493	313.68
365.874	341.02
366.256	335.82
366.637	309.16
367.019	307.58
367.4	338.76
367.781	347.12
368.163	313.45
368.544	315.94
368.925	315.03
369.306	335.82
369.688	308.71
370.069	334.92
370.45	312.77
370.831	331.76
371.212	330.17
371.593	326.33
371.974	306.22
372.355	334.69
372.736	339.44
373.117	315.49
373.498	323.4
373.879	322.27
374.26	345.32
374.641	327.46
375.021	316.84
375.402	311.87
375.783	322.94
376.163	353.45
376.544	333.11
376.925	333.34
377.305	310.06
377.686	331.53
378.066	331.3
378.447	335.37
378.827	355.71
379.208	339.89
379.588	332.89
379.968	333.56
380.349	342.38
380.729	329.05
381.109	334.02
381.489	340.12
381.87	353
382.25	353.45
382.63	340.34
383.01	329.5
383.39	338.08
383.77	354.36
384.15	363.85
384.53	348.48
384.91	352.1
385.29	366.56
385.67	350.74
386.049	382.15
386.429	356.39
386.809	356.16
387.189	371.3
387.568	354.81
387.948	362.26
388.328	365.2
388.707	356.39
389.087	360.91
389.466	362.49
389.846	347.58
390.225	352.1
390.605	378.76
390.984	366.78
391.363	386.44
391.743	375.6
392.122	373.79
392.501	375.6
392.881	357.97
393.26	398.2
393.639	375.6
394.018	399.55
394.397	396.16
394.776	376.28
395.155	396.84
395.534	379.67
395.913	387.57
396.292	387.57
396.671	365.43
397.05	402.49
397.429	396.84
397.808	397.74
398.186	399.78
398.565	407.91
398.944	405.88
399.323	417.86
399.701	418.08
400.08	388.7
400.458	400.23
400.837	400.46
401.215	414.92
401.594	437.97
401.972	423.05
402.351	398.65
402.729	415.14
403.107	412.43
403.486	405.88
403.864	403.39
404.242	433.9
404.62	426.44
404.999	438.19
405.377	410.4
405.755	421.47
406.133	413.34
406.511	447.01
406.889	435.48
407.267	426.67
407.645	447.46
408.023	447.69
408.401	452.43
408.779	436.61
409.156	460.57
409.534	431.64
409.912	461.24
410.29	460.12
410.667	472.77
411.045	449.49
411.422	462.6
411.8	485.88
412.178	464.63
412.555	485.2
412.933	471.19
413.31	482.26
413.687	474.13
414.065	475.03
414.442	495.37
414.819	495.37
415.197	495.82
415.574	516.84
415.951	488.14
416.328	513.9
416.705	523.39
417.082	518.87
417.46	515.03
417.837	518.42
418.214	499.21
418.591	528.36
418.967	524.29
419.344	528.36
419.721	549.38
420.098	505.76
420.475	532.66
420.852	558.19
421.228	539.43
421.605	539.66
421.982	548.47
422.358	558.87
422.735	556.38
423.111	568.13
423.488	570.85
423.864	577.4
424.241	569.49
424.617	559.1
424.994	555.25
425.37	574.01
425.746	585.99
426.123	577.17
426.499	583.73
426.875	581.47
427.251	610.62
427.627	585.99
428.003	620.79
428.379	614.69
428.756	588.7
429.132	623.5
429.507	624.86
429.883	623.95
430.259	620.34
430.635	635.48
431.011	647.23
431.387	635.7
431.763	647
432.138	642.03
432.514	658.98
432.89	658.98
433.265	697.85
433.641	685.65
434.016	657.4
434.392	678.64
434.767	706.21
435.143	686.1
435.518	700.56
435.894	719.54
436.269	717.28
436.644	739.88
437.02	730.39
437.395	738.07
437.77	759.99
438.145	757.06
438.52	759.77
438.895	757.73
439.271	770.84
439.646	767
440.021	761.8
440.395	783.95
440.77	784.4
441.145	758.64
441.52	751.41
441.895	771.97
442.27	813.33
442.645	786.21
443.019	797.96
443.394	765.42
443.769	795.7
444.143	815.13
444.518	825.3
444.892	808.58
445.267	845.64
445.641	842.03
446.016	845.87
446.39	844.29
446.764	860.1
447.139	832.53
447.513	855.81
447.887	877.28
448.262	847
448.636	871.4
449.01	865.3
449.384	872.76
449.758	875.92
450.132	900.56
450.506	880.44
450.88	890.39
451.254	901.91
451.628	919.31
452.002	920.22
452.376	947.79
452.75	944.85
453.123	952.98
453.497	947.11
453.871	955.02
454.244	980.1
454.618	995.24
454.992	987.11
455.365	1000.44
455.739	1020.78
456.112	1003.83
456.486	1022.36
456.859	1040.66
457.232	1062.81
457.606	1052.64
457.979	1070.27
458.352	1097.39
458.725	1073.43
459.099	1112.3
459.472	1135.8
459.845	1113.66
460.218	1153.43
460.591	1158.63
460.964	1131.96
461.337	1148.23
461.71	1176.25
462.083	1183.94
462.456	1181.45
462.829	1221.9
463.201	1235.24
463.574	1220.77
463.947	1248.12
464.32	1292.18
464.692	1301.9
465.065	1288.57
465.438	1308.68
465.81	1331.5
466.183	1350.71
466.555	1365.63
466.928	1372.63
467.3	1370.83
467.672	1403.82
468.045	1448.11
468.417	1464.83
468.789	1498.05
469.161	1504.38
469.534	1511.61
469.906	1514.55
470.278	1552.97
470.65	1582.12
471.022	1615.34
471.394	1630.03
471.766	1642.46
472.138	1686.3
472.51	1720.19
472.882	1747.54
473.253	1772.4
473.625	1802.68
473.997	1833.41
474.369	1829.8
474.74	1907.31
475.112	1917.7
475.484	1969.91
475.855	2009.23
476.227	1997.25
476.598	2088.55
476.97	2120.41
477.341	2146.62
477.713	2207.64
478.084	2227.07
478.455	2317.47
478.827	2351.59
479.198	2420.29
479.569	2455.32
479.94	2534.41
480.311	2566.73
480.682	2630.23
481.053	2683.11
481.424	2729.21
481.795	2801.07
482.166	2880.84
482.537	2908.41
482.908	2999.03
483.279	3062.76
483.65	3135.3
484.021	3204.22
484.391	3291.23
484.762	3305.01
485.133	3428.62
485.503	3457.78
485.874	3554.04
486.244	3622.97
486.615	3714.72
486.985	3780.48
487.356	3914.71
487.726	3917.65
488.097	4066.12
488.467	4072.68
488.837	4201.49
489.207	4324.42
489.578	4366.23
489.948	4440.58
490.318	4526.67
490.688	4583.62
491.058	4658.87
491.428	4751.3
491.798	4847.34
492.168	4991.52
492.538	5059.09
492.908	5098.41
493.278	5235.36
493.648	5278.29
494.017	5408.23
494.387	5400.1
494.757	5505.18
495.126	5609.81
495.496	5691.39
495.866	5739.98
496.235	5818.17
496.605	5887.54
496.974	6026.97
497.344	6045.28
497.713	6089.12
498.082	6179.74
498.452	6307.42
498.821	6298.15
499.19	6362.78
499.559	6469.45
499.928	6610.24
500.298	6637.13
500.667	6673.28
501.036	6772.04
501.405	6843.45
501.774	6873.51
502.143	6982.66
502.512	7014.29
502.88	7070.56
503.249	7147.85
503.618	7132.26
503.987	7249.77
504.356	7324.12
504.724	7348.52
505.093	7371.57
505.462	7443.66
505.83	7501.29
506.199	7589.87
506.567	7692.92
506.936	7732.92
507.304	7927.04
507.672	7872.58
508.041	7953.93
508.409	8015.17
508.777	8111.89
509.145	8138.56
509.514	8139.24
509.882	8230.76
510.25	8224.88
510.618	8322.51
510.986	8371.32
511.354	8483.18
511.722	8523.18
512.09	8640.01
512.458	8647.92
512.826	8666.68
513.193	8741.71
513.561	8746.68
513.929	8854.92
514.297	8893.34
514.664	8982.15
515.032	8978.99
515.4	9114.8
515.767	9110.51
516.135	9137.4
516.502	9043.39
516.869	9214.01
517.237	9336.94
517.604	9307.57
517.972	9420.33
518.339	9486.77
518.706	9468.01
519.073	9524.28
519.44	9616.71
519.808	9582.14
520.175	9646.54
520.542	9721.57
520.909	9810.15
521.276	9812.64
521.643	9948.91
522.009	9964.72
522.376	10078.17
522.743	10002.01
523.11	10177.6
523.477	10209.01
523.843	10274.55
524.21	10380.98
524.577	10422.34
524.943	10468.44
525.31	10502.56
525.676	10664.37
526.043	10707.3
526.409	10714.53
526.776	10815.55
527.142	10854.87
527.508	10893.06
527.874	10960.86
528.241	11040.85
528.607	11050.57
528.973	11215.76
529.339	11175.54
529.705	11250.34
530.071	11356.55
530.437	11404.23
530.803	11497.79
531.169	11636.32
531.535	11573.72
531.901	11534.17
532.267	11579.37
532.632	11754.28
532.998	11697.33
533.364	11826.6
533.73	11914.5
534.095	11979.13
534.461	12010.55
534.826	12029.75
535.192	12172.12
535.557	12234.27
535.923	12263.42
536.288	12205.12
536.653	12316.3
537.019	12243.76
537.384	12380.25
537.749	12476.52
538.114	12471.78
538.479	12518.1
538.845	12590.19
539.21	12624.77
539.575	12685.33
539.94	12670.19
540.305	12777.98
540.67	12815.27
541.034	12824.08
541.399	13067.69
541.764	13080.57
542.129	13063.4
542.494	12979.56
542.858	13116.51
543.223	13140.46
543.587	13226.78
543.952	13267.01
544.316	13260.68
544.681	13285.77
545.045	13413.67
545.41	13503.16
545.774	13550.17
546.138	13539.32
546.503	13601.92
546.867	13597.62
547.231	13702.03
547.595	13757.84
547.959	13867.67
548.324	13831.97
548.688	13834.9
549.052	13920.78
549.416	13977.05
549.779	14076.03
550.143	14064.96
550.507	14153.31
550.871	14198.28
551.235	14213.65
551.599	14308.34
551.962	14348.11
552.326	14443.02
552.689	14471.27
553.053	14427.43
553.417	14520.54
553.78	14599.4
554.143	14591.72
554.507	14620.42
554.87	14725.95
555.234	14786.52
555.597	14774.31
555.96	14827.42
556.323	14855.89
556.686	14950.81
557.05	15051.14
557.413	15048.21
557.776	15113.06
558.139	15151.71
558.502	15195.55
558.865	15279.84
559.228	15327.07
559.59	15396.67
559.953	15364.81
560.316	15536.1
560.679	15542.88
561.041	15654.97
561.404	15657.68
561.767	15823.55
562.129	15779.71
562.492	15841.41
562.854	15872.14
563.217	15887.96
563.579	15927.5
563.941	16022.87
564.304	16096.09
564.666	16205.46
565.028	16184
565.39	16192.81
565.753	16325.91
566.115	16393.93
566.477	16391.45
566.839	16491.78
567.201	16526.13
567.563	16598
567.925	16788.73
568.287	16649.75
568.648	16840.48
569.01	16786.47
569.372	16939.23
569.734	16951.43
570.095	17179.68
570.457	17227.81
570.819	17223.29
571.18	17172.67
571.542	17331.31
571.903	17419.9
572.265	17482.27
572.626	17510.06
572.987	17702.37
573.349	17768.13
573.71	17798.64
574.071	17923.84
574.432	18052.19
574.794	18054.68
575.155	18089.26
575.516	18183.94
575.877	18336.26
576.238	18453.54
576.599	18566.98
576.96	18629.58
577.32	18699.86
577.681	18883.36
578.042	19015.11
578.403	19059.17
578.763	19253.52
579.124	19359.73
579.485	19535.77
579.845	19719.27
580.206	19868.42
580.566	19982.99
580.927	19973.27
581.287	20284.45
581.648	20425.47
582.008	20778.68
582.368	20754.5
582.728	20905
583.089	21037.65
583.449	21245.78
583.809	21542.95
584.169	21808.25
584.529	21785.88
584.889	22241.24
585.249	22312.65
585.609	22390.84
585.969	22835.57
586.329	23069.24
586.688	23288.44
587.048	23328.89
587.408	23651.6
587.768	23839.16
588.127	24092.26
588.487	24308.75
588.846	24704.9
589.206	24790.55
589.565	25038.45
589.925	25408.16
590.284	25569.96
590.643	25863.74
591.003	26115.94
591.362	26416.95
591.721	26740.33
592.08	26919.08
592.44	27251.73
592.799	27507.09
593.158	27696.91
593.517	27923.12
593.876	28309.78
594.235	28321.08
594.593	28621.63
594.952	29076.54
595.311	29194.95
595.67	29443.08
596.029	29963.52
596.387	30112.22
596.746	30405.32
597.104	30481.92
597.463	30840.56
597.822	31057.28
598.18	31207.56
598.538	31570.26
598.897	31983.35
599.255	31914.66
599.613	32503.79
599.972	32527.52
600.33	32955.53
600.688	32873.05
601.046	33359.14
601.404	33568.62
601.762	33647.49
602.12	34113.02
602.478	34299.45
602.836	34489.28
603.194	34487.47
603.552	34698.54
603.91	34812.88
604.268	35252.65
604.625	35474.34
604.983	35712.52
605.341	35540.55
605.698	36145.73
606.056	36259.63
606.413	36417.36
606.771	36763.79
607.128	36798.37
607.485	36949.33
607.843	37004.69
608.2	37351.8
608.557	37626.14
608.914	37698.91
609.272	37921.95
609.629	37981.16
609.986	38364.2
610.343	38138.22
610.7	38752.67
611.057	38842.16
611.414	38816.62
611.771	38862.27
612.127	39160.57
612.484	39367.34
612.841	39589.26
613.198	39609.82
613.554	39800.78
613.911	40085.51
614.267	40150.37
614.624	40216.58
614.98	40330.71
615.337	40687.76
615.693	40676.46
616.05	40638.27
616.406	41007.07
616.762	40950.8
617.118	41141.76
617.475	41122.32
617.831	41296.1
618.187	41480.73
618.543	41578.58
618.899	41802.08
619.255	41766.15
619.611	41768.18
619.967	41996.42
620.323	42260.37
620.678	42106.25
621.034	42050.43
621.39	42169.3
621.746	42198.23
622.101	42707.14
622.457	42474.83
622.812	42800.47
623.168	42769.51
623.523	42831.2
623.879	42964.08
624.234	42819.91
624.589	42922.73
624.945	43057.41
625.3	43224.64
625.655	43269.38
626.01	43158.2
626.365	43239.78
626.72	43172.89
627.075	43246.11
627.43	43284.07
627.785	43294.24
628.14	43345.54
628.495	43445.65
628.85	43501.02
629.205	43231.19
629.559	43641.58
629.914	43504.86
630.269	43637.74
630.623	43415.14
630.978	43455.59
631.332	43640.67
631.687	43927.45
632.041	43560.68
632.396	43757.28
632.75	43670.96
633.104	43513.67
633.459	43599.32
633.813	43529.72
634.167	43406.56
634.521	43609.04
634.875	43760.9
635.229	43582.6
635.583	43497.85
635.937	43482.71
636.291	43385.77
636.645	43466.22
636.999	43433.9
637.352	43498.31
637.706	43341.02
638.06	43470.28
638.413	43337.18
638.767	43249.5
639.121	43428.25
639.474	43104.64
639.828	43354.58
640.181	43302.83
640.534	43442.71
640.888	43195.26
641.241	43124.08
641.594	43115.94
641.947	43367.01
642.301	43111.42
642.654	43193.23
643.007	43178.31
643.36	43090.41
643.713	43122.27
644.066	43282.27
644.419	43157.75
644.771	42893.35
645.124	42420.59
645.477	42491.1
645.83	42066.03
646.182	42056.54
646.535	42038.91
646.888	41965.01
647.24	41818.35
647.593	42031.68
647.945	41922.75
648.298	41638.24
648.65	41790.78
649.002	41625.81
649.355	41842.53
649.707	41912.58
650.059	41991.23
650.411	42496.07
650.763	42340.82
651.115	42849.28
651.467	42715.73
651.819	42752.79
652.171	42640.7
652.523	42590.76
652.875	42537.43
653.227	42511.44
653.578	42645.45
653.93	42647.71
654.282	42331.78
654.633	42395.51
654.985	42388.5
655.337	42456.75
655.688	42457.43
656.039	42587.59
656.391	42116.87
656.742	42243.88
657.094	42303.08
657.445	42480.93
657.796	42339.92
658.147	42377.66
658.498	42060.6
658.849	42284.78
659.2	42211.79
659.551	42122.97
659.902	42419.01
660.253	42186.25
660.604	42297.43
660.955	41988.06
661.306	42195.97
661.656	42213.14
662.007	42180.37
662.358	42119.58
662.708	42189.41
663.059	42225.12
663.409	41941.51
663.76	42202.07
664.11	42300.82
664.461	42365.68
664.811	42197.1
665.161	42172.24
665.511	42130.21
665.862	42061.73
666.212	42180.6
666.562	42079.81
666.912	42166.59
667.262	41990.77
667.612	42114.16
667.962	42213.82
668.312	42063.54
668.662	42183.54
669.011	42066.93
669.361	41991
669.711	41911
670.06	42066.7
670.41	41764.57
670.76	41727.28
671.109	41908.06
671.459	41851.57
671.808	41950.78
672.157	41922.75
672.507	41661.74
672.856	41902.42
673.205	41811.34
673.554	41959.36
673.904	41828.29
674.253	42003.2
674.602	41693.38
674.951	41472.82
675.3	41075.09
675.649	41613.16
675.998	41692.93
676.346	41616.77
676.695	41796.88
677.044	41429.66
677.393	41659.03
677.741	41629.88
678.09	41452.94
678.438	41410.68
678.787	41582.2
679.135	41445.93
679.484	41304.46
679.832	41358.25
680.181	41089.1
680.529	41231.92
680.877	41295.43
681.225	41182.89
681.573	41364.8
681.922	41030.12
682.27	40861.09
682.618	40941.08
682.966	40908.54
683.314	41082.1
683.661	40829.22
684.009	40680.75
684.357	40655.89
684.705	40665.39
685.053	40574.99
685.4	40592.62
685.748	40302.01
686.095	40377.94
686.443	40240.54
686.79	40380.2
687.138	40257.03
687.485	40305.17
687.832	40177.71
688.18	40158.73
688.527	40008
688.874	39802.13
689.221	39810.94
689.568	39646.43
689.915	39659.54
690.262	39733.88
690.609	39504.51
690.956	39488.24
691.303	39304.07
691.65	39251.86
691.997	39254.12
692.344	39100.23
692.69	38944.98
693.037	38991.08
693.383	38765.55
693.73	38914.25
694.077	38629.96
694.423	38482.62
694.769	38470.64
695.116	38306.8
695.462	38494.37
695.808	38196.3
696.155	38344.09
696.501	38119.69
696.847	37994.27
697.193	37756.76
697.539	37845.57
697.885	37581.62
698.231	37533.49
698.577	37447.62
698.923	37484.23
699.269	37273.61
699.614	37186.38
699.96	37012.83
700.306	37064.8
700.651	36919.27
700.997	36830.01
701.342	36743
701.688	36662.55
702.033	36598.83
702.379	36492.39
702.724	36391.83
703.069	36525.16
703.415	36108.44
703.76	36255.56
704.105	36037.48
704.45	36057.82
704.795	35841.56
705.14	35893.99
705.485	35755.01
705.83	35618.96
706.175	35699.19
706.52	35571.73
706.865	35382.59
707.209	35483.37
707.554	35289.93
707.899	35422.81
708.243	35099.66
708.588	35124.29
708.932	34862.37
709.277	34873.67
709.621	34979.21
709.966	34625.77
710.31	34687.46
710.654	34559.11
710.998	34618.99
711.342	34550.74
711.687	34424.87
712.031	34285.21
712.375	34255.84
712.719	34331.99
713.063	34135.16
713.407	34167.93
713.75	34035.73
714.094	34017.42
714.438	33900.59
714.782	33833.93
715.125	33714.61
715.469	33758.22
715.812	33644.78
716.156	33521.17
716.499	33398.46
716.843	33487.04
717.186	33250.21
717.53	33598
717.873	33432.81
718.216	33204.34
718.559	33107.39
718.902	32832.37
719.246	33011.58
719.589	32846.38
719.932	32729.78
720.275	32789.89
720.617	32712.83
720.96	32724.8
721.303	32558.03
721.646	32723.45
721.989	32429.67
722.331	32553.96
722.674	32538.37
723.016	32548.31
723.359	32431.03
723.701	32415.43
724.044	32193.52
724.386	31958.95
724.729	32235.32
725.071	32031.04
725.413	32081.43
725.755	32034.2
726.097	31906.29
726.439	31777.48
726.782	31833.53
727.124	31862.91
727.465	31705.85
727.807	31708.78
728.149	31583.14
728.491	31680.99
728.833	31608.67
729.175	31466.98
729.516	31433.76
729.858	31469.92
730.199	31422.24
730.541	31337.27
730.882	31143.15
731.224	31381.79
731.565	31268.8
731.906	31267.67
732.248	31137.95
732.589	31062.02
732.93	31001.23
733.271	30962.82
733.612	31018.41
733.953	31021.8
734.294	30774.8
734.635	30714.23
734.976	30828.81
735.317	30641.47
735.658	30614.35
735.999	30509.95
736.339	30627.68
736.68	30540.23
737.021	30359.89
737.361	30305.21
737.702	30544.75
738.042	30332.55
738.383	30420.46
738.723	30393.11
739.063	30364.64
739.404	30301.82
739.744	30154.93
740.084	30056.85
740.424	30224.53
740.764	30015.27
741.104	30190.63
741.444	29983.18
741.784	29919.23
742.124	29929.17
742.464	29939.57
742.804	29841.49
743.143	29810.76
743.483	29771.21
743.823	29592.23
744.162	29679.69
744.502	29661.61
744.841	29485.11
745.181	29651.66
745.52	29475.62
745.86	29526.02
746.199	29554.72
746.538	29425.23
746.877	29451.22
747.216	29512.91
747.556	29342.52
747.895	29194.27
748.234	29145.46
748.573	29177.55
748.911	29141.39
749.25	29048.52
749.589	28967.16
749.928	29099.59
750.267	29020.72
750.605	28860.72
750.944	28879.48
751.283	28695.53
751.621	28864.79
751.96	28667.51
752.298	28577.34
752.636	28686.72
752.975	28583.44
753.313	28422.09
753.651	28655.31
753.989	28313.17
754.327	28286.5
754.666	28248.08
755.004	28115.43
755.342	28204.24
755.679	28268.65
756.017	28046.73
756.355	28115.43
756.693	27924.48
757.031	27950.24
757.368	27829.11
757.706	27738.27
758.044	27698.04
758.381	27526.52
758.719	27602.23
759.056	27579.4
759.394	27486.75
759.731	27309.8
760.068	27284.72
760.405	27194.78
760.743	27073.43
761.08	27188.23
761.417	27148.68
761.754	26897.39
762.091	26844.96
762.428	26862.36
762.765	26737.84
763.102	26768.35
763.438	26620.33
763.775	26411.75
764.112	26565.87
764.449	26478.64
764.785	26367.91
765.122	26185.54
765.458	26129.95
765.795	26052.89
766.131	26086.56
766.467	25979.67
766.804	25818.09
767.14	25753.91
767.476	25700.58
767.812	25647.7
768.148	25525.67
768.485	25573.8
768.821	25312.34
769.157	25299.01
769.492	25257.88
769.828	25232.57
770.164	25036.19
770.5	25032.35
770.836	24888.17
771.171	24785.58
771.507	24755.07
771.842	24528.41
772.178	24539.93
772.513	24524.79
772.849	24453.83
773.184	24327.96
773.519	24344.23
773.855	24126.16
774.19	24043.9
774.525	23882.32
774.86	23859.05
775.195	23912.15
775.53	23811.82
775.865	23617.7
776.2	23406.86
776.535	23245.73
776.87	23393.75
777.205	23162.57
777.539	23276.92
777.874	23178.61
778.209	22925.06
778.543	23024.27
778.878	22852.52
779.212	22730.72
779.547	22620.21
779.881	22804.61
780.215	22546.31
780.55	22535.92
780.884	22351.74
781.218	22359.65
781.552	22267.23
781.886	22174.35
782.22	22076.72
782.554	21956.27
782.888	21824.98
783.222	21807.35
783.556	21670.4
783.889	21537.75
784.223	21493.46
784.557	21448.72
784.89	21400.13
785.224	21412.33
785.557	21180.7
785.891	21165.56
786.224	21141.38
786.558	21020.48
786.891	20905.23
787.224	20879.01
787.557	20808.51
787.891	20654.61
788.224	20706.81
788.557	20657.1
788.89	20532.13
789.223	20537.55
789.556	20358.35
789.888	20232.7
790.221	20200.61
790.554	20119.71
790.887	20267.28
791.219	20054.85
791.552	19889.43
791.884	19912.48
792.217	19793.62
792.549	19724.02
792.882	19607.63
793.214	19437.7
793.546	19597.92
793.879	19525.6
794.211	19386.62
794.543	19306.4
794.875	19325.61
795.207	19232.73
795.539	19232.05
795.871	19284.93
796.203	19026.86
796.535	19051.04
796.867	18955.45
797.198	18888.78
797.53	18877.48
797.862	18743.93
798.193	18768.11
798.525	18653.76
798.856	18656.02
799.188	18401.79
799.519	18459.64
799.85	18223.26
800.182	18351.4
800.513	18312.98
800.844	18116.6
801.175	18290.83
801.506	18231.85
801.837	18112.98
802.168	18008.81
802.499	17952.31
802.83	17916.61
803.161	17830.51
803.491	17809.04
803.822	17851.52
804.153	17732.88
804.483	17534.69
804.814	17457.18
805.145	17515.94
805.475	17546.22
805.805	17408.37
806.136	17394.13
806.466	17341.71
806.796	17334.02
807.126	17139.68
807.457	17165.44
807.787	17219.67
808.117	17128.15
808.447	16988.95
808.777	17103.97
809.107	16885.45
809.436	16966.35
809.766	16873.47
810.096	16748.73
810.426	16827.82
810.755	16729.97
811.085	16696.07
811.414	16673.93
811.744	16515.29
812.073	16536.3
812.403	16518.45
812.732	16363.65
813.061	16391.9
813.39	16314.39
813.719	16278.68
814.049	16369.08
814.378	16329.53
814.707	16206.14
815.036	16132.02
815.365	16073.94
815.693	15924.79
816.022	16046.6
816.351	15927.28
816.68	15835.98
817.008	15944.45
817.337	15709.66
817.665	15814.51
817.994	15659.49
818.322	15763.89
818.651	15695.65
818.979	15585.14
819.307	15702.88
819.636	15566.61
819.964	15446.61
820.292	15578.14
820.62	15479.16
820.948	15538.59
821.276	15537.46
821.604	15511.7
821.932	15479.16
822.259	15488.19
822.587	15469.66
822.915	15379.72
823.243	15440.51
823.57	15432.15
823.898	15349.89
824.225	15272.83
824.553	15425.37
824.88	15416.78
825.207	15449.33
825.535	15346.05
825.862	15375.88
826.189	15332.72
826.516	15389.44
826.843	15397.8
827.17	15455.65
827.497	15440.51
827.824	15422.21
828.151	15397.8
828.478	15414.3
828.805	15442.32
829.131	15343.57
829.458	15371.81
829.785	15289.1
830.111	15263.79
830.438	15419.5
830.764	15284.13
831.09	15336.11
831.417	15200.52
831.743	15271.93
832.069	15315.77
832.395	15200.74
832.722	15279.39
833.048	15281.65
833.374	15159.39
833.7	15098.83
834.026	15188.54
834.351	15175.21
834.677	15155.32
835.003	15258.37
835.329	15118.71
835.654	15158.49
835.98	15052.5
836.306	15147.19
836.631	14992.61
836.956	15110.58
837.282	15099.96
837.607	14958.94
837.932	14936.12
838.258	14891.37
838.583	14925.5
838.908	14840.75
839.233	14824.03
839.558	14745.62
839.883	14797.59
840.208	14749.68
840.533	14747.42
840.858	14660.19
841.182	14775.67
841.507	14693.87
841.832	14623.81
842.156	14609.57
842.481	14556.47
842.805	14539.29
843.13	14426.08
843.454	14490.48
843.778	14461.1
844.103	14375
844.427	14427.88
844.751	14356.92
845.075	14336.81
845.399	14230.37
845.723	14262.69
846.047	14105.41
846.371	14081.45
846.695	14027.67
847.019	13926.2
847.343	13903.15
847.666	13877.16
847.99	13784.06
848.313	13730.95
848.637	13725.08
848.96	13638.3
849.284	13673.1
849.607	13502.48
849.931	13518.3
850.254	13432.88
850.577	13319.44
850.9	13222.72
851.223	13269.72
851.546	13203.96
851.869	13145.66
852.192	13238.76
852.515	13065.43
852.838	13009.62
853.161	13024.76
853.483	12884.87
853.806	12915.38
854.129	12846.46
854.451	12880.35
854.774	12732.33
855.096	12698.66
855.419	12703.41
855.741	12759.23
856.063	12446.47
856.385	12479.69
856.708	12582.51
857.03	12487.14
857.352	12429.29
857.674	12398.33
857.996	12358.56
858.318	12244.66
858.64	12335.28
858.961	12261.61
859.283	12217.77
859.605	12129.19
859.926	12185
860.248	12096.19
860.57	12067.72
860.891	12127.38
861.212	12051
861.534	11934.16
861.855	11953.15
862.176	11953.15
862.498	11859.36
862.819	11902.75
863.14	11780.04
863.461	11800.83
863.782	11798.57
864.103	11850.55
864.424	11772.13
864.745	11750.44
865.065	11762.64
865.386	11629.76
865.707	11635.19
866.027	11684
866.348	11566.94
866.668	11638.13
866.989	11620.73
867.309	11457.79
867.63	11500.28
867.95	11486.94
868.27	11524.23
868.59	11454.4
868.91	11486.49
869.23	11387.06
869.55	11359.49
869.87	11359.94
870.19	11342.09
870.51	11387.51
870.83	11432.71
871.15	11345.25
871.469	11309.32
871.789	11375.76
872.109	11316.1
872.428	11200.62
872.748	11235.42
873.067	11181.19
873.386	11251.7
873.706	11175.54
874.025	11130.57
874.344	11128.99
874.663	11145.03
874.982	11032.49
875.301	11136.9
875.62	11081.08
875.939	11028.42
876.258	11040.4
876.577	10989.1
876.896	11053.73
877.214	10957.24
877.533	11003.11
877.852	10876.56
878.17	10957.01
878.489	10905.04
878.807	10891.03
879.125	10897.13
879.444	10830.24
879.762	10898.03
880.08	10832.5
880.398	10740.97
880.716	10770.58
881.034	10729.68
881.352	10735.78
881.67	10752.95
881.988	10676.8
882.306	10667.98
882.624	10671.6
882.941	10633.41
883.259	10527.42
883.577	10581.66
883.894	10508.21
884.212	10500.08
884.529	10464.37
884.846	10447.2
885.164	10447.42
885.481	10364.94
885.798	10379.85
886.115	10326.75
886.432	10364.26
886.75	10292.85
887.067	10318.39
887.383	10201.1
887.7	10315.22
888.017	10248.11
888.334	10261.21
888.651	10194.55
888.967	10130.37
889.284	10101.44
889.6	10098.28
889.917	10008.34
890.233	10065.29
890.55	9957.72
890.866	9975.8
891.182	9947.55
891.498	9910.04
891.815	9835.24
892.131	9834.56
892.447	9825.74
892.763	9823.94
893.079	9735.8
893.395	9722.02
893.71	9703.94
894.026	9740.55
894.342	9645.41
894.657	9656.48
894.973	9599.08
895.289	9536.49
895.604	9574.45
895.92	9443.16
896.235	9472.99
896.55	9403.16
896.865	9413.1
897.181	9456.94
897.496	9375.13
897.811	9356.6
898.126	9272.31
898.441	9181.02
898.756	9202.94
899.071	9056.05
899.386	9148.02
899.7	9094.01
900.015	9136.27
900.33	8983.05
900.644	9013.79
900.959	9073
901.273	9007.01
901.588	8899.67
901.902	8860.8
902.216	8803.4
902.531	8752.1
902.845	8799.78
903.159	8742.61
903.473	8694.93
903.787	8708.26
904.101	8643.18
904.415	8658.32
904.729	8668.26
905.042	8560.47
905.356	8500.81
905.67	8522.28
905.984	8537.87
906.297	8439.57
906.611	8374.03
906.924	8408.61
907.237	8369.96
907.551	8313.69
907.864	8278.67
908.177	8246.58
908.491	8254.94
908.804	8163.64
909.117	8182.62
909.43	8050.2
909.743	8080.25
910.056	8099.91
910.368	8017.66
910.681	7988.73
910.994	7982.63
911.307	7990.76
911.619	7867.15
911.932	7928.85
912.244	7857.21
912.557	7827.15
912.869	7751.22
913.181	7724.33
913.494	7725.46
913.806	7621.06
914.118	7663.09
914.43	7515.07
914.742	7631.68
915.054	7484.56
915.366	7521.62
915.678	7447.73
915.99	7440.04
916.302	7424.9
916.613	7381.29
916.925	7343.1
917.236	7301.52
917.548	7267.85
917.859	7252.03
918.171	7214.51
918.482	7168.19
918.794	7168.64
919.105	7172.48
919.416	7112.82
919.727	7097.23
920.038	7006.38
920.349	7013.62
920.66	7007.29
920.971	6930.68
921.282	6947.4
921.593	6904.47
921.903	6910.57
922.214	6871.02
922.525	6785.82
922.835	6795.09
923.146	6730.68
923.456	6736.56
923.767	6705.6
924.077	6682.78
924.387	6614.53
924.697	6571.37
925.008	6588.54
925.318	6567.3
925.628	6501.31
925.938	6506.51
926.248	6447.08
926.558	6394.87
926.867	6422.22
927.177	6383.35
927.487	6358.72
927.796	6274.43
928.106	6295.22
928.416	6264.93
928.725	6300.64
929.034	6203.69
929.344	6271.71
929.653	6185.84
929.962	6144.71
930.271	6127.76
930.581	6118.27
930.89	6038.73
931.199	6021.55
931.508	5992.17
931.817	6011.38
932.125	6011.83
932.434	5950.14
932.743	5833.76
933.051	5815.45
933.36	5846.87
933.669	5818.84
933.977	5782.46
934.286	5819.52
934.594	5805.06
934.902	5728.23
935.21	5709.92
935.519	5712.86
935.827	5651.16
936.135	5664.95
936.443	5612.97
936.751	5561.68
937.059	5589.7
937.367	5547.66
937.674	5542.69
937.982	5511.73
938.29	5484.16
938.597	5450.94
938.905	5429.25
939.213	5457.5
939.52	5385.18
939.827	5373.21
940.135	5297.28
940.442	5298.86
940.749	5347.22
941.056	5296.82
941.363	5236.26
941.67	5177.28
941.977	5152.2
942.284	5150.16
942.591	5158.52
942.898	5130.05
943.205	5109.94
943.511	5076.49
943.818	5039.2
944.125	5037.4
944.431	4991.07
944.738	4989.04
945.044	5030.62
945.35	4968.92
945.657	4904.07
945.963	4878.53
946.269	4902.71
946.575	4892.09
946.881	4842.6
947.187	4843.73
947.493	4811.41
947.799	4803.5
948.105	4766.22
948.41	4734.8
948.716	4756.5
949.022	4732.77
949.327	4731.87
949.633	4680.57
949.938	4673.79
950.244	4643.28
950.549	4591.08
950.854	4561.93
951.16	4545.43
951.465	4507.92
951.77	4506.56
952.075	4503.85
952.38	4478.54
952.685	4518.99
952.99	4421.82
953.294	4442.16
953.599	4412.78
953.904	4370.29
954.209	4338.21
954.513	4339.11
954.818	4298.88
955.122	4302.5
955.426	4292.78
955.731	4290.52
956.035	4249.62
956.339	4294.59
956.643	4236.96
956.948	4197.87
957.252	4197.42
957.556	4146.12
957.86	4123.97
958.163	4161.71
958.467	4100.47
958.771	4076.29
959.075	4091.21
959.378	4023.64
959.682	4089.17
959.985	4011.43
960.289	4014.37
960.592	3979.57
960.896	3950.19
961.199	3953.36
961.502	3961.49
961.805	3890.53
962.108	3905.67
962.411	3877.2
962.714	3939.35
963.017	3858.44
963.32	3848.27
963.623	3816.18
963.926	3829.52
964.228	3773.93
964.531	3747.94
964.833	3777.54
965.136	3745.9
965.438	3694.15
965.741	3679.47
966.043	3688.96
966.345	3673.82
966.648	3689.63
966.95	3653.03
967.252	3620.94
967.554	3591.56
967.856	3582.29
968.158	3553.82
968.46	3600.82
968.761	3561.73
969.063	3518.34
969.365	3502.29
969.666	3449.19
969.968	3455.74
970.269	3493.93
970.571	3465.23
970.872	3446.48
971.174	3412.35
971.475	3383.43
971.776	3407.83
972.077	3322.86
972.378	3354.05
972.679	3348.17
972.98	3349.08
973.281	3345.24
973.582	3333.94
973.883	3283.54
974.183	3294.39
974.484	3260.27
974.785	3230.44
975.085	3239.03
975.386	3199.25
975.686	3190.66
975.986	3168.74
976.287	3198.57
976.587	3157.67
976.887	3149.08
977.187	3154.51
977.487	3142.76
977.787	3115.64
978.087	3111.8
978.387	3081.29
978.687	3063.44
978.987	3081.52
979.286	2996.55
979.586	3014.62
979.885	2989.09
980.185	2993.16
980.484	3001.07
980.784	2989.09
981.083	2957.68
981.382	2934.85
981.682	2965.59
981.981	2930.56
982.28	2898.02
982.579	2875.19
982.878	2879.26
983.177	2878.58
983.475	2893.72
983.774	2852.59
984.073	2798.13
984.372	2822.99
984.67	2815.53
984.969	2827.51
985.267	2785.7
985.566	2760.62
985.864	2746.83
986.162	2752.94
986.461	2724.24
986.759	2715.2
987.057	2664.8
987.355	2723.56
987.653	2675.88
987.951	2673.16
988.249	2670.68
988.547	2658.93
988.844	2633.84
989.142	2601.98
989.44	2613.5
989.737	2570.79
990.035	2568.08
990.332	2571.25
990.63	2601.08
990.927	2551.13
991.224	2542.32
991.521	2533.73
991.819	2505.48
992.116	2492.83
992.413	2494.19
992.71	2514.52
993.006	2490.57
993.303	2484.02
993.6	2460.97
993.897	2463.9
994.193	2412.61
994.49	2414.64
994.787	2378.26
995.083	2366.73
995.379	2406.73
995.676	2347.52
995.972	2350.91
996.268	2347.3
996.565	2339.39
996.861	2319.28
997.157	2309.11
997.453	2262.33
997.749	2294.19
998.044	2234.98
998.34	2234.53
998.636	2221.2
998.932	2238.37
999.227	2216.9
999.523	2238.15
999.818	2186.85
1000.114	2174.19
1000.409	2189.34
1000.704	2145.49
1001	2149.79
1001.295	2147.98
1001.59	2122.22
1001.885	2144.82
1002.18	2123.35
1002.475	2099.85
1002.77	2097.81
1003.065	2065.04
1003.359	2041.99
1003.654	2055.33
1003.949	2039.51
1004.243	2052.62
1004.538	2023.46
1004.832	2030.92
1005.127	2017.81
1005.421	2017.81
1005.715	1974.2
1006.009	1990.7
1006.304	1941.66
1006.598	1929.68
1006.892	1924.03
1007.186	1939.17
1007.48	1936.23
1007.773	1888.1
1008.067	1896.24
1008.361	1864.37
1008.655	1903.92
1008.948	1870.02
1009.242	1848.1
1009.535	1849.91
1009.829	1843.58
1010.122	1799.74
1010.415	1822.57
1010.708	1795
1011.001	1795.9
1011.295	1791.15
1011.588	1800.64
1011.881	1752.06
1012.173	1762.91
1012.466	1684.49
1012.759	1717.71
1013.052	1751.15
1013.344	1706.86
1013.637	1736.69
1013.93	1668.9
1014.222	1685.62
1014.514	1651.95
1014.807	1669.12
1015.099	1645.17
1015.391	1637.49
1015.683	1634.77
1015.976	1616.47
1016.268	1600.2
1016.56	1582.35
1016.851	1571.27
1017.143	1576.24
1017.435	1577.15
1017.727	1559.07
1018.018	1546.41
1018.31	1556.58
1018.602	1535.57
1018.893	1524.49
1019.185	1502.35
1019.476	1499.18
1019.767	1502.57
1020.058	1491.05
1020.35	1458.51
1020.641	1445.4
1020.932	1432.97
1021.223	1431.16
1021.514	1451.5
1021.804	1425.51
1022.095	1426.87
1022.386	1424.38
1022.677	1398.17
1022.967	1400.2
1023.258	1380.32
1023.548	1368.57
1023.839	1370.15
1024.129	1377.15
1024.419	1365.85
1024.709	1333.09
1025	1316.59
1025.29	1326.31
1025.58	1324.27
1025.87	1301
1026.16	1312.75
1026.449	1295.8
1026.739	1288.57
1027.029	1294.67
1027.319	1243.6
1027.608	1269.36
1027.898	1210.15
1028.187	1258.51
1028.477	1223.71
1028.766	1227.1
1029.055	1186.65
1029.344	1191.85
1029.634	1212.41
1029.923	1186.2
1030.212	1171.73
1030.501	1169.7
1030.79	1160.66
1031.078	1183.71
1031.367	1139.42
1031.656	1129.25
1031.945	1157.72
1032.233	1143.26
1032.522	1118.18
1032.81	1096.48
1033.099	1095.8
1033.387	1091.96
1033.675	1114.34
1033.963	1073.66
1034.251	1070.72
1034.54	1081.12
1034.828	1073.43
1035.116	1069.59
1035.403	1032.76
1035.691	1030.72
1035.979	1059.65
1036.267	1026.88
1036.554	1039.31
1036.842	1027.56
1037.129	1022.13
1037.417	1014
1037.704	1010.61
1037.992	976.94
1038.279	990.95
1038.566	985.07
1038.853	985.07
1039.14	985.07
