Data from hue_26_FLMS001491_00090.txt Node
Date: Tue Feb 07 17:14:42 GMT 2017
User: dcchb
Spectrometer: FLMS00149
Trigger mode: 0
Integration Time (sec): 2.000000E-2
Scans to average: 10
Electric dark correction enabled: true
Nonlinearity correction enabled: false
Boxcar width: 0
XAxis mode: Wavelengths
Number of Pixels in Spectrum: 2048
>>>>>Begin Spectral Data<<<<<
341.393	-12.01
341.776	-12.01
342.16	-12.01
342.543	-59.24
342.927	-67.37
343.31	-64.66
343.693	-79.8
344.077	-69.86
344.46	-53.81
344.843	-64.66
345.226	-50.2
345.61	-42.96
345.993	-15.4
346.376	-9.07
346.759	27.32
347.142	36.35
347.525	39.74
347.908	46.98
348.291	72.51
348.674	110.48
349.057	117.03
349.44	127.65
349.823	123.81
350.206	162.45
350.588	188.67
350.971	230.7
351.354	216.46
351.737	252.39
352.119	253.75
352.502	262.34
352.884	283.81
353.267	300.3
353.65	304.37
354.032	309.12
354.414	328.55
354.797	316.8
355.179	322
355.562	327.42
355.944	320.87
356.326	324.71
356.709	343.92
357.091	343.24
357.473	346.63
357.855	331.71
358.238	350.92
358.62	347.31
359.002	352.05
359.384	330.13
359.766	338.27
360.148	336.23
360.53	325.39
360.912	335.1
361.294	336.91
361.676	346.18
362.057	328.55
362.439	338.49
362.821	339.17
363.203	331.49
363.584	317.48
363.966	320.19
364.348	318.16
364.729	328.1
365.111	318.83
365.493	305.73
365.874	316.57
366.256	323.58
366.637	326.74
367.019	321.55
367.4	333.97
367.781	313.64
368.163	313.18
368.544	296.91
368.925	320.64
369.306	324.03
369.688	312.51
370.069	331.71
370.45	338.27
370.831	308.44
371.212	333.3
371.593	321.55
371.974	301.66
372.355	307.76
372.736	316.12
373.117	317.93
373.498	311.83
373.879	311.6
374.26	311.15
374.641	317.48
375.021	314.31
375.402	316.8
375.783	313.64
376.163	322.22
376.544	303.92
376.925	331.26
377.305	312.96
377.686	333.52
378.066	312.51
378.447	326.52
378.827	326.52
379.208	337.59
379.588	327.42
379.968	343.47
380.349	337.59
380.729	316.57
381.109	318.16
381.489	346.63
381.87	339.4
382.25	347.53
382.63	318.61
383.01	341.88
383.39	350.7
383.77	341.43
384.15	346.4
384.53	360.41
384.91	327.87
385.29	356.57
385.67	340.53
386.049	340.53
386.429	330.58
386.809	361.54
387.189	353.18
387.568	372.62
387.948	354.31
388.328	376.69
388.707	354.31
389.087	339.85
389.466	350.7
389.846	357.48
390.225	356.8
390.605	363.8
390.984	368.32
391.363	367.19
391.743	380.53
392.122	382.56
392.501	371.94
392.881	375.78
393.26	360.64
393.639	381.66
394.018	370.58
394.397	371.49
394.776	368.1
395.155	395.67
395.534	394.09
395.913	386.4
396.292	376.01
396.671	406.29
397.05	389.79
397.429	385.05
397.808	381.2
398.186	382.33
398.565	389.34
398.944	392.28
399.323	380.53
399.701	401.32
400.08	385.05
400.458	403.8
400.837	394.31
401.215	403.35
401.594	374.88
401.972	398.38
402.351	377.14
402.729	408.55
403.107	411.26
403.486	412.84
403.864	408.55
404.242	402
404.62	405.16
404.999	418.94
405.377	404.25
405.755	403.12
406.133	430.02
406.511	433.18
406.889	423.69
407.267	413.75
407.645	439.28
408.023	455.33
408.401	442.9
408.779	426.85
409.156	422.33
409.534	444.48
409.912	412.62
410.29	446.97
410.667	431.15
411.045	433.63
411.422	465.27
411.8	459.17
412.178	448.77
412.555	458.94
412.933	463.24
413.31	476.34
413.687	468.66
414.065	464.82
414.442	470.69
414.819	474.08
415.197	490.58
415.574	507.53
415.951	465.27
416.328	444.71
416.705	472.5
417.082	481.99
417.46	504.37
417.837	504.14
418.214	490.58
418.591	496.46
418.967	478.83
419.344	506.4
419.721	524.03
420.098	501.2
420.475	500.07
420.852	540.07
421.228	525.16
421.605	523.8
421.982	515.89
422.358	501.88
422.735	514.53
423.111	527.42
423.488	507.53
423.864	511.37
424.241	540.75
424.617	524.48
424.994	536.68
425.37	545.95
425.746	555.44
426.123	550.47
426.499	553.18
426.875	555.21
427.251	555.89
427.627	584.82
428.003	584.82
428.379	566.96
428.756	570.8
429.132	583.23
429.507	601.54
429.883	608.09
430.259	599.96
430.635	611.71
431.011	583.69
431.387	619.39
431.763	624.81
432.138	605.15
432.514	616.68
432.89	616.23
433.265	642.67
433.641	623.46
434.016	650.12
434.392	655.55
434.767	663.91
435.143	638.83
435.518	651.71
435.894	668.88
436.269	645.15
436.644	678.6
437.02	682.89
437.395	666.85
437.77	709.33
438.145	693.06
438.52	705.04
438.895	690.35
439.271	697.81
439.646	699.16
440.021	698.71
440.395	738.71
440.77	714.08
441.145	726.28
441.52	724.92
441.895	731.7
442.27	752.49
442.645	729.67
443.019	728.31
443.394	745.26
443.769	750.91
444.143	757.92
444.518	782.78
444.892	770.35
445.267	768.77
445.641	777.8
446.016	772.83
446.39	793.4
446.764	780.74
447.139	778.71
447.513	785.71
447.887	782.78
448.262	797.92
448.636	791.59
449.01	812.61
449.384	816.22
449.758	802.44
450.132	846.05
450.506	832.49
450.88	822.77
451.254	820.52
451.628	833.4
452.002	849.21
452.376	869.33
452.75	847.41
453.123	859.16
453.497	860.97
453.871	873.17
454.244	898.25
454.618	899.16
454.992	888.76
455.365	937.35
455.739	922.89
456.112	920.4
456.486	916.78
456.859	928.31
457.232	943.68
457.606	953.39
457.979	960.85
458.352	989.32
458.725	965.82
459.099	978.93
459.472	1009.44
459.845	1008.31
460.218	1022.54
460.591	1050.34
460.964	1029.1
461.337	1064.35
461.71	1067.29
462.083	1089.21
462.456	1103.9
462.829	1078.14
463.201	1100.28
463.574	1116.1
463.947	1118.81
464.32	1145.7
464.692	1147.29
465.065	1181.86
465.438	1159.49
465.81	1177.79
466.183	1196.78
466.555	1196.78
466.928	1236.32
467.3	1217.11
467.672	1244.01
468.045	1274.06
468.417	1287.4
468.789	1275.19
469.161	1304.34
469.534	1334.4
469.906	1357.9
470.278	1340.05
470.65	1386.38
471.022	1405.58
471.394	1432.48
471.766	1415.08
472.138	1456.66
472.51	1467.28
472.882	1497.79
473.253	1518.35
473.625	1554.51
473.997	1576.2
474.369	1566.03
474.74	1587.95
475.112	1658.91
475.484	1663.2
475.855	1686.48
476.227	1719.47
476.598	1789.53
476.97	1800.15
477.341	1835.4
477.713	1815.52
478.084	1858.45
478.455	1916.76
478.827	1956.98
479.198	1997.43
479.569	2028.62
479.94	2033.59
480.311	2060.93
480.682	2128.28
481.053	2180.71
481.424	2196.75
481.795	2231.33
482.166	2292.57
482.537	2335.05
482.908	2376.41
483.279	2392.23
483.65	2420.25
484.021	2485.78
484.391	2559.9
484.762	2580.02
485.133	2608.04
485.503	2682.61
485.874	2761.26
486.244	2797.19
486.615	2827.02
486.985	2864.08
487.356	2918.99
487.726	2956.05
488.097	3012.55
488.467	3068.14
488.837	3174.8
489.207	3161.24
489.578	3216.84
489.948	3281.24
490.318	3336.16
490.688	3350.84
491.058	3434.01
491.428	3459.09
491.798	3528.69
492.168	3593.1
492.538	3618.41
492.908	3676.94
493.278	3708.57
493.648	3748.35
494.017	3746.77
494.387	3821.57
494.757	3873.99
495.126	3934.56
495.496	3939.08
495.866	4005.06
496.235	4016.36
496.605	4076.25
496.974	4146.3
497.344	4136.36
497.713	4210.03
498.082	4219.3
498.452	4287.77
498.821	4298.84
499.19	4286.41
499.559	4354.66
499.928	4365.73
500.298	4436.01
500.667	4469.23
501.036	4482.11
501.405	4542
501.774	4530.7
502.143	4563.24
502.512	4620.87
502.88	4646.18
503.249	4651.37
503.618	4673.3
503.987	4740.64
504.356	4725.27
504.724	4782.44
505.093	4810.47
505.462	4818.15
505.83	4863.57
506.199	4910.35
506.567	4960.29
506.936	4982.21
507.304	4997.58
507.672	5027.18
508.041	5012.27
508.409	5103.11
508.777	5147.18
509.145	5161.64
509.514	5125.94
509.882	5208.42
510.25	5176.11
510.618	5240.74
510.986	5245.71
511.354	5292.49
511.722	5325.93
512.09	5344.92
512.458	5325.71
512.826	5357.35
513.193	5420.62
513.561	5430.11
513.929	5438.25
514.297	5513.5
514.664	5532.26
515.032	5534.97
515.4	5569.09
515.767	5547.4
516.135	5615.42
516.502	5570.67
516.869	5699.48
517.237	5700.84
517.604	5671.91
517.972	5741.52
518.339	5702.42
518.706	5736.77
519.073	5807.95
519.44	5793.04
519.808	5863.55
520.175	5893.38
520.542	5910.1
520.909	5948.97
521.276	5929.99
521.643	5996.2
522.009	6063.09
522.376	6071.9
522.743	6032.36
523.11	6182.86
523.477	6186.48
523.843	6146.48
524.21	6249.75
524.577	6267.15
524.943	6284.33
525.31	6341.95
525.676	6408.84
526.043	6396.64
526.409	6463.3
526.776	6508.5
527.142	6508.73
527.508	6521.61
527.874	6534.26
528.241	6557.54
528.607	6666.01
528.973	6661.49
529.339	6653.81
529.705	6668.95
530.071	6746.24
530.437	6814.71
530.803	6868.94
531.169	6868.04
531.535	6870.07
531.901	6950.07
532.267	6962.95
532.632	6981.26
532.998	6953.91
533.364	7046.57
533.73	7082.5
534.095	7063.51
534.461	7179.67
534.826	7209.95
535.192	7228.71
535.557	7253.11
535.923	7229.16
536.288	7246.33
536.653	7362.72
537.019	7261.93
537.384	7281.59
537.749	7351.42
538.114	7412.43
538.479	7437.97
538.845	7450.4
539.21	7436.39
539.575	7488.81
539.94	7534.91
540.305	7618.3
540.67	7563.61
541.034	7639.77
541.399	7664.85
541.764	7642.71
542.129	7737.4
542.494	7836.38
542.858	7790.5
543.223	7830.95
543.587	7788.47
543.952	7857.17
544.316	7918.41
544.681	7889.26
545.045	7970.61
545.41	8082.47
545.774	8014.68
546.138	8054
546.503	8121.34
546.867	8115.46
547.231	8203.6
547.595	8224.16
547.959	8201.79
548.324	8202.92
548.688	8236.37
549.052	8311.62
549.416	8277.27
549.779	8331.05
550.143	8332.86
550.507	8433.87
550.871	8430.03
551.235	8501.9
551.599	8585.96
551.962	8572.18
552.326	8556.81
552.689	8560.2
553.053	8579.63
553.417	8557.03
553.78	8667.99
554.143	8674.32
554.507	8685.39
554.87	8698.95
555.234	8818.27
555.597	8779.63
555.96	8807.88
556.323	8872.73
556.686	8818.72
557.05	8932.62
557.413	8978.04
557.776	8972.17
558.139	9030.24
558.502	9022.79
558.865	9049.68
559.228	9185.72
559.59	9163.35
559.953	9140.3
560.316	9227.07
560.679	9213.29
561.041	9311.59
561.404	9268.2
561.767	9349.1
562.129	9327.41
562.492	9409.89
562.854	9423.23
563.217	9375.77
563.579	9391.14
563.941	9547.74
564.304	9532.15
564.666	9623.9
565.028	9582.09
565.39	9619.61
565.753	9658.25
566.115	9715.42
566.477	9755.65
566.839	9746.83
567.201	9837.91
567.563	9921.52
567.925	9956.55
568.287	9984.57
568.648	9982.76
569.01	10000.16
569.372	10151.57
569.734	10079.48
570.095	10189.53
570.457	10178.91
570.819	10289.87
571.18	10274.5
571.542	10322.64
571.903	10287.38
572.265	10360.83
572.626	10433.6
572.987	10473.37
573.349	10545.01
573.71	10618
574.071	10667.71
574.432	10683.98
574.794	10780.71
575.155	10821.83
575.516	10840.82
575.877	10981.38
576.238	10977.99
576.599	11069.29
576.96	11146.57
577.32	11283.06
577.681	11317.19
578.042	11471.76
578.403	11541.14
578.763	11579.1
579.124	11726.22
579.485	11822.94
579.845	11970.96
580.206	12003.72
580.566	12176.6
580.927	12285.07
581.287	12420.21
581.648	12507.21
582.008	12720.09
582.368	12852.74
582.728	12959.63
583.089	13163.47
583.449	13304.48
583.809	13450.01
584.169	13626.96
584.529	13730.01
584.889	14145.81
585.249	14104.01
585.609	14276.88
585.969	14685.01
586.329	14754.39
586.688	14954.38
587.048	15158.9
587.408	15450.64
587.768	15655.15
588.127	15888.82
588.487	16122.71
588.846	16407.68
589.206	16571.06
589.565	16783.94
589.925	17200.2
590.284	17407.42
590.643	17660.07
591.003	18004.47
591.362	18277.23
591.721	18521.97
592.08	18812.36
592.44	19158.56
592.799	19401.27
593.158	19696.4
593.517	19940.69
593.876	20142.27
594.235	20554.91
594.593	20800.33
594.952	21034.67
595.311	21364.16
595.67	21683.7
596.029	22100.18
596.387	22426.05
596.746	22770.9
597.104	22855.19
597.463	23291.11
597.822	23638.45
598.18	23850.87
598.538	24122.05
598.897	24552.77
599.255	24643.17
599.613	25340.77
599.972	25247.44
600.33	25768.33
600.688	25882
601.046	26264.59
601.404	26625.94
601.762	26860.51
602.12	27244.68
602.478	27652.13
602.836	27764.44
603.194	27941.16
603.552	28292.79
603.91	28384.08
604.268	28817.97
604.625	28979.77
604.983	29465.64
605.341	29492.98
605.698	29880.99
606.056	30242.34
606.413	30412.05
606.771	30839.39
607.128	30998.93
607.485	31099.94
607.843	31407.06
608.2	31653.15
608.557	31978.11
608.914	32035.97
609.272	32401.61
609.629	32753.46
609.986	33017.18
610.343	33112.1
610.7	33537.62
611.057	33588.24
611.414	33664.4
611.771	34005.86
612.127	34261.22
612.484	34475
612.841	34583.02
613.198	34806.06
613.554	34918.83
613.911	35258.93
614.267	35379.15
614.624	35521.98
614.98	35752.25
615.337	36052.36
615.693	36158.57
616.05	36191.34
616.406	36487.6
616.762	36501.38
617.118	36801.26
617.475	36874.26
617.831	37046.23
618.187	37196.28
618.543	37462.94
618.899	37685.99
619.255	37677.17
619.611	37839.88
619.967	37997.16
620.323	38213.43
620.678	38130.04
621.034	38196.26
621.39	38295.91
621.746	38343.14
622.101	38920.53
622.457	38624.27
622.812	38807.76
623.168	38888.21
623.523	39130.92
623.879	39297.24
624.234	39192.61
624.589	39404.36
624.945	39448.2
625.3	39515.54
625.655	39643.45
626.01	39790.56
626.365	39925.48
626.72	39846.38
627.075	39862.43
627.43	40021.07
627.785	40009.54
628.14	40036.66
628.495	40122.31
628.85	40081.86
629.205	40095.87
629.559	40386.48
629.914	40136.54
630.269	40344
630.623	40297.67
630.978	40275.75
631.332	40504.67
631.687	40616.3
632.041	40484.11
632.396	40644.33
632.75	40492.47
633.104	40507.61
633.459	40513.26
633.813	40612.01
634.167	40605.91
634.521	40540.83
634.875	40732.01
635.229	40715.51
635.583	40546.25
635.937	40531.11
636.291	40506.03
636.645	40602.75
636.999	40508.74
637.352	40586.7
637.706	40407.5
638.06	40599.58
638.413	40444.78
638.767	40459.02
639.121	40570.88
639.474	40438.68
639.828	40481.62
640.181	40582.86
640.534	40534.95
640.888	40472.13
641.241	40262.87
641.594	40369.31
641.947	40692.91
642.301	40435.07
642.654	40496.76
643.007	40472.35
643.36	40424.67
643.713	40457.44
644.066	40664.44
644.419	40300.38
644.771	39994.63
645.124	39700.4
645.477	39691.58
645.83	39417.69
646.182	39320.07
646.535	39221.54
646.888	39419.73
647.24	39120.98
647.593	39361.2
647.945	39308.09
648.298	39085.95
648.65	39099.51
649.002	39044.37
649.355	39306.73
649.707	39219.96
650.059	39391.48
650.411	39816.78
650.763	39857.45
651.115	40325.69
651.467	40030.56
651.819	40042.31
652.171	40023.78
652.523	39926.15
652.875	40029.65
653.227	39916.66
653.578	39952.14
653.93	39926.83
654.282	39884.57
654.633	39741.07
654.985	39893.39
655.337	39862.88
655.688	40020.16
656.039	39932.71
656.391	39688.42
656.742	39828.3
657.094	39828.76
657.445	39908.75
657.796	39837.12
658.147	39753.73
658.498	39759.15
658.849	39951.46
659.2	39741.3
659.551	39846.16
659.902	39757.12
660.253	39907.62
660.604	39746.27
660.955	39463.79
661.306	39749.21
661.656	39657.91
662.007	39675.31
662.358	39626.05
662.708	39679.38
663.059	39729.55
663.409	39475.32
663.76	39650.91
664.11	39765.25
664.461	39759.6
664.811	39654.07
665.161	39821.07
665.511	39577.01
665.862	39699.72
666.212	39837.12
666.562	39737.23
666.912	39618.14
667.262	39628.08
667.612	39725.03
667.962	39708.76
668.312	39575.43
668.662	39706.95
669.011	39596.9
669.361	39588.76
669.711	39561.42
670.06	39586.5
670.41	39487.97
670.76	39385.6
671.109	39529.1
671.459	39314.64
671.808	39497.24
672.157	39582.21
672.507	39229.22
672.856	39226.28
673.205	39269
673.554	39489.1
673.904	39264.25
674.253	39606.39
674.602	39389.44
674.951	38971.83
675.3	38677.37
675.649	39298.6
675.998	39274.19
676.346	39358.94
676.695	39595.99
677.044	39060.41
677.393	39129.79
677.741	39222.9
678.09	39115.78
678.438	38988.78
678.787	39109.45
679.135	38947.87
679.484	38843.7
679.832	38968.21
680.181	38678.73
680.529	38864.26
680.877	38699.97
681.225	38720.31
681.573	39034.88
681.922	38687.99
682.27	38691.61
682.618	38648
682.966	38519.41
683.314	38514.67
683.661	38535.46
684.009	38340.66
684.357	38260.66
684.705	38103.38
685.053	38192.41
685.4	38268.57
685.748	38079.65
686.095	38078.07
686.443	37981.35
686.79	37928.69
687.138	37917.17
687.485	37923.72
687.832	37816.15
688.18	37708.58
688.527	37569.38
688.874	37624.29
689.221	37405.32
689.568	37361.02
689.915	37412.1
690.262	37316.5
690.609	37252.78
690.956	37031.99
691.303	37093.23
691.65	36893.69
691.997	36911.54
692.344	36737.54
692.69	36733.92
693.037	36731.44
693.383	36532.12
693.73	36621.83
694.077	36387.04
694.423	36370.99
694.769	36211.9
695.116	36049.42
695.462	36161.73
695.808	35924.22
696.155	36032.92
696.501	35780.05
696.847	35809.2
697.193	35528.08
697.539	35738.47
697.885	35375.99
698.231	35353.84
698.577	35424.58
698.923	35262.77
699.269	35008.09
699.614	35028.88
699.96	34806.29
700.306	34941.65
700.651	34679.06
700.997	34671.83
701.342	34580.31
701.688	34607.88
702.033	34446.3
702.379	34379.63
702.724	34318.62
703.069	34387.32
703.415	34048.12
703.76	34109.58
704.105	34068.91
704.45	33858.29
704.795	33757.28
705.14	33606.32
705.485	33609.26
705.83	33597.96
706.175	33500.33
706.52	33427.12
706.865	33374.01
707.209	33267.12
707.554	33215.37
707.899	33260.11
708.243	33069.84
708.588	32912.33
708.932	32764.99
709.277	32798.88
709.621	32719.11
709.966	32562.28
710.31	32578.1
710.654	32433.24
710.998	32379.91
711.342	32503.75
711.687	32512.34
712.031	32251.78
712.375	32026.93
712.719	32174.72
713.063	32040.71
713.407	32229.86
713.75	31866.93
714.094	31984.67
714.438	31776.99
714.782	31939.47
715.125	31612.02
715.469	31808.4
715.812	31588.97
716.156	31592.14
716.499	31424.46
716.843	31570.44
717.186	31286.15
717.53	31433.5
717.873	31514.85
718.216	31234.18
718.559	31187.17
718.902	31025.37
719.246	31060.85
719.589	30977.91
719.932	30902.21
720.275	30763.91
720.617	30946.05
720.96	30804.13
721.303	30647.3
721.646	30654.53
721.989	30540.19
722.331	30737.02
722.674	30531.82
723.016	30629.9
723.359	30490.24
723.701	30536.12
724.044	30323.92
724.386	30160.99
724.729	30245.05
725.071	30224.26
725.413	30225.62
725.755	30195.79
726.097	29951.73
726.439	29908.34
726.782	30004.38
727.124	29971.61
727.465	29934.33
727.807	29822.46
728.149	29798.74
728.491	29732.98
728.833	29762.35
729.175	29690.04
729.516	29694.56
729.858	29632.86
730.199	29584.5
730.541	29543.83
730.882	29499.31
731.224	29517.16
731.565	29284.17
731.906	29358.07
732.248	29620.44
732.589	29225.19
732.93	29031.98
733.271	29154.91
733.612	29268.35
733.953	29172.09
734.294	29057.51
734.635	28934.35
734.976	29152.88
735.317	28786.79
735.658	28864.98
735.999	28927.8
736.339	28872.43
736.68	28826.11
737.021	28608.94
737.361	28583.4
737.702	28833.34
738.042	28652.1
738.383	28679.67
738.723	28682.61
739.063	28554.93
739.404	28507.47
739.744	28407.13
740.084	28368.72
740.424	28375.04
740.764	28318.32
741.104	28395.38
741.444	28213.47
741.784	28167.14
742.124	28329.17
742.464	28169.4
742.804	28198.55
743.143	28046.47
743.483	28161.04
743.823	27909.52
744.162	28001.95
744.502	27960.59
744.841	27841.27
745.181	28028.61
745.52	27838.56
745.86	27792.69
746.199	27764.44
746.538	27773.25
746.877	27854.15
747.216	27817.32
747.556	27609.19
747.895	27633.14
748.234	27506.82
748.573	27463.2
748.911	27471.57
749.25	27395.64
749.589	27285.81
749.928	27395.64
750.267	27376.2
750.605	27404.67
750.944	27204.45
751.283	27078.36
751.621	27150.22
751.96	26945.03
752.298	27027.96
752.636	26954.74
752.975	26861.19
753.313	26859.15
753.651	26989.77
753.989	26751.58
754.327	26688.99
754.666	26592.72
755.004	26637.46
755.342	26477.47
755.679	26550.69
756.017	26408.77
756.355	26497.13
756.693	26204.48
757.031	26380.97
757.368	26196.35
757.706	26204.93
758.044	26077.03
758.381	26205.38
758.719	25977.59
759.056	26072.05
759.394	26056.69
759.731	25740.54
760.068	25827.32
760.405	25734.21
760.743	25681.33
761.08	25619.86
761.417	25549.36
761.754	25467.55
762.091	25444.5
762.428	25357.72
762.765	25205.18
763.102	25354.33
763.438	25133.32
763.775	25148.01
764.112	25111.63
764.449	25052.19
764.785	24874.12
765.122	24692.66
765.458	24581.7
765.795	24717.51
766.131	24566.11
766.467	24491.98
766.804	24401.14
767.14	24274.36
767.476	24213.35
767.812	24098.1
768.148	24214.48
768.485	24078.89
768.821	23943.75
769.157	23951.43
769.492	23817.65
769.828	23830.76
770.164	23625.79
770.5	23477.55
770.836	23559.8
771.171	23301.73
771.507	23377.44
771.842	23223.54
772.178	23135.18
772.513	23075.98
772.849	22965.7
773.184	22877.34
773.519	22895.64
773.855	22788.3
774.19	22670.56
774.525	22603.9
774.86	22620.62
775.195	22587.63
775.53	22440.29
775.865	22334.53
776.2	22172.27
776.535	21904.93
776.87	22086.62
777.205	22022.9
777.539	21807.53
777.874	21869.45
778.209	21736.12
778.543	21713.75
778.878	21625.84
779.212	21486.41
779.547	21376.36
779.881	21490.93
780.215	21294.1
780.55	21280.54
780.884	21168.68
781.218	21114.22
781.552	21088.46
781.886	21003.49
782.22	20915.13
782.554	20805.53
782.888	20638.07
783.222	20562.14
783.556	20527.79
783.889	20412.77
784.223	20251.42
784.557	20140.69
784.89	20301.13
785.224	20066.11
785.557	20024.98
785.891	20056.17
786.224	20014.81
786.558	19954.48
786.891	19764.65
787.224	19680.58
787.557	19677.87
787.891	19569.63
788.224	19609.85
788.557	19528.05
788.89	19555.16
789.223	19427.48
789.556	19190.65
789.888	19227.94
790.221	19227.71
790.554	18982.98
790.887	19038.79
791.219	18880.61
791.552	18860.72
791.884	18893.26
792.217	18853.26
792.549	18685.58
792.882	18564
793.214	18460.05
793.546	18574.17
793.879	18395.42
794.211	18290.56
794.543	18382.54
794.875	18380.96
795.207	18302.99
795.539	18172.38
795.871	18126.73
796.203	17937.13
796.535	17944.58
796.867	17871.37
797.198	17833.63
797.53	17839.95
797.862	17714.99
798.193	17707.75
798.525	17635.21
798.856	17714.08
799.188	17430.02
799.519	17379.18
799.85	17275.22
800.182	17298.73
800.513	17307.09
800.844	17104.38
801.175	17248.78
801.506	17129.01
801.837	17144.83
802.168	17022.8
802.499	17021.22
802.83	16808.57
803.161	16846.76
803.491	16799.76
803.822	16805.41
804.153	16752.98
804.483	16556.37
804.814	16562.47
805.145	16541.46
805.475	16484.28
805.805	16456.49
806.136	16493.55
806.466	16395.7
806.796	16312.99
807.126	16230.51
807.457	16209.04
807.787	16166.55
808.117	16025.77
808.447	16068.93
808.777	16130.62
809.107	16039.1
809.436	15974.24
809.766	15874.58
810.096	15875.71
810.426	15800.46
810.755	15840.46
811.085	15805.21
811.414	15817.18
811.744	15654.48
812.073	15621.03
812.403	15590.52
812.732	15529.73
813.061	15546.46
813.39	15445.44
813.719	15362.28
814.049	15441.15
814.378	15385.33
814.707	15257.42
815.036	15200.02
815.365	15233.02
815.693	15012.91
816.022	15138.33
816.351	15003.65
816.68	14931.33
817.008	14976.08
817.337	14876.64
817.665	14922.29
817.994	14960.26
818.322	14855.63
818.651	14802.75
818.979	14846.81
819.307	14703.54
819.636	14780.37
819.964	14722.3
820.292	14669.87
820.62	14676.65
820.948	14603.2
821.276	14654.95
821.604	14617.44
821.932	14624.22
822.259	14612.69
822.587	14636.42
822.915	14595.75
823.243	14614.05
823.57	14570.21
823.898	14669.19
824.225	14508.97
824.553	14538.8
824.88	14570.44
825.207	14571.34
825.535	14446.82
825.862	14535.41
826.189	14505.81
826.516	14568.85
826.843	14573.37
827.17	14541.74
827.497	14556.2
827.824	14515.97
828.151	14649.76
828.478	14453.83
828.805	14502.19
829.131	14470.78
829.458	14503.32
829.785	14391.91
830.111	14460.61
830.438	14532.02
830.764	14461.74
831.09	14488.4
831.417	14459.93
831.743	14482.08
832.069	14418.35
832.395	14395.53
832.722	14414.28
833.048	14318.47
833.374	14362.98
833.7	14339.48
834.026	14309.2
834.351	14334.74
834.677	14310.56
835.003	14328.18
835.329	14283.44
835.654	14199.6
835.98	14182.42
836.306	14240.05
836.631	14224
836.956	14283.44
837.282	14229.88
837.607	14106.49
837.932	14052.71
838.258	14115.53
838.583	14044.12
838.908	14023.11
839.233	14024.46
839.558	14006.16
839.883	13926.84
840.208	13886.16
840.533	13939.49
840.858	13984.91
841.182	13918.48
841.507	13874.18
841.832	13905.14
842.156	13846.39
842.481	13818.14
842.805	13778.82
843.13	13708.31
843.454	13651.59
843.778	13653.4
844.103	13699.72
844.427	13619.73
844.751	13583.8
845.075	13526.62
845.399	13496.57
845.723	13431.03
846.047	13404.14
846.371	13325.05
846.695	13438.26
847.019	13225.84
847.343	13157.14
847.666	13112.62
847.99	13007.77
848.313	13036.69
848.637	12896.13
848.96	12908.33
849.284	12951.72
849.607	12811.84
849.931	12768.68
850.254	12685.97
850.577	12629.92
850.9	12474.9
851.223	12544.73
851.546	12464.5
851.869	12316.48
852.192	12449.36
852.515	12358.74
852.838	12248.24
853.161	12255.47
853.483	12133.66
853.806	12125.75
854.129	12142.7
854.451	12075.36
854.774	12117.39
855.096	11984.06
855.419	11870.62
855.741	11935.48
856.063	11893.9
856.385	11851.86
856.708	11802.83
857.03	11758.31
857.352	11741.58
857.674	11739.1
857.996	11668.82
858.318	11570.51
858.64	11660.68
858.961	11586.33
859.283	11540.91
859.605	11453.68
859.926	11448.26
860.248	11446.9
860.57	11446.9
860.891	11367.81
861.212	11341.82
861.534	11342.5
861.855	11329.17
862.176	11306.34
862.498	11358.77
862.819	11314.25
863.14	11279.45
863.461	11188.15
863.782	11204.87
864.103	11134.59
864.424	11137.31
864.745	11183.86
865.065	11069.06
865.386	11043.52
865.707	11037.65
866.027	11053.01
866.348	11035.84
866.668	11032
866.989	10956.75
867.309	10937.09
867.63	10958.78
867.95	10915.39
868.27	10804.89
868.59	10877.88
868.91	10879.46
869.23	10768.73
869.55	10763.53
869.87	10828.61
870.19	10864.54
870.51	10812.57
870.83	10768.5
871.15	10746.58
871.469	10660.71
871.789	10762.4
872.109	10696.19
872.428	10594.27
872.748	10670.65
873.067	10593.37
873.386	10626.13
873.706	10643.99
874.025	10579.13
874.344	10498
874.663	10595.4
874.982	10566.7
875.301	10485.35
875.62	10492.8
875.939	10448.74
876.258	10373.48
876.577	10433.14
876.896	10382.3
877.214	10397.89
877.533	10388.63
877.852	10327.38
878.17	10298.01
878.489	10258.23
878.807	10265.24
879.125	10264.33
879.444	10306.59
879.762	10250.1
880.08	10241.74
880.398	10184.34
880.716	10133.04
881.034	10162.64
881.352	10131.46
881.67	10053.72
881.988	10044.23
882.306	10106.82
882.624	10009.65
882.941	10038.13
883.259	9937.11
883.577	9951.8
883.894	9931.01
884.212	9945.47
884.529	9930.78
884.846	9911.35
885.164	9867.28
885.481	9853.95
885.798	9836.32
886.115	9772.6
886.432	9762.88
886.75	9814.18
887.067	9853.72
887.383	9646.05
887.7	9789.54
888.017	9691.02
888.334	9720.39
888.651	9630.23
888.967	9654.86
889.284	9562.43
889.6	9549.33
889.917	9474.75
890.233	9553.39
890.55	9473.62
890.866	9430.23
891.182	9416.9
891.498	9415.09
891.815	9403.34
892.131	9220.97
892.447	9323.12
892.763	9309.56
893.079	9254.19
893.395	9269.56
893.71	9225.04
894.026	9157.02
894.342	9149.34
894.657	9046.74
894.973	9117.47
895.289	9089.22
895.604	9102.33
895.92	8999.51
896.235	8902.56
896.55	9002.67
896.865	8897.59
897.181	8812.4
897.496	8863.69
897.811	8804.94
898.126	8778.5
898.441	8724.49
898.756	8752.51
899.071	8675.22
899.386	8712.74
899.7	8645.39
900.015	8603.36
900.33	8570.82
900.644	8555.23
900.959	8533.08
901.273	8466.19
901.588	8479.97
901.902	8409.47
902.216	8369.92
902.531	8436.81
902.845	8361.33
903.159	8292.64
903.473	8263.48
903.787	8237.72
904.101	8205.18
904.415	8203.37
904.729	8153.88
905.042	8068.91
905.356	8048.12
905.67	8002.93
905.984	8012.19
906.297	8054.45
906.611	8020.55
906.924	7964.51
907.237	7891.74
907.551	7947.56
907.864	7821.01
908.177	7897.84
908.491	7851.29
908.804	7736.49
909.117	7649.49
909.43	7663.27
909.743	7668.7
910.056	7624.18
910.368	7574.69
910.681	7532.66
910.994	7555.25
911.307	7518.87
911.619	7462.15
911.932	7553.45
912.244	7394.81
912.557	7436.16
912.869	7377.63
913.181	7414.92
913.494	7298.76
913.806	7284.07
914.118	7242.72
914.43	7190.97
914.742	7204.53
915.054	7110.52
915.366	7143.74
915.678	7059.67
915.99	7030.52
916.302	7015.38
916.613	7005.89
916.925	6941.26
917.236	6994.59
917.548	6896.51
917.859	6921.15
918.171	6825.78
918.482	6814.26
918.794	6788.04
919.105	6802.28
919.416	6757.99
919.727	6687.25
920.038	6688.38
920.349	6644.32
920.66	6647.48
920.971	6614.94
921.282	6622.85
921.593	6498.33
921.903	6536.52
922.214	6523.42
922.525	6483.64
922.835	6435.06
923.146	6406.13
923.456	6415.17
923.767	6293.37
924.077	6354.61
924.387	6308.05
924.697	6250.88
925.008	6293.37
925.318	6215.4
925.628	6200.26
925.938	6156.19
926.248	6144.22
926.558	6101.96
926.867	6149.87
927.177	6057.89
927.487	6021.06
927.796	5968.85
928.106	5986.93
928.416	5954.17
928.725	5971.11
929.034	5871.46
929.344	5905.58
929.653	5876.2
929.962	5800.72
930.271	5791.68
930.581	5793.04
930.89	5719.14
931.199	5759.37
931.508	5695.19
931.817	5664.68
932.125	5685.7
932.434	5602.54
932.743	5604.57
933.051	5540.39
933.36	5544.01
933.669	5549.2
933.977	5502.2
934.286	5537.45
934.594	5483.44
934.902	5429.89
935.21	5387.4
935.519	5414.52
935.827	5416.55
936.135	5360.06
936.443	5314.63
936.751	5322.09
937.059	5308.76
937.367	5323.22
937.674	5269.21
937.982	5209.1
938.29	5241.64
938.597	5166.62
938.905	5114.87
939.213	5111.25
939.52	5088.2
939.827	5099.27
940.135	5087.07
940.442	5002.55
940.749	5050.46
941.056	4993.06
941.363	4944.7
941.67	4952.16
941.977	4955.77
942.284	4874.65
942.591	4904.93
942.898	4889.11
943.205	4847.75
943.511	4841.88
943.818	4814.99
944.125	4809.34
944.431	4790.35
944.738	4748.1
945.044	4780.19
945.35	4696.35
945.657	4687.98
945.963	4641.88
946.269	4658.61
946.575	4650.02
946.881	4615.67
947.187	4555.11
947.493	4576.57
947.799	4624.03
948.105	4523.69
948.41	4507.65
948.716	4521.66
949.022	4482.11
949.327	4462.45
949.633	4397.82
949.938	4433.98
950.244	4365.73
950.549	4332.06
950.854	4365.51
951.16	4340.2
951.465	4295.45
951.77	4263.59
952.075	4296.81
952.38	4260.2
952.685	4259.29
952.99	4228.34
953.294	4250.71
953.599	4163.93
953.904	4168.45
954.209	4173.65
954.513	4160.09
954.818	4128
955.122	4130.26
955.426	4067.89
955.731	4086.64
956.035	4062.69
956.339	4019.3
956.643	4004.16
956.948	3962.35
957.252	4000.54
957.556	3943.6
957.86	3952.64
958.163	3942.92
958.467	3908.8
958.771	3888.23
959.075	3912.19
959.378	3892.07
959.682	3885.75
959.985	3795.58
960.289	3778.4
960.592	3812.53
960.896	3770.95
961.199	3760.55
961.502	3741.57
961.805	3725.52
962.108	3696.6
962.411	3700.89
962.714	3697.28
963.017	3629.48
963.32	3657.5
963.623	3620.22
963.926	3649.82
964.228	3632.87
964.531	3602.36
964.833	3600.56
965.136	3557.84
965.438	3522.37
965.741	3477.39
966.043	3531.63
966.345	3502.48
966.648	3477.85
966.95	3478.98
967.252	3472.42
967.554	3421.12
967.856	3405.31
968.158	3394.68
968.46	3381.8
968.761	3389.49
969.063	3387
969.365	3351.52
969.666	3342.48
969.968	3300.22
970.269	3293.67
970.571	3304.29
970.872	3286.44
971.174	3239.43
971.475	3223.84
971.776	3241.47
972.077	3199.89
972.378	3183.84
972.679	3197.18
972.98	3182.71
973.281	3128.48
973.582	3144.52
973.883	3135.03
974.183	3108.82
974.484	3092.77
974.785	3103.62
975.085	3044.86
975.386	3035.82
975.686	3065.2
975.986	3033.11
976.287	3045.77
976.587	2986.56
976.887	3020.46
977.187	2985.88
977.487	2970.52
977.787	2918.31
978.087	2958.54
978.387	2951.08
978.687	2942.95
978.987	2939.33
979.286	2854.59
979.586	2893.91
979.885	2852.1
980.185	2860.69
980.484	2822.72
980.784	2838.09
981.083	2798.77
981.382	2791.54
981.682	2780.69
981.981	2829.28
982.28	2772.33
982.579	2739.33
982.878	2742.5
983.177	2735.72
983.475	2731.65
983.774	2729.62
984.073	2734.14
984.372	2659.79
984.67	2665.89
984.969	2664.76
985.267	2659.11
985.566	2643.74
985.864	2661.82
986.162	2620.69
986.461	2579.79
986.759	2575.5
987.057	2569.62
987.355	2549.51
987.653	2535.95
987.951	2559.45
988.249	2512.45
988.547	2528.04
988.844	2503.63
989.142	2508.61
989.44	2468.16
989.737	2431.55
990.035	2457.31
990.332	2505.44
990.63	2403.3
990.927	2399.91
991.224	2410.3
991.521	2434.03
991.819	2415.95
992.116	2372.79
992.413	2349.06
992.71	2375.95
993.006	2351.32
993.303	2328.95
993.6	2321.27
993.897	2323.53
994.193	2315.62
994.49	2279.46
994.787	2310.42
995.083	2292.57
995.379	2277.2
995.676	2235.17
995.972	2250.08
996.268	2232
996.565	2260.03
996.861	2215.28
997.157	2194.04
997.453	2187.48
997.749	2189.97
998.044	2170.31
998.34	2198.56
998.636	2159.01
998.932	2157.2
999.227	2105.45
999.523	2097.77
999.818	2144.32
1000.114	2119.69
1000.409	2131.22
1000.704	2070.65
1001	2034.95
1001.295	2041.95
1001.59	2040.14
1001.885	2027.04
1002.18	2009.64
1002.475	2006.7
1002.77	1986.36
1003.065	2027.49
1003.359	2011.67
1003.654	1955.63
1003.949	1968.51
1004.243	1921.28
1004.538	1890.32
1004.832	1928.28
1005.127	1901.16
1005.421	1872.01
1005.715	1889.64
1006.009	1895.74
1006.304	1867.72
1006.598	1877.66
1006.892	1875.63
1007.186	1813.71
1007.48	1858.23
1007.773	1834.73
1008.067	1821.62
1008.361	1814.84
1008.655	1773.71
1008.948	1765.8
1009.242	1784.78
1009.535	1789.98
1009.829	1776.65
1010.122	1735.52
1010.415	1720.83
1010.708	1711.57
1011.001	1722.19
1011.295	1735.07
1011.588	1709.53
1011.881	1691.9
1012.173	1658.91
1012.466	1655.07
1012.759	1651.68
1013.052	1639.93
1013.344	1652.13
1013.637	1628.63
1013.93	1605.35
1014.222	1620.49
1014.514	1594.73
1014.807	1592.25
1015.099	1561.06
1015.391	1572.13
1015.683	1544.56
1015.976	1575.07
1016.268	1569.2
1016.56	1504.11
1016.851	1517.67
1017.143	1504.11
1017.435	1519.25
1017.727	1505.69
1018.018	1504.34
1018.31	1495.07
1018.602	1481.29
1018.893	1460.05
1019.185	1455.75
1019.476	1438.58
1019.767	1446.04
1020.058	1411.01
1020.35	1413.95
1020.641	1397
1020.932	1385.25
1021.223	1366.26
1021.514	1395.42
1021.804	1385.7
1022.095	1380.05
1022.386	1346.83
1022.677	1362.42
1022.967	1340.73
1023.258	1299.82
1023.548	1299.37
1023.839	1284.68
1024.129	1300.05
1024.419	1303.21
1024.709	1268.86
1025	1270.9
1025.29	1294.4
1025.58	1227.06
1025.87	1233.61
1026.16	1242.42
1026.449	1242.42
1026.739	1216.44
1027.029	1230.45
1027.319	1201.3
1027.608	1208.75
1027.898	1178.47
1028.187	1162.88
1028.477	1200.62
1028.766	1154.52
1029.055	1139.15
1029.344	1154.74
1029.634	1148.87
1029.923	1148.19
1030.212	1162.88
1030.501	1117.46
1030.79	1141.41
1031.078	1100.51
1031.367	1122.88
1031.656	1085.82
1031.945	1097.12
1032.233	1074.07
1032.522	1073.39
1032.81	1074.29
1033.099	1048.08
1033.387	1086.72
1033.675	1015.99
1033.963	1067.51
1034.251	1023.22
1034.54	1027.29
1034.828	1021.87
1035.116	1013.73
1035.403	1008.53
1035.691	991.36
1035.979	1005.82
1036.267	1003.79
1036.554	995.65
1036.842	983.22
1037.129	952.26
1037.417	951.36
1037.704	970.79
1037.992	944.13
1038.279	949.33
1038.566	956.33
1038.853	956.33
1039.14	956.33
