Data from hue_200_FLMS001491_00010.txt Node
Date: Tue Feb 07 16:42:45 GMT 2017
User: dcchb
Spectrometer: FLMS00149
Trigger mode: 0
Integration Time (sec): 2.000000E-2
Scans to average: 10
Electric dark correction enabled: true
Nonlinearity correction enabled: false
Boxcar width: 0
XAxis mode: Wavelengths
Number of Pixels in Spectrum: 2048
>>>>>Begin Spectral Data<<<<<
341.393	-12.91
341.776	-12.91
342.16	-12.91
342.543	-56.3
342.927	-80.03
343.31	-70.53
343.693	-76.41
344.077	-72.12
344.46	-49.52
344.843	-71.44
345.226	-17.43
345.61	-28.73
345.993	-25.79
346.376	-0.71
346.759	2.01
347.142	25.28
347.525	28.9
347.908	73.19
348.291	73.19
348.674	91.72
349.057	118.39
349.44	114.32
349.823	148.44
350.206	162.91
350.588	181.89
350.971	204.26
351.354	219.85
351.737	234.54
352.119	249.68
352.502	273.18
352.884	256.46
353.267	285.16
353.65	282
354.032	310.02
354.414	303.69
354.797	304.14
355.179	317.25
355.562	305.95
355.944	330.13
356.326	341.88
356.709	320.87
357.091	338.95
357.473	302.79
357.855	325.39
358.238	360.87
358.62	302.56
359.002	344.6
359.384	347.76
359.766	341.66
360.148	321.09
360.53	327.87
360.912	344.37
361.294	345.95
361.676	348.66
362.057	336.46
362.439	311.6
362.821	340.75
363.203	327.19
363.584	324.03
363.966	306.86
364.348	315.67
364.729	296.69
365.111	321.77
365.493	297.14
365.874	304.37
366.256	310.92
366.637	324.26
367.019	326.06
367.4	298.95
367.781	329.45
368.163	314.31
368.544	309.57
368.925	320.42
369.306	324.93
369.688	320.87
370.069	309.57
370.45	321.09
370.831	318.61
371.212	314.31
371.593	319.74
371.974	301.21
372.355	328.1
372.736	318.83
373.117	310.25
373.498	303.69
373.879	309.12
374.26	309.12
374.641	310.92
375.021	314.54
375.402	328.55
375.783	319.29
376.163	325.16
376.544	319.51
376.925	328.78
377.305	319.96
377.686	306.18
378.066	343.01
378.447	360.19
378.827	337.36
379.208	331.71
379.588	331.49
379.968	344.82
380.349	341.43
380.729	336.01
381.109	349.34
381.489	336.23
381.87	311.38
382.25	337.36
382.63	349.57
383.01	362
383.39	359.74
383.77	359.74
384.15	351.83
384.53	343.69
384.91	366.06
385.29	351.6
385.67	357.25
386.049	358.61
386.429	360.41
386.809	364.71
387.189	348.44
387.568	354.76
387.948	359.06
388.328	359.96
388.707	357.7
389.087	362.9
389.466	362.45
389.846	373.97
390.225	378.04
390.605	363.58
390.984	376.69
391.363	376.91
391.743	400.19
392.122	388.89
392.501	390.24
392.881	396.12
393.26	374.2
393.639	375.33
394.018	397.7
394.397	389.79
394.776	391.6
395.155	394.76
395.534	405.16
395.913	396.12
396.292	406.97
396.671	382.56
397.05	425.5
397.429	398.38
397.808	406.06
398.186	423.92
398.565	429.56
398.944	426.85
399.323	402.22
399.701	430.47
400.08	431.6
400.458	441.09
400.837	453.97
401.215	440.64
401.594	422.33
401.972	462.78
402.351	459.39
402.729	438.15
403.107	449.68
403.486	463.91
403.864	450.13
404.242	451.49
404.62	473.63
404.999	459.62
405.377	491.26
405.755	490.35
406.133	482.67
406.511	498.72
406.889	495.78
407.267	479.96
407.645	527.42
408.023	507.08
408.401	529.9
408.779	524.7
409.156	524.25
409.534	544.59
409.912	552.95
410.29	569.22
410.667	585.95
411.045	584.36
411.422	607.41
411.8	603.8
412.178	605.38
412.555	618.26
412.933	614.87
413.31	625.49
413.687	625.04
414.065	644.02
414.442	650.8
414.819	669.56
415.197	676.56
415.574	689.22
415.951	701.2
416.328	711.37
416.705	717.47
417.082	741.2
417.46	733.96
417.837	759.05
418.214	769.9
418.591	773.96
418.967	767.64
419.344	825.49
419.721	837.69
420.098	813.74
420.475	847.18
420.852	845.6
421.228	856.22
421.605	873.4
421.982	880.4
422.358	895.99
422.735	924.24
423.111	931.25
423.488	970.79
423.864	993.39
424.241	1015.09
424.617	1001.53
424.994	1003.56
425.37	1040.17
425.746	1036.78
426.123	1068.87
426.499	1065.03
426.875	1093.5
427.251	1112.71
427.627	1139.38
428.003	1133.05
428.379	1178.25
428.756	1183.22
429.132	1178.02
429.507	1223.89
429.883	1224.35
430.259	1229.77
430.635	1269.09
431.011	1281.07
431.387	1306.38
431.763	1306.83
432.138	1318.81
432.514	1331.69
432.89	1369.88
433.265	1361.97
433.641	1460.5
434.016	1420.05
434.392	1498.01
434.767	1501.4
435.143	1530.55
435.518	1532.59
435.894	1581.63
436.269	1612.36
436.644	1660.49
437.02	1676.76
437.395	1675.18
437.77	1707.95
438.145	1755.41
438.52	1791.34
438.895	1796.99
439.271	1827.95
439.646	1869.53
440.021	1898.9
440.395	1944.1
440.77	1923.99
441.145	1945.46
441.52	2003.31
441.895	1990.88
442.27	2058.22
442.645	2048.73
443.019	2088.28
443.394	2101.84
443.769	2141.16
444.143	2113.59
444.518	2207.82
444.892	2164.43
445.267	2209.41
445.641	2224.09
446.016	2265.67
446.39	2255.28
446.764	2278.78
447.139	2267.93
447.513	2352.23
447.887	2333.47
448.262	2374.37
448.636	2359.68
449.01	2416.86
449.384	2425.67
449.758	2500.24
450.132	2462.73
450.506	2501.37
450.88	2547.93
451.254	2511.32
451.628	2552.9
452.002	2599.45
452.376	2629.51
452.75	2635.61
453.123	2661.82
453.497	2707.25
453.871	2723.52
454.244	2794.02
454.618	2780.24
454.992	2841.93
455.365	2838.32
455.739	2891.87
456.112	2922.83
456.486	2946.11
456.859	2991.31
457.232	3050.51
457.606	3020.68
457.979	3100
458.352	3158.98
458.725	3203.73
459.099	3176.16
459.472	3259.77
459.845	3323.73
460.218	3347.23
460.591	3367.79
460.964	3401.92
461.337	3423.16
461.71	3466.1
462.083	3570.27
462.456	3519.65
462.829	3540.9
463.201	3641.01
463.574	3651.85
463.947	3708.35
464.32	3767.56
464.692	3806.2
465.065	3833.54
465.438	3905.18
465.81	3961.9
466.183	4029.02
466.555	4045.52
466.928	4049.58
467.3	4064.27
467.672	4112.41
468.045	4257.71
468.417	4284.83
468.789	4267.43
469.161	4337.48
469.534	4385.39
469.906	4501.77
470.278	4583.13
470.65	4574.99
471.022	4665.39
471.394	4760.75
471.766	4808.66
472.138	4841.65
472.51	4943.12
472.882	4985.38
473.253	5035.32
473.625	5109.67
473.997	5247.52
474.369	5233.51
474.74	5297.23
475.112	5405.48
475.484	5495.87
475.855	5549.2
476.227	5624.46
476.598	5766.15
476.97	5788.29
477.341	5864
477.713	5995.97
478.084	6033.03
478.455	6135.18
478.827	6213.82
479.198	6403.87
479.569	6434.6
479.94	6557.99
480.311	6618.1
480.682	6736.74
481.053	6862.62
481.424	6958.21
481.795	7011.99
482.166	7157.3
482.537	7190.07
482.908	7371.08
483.279	7449.04
483.65	7515.03
484.021	7681.8
484.391	7783.04
484.762	7808.13
485.133	7908.46
485.503	7967.22
485.874	8155.46
486.244	8204.73
486.615	8398.39
486.985	8434.1
487.356	8555.9
487.726	8598.84
488.097	8771.94
488.467	8777.14
488.837	9015.55
489.207	9063.69
489.578	9074.76
489.948	9239.05
490.318	9283.8
490.688	9315.43
491.058	9449.89
491.428	9641.07
491.798	9671.58
492.168	9900.05
492.538	9865.93
492.908	9916.77
493.278	10053.72
493.648	10054.62
494.017	10191.57
494.387	10216.88
494.757	10346.82
495.126	10456.87
495.496	10415.97
495.866	10471.79
496.235	10598.79
496.605	10695.06
496.974	10721.05
497.344	10741.16
497.713	10811.21
498.082	10815.73
498.452	10974.6
498.821	10963.98
499.19	11017.31
499.559	11105.44
499.928	11201.49
500.298	11233.12
500.667	11244.65
501.036	11213.01
501.405	11386.79
501.774	11305.66
502.143	11407.13
502.512	11400.8
502.88	11468.37
503.249	11432.89
503.618	11542.49
503.987	11570.06
504.356	11659.33
504.724	11677.18
505.093	11771.19
505.462	11723.96
505.83	11721.7
506.199	11765.31
506.567	11856.61
506.936	11963.05
507.304	12032.2
507.672	12036.94
508.041	12072.65
508.409	12051.86
508.777	12140.22
509.145	12196.49
509.514	12169.14
509.882	12263.15
510.25	12309.48
510.618	12292.98
510.986	12282.59
511.354	12317.84
511.722	12337.5
512.09	12438.51
512.458	12324.62
512.826	12424.96
513.193	12512.64
513.561	12495.91
513.929	12556.25
514.297	12577.27
514.664	12643.03
515.032	12639.19
515.4	12677.38
515.767	12720.09
516.135	12682.8
516.502	12651.16
516.869	12800.77
517.237	12770.26
517.604	12727.55
517.972	12758.05
518.339	12843.93
518.706	12805.96
519.073	12831.27
519.44	12813.42
519.808	12938.16
520.175	12886.41
520.542	13031.04
520.909	12989.69
521.276	12961.44
521.643	13044.6
522.009	13008.67
522.376	13003.02
522.743	13093.64
523.11	13170.02
523.477	13191.26
523.843	13136.58
524.21	13199.4
524.577	13292.28
524.943	13248.66
525.31	13175.9
525.676	13334.76
526.043	13251.83
526.409	13331.15
526.776	13378.38
527.142	13381.77
527.508	13327.3
527.874	13393.29
528.241	13346.97
528.607	13373.86
528.973	13421.54
529.339	13354.65
529.705	13396.68
530.071	13437.81
530.437	13428.32
530.803	13391.94
531.169	13402.11
531.535	13380.64
531.901	13306.74
532.267	13372.73
532.632	13349
532.998	13353.74
533.364	13269.23
533.73	13286.85
534.095	13338.38
534.461	13243.24
534.826	13322.79
535.192	13239.62
535.557	13221.09
535.923	13219.06
536.288	13183.81
536.653	13145.39
537.019	13082.79
537.384	13060.42
537.749	13035.79
538.114	12939.29
538.479	12970.93
538.845	12905.17
539.21	12838.96
539.575	12865.85
539.94	12789.47
540.305	12815
540.67	12755.34
541.034	12771.61
541.399	12722.35
541.764	12660.2
542.129	12602.13
542.494	12497.5
542.858	12541.34
543.223	12484.84
543.587	12466.99
543.952	12491.17
544.316	12445.07
544.681	12337.95
545.045	12285.07
545.41	12271.74
545.774	12285.98
546.138	12255.24
546.503	12170.95
546.867	12154.68
547.231	12035.81
547.595	12045.53
547.959	12089.6
548.324	11951.3
548.688	11884.18
549.052	11956.04
549.416	11835.59
549.779	11830.85
550.143	11815.71
550.507	11781.13
550.871	11773.67
551.235	11630.63
551.599	11672.66
551.962	11646.67
552.326	11544.98
552.689	11516.73
553.053	11462.72
553.417	11434.47
553.78	11524.19
554.143	11447.81
554.507	11321.26
554.87	11332.78
555.234	11396.51
555.597	11295.72
555.96	11359.67
556.323	11321.71
556.686	11278.77
557.05	11254.59
557.413	11272.9
557.776	11235.38
558.139	11249.62
558.502	11240.58
558.865	11192.67
559.228	11213.46
559.59	11225.44
559.953	11206.91
560.316	11260.92
560.679	11152.67
561.041	11170.75
561.404	11114.48
561.767	11169.17
562.129	11120.13
562.492	11119
562.854	11130.3
563.217	11059.79
563.579	11075.61
563.941	11132.56
564.304	11153.35
564.666	11130.3
565.028	11116.29
565.39	11074.03
565.753	11123.3
566.115	11129.62
566.477	11201.71
566.839	11170.53
567.201	11159
567.563	11186.8
567.925	11265.89
568.287	11277.42
568.648	11185.67
569.01	11173.46
569.372	11234.93
569.734	11296.17
570.095	11190.19
570.457	11228.6
570.819	11272.9
571.18	11250.98
571.542	11275.61
571.903	11277.87
572.265	11284.19
572.626	11301.37
572.987	11314.02
573.349	11394.7
573.71	11337.3
574.071	11322.84
574.432	11274.48
574.794	11349.96
575.155	11409.39
575.516	11282.84
575.877	11313.12
576.238	11368.71
576.599	11348.15
576.96	11325.55
577.32	11403.51
577.681	11404.19
578.042	11391.31
578.403	11422.95
578.763	11348.15
579.124	11356.28
579.485	11453.68
579.845	11411.2
580.206	11347.24
580.566	11310.86
580.927	11380.01
581.287	11433.57
581.648	11369.39
582.008	11483.74
582.368	11433.8
582.728	11499.33
583.089	11349.5
583.449	11394.7
583.809	11365.32
584.169	11394.02
584.529	11311.54
584.889	11408.71
585.249	11347.92
585.609	11307.25
585.969	11363.97
586.329	11423.85
586.688	11401.25
587.048	11415.94
587.408	11322.16
587.768	11289.39
588.127	11304.99
588.487	11339.33
588.846	11384.08
589.206	11269.73
589.565	11296.62
589.925	11348.15
590.284	11296.62
590.643	11307.47
591.003	11375.49
591.362	11421.82
591.721	11306.12
592.08	11324.65
592.44	11300.92
592.799	11280.13
593.158	11294.59
593.517	11296.17
593.876	11204.2
594.235	11233.12
594.593	11272.9
594.952	11233.57
595.311	11219.56
595.67	11262.27
596.029	11210.3
596.387	11245.78
596.746	11289.39
597.104	11182.5
597.463	11237.42
597.822	11264.08
598.18	11174.14
598.538	11155.38
598.897	11218.89
599.255	11105.67
599.613	11323.06
599.972	11187.7
600.33	11230.64
600.688	11145.22
601.046	11270.41
601.404	11257.75
601.762	11279.68
602.12	11253.01
602.478	11271.31
602.836	11204.65
603.194	11154.93
603.552	11273.57
603.91	11125.33
604.268	11236.29
604.625	11178.89
604.983	11236.96
605.341	11137.08
605.698	11194.25
606.056	11288.49
606.413	11207.13
606.771	11185.67
607.128	11225.21
607.485	11182.05
607.843	11194.71
608.2	11213.91
608.557	11301.6
608.914	11204.65
609.272	11284.65
609.629	11288.49
609.986	11327.36
610.343	11256.62
610.7	11326.68
611.057	11281.03
611.414	11253.01
611.771	11289.39
612.127	11388.6
612.484	11357.19
612.841	11376.4
613.198	11311.99
613.554	11413
613.911	11360.13
614.267	11460.01
614.624	11391.76
614.98	11341.14
615.337	11490.07
615.693	11447.81
616.05	11348.37
616.406	11406.9
616.762	11398.54
617.118	11457.98
617.475	11372.78
617.831	11462.5
618.187	11510.63
618.543	11425.43
618.899	11479.22
619.255	11439.22
619.611	11466.11
619.967	11504.75
620.323	11510.4
620.678	11401.93
621.034	11523.51
621.39	11426.34
621.746	11427.47
622.101	11535.71
622.457	11478.99
622.812	11433.34
623.168	11466.11
623.523	11492.55
623.879	11479.9
624.234	11443.74
624.589	11516.96
624.945	11450.29
625.3	11508.14
625.655	11423.63
626.01	11394.25
626.365	11477.41
626.72	11521.48
627.075	11401.25
627.43	11437.86
627.785	11454.36
628.14	11485.09
628.495	11419.78
628.85	11422.27
629.205	11413.46
629.559	11490.97
629.914	11370.52
630.269	11375.27
630.623	11370.52
630.978	11327.13
631.332	11400.8
631.687	11349.28
632.041	11331.88
632.396	11285.1
632.75	11212.11
633.104	11280.35
633.459	11247.36
633.813	11208.72
634.167	11205.55
634.521	11235.16
634.875	11208.94
635.229	11214.82
635.583	11199
635.937	11144.76
636.291	11118.32
636.645	11159.9
636.999	11171.88
637.352	11198.55
637.706	11086.91
638.06	11104.99
638.413	11059.79
638.767	11026.57
639.121	11092.34
639.474	11037.42
639.828	11031.77
640.181	10956.97
640.534	10961.72
640.888	11022.05
641.241	10881.72
641.594	10943.19
641.947	10977.08
642.301	10915.39
642.654	10982.06
643.007	10988.38
643.36	10916.75
643.713	10904.54
644.066	10976.18
644.419	10830.65
644.771	10746.81
645.124	10792.23
645.477	10736.19
645.83	10660.93
646.182	10610.31
646.535	10605.12
646.888	10566.02
647.24	10448.74
647.593	10563.99
647.945	10468.62
648.298	10447.83
648.65	10490.77
649.002	10497.1
649.355	10472.92
649.707	10521.5
650.059	10500.26
650.411	10697.54
650.763	10712.01
651.115	10781.61
651.467	10755.62
651.819	10747.26
652.171	10782.74
652.523	10704.78
652.875	10689.41
653.227	10648.28
653.578	10802.4
653.93	10718.11
654.282	10631.56
654.633	10716.98
654.985	10720.82
655.337	10726.02
655.688	10693.7
656.039	10801.04
656.391	10623.87
656.742	10659.58
657.094	10696.41
657.445	10740.03
657.796	10725.57
658.147	10675.85
658.498	10712.68
658.849	10717.66
659.2	10709.07
659.551	10700.71
659.902	10747.03
660.253	10732.12
660.604	10784.32
660.955	10692.8
661.306	10707.49
661.656	10705.45
662.007	10777.54
662.358	10765.79
662.708	10745.45
663.059	10787.48
663.409	10686.47
663.76	10775.51
664.11	10757.2
664.461	10829.29
664.811	10814.83
665.161	10808.73
665.511	10761.27
665.862	10812.12
666.212	10785
666.562	10712.23
666.912	10772.8
667.262	10821.16
667.612	10854.83
667.962	10740.93
668.312	10777.09
668.662	10778.45
669.011	10820.25
669.361	10750.2
669.711	10770.08
670.06	10801.95
670.41	10657.09
670.76	10702.06
671.109	10755.17
671.459	10750.2
671.808	10743.64
672.157	10733.25
672.507	10660.48
672.856	10696.64
673.205	10659.8
673.554	10732.8
673.904	10628.17
674.253	10706.36
674.602	10636.98
674.951	10513.59
675.3	10459.13
675.649	10632.69
675.998	10555.4
676.346	10611.67
676.695	10602.4
677.044	10442.86
677.393	10590.65
677.741	10518.34
678.09	10535.74
678.438	10464.56
678.787	10543.65
679.135	10442.64
679.484	10444.44
679.832	10466.82
680.181	10355.63
680.529	10396.53
680.877	10373.71
681.225	10391.56
681.573	10434.27
681.922	10365.8
682.27	10280.83
682.618	10301.4
682.966	10274.5
683.314	10341.17
683.661	10229.08
684.009	10221.4
684.357	10252.36
684.705	10130.78
685.053	10194.73
685.4	10143.43
685.748	10149.99
686.095	10109.99
686.443	10090.55
686.79	10109.54
687.138	10043.78
687.485	9982.08
687.832	10006.26
688.18	9993.83
688.527	9996.09
688.874	9900.5
689.221	9955.19
689.568	9812.82
689.915	9846.04
690.262	9851.92
690.609	9719.49
690.956	9760.85
691.303	9703.67
691.65	9641.53
691.997	9666.38
692.344	9551.59
692.69	9609.66
693.037	9566.27
693.383	9494.19
693.73	9486.95
694.077	9455.09
694.423	9440.85
694.769	9384.81
695.116	9406.73
695.462	9339.61
695.808	9365.38
696.155	9282.44
696.501	9214.19
696.847	9219.84
697.193	9136.23
697.539	9203.12
697.885	9079.28
698.231	9082.44
698.577	9093.29
698.923	9042.9
699.269	8944.6
699.614	8967.42
699.96	8956.8
700.306	8905.27
700.651	8792.28
700.997	8769.46
701.342	8814.43
701.688	8724.26
702.033	8705.73
702.379	8706.64
702.724	8732.85
703.069	8673.64
703.415	8588.22
703.76	8621.67
704.105	8585.73
704.45	8580.09
704.795	8473.65
705.14	8511.16
705.485	8468
705.83	8465.74
706.175	8429.13
706.52	8367.89
706.865	8324.72
707.209	8349.36
707.554	8319.08
707.899	8346.42
708.243	8290.6
708.588	8272.07
708.932	8260.55
709.277	8166.76
709.621	8162.02
709.966	8094
710.31	8145.75
710.654	8029.59
710.998	8107.78
711.342	8089.7
711.687	8067.33
712.031	8026.43
712.375	7935.81
712.719	8018.74
713.063	7999.31
713.407	7966.99
713.75	7918.63
714.094	7991.85
714.438	7895.81
714.782	7929.93
715.125	7844.29
715.469	7905.75
715.812	7828.47
716.156	7810.39
716.499	7735.81
716.843	7770.16
717.186	7721.58
717.53	7772.2
717.873	7781.69
718.216	7794.12
718.559	7723.84
718.902	7700.11
719.246	7703.5
719.589	7687.91
719.932	7675.93
720.275	7583.73
720.617	7679.77
720.96	7682.03
721.303	7645.65
721.646	7636.61
721.989	7607.68
722.331	7625.99
722.674	7622.14
723.016	7589.83
723.359	7543.5
723.701	7588.02
724.044	7488.59
724.386	7541.47
724.729	7484.75
725.071	7529.49
725.413	7490.17
725.755	7519.1
726.097	7458.31
726.439	7450.85
726.782	7419.66
727.124	7513.67
727.465	7505.99
727.807	7442.94
728.149	7468.7
728.491	7425.54
728.833	7459.21
729.175	7429.61
729.516	7446.78
729.858	7435.03
730.199	7374.24
730.541	7440.91
730.882	7442.26
731.224	7479.78
731.565	7472.77
731.906	7438.19
732.248	7404.3
732.589	7393.45
732.93	7351.87
733.271	7383.28
733.612	7412.88
733.953	7459.66
734.294	7391.87
734.635	7373.11
734.976	7435.71
735.317	7456.27
735.658	7420.57
735.999	7452.88
736.339	7395.03
736.68	7476.61
737.021	7418.99
737.361	7441.36
737.702	7465.31
738.042	7464.63
738.383	7383.28
738.723	7508.7
739.063	7485.2
739.404	7509.83
739.744	7493.56
740.084	7519.55
740.424	7496.72
740.764	7503.28
741.104	7536.04
741.444	7468.48
741.784	7526.1
742.124	7624.63
742.464	7577.63
742.804	7609.04
743.143	7627.79
743.483	7649.94
743.823	7673.22
744.162	7673.89
744.502	7668.02
744.841	7696.72
745.181	7741.69
745.52	7811.74
745.86	7885.64
746.199	7811.74
746.538	7907.33
746.877	7967.22
747.216	8025.3
747.556	8061.23
747.895	8081.12
748.234	8111.17
748.573	8128.35
748.911	8146.42
749.25	8248.12
749.589	8294.44
749.928	8415.34
750.267	8442.91
750.605	8549.35
750.944	8551.16
751.283	8660.08
751.621	8675
751.96	8831.38
752.298	8963.35
752.636	9040.64
752.975	9085.38
753.313	9146.85
753.651	9328.09
753.989	9428.2
754.327	9601.75
754.666	9587.74
755.004	9731.47
755.342	9926.94
755.679	10078.35
756.017	10133.26
756.355	10279.7
756.693	10436.76
757.031	10613.7
757.368	10665
757.706	10859.8
758.044	10972.34
758.381	11235.61
758.719	11371.65
759.056	11537.3
759.394	11734.8
759.731	11774.13
760.068	11984.29
760.405	12159.65
760.743	12298.41
761.08	12532.07
761.417	12690.94
761.754	12798.96
762.091	12978.84
762.428	13252.5
762.765	13379.28
763.102	13569.56
763.438	13712.15
763.775	13942.43
764.112	14108.08
764.449	14385.13
764.785	14473.04
765.122	14558.68
765.458	14706.7
765.795	14945.79
766.131	15024.44
766.467	15292.23
766.804	15451.09
767.14	15601.6
767.476	15811.99
767.812	15855.83
768.148	15995.48
768.485	16238.64
768.821	16271.41
769.157	16507.79
769.492	16764.5
769.828	16748.68
770.164	16849.7
770.5	16890.38
770.836	17119.52
771.171	17159.29
771.507	17299.63
771.842	17449
772.178	17501.43
772.513	17649.68
772.849	17765.61
773.184	17801.54
773.519	17913.4
773.855	17993.4
774.19	18047.41
774.525	18185.71
774.86	18314.97
775.195	18345.03
775.53	18299.38
775.865	18460.05
776.2	18441.75
776.535	18467.51
776.87	18666.83
777.205	18625.47
777.539	18653.72
777.874	18808.74
778.209	18804.68
778.543	18741.63
778.878	18786.14
779.212	18867.27
779.547	18907.95
779.881	18961.51
780.215	18994.95
780.55	18970.77
780.884	19006.7
781.218	19026.36
781.552	19089.64
781.886	19064.56
782.22	19047.83
782.554	19053.71
782.888	18950.66
783.222	18952.24
783.556	18980.26
783.889	19080.6
784.223	18900.04
784.557	18881.06
784.89	19059.36
785.224	18919.7
785.557	19000.38
785.891	18947.5
786.224	18949.08
786.558	18943.43
786.891	18804
787.224	18770.1
787.557	18822.75
787.891	18852.81
788.224	18830.21
788.557	18883.77
788.89	18942.3
789.223	18907.5
789.556	18871.57
789.888	18770.33
790.221	18843.77
790.554	18632.48
790.887	18660.5
791.219	18591.35
791.552	18518.13
791.884	18551.12
792.217	18496.21
792.549	18521.29
792.882	18465.02
793.214	18452.14
793.546	18410.79
793.879	18397.68
794.211	18315.65
794.543	18365.59
794.875	18280.62
795.207	18413.05
795.539	18231.81
795.871	18252.6
796.203	18193.84
796.535	18055.99
796.867	18071.81
797.198	18037.69
797.53	18053.28
797.862	17906.85
798.193	17986.84
798.525	17895.32
798.856	17956.56
799.188	17673.18
799.519	17718.6
799.85	17694.42
800.182	17694.65
800.513	17711.82
800.844	17569.91
801.175	17698.49
801.506	17640.19
801.837	17575.55
802.168	17530.81
802.499	17422.56
802.83	17432.28
803.161	17388.44
803.491	17330.14
803.822	17404.71
804.153	17245.62
804.483	17265.28
804.814	17134.44
805.145	17027.32
805.475	17048.79
805.805	16976.93
806.136	17104.61
806.466	17098.73
806.796	16990.26
807.126	16863.71
807.457	16919.53
807.787	16833.88
808.117	16898.28
808.447	16733.32
808.777	16816.48
809.107	16683.6
809.436	16657.16
809.766	16683.15
810.096	16524.73
810.426	16488.58
810.755	16568.35
811.085	16505.3
811.414	16467.79
811.744	16413.78
812.073	16367
812.403	16357.96
812.732	16242.71
813.061	16291.75
813.39	16247.68
813.719	16134.91
814.049	16306.66
814.378	16127.46
814.707	16101.02
815.036	16090.85
815.365	16005.65
815.693	15986.44
816.022	16060.79
816.351	15947.58
816.68	15912.55
817.008	15947.12
817.337	15770.18
817.665	15755.04
817.994	15864.87
818.322	15716.62
818.651	15663.29
818.979	15609.96
819.307	15712.55
819.636	15673.68
819.964	15595.72
820.292	15678.43
820.62	15632.1
820.948	15602.05
821.276	15698.09
821.604	15622.16
821.932	15571.99
822.259	15690.18
822.587	15653.12
822.915	15588.49
823.243	15623.29
823.57	15579
823.898	15643.63
824.225	15522.95
824.553	15584.42
824.88	15616.96
825.207	15572.9
825.535	15616.06
825.862	15596.4
826.189	15508.26
826.516	15661.03
826.843	15612.67
827.17	15620.58
827.497	15616.06
827.824	15627.13
828.151	15615.83
828.478	15655.38
828.805	15686.79
829.131	15627.36
829.458	15591.65
829.785	15550.98
830.111	15573.57
830.438	15703.06
830.764	15622.61
831.09	15625.78
831.417	15603.63
831.743	15627.13
832.069	15643.85
832.395	15488.6
832.722	15637.98
833.048	15541.03
833.374	15567.92
833.7	15489.96
834.026	15533.12
834.351	15515.27
834.677	15503.97
835.003	15525.44
835.329	15473.69
835.654	15463.97
835.98	15441.37
836.306	15414.48
836.631	15366.35
836.956	15379.68
837.282	15473.46
837.607	15330.42
837.932	15352.56
838.258	15268.04
838.583	15296.74
838.908	15181.49
839.233	15255.16
839.558	15235.96
839.883	15137.65
840.208	15159.12
840.533	15115.28
840.858	15177.65
841.182	15131.1
841.507	15093.13
841.832	14917.55
842.156	15070.76
842.481	15087.94
842.805	14936.75
843.13	14870.99
843.454	14878.68
843.778	14831.67
844.103	14778.57
844.427	14774.05
844.751	14780.83
845.075	14690.66
845.399	14641.17
845.723	14557.1
846.047	14594.62
846.371	14523.66
846.695	14440.04
847.019	14441.63
847.343	14353.72
847.666	14202.99
847.99	14209.99
848.313	14175.87
848.637	13996.44
848.96	14060.84
849.284	14092.03
849.607	13855.65
849.931	13893.62
850.254	13784.02
850.577	13802.09
850.9	13658.14
851.223	13658.6
851.546	13560.07
851.869	13447.53
852.192	13577.69
852.515	13427.42
852.838	13406.62
853.161	13435.32
853.483	13275.1
853.806	13247.98
854.129	13145.16
854.451	13182
854.774	13116.24
855.096	13073.75
855.419	13093.19
855.741	13028.78
856.063	12921.21
856.385	12897.94
856.708	12765.51
857.03	12801.9
857.352	12804.83
857.674	12812.97
857.996	12742.24
858.318	12701.78
858.64	12630.83
858.961	12607.55
859.283	12561.45
859.605	12504.28
859.926	12537.27
860.248	12518.51
860.57	12495.01
860.891	12481.9
861.212	12371.62
861.534	12291.63
861.855	12283.72
862.176	12309.25
862.498	12331.62
862.819	12313.09
863.14	12166.66
863.461	12218.86
863.782	12132.31
864.103	12170.95
864.424	12162.82
864.745	12169.6
865.065	12052.08
865.386	12095.02
865.707	12010.5
866.027	12051.63
866.348	12051.86
866.668	12045.3
866.989	12013.44
867.309	11984.29
867.63	11868.81
867.95	11919.43
868.27	11824.75
868.59	11816.61
868.91	11910.39
869.23	11804.86
869.55	11736.84
869.87	11785.42
870.19	11822.26
870.51	11816.84
870.83	11800.79
871.15	11641.93
871.469	11683.28
871.789	11725.09
872.109	11700
872.428	11585.2
872.748	11681.92
873.067	11658.42
873.386	11584.07
873.706	11528.26
874.025	11504.53
874.344	11509.05
874.663	11531.65
874.982	11530.97
875.301	11497.07
875.62	11468.82
875.939	11460.01
876.258	11413.46
876.577	11405.1
876.896	11419.56
877.214	11392.44
877.533	11365.1
877.852	11314.48
878.17	11345.21
878.489	11252.33
878.807	11304.76
879.125	11253.69
879.444	11228.15
879.762	11146.12
880.08	11214.14
880.398	11086.01
880.716	11134.14
881.034	11078.78
881.352	11191.54
881.67	11011.89
881.988	11046.69
882.306	11061.15
882.624	10899.57
882.941	10899.12
883.259	10919.91
883.577	10941.6
883.894	10858.22
884.212	10877.2
884.529	10899.8
884.846	10847.37
885.164	10759.24
885.481	10742.51
885.798	10823.42
886.115	10665.68
886.432	10709.97
886.75	10688.5
887.067	10648.51
887.383	10552.24
887.7	10586.13
888.017	10516.98
888.334	10608.28
888.651	10480.37
888.967	10547.04
889.284	10499.81
889.6	10441.05
889.917	10395.4
890.233	10393.14
890.55	10305.24
890.866	10350.21
891.182	10362.41
891.498	10211
891.815	10265.01
892.131	10168.29
892.447	10161.51
892.763	10154.28
893.079	10072.93
893.395	10110.44
893.71	10043.78
894.026	9967.17
894.342	10025.47
894.657	9858.47
894.973	9934.17
895.289	9935.53
895.604	9845.59
895.92	9779.83
896.235	9743.44
896.55	9780.51
896.865	9708.42
897.181	9691.02
897.496	9701.19
897.811	9611.02
898.126	9519.27
898.441	9557.01
898.756	9591.36
899.071	9469.78
899.386	9490.57
899.7	9352.49
900.015	9339.39
900.33	9241.31
900.644	9245.15
900.959	9324.92
901.273	9280.63
901.588	9167.19
901.902	9174.42
902.216	9117.92
902.531	9096.91
902.845	9060.75
903.159	9015.78
903.473	8997.7
903.787	8947.53
904.101	8938.95
904.415	8912.51
904.729	8823.47
905.042	8763.13
905.356	8804.26
905.67	8800.42
905.984	8680.2
906.297	8760.42
906.611	8666.64
906.924	8650.37
907.237	8631.38
907.551	8591.16
907.864	8507.77
908.177	8497.83
908.491	8478.62
908.804	8453.99
909.117	8371.73
909.43	8330.37
909.743	8267.1
910.056	8253.77
910.368	8230.49
910.681	8224.61
910.994	8211.28
911.307	8172.19
911.619	8087.67
911.932	8116.82
912.244	8009.48
912.557	8024.62
912.869	8019.42
913.181	7923.83
913.494	7979.87
913.806	7875.47
914.118	7904.62
914.43	7785.53
914.742	7887.9
915.054	7758.19
915.366	7694.23
915.678	7725.42
915.99	7674.35
916.302	7560.9
916.613	7575.59
916.925	7579.43
917.236	7536.04
917.548	7551.41
917.859	7481.36
918.171	7424.41
918.482	7446.56
918.794	7342.6
919.105	7400.91
919.416	7298.99
919.727	7330.17
920.038	7209.05
920.349	7195.71
920.66	7215.38
920.971	7187.35
921.282	7138.77
921.593	7114.13
921.903	7047.47
922.214	7083.63
922.525	6979
922.835	6968.6
923.146	6976.96
923.456	6873.24
923.767	6899.23
924.077	6857.64
924.387	6861.03
924.697	6795.27
925.008	6787.14
925.318	6753.69
925.628	6732.9
925.938	6708.95
926.248	6663.98
926.558	6681.6
926.867	6653.13
927.177	6598.44
927.487	6566.58
927.796	6539.91
928.106	6539.01
928.416	6481.16
928.725	6460.14
929.034	6454.94
929.344	6435.06
929.653	6401.39
929.962	6341.5
930.271	6348.73
930.581	6308.73
930.89	6281.39
931.199	6223.54
931.508	6205.91
931.817	6205.01
932.125	6198
932.434	6170.2
932.743	6138.12
933.051	6061.96
933.36	6117.1
933.669	6009.53
933.977	6011.57
934.286	6022.19
934.594	6017.21
934.902	5953.49
935.21	5908.52
935.519	5914.17
935.827	5943.77
936.135	5846.6
936.443	5776.09
936.751	5780.61
937.059	5740.39
937.367	5729.09
937.674	5752.59
937.982	5729.99
938.29	5669.2
938.597	5666.72
938.905	5579.26
939.213	5659.48
939.52	5567.28
939.827	5601.18
940.135	5583.78
940.442	5496.55
940.749	5497.45
941.056	5472.37
941.363	5398.25
941.67	5412.94
941.977	5393.95
942.284	5358.02
942.591	5344.24
942.898	5296.1
943.205	5279.15
943.511	5278.48
943.818	5287.06
944.125	5193.06
944.431	5262.66
944.738	5198.03
945.044	5174.75
945.35	5175.43
945.657	5073.96
945.963	5128.2
946.269	5080.97
946.575	5105.15
946.881	5052.72
947.187	5014.76
947.493	5001.65
947.799	4974.98
948.105	4984.47
948.41	4939.05
948.716	4942.89
949.022	4883.91
949.327	4938.15
949.633	4819.51
949.938	4846.17
950.244	4857.02
950.549	4787.19
950.854	4791.94
951.16	4753.29
951.465	4711.26
951.77	4693.86
952.075	4705.84
952.38	4660.87
952.685	4672.39
952.99	4600.08
953.294	4592.39
953.599	4564.82
953.904	4551.49
954.209	4545.84
954.513	4539.51
954.818	4517.37
955.122	4463.81
955.426	4483.47
955.731	4445.73
956.035	4410.7
956.339	4411.16
956.643	4415.9
956.948	4363.02
957.252	4332.74
957.556	4313.53
957.86	4320.08
958.163	4302.23
958.467	4295.45
958.771	4290.03
959.075	4205.74
959.378	4226.53
959.682	4217.71
959.985	4182.23
960.289	4159.41
960.592	4151.5
960.896	4156.25
961.199	4116.93
961.502	4124.84
961.805	4056.14
962.108	4042.35
962.411	4055.68
962.714	4009.13
963.017	4009.81
963.32	4059.07
963.623	3926.87
963.926	3952.18
964.228	3966.2
964.531	3913.09
964.833	3932.3
965.136	3894.56
965.438	3873.09
965.741	3836.48
966.043	3881.23
966.345	3837.16
966.648	3757.61
966.95	3777.27
967.252	3778.63
967.554	3758.29
967.856	3744.96
968.158	3725.07
968.46	3683.72
968.761	3654.56
969.063	3678.07
969.365	3641.91
969.666	3685.75
969.968	3630.84
970.269	3594
970.571	3584.28
970.872	3582.93
971.174	3566.66
971.475	3578.63
971.776	3562.59
972.077	3511.07
972.378	3502.7
972.679	3507.45
972.98	3502.93
973.281	3479.43
973.582	3462.48
973.883	3419.32
974.183	3398.07
974.484	3389.04
974.785	3376.83
975.085	3382.48
975.386	3365.31
975.686	3357.17
975.986	3313.56
976.287	3300.68
976.587	3280.11
976.887	3282.15
977.187	3279.66
977.487	3249.15
977.787	3247.57
978.087	3241.69
978.387	3227.01
978.687	3186.78
978.987	3173.67
979.286	3201.24
979.586	3162.37
979.885	3094.35
980.185	3146.33
980.484	3111.75
980.784	3088.7
981.083	3102.04
981.382	3081.92
981.682	3048.71
981.981	3060.91
982.28	3009.84
982.579	3028.37
982.878	3005.54
983.177	2968.71
983.475	3004.86
983.774	2937.52
984.073	2916.28
984.372	2888.71
984.67	2944.98
984.969	2896.62
985.267	2906.34
985.566	2878.77
985.864	2865.89
986.162	2841.48
986.461	2859.78
986.759	2799.67
987.057	2790.86
987.355	2762.61
987.653	2805.77
987.951	2770.97
988.249	2748.15
988.547	2747.92
988.844	2748.6
989.142	2738.43
989.44	2669.51
989.737	2686
990.035	2673.8
990.332	2673.57
990.63	2657.08
990.927	2624.99
991.224	2633.35
991.521	2623.86
991.819	2630.41
992.116	2585.89
992.413	2596.97
992.71	2570.98
993.006	2566.68
993.303	2543.41
993.6	2526.01
993.897	2516.06
994.193	2529.4
994.49	2444.65
994.787	2472.68
995.083	2456.4
995.379	2481.94
995.676	2445.33
995.972	2434.48
996.268	2415.5
996.565	2409.4
996.861	2418.44
997.157	2395.39
997.453	2421.15
997.749	2363.3
998.044	2352.68
998.34	2312.23
998.636	2329.4
998.932	2329.63
999.227	2302.96
999.523	2322.85
999.818	2268.16
1000.114	2276.3
1000.409	2257.09
1000.704	2272.91
1001	2228.16
1001.295	2210.99
1001.59	2217.99
1001.885	2207.15
1002.18	2171.44
1002.475	2197.2
1002.77	2160.82
1003.065	2161.95
1003.359	2123.98
1003.654	2112.23
1003.949	2121.05
1004.243	2106.58
1004.538	2082.85
1004.832	2085.79
1005.127	2067.26
1005.421	2060.03
1005.715	2046.25
1006.009	2030.88
1006.304	2018.9
1006.598	1998.11
1006.892	1980.26
1007.186	2017.32
1007.48	1983.87
1007.773	1954.27
1008.067	1961.28
1008.361	1935.51
1008.655	1945.01
1008.948	1917.66
1009.242	1888.96
1009.535	1900.94
1009.829	1876.98
1010.122	1866.82
1010.415	1853.26
1010.708	1822.07
1011.001	1860.71
1011.295	1847.15
1011.588	1812.35
1011.881	1792.24
1012.173	1796.31
1012.466	1797.66
1012.759	1777.1
1013.052	1782.3
1013.344	1801.05
1013.637	1759.7
1013.93	1737.1
1014.222	1715.86
1014.514	1739.59
1014.807	1689.42
1015.099	1714.95
1015.391	1701.4
1015.683	1690.32
1015.976	1676.54
1016.268	1665.01
1016.56	1681.74
1016.851	1653.04
1017.143	1594.28
1017.435	1648.06
1017.727	1573.49
1018.018	1587.05
1018.31	1582.53
1018.602	1602.87
1018.893	1545.47
1019.185	1547.28
1019.476	1566.03
1019.767	1540.5
1020.058	1531.46
1020.35	1503.21
1020.641	1515.19
1020.932	1474.06
1021.223	1489.42
1021.514	1470.22
1021.804	1436.54
1022.095	1449.43
1022.386	1443.1
1022.677	1466.37
1022.967	1404.68
1023.258	1430.44
1023.548	1424.34
1023.839	1399.03
1024.129	1391.12
1024.419	1366.26
1024.709	1362.65
1025	1377.56
1025.29	1346.38
1025.58	1358.13
1025.87	1338.47
1026.16	1326.04
1026.449	1322.87
1026.739	1284.91
1027.029	1295.76
1027.319	1297.11
1027.608	1259.83
1027.898	1259.83
1028.187	1259.6
1028.477	1258.47
1028.766	1265.48
1029.055	1250.56
1029.344	1237
1029.634	1213.95
1029.923	1229.32
1030.212	1217.79
1030.501	1200.84
1030.79	1191.58
1031.078	1164.01
1031.367	1176.89
1031.656	1178.7
1031.945	1188.64
1032.233	1149.55
1032.522	1143.9
1032.81	1154.29
1033.099	1139.15
1033.387	1129.43
1033.675	1129.43
1033.963	1087.17
1034.251	1095.31
1034.54	1107.74
1034.828	1107.29
1035.116	1105.25
1035.403	1074.75
1035.691	1047.85
1035.979	1075.65
1036.267	1065.71
1036.554	1027.52
1036.842	1029.1
1037.129	1042.43
1037.417	1023.67
1037.704	1007.4
1037.992	1015.31
1038.279	1011.24
1038.566	1014.41
1038.853	1014.41
1039.14	1014.41
