Data from hue_24_FLMS001491_00008.txt Node
Date: Tue Feb 07 17:11:40 GMT 2017
User: dcchb
Spectrometer: FLMS00149
Trigger mode: 0
Integration Time (sec): 2.000000E-2
Scans to average: 10
Electric dark correction enabled: true
Nonlinearity correction enabled: false
Boxcar width: 0
XAxis mode: Wavelengths
Number of Pixels in Spectrum: 2048
>>>>>Begin Spectral Data<<<<<
341.393	-16.96
341.776	-16.96
342.16	-16.96
342.543	-57.87
342.927	-69.62
343.31	-67.13
343.693	-67.58
344.077	-67.58
344.46	-58.54
344.843	-51.09
345.226	-35.49
345.61	-36.4
345.993	-25.78
346.376	-2.27
346.759	11.29
347.142	16.71
347.525	40.89
347.908	56.93
348.291	70.49
348.674	94.22
349.057	121.34
349.44	117.95
349.823	135.35
350.206	171.28
350.588	181.45
350.971	195.01
351.354	220.77
351.737	269.81
352.119	253.76
352.502	251.05
352.884	275.23
353.267	282.24
353.65	279.75
354.032	286.53
354.414	309.13
354.797	327.89
355.179	333.31
355.562	333.08
355.944	327.43
356.326	338.06
356.709	349.81
357.091	328.11
357.473	335.12
357.855	353.87
358.238	337.15
358.62	325.18
359.002	341.45
359.384	336.25
359.766	321.11
360.148	344.61
360.53	343.03
360.912	325.4
361.294	350.71
361.676	330.82
362.057	329.69
362.439	326.3
362.821	317.04
363.203	336.93
363.584	325.63
363.966	311.84
364.348	337.6
364.729	318.85
365.111	318.62
365.493	335.12
365.874	319.3
366.256	312.29
366.637	321.79
367.019	306.87
367.4	312.07
367.781	304.16
368.163	314.55
368.544	298.28
368.925	324.95
369.306	324.27
369.688	323.37
370.069	321.79
370.45	318.4
370.831	306.87
371.212	307.1
371.593	306.87
371.974	316.59
372.355	324.27
372.736	329.69
373.117	330.82
373.498	310.49
373.879	324.27
374.26	305.97
374.641	333.99
375.021	308.9
375.402	307.55
375.783	324.27
376.163	335.34
376.544	310.49
376.925	317.04
377.305	324.95
377.686	342.8
378.066	318.4
378.447	341.22
378.827	333.08
379.208	331.95
379.588	327.43
379.968	316.59
380.349	336.02
380.729	339.41
381.109	334.67
381.489	347.77
381.87	339.64
382.25	341.67
382.63	343.03
383.01	363.82
383.39	360.2
383.77	320.2
384.15	361.33
384.53	366.76
384.91	351.84
385.29	346.19
385.67	362.46
386.049	370.37
386.429	364.27
386.809	344.38
387.189	351.39
387.568	355.68
387.948	353.2
388.328	367.21
388.707	357.04
389.087	347.77
389.466	357.04
389.846	363.37
390.225	364.04
390.605	366.3
390.984	366.76
391.363	371.73
391.743	376.02
392.122	361.78
392.501	377.6
392.881	370.82
393.26	370.6
393.639	374.44
394.018	370.37
394.397	380.99
394.776	366.53
395.155	391.84
395.534	377.83
395.913	392.74
396.292	391.61
396.671	385.96
397.05	381.44
397.429	376.47
397.808	389.35
398.186	383.25
398.565	386.42
398.944	393.87
399.323	385.29
399.701	384.16
400.08	378.51
400.458	369.24
400.837	395
401.215	401.56
401.594	392.07
401.972	387.32
402.351	412.18
402.729	423.03
403.107	399.3
403.486	408.79
403.864	418.96
404.242	404.04
404.62	415.12
404.999	426.64
405.377	423.03
405.755	433.19
406.133	443.59
406.511	411.27
406.889	437.04
407.267	442.91
407.645	432.29
408.023	441.56
408.401	437.04
408.779	462.57
409.156	462.8
409.534	441.56
409.912	438.17
410.29	453.76
410.667	465.28
411.045	452.63
411.422	461.67
411.8	486.98
412.178	473.65
412.555	466.19
412.933	467.32
413.31	472.74
413.687	481.78
414.065	480.88
414.442	479.75
414.819	495.79
415.197	511.84
415.574	497.37
415.951	476.58
416.328	511.16
416.705	481.33
417.082	489.92
417.46	498.05
417.837	503.02
418.214	512.06
418.591	513.87
418.967	537.6
419.344	523.81
419.721	529.46
420.098	537.37
420.475	531.27
420.852	547.77
421.228	548.45
421.605	543.25
421.982	533.08
422.358	537.82
422.735	540.31
423.111	561.78
423.488	571.5
423.864	564.49
424.241	557.49
424.617	579.63
424.994	595.45
425.37	562.46
425.746	559.97
426.123	581.21
426.499	598.84
426.875	614.66
427.251	585.96
427.627	597.03
428.003	580.08
428.379	585.06
428.756	623.92
429.132	610.37
429.507	619.4
429.883	620.76
430.259	638.39
430.635	641.1
431.011	640.65
431.387	645.62
431.763	653.75
432.138	647.43
432.514	663.7
432.89	676.58
433.265	664.6
433.641	686.97
434.016	693.07
434.392	711.15
434.767	713.41
435.143	680.65
435.518	701.21
435.894	710.02
436.269	726.52
436.644	738.95
437.02	722
437.395	714.09
437.77	754.32
438.145	736.24
438.52	744.37
438.895	730.81
439.271	744.37
439.646	781.43
440.021	773.3
440.395	790.02
440.77	790.93
441.145	773.98
441.52	806.74
441.895	799.29
442.27	797.93
442.645	788.67
443.019	806.07
443.394	812.85
443.769	834.31
444.143	814.65
444.518	842.22
444.892	831.38
445.267	820.53
445.641	848.55
446.016	846.07
446.39	830.47
446.764	851.04
447.139	823.92
447.513	840.64
447.887	851.04
448.262	860.53
448.636	881.32
449.01	872.28
449.384	897.36
449.758	898.49
450.132	901.43
450.506	921.54
450.88	919.28
451.254	898.04
451.628	936.46
452.002	911.15
452.376	930.58
452.75	954.09
453.123	952.05
453.497	958.15
453.871	953.18
454.244	999.51
454.618	959.96
454.992	967.87
455.365	1010.13
455.739	993.18
456.112	1033.18
456.486	1032.28
456.859	1036.34
457.232	1055.78
457.606	1034.76
457.979	1076.12
458.352	1078.15
458.725	1080.86
459.099	1109.11
459.472	1112.5
459.845	1133.52
460.218	1159.73
460.591	1139.84
460.964	1136.68
461.337	1163.57
461.71	1171.93
462.083	1200.86
462.456	1218.94
462.829	1222.55
463.201	1211.48
463.574	1260.74
463.947	1270.23
464.32	1308.2
464.692	1271.36
465.065	1303.23
465.438	1296.22
465.81	1350.23
466.183	1367.63
466.555	1391.36
466.928	1375.77
467.3	1369.44
467.672	1409.67
468.045	1444.24
468.417	1436.33
468.789	1466.39
469.161	1444.47
469.534	1501.19
469.906	1525.82
470.278	1544.35
470.65	1557.23
471.022	1567.85
471.394	1605.59
471.766	1587.51
472.138	1647.17
472.51	1670.9
472.882	1694.63
473.253	1725.59
473.625	1738.02
473.997	1775.08
474.369	1745.25
474.74	1813.05
475.112	1864.57
475.484	1850.33
475.855	1911.12
476.227	1926.04
476.598	2024.34
476.97	2000.16
477.341	2027.28
477.713	2066.6
478.084	2101.85
478.455	2138.69
478.827	2178.46
479.198	2239.93
479.569	2281.28
479.94	2307.72
480.311	2337.33
480.682	2400.15
481.053	2442.86
481.424	2497.32
481.795	2531.22
482.166	2594.72
482.537	2595.85
482.908	2646.7
483.279	2724.43
483.65	2743.19
484.021	2803.98
484.391	2851.44
484.762	2896.63
485.133	2911.55
485.503	2974.82
485.874	3042.39
486.244	3108.15
486.615	3145.44
486.985	3159.45
487.356	3248.49
487.726	3299.56
488.097	3369.84
488.467	3353.34
488.837	3424.98
489.207	3478.76
489.578	3603.51
489.948	3581.36
490.318	3626.56
490.688	3665.88
491.058	3767.34
491.428	3830.85
491.798	3843.5
492.168	3921.24
492.538	3947.9
492.908	3971.18
493.278	4086.21
493.648	4082.59
494.017	4155.13
494.387	4238.07
494.757	4197.62
495.126	4224.96
495.496	4258.18
495.866	4310.83
496.235	4363.49
496.605	4385.86
496.974	4433.54
497.344	4492.98
497.713	4572.75
498.082	4542.69
498.452	4633.54
498.821	4637.6
499.19	4618.85
499.559	4718.96
499.928	4694.55
500.298	4732.74
500.667	4864.04
501.036	4848.9
501.405	4856.81
501.774	4864.94
502.143	4924.15
502.512	4931.38
502.88	5034.2
503.249	4986.3
503.618	5026.07
503.987	5055.9
504.356	5143.58
504.724	5114.2
505.093	5127.76
505.462	5194.2
505.83	5180.19
506.199	5247.53
506.567	5290.69
506.936	5340.64
507.304	5397.58
507.672	5354.42
508.041	5407.75
508.409	5377.02
508.777	5453.4
509.145	5521.42
509.514	5518.71
509.882	5547.41
510.25	5495.66
510.618	5580.4
510.986	5624.92
511.354	5659.72
511.722	5751.47
512.09	5750.8
512.458	5711.02
512.826	5781.08
513.193	5846.16
513.561	5803.22
513.929	5881.87
514.297	5877.8
514.664	5956.21
515.032	5993.05
515.4	6026.49
515.767	6034.63
516.135	5994.18
516.502	5998.25
516.869	6088.41
517.237	6127.06
517.604	6115.76
517.972	6163.44
518.339	6166.15
518.706	6145.59
519.073	6202.99
519.44	6258.8
519.808	6321.4
520.175	6275.3
520.542	6355.75
520.909	6391
521.276	6365.92
521.643	6424.22
522.009	6452.25
522.376	6483.43
522.743	6512.58
523.11	6572.02
523.477	6637.1
523.843	6634.16
524.21	6699.7
524.577	6713.26
524.943	6742.41
525.31	6789.41
525.676	6876.64
526.043	6854.49
526.409	6849.3
526.776	6964.77
527.142	6998.45
527.508	7022.17
527.874	7109.86
528.241	7162.28
528.607	7182.4
528.973	7207.48
529.339	7160.7
529.705	7239.34
530.071	7288.16
530.437	7330.87
530.803	7374.03
531.169	7414.48
531.535	7395.5
531.901	7389.62
532.267	7420.13
532.632	7513.69
532.998	7518.66
533.364	7616.28
533.73	7617.64
534.095	7653.12
534.461	7660.58
534.826	7736.73
535.192	7724.3
535.557	7761.36
535.923	7832.1
536.288	7874.36
536.653	7899.67
537.019	7871.42
537.384	7907.35
537.749	7965.88
538.114	7997.74
538.479	8006.78
538.845	8040.45
539.21	8037.51
539.575	8119.55
539.94	8117.06
540.305	8141.92
540.67	8166.78
541.034	8232.76
541.399	8225.76
541.764	8333.78
542.129	8317.73
542.494	8340.11
542.858	8379.2
543.223	8405.41
543.587	8470.72
543.952	8414.68
544.316	8528.58
544.681	8474.79
545.045	8629.82
545.41	8644.73
545.774	8710.49
546.138	8689.7
546.503	8742.35
546.867	8688.57
547.231	8754.56
547.595	8765.63
547.959	8820.32
548.324	8859.87
548.688	8868.23
549.052	8910.94
549.416	8940.09
549.779	8956.81
550.143	9012.18
550.507	9103.93
550.871	9078.84
551.235	9036.13
551.599	9150.48
551.962	9118.16
552.326	9180.54
552.689	9234.09
553.053	9261.21
553.417	9236.81
553.78	9313.87
554.143	9265.96
554.507	9316.8
554.87	9380.3
555.234	9479.74
555.597	9448.55
555.96	9492.39
556.323	9580.3
556.686	9436.12
557.05	9539.4
557.413	9580.98
557.776	9628.21
558.139	9659.84
558.502	9709.34
558.865	9718.15
559.228	9724.48
559.59	9763.34
559.953	9739.39
560.316	9914.08
560.679	9925.6
561.041	9958.82
561.404	10011.25
561.767	10012.15
562.129	10010.8
562.492	10166.05
562.854	10094.18
563.217	10120.85
563.579	10175.76
563.941	10254.18
564.304	10253.05
564.666	10376.89
565.028	10254.18
565.39	10393.16
565.753	10429.54
566.115	10484
566.477	10488.3
566.839	10448.98
567.201	10547.96
567.563	10552.7
567.925	10658.69
568.287	10658.46
568.648	10667.28
569.01	10805.8
569.372	10825.92
569.734	10825.69
570.095	10862.53
570.457	10906.59
570.819	10970.77
571.18	10932.81
571.542	11063.42
571.903	11063.65
572.265	11070.66
572.626	11228.17
572.987	11258.9
573.349	11267.49
573.71	11308.84
574.071	11335.51
574.432	11459.8
574.794	11573.47
575.155	11609.4
575.516	11622.05
575.877	11681.49
576.238	11699.34
576.599	11864.76
576.96	11871.09
577.32	11989.5
577.681	12123.73
578.042	12205.09
578.403	12254.35
578.763	12316.95
579.124	12488.47
579.485	12663.16
579.845	12657.51
580.206	12818.18
580.566	12898.86
580.927	12979.53
581.287	13174.1
581.648	13238.28
582.008	13435.79
582.368	13611.15
582.728	13771.6
583.089	13793.52
583.449	13996.91
583.809	14180.86
584.169	14422.66
584.529	14487.29
584.889	14868.97
585.249	14851.57
585.609	15108.74
585.969	15363.65
586.329	15568.84
586.688	15758.89
587.048	15921.38
587.408	16122.27
587.768	16396.62
588.127	16613.56
588.487	16890.62
588.846	17232.3
589.206	17385.52
589.565	17613.53
589.925	17945.5
590.284	18155.89
590.643	18490.35
591.003	18758.14
591.362	19127.84
591.721	19408.52
592.08	19607.15
592.44	19908.61
592.799	20215.27
593.158	20550.41
593.517	20716.73
593.876	21101.13
594.235	21429.93
594.593	21689.59
594.952	21991.72
595.311	22109.01
595.67	22560.3
596.029	23009.32
596.387	23433.04
596.746	23645.47
597.104	23775.63
597.463	24131.1
597.822	24534.03
598.18	24695.61
598.538	25084.07
598.897	25445.64
599.255	25614
599.613	26314.1
599.972	26352.06
600.33	26815.78
600.688	26999.05
601.046	27389.55
601.404	27708.64
601.762	27816.2
602.12	28247.38
602.478	28563.53
602.836	28851.43
603.194	28893.46
603.552	29389.27
603.91	29448.03
604.268	29871.52
604.625	30074.68
604.983	30427.89
605.341	30588.79
605.698	31031.03
606.056	31416.33
606.413	31447.97
606.771	31856.78
607.128	32247.27
607.485	32179.7
607.843	32488.4
608.2	32890.87
608.557	33243.63
608.914	33273.91
609.272	33634.13
609.629	33952.54
609.986	34168.13
610.343	34266.43
610.7	34686.76
611.057	34950.71
611.414	35104.15
611.771	35157.03
612.127	35476.57
612.484	35689.22
612.841	36032.48
613.198	36014.86
613.554	36255.76
613.911	36701.85
614.267	36748.85
614.624	37027.26
614.98	37052.8
615.337	37456.18
615.693	37504.76
616.05	37645.1
616.406	38049.61
616.762	38013.9
617.118	38162.37
617.475	38377.06
617.831	38679.87
618.187	38560.33
618.543	38870.15
618.899	39177.49
619.255	39111.5
619.611	39334.77
619.967	39435.56
620.323	39786.74
620.678	39669.9
621.034	39700.64
621.39	39817.02
621.746	39873.74
622.101	40469.43
622.457	40122.77
622.812	40395.08
623.168	40609.99
623.523	40694.74
623.879	40816.77
624.234	40771.34
624.589	40864.67
624.945	41001.17
625.3	41015.63
625.655	41173.82
626.01	41359.12
626.365	41377.43
626.72	41408.16
627.075	41439.12
627.43	41435.28
627.785	41460.59
628.14	41674.37
628.495	41726.57
628.85	41754.14
629.205	41645.44
629.559	41963.18
629.914	41970.41
630.269	41943.06
630.623	41816.06
630.978	41767.93
631.332	42051.08
631.687	42124.53
632.041	42045.89
632.396	42200.91
632.75	41829.85
633.104	42169.5
633.459	42112.78
633.813	41992.55
634.167	42181.25
634.521	42047.92
634.875	42234.81
635.229	42218.54
635.583	41999.33
635.937	42144.19
636.291	42208.37
636.645	42121.14
636.999	42137.18
637.352	42199.33
637.706	42117.97
638.06	42182.15
638.413	42177.18
638.767	42142.61
639.121	42136.28
639.474	42019.9
639.828	41991.2
640.181	42084.53
640.534	42016.06
640.888	41965.66
641.241	41849.28
641.594	42042.72
641.947	42164.3
642.301	42096.28
642.654	42120.01
643.007	42027.58
643.36	42147.35
643.713	42043.85
644.066	42245.88
644.419	42028.03
644.771	41686.35
645.124	41402.29
645.477	41381.95
645.83	41195.06
646.182	40944.45
646.535	40857.44
646.888	40899.02
647.24	40572.48
647.593	41052.47
647.945	40861.06
648.298	40673.94
648.65	40664
649.002	40690.22
649.355	40718.46
649.707	40822.19
650.059	40944.22
650.411	41362.97
650.763	41451.78
651.115	41782.84
651.467	41714.82
651.819	41669.85
652.171	41641.83
652.523	41573.13
652.875	41509.18
653.227	41355.51
653.578	41625.11
653.93	41557.76
654.282	41407.94
654.633	41372.46
654.985	41412.23
655.337	41501.95
655.688	41490.42
656.039	41643.86
656.391	41318
656.742	41312.35
657.094	41502.85
657.445	41516.63
657.796	41386.02
658.147	41329.07
658.498	41475.51
658.849	41454.94
659.2	41416.52
659.551	41339.24
659.902	41382.85
660.253	41341.5
660.604	41336.53
660.955	41228.05
661.306	41379.24
661.656	41253.82
662.007	41194.83
662.358	41233.7
662.708	41207.04
663.059	41206.13
663.409	41063.76
663.76	41299.01
664.11	41364.32
664.461	41401.84
664.811	41300.14
665.161	41125.01
665.511	41108.51
665.862	41231.67
666.212	41325
666.562	41247.49
666.912	41321.16
667.262	41214.95
667.612	41242.07
667.962	41282.52
668.312	41054.27
668.662	41264.21
669.011	41208.17
669.361	41147.38
669.711	41172.46
670.06	41028.96
670.41	41027.38
670.76	40994.16
671.109	41030.77
671.459	41115.51
671.808	40980.15
672.157	41211.56
672.507	40925.24
672.856	40904
673.205	40997.78
673.554	41049.08
673.904	41011.56
674.253	41225.79
674.602	40917.33
674.951	40577.68
675.3	40203.67
675.649	40864.67
675.998	40815.86
676.346	40880.27
676.695	40910.32
677.044	40585.13
677.393	40751.46
677.741	40843.88
678.09	40693.38
678.438	40525.25
678.787	40752.81
679.135	40578.81
679.484	40359.6
679.832	40560.28
680.181	40277.8
680.529	40432.6
680.877	40234.41
681.225	40303.11
681.573	40574.29
681.922	40183.56
682.27	40203
682.618	40189.21
682.966	40068.76
683.314	40162.77
683.661	39949.22
684.009	39881.42
684.357	39687.08
684.705	39691.82
685.053	39683.01
685.4	39773.4
685.748	39466.74
686.095	39591.49
686.443	39513.3
686.79	39360.53
687.138	39569.34
687.485	39468.33
687.832	39338.16
688.18	39294.09
688.527	39066.53
688.874	39089.58
689.221	39019.3
689.568	38840.32
689.915	38749.48
690.262	38825.63
690.609	38615.47
690.956	38609.14
691.303	38499.76
691.65	38431.29
691.997	38457.51
692.344	38191.75
692.69	38259.77
693.037	38257.06
693.383	37886.9
693.73	38061.13
694.077	37832.44
694.423	37813.23
694.769	37642.39
695.116	37666.57
695.462	37483.52
695.808	37453.01
696.155	37556.06
696.501	37148.39
696.847	37213.02
697.193	36892.35
697.539	37137.77
697.885	36929.86
698.231	36645.12
698.577	36620.72
698.923	36775.06
699.269	36606.71
699.614	36328.75
699.96	36375.3
700.306	36427.28
700.651	36026.38
700.997	36089.21
701.342	35989.77
701.688	36091.47
702.033	35800.63
702.379	35907.97
702.724	35717.46
703.069	35903.45
703.415	35388.89
703.76	35438.83
704.105	35443.35
704.45	35375.78
704.795	35148.67
705.14	35041.55
705.485	34988.22
705.83	34962.68
706.175	35063.02
706.52	34931.27
706.865	34845.62
707.209	34769.24
707.554	34722.91
707.899	34603.82
708.243	34425.3
708.588	34436.59
708.932	34141.01
709.277	34183.95
709.621	34322.93
709.966	34026.66
710.31	34117.73
710.654	33863.73
710.998	33933.33
711.342	33724.07
711.687	33616.28
712.031	33512.78
712.375	33458.09
712.719	33463.51
713.063	33616.05
713.407	33559.1
713.75	33291.99
714.094	33286.34
714.438	33167.02
714.782	33272.33
715.125	33041.38
715.469	33192.79
715.812	32927.03
716.156	32893.81
716.499	32921.15
716.843	32747.6
717.186	32612.24
717.53	32684.78
717.873	32784.43
718.216	32694.72
718.559	32593.25
718.902	32243.66
719.246	32421.96
719.589	32307.61
719.932	32219.48
720.275	32184.9
720.617	32161.17
720.96	31970.44
721.303	32194.17
721.646	32046.83
721.989	31787.85
722.331	32146.71
722.674	31780.85
723.016	31940.39
723.359	31761.41
723.701	31799.6
724.044	31765.03
724.386	31512.83
724.729	31540.4
725.071	31515.99
725.413	31475.09
725.755	31558.7
726.097	31225.15
726.439	31169.11
726.782	31159.17
727.124	31261.08
727.465	30982
727.807	31033.07
728.149	31066.29
728.491	30943.35
728.833	30968.44
729.175	30789.23
729.516	30802.79
729.858	30705.62
730.199	30903.35
730.541	30757.37
730.882	30618.62
731.224	30779.97
731.565	30503.59
731.906	30613.42
732.248	30590.59
732.589	30485.51
732.93	30299.08
733.271	30388.11
733.612	30391.28
733.953	30387.44
734.294	30204.39
734.635	30221.34
734.976	30291.62
735.317	30021.34
735.658	29991.06
735.999	29988.12
736.339	30022.25
736.68	30203.49
737.021	29947.22
737.361	29761.69
737.702	29931.18
738.042	29796.94
738.383	29744.97
738.723	29876.71
739.063	29700.22
739.404	29756.27
739.744	29591.07
740.084	29640.34
740.424	29620.22
740.764	29511.53
741.104	29581.35
741.444	29387.01
741.784	29269.5
742.124	29362.38
742.464	29365.99
742.804	29330.29
743.143	29144.76
743.483	29189.5
743.823	29036.51
744.162	29015.72
744.502	29106.34
744.841	28916.51
745.181	29171.87
745.52	28923.29
745.86	28889.62
746.199	28995.16
746.538	28871.09
746.877	29053.69
747.216	28966.91
747.556	28840.13
747.895	28854.82
748.234	28699.8
748.573	28657.54
748.911	28610.31
749.25	28657.09
749.589	28449.63
749.928	28560.82
750.267	28513.36
750.605	28431.55
750.944	28295.51
751.283	28330.54
751.621	28433.36
751.96	28130.32
752.298	28371.44
752.636	28207.38
752.975	28136.2
753.313	28000.83
753.651	28170.54
753.989	27919.03
754.327	27890.33
754.666	27863.89
755.004	27735.08
755.342	27686.94
755.679	27703.66
756.017	27660.28
756.355	27610.56
756.693	27456.67
757.031	27521.97
757.368	27255.99
757.706	27350.68
758.044	27267.07
758.381	27263.9
758.719	27095.09
759.056	27176.67
759.394	27050.8
759.731	26940.52
760.068	26876.12
760.405	26800.19
760.743	26724.71
761.08	26773.75
761.417	26686.52
761.754	26641.77
762.091	26565.84
762.428	26397.48
762.765	26247.43
763.102	26360.65
763.438	26248.56
763.775	26007.89
764.112	26146.42
764.449	26141.22
764.785	25927.67
765.122	25774.9
765.458	25630.05
765.795	25634.79
766.131	25705.75
766.467	25539.2
766.804	25485.64
767.14	25294.24
767.476	25351.64
767.812	25162.49
768.148	25232.99
768.485	25104.64
768.821	24975.83
769.157	24917.97
769.492	24836.85
769.828	24675.27
770.164	24525.22
770.5	24517.76
770.836	24538.78
771.171	24441.38
771.507	24451.77
771.842	24179.46
772.178	24197.54
772.513	24027.83
772.849	24096.08
773.184	23949.64
773.519	23896.76
773.855	23868.74
774.19	23625.58
774.525	23597.78
774.86	23579.03
775.195	23447.96
775.53	23407.96
775.865	23301.29
776.2	23124.35
776.535	23057.46
776.87	23016.56
777.205	22799.39
777.539	22810.23
777.874	22865.37
778.209	22657.47
778.543	22636
778.878	22537.7
779.212	22455.89
779.547	22273.07
779.881	22338.38
780.215	22192.62
780.55	22313.75
780.884	22108.78
781.218	22102.91
781.552	22063.59
781.886	21968.9
782.22	21762.13
782.554	21756.25
782.888	21537.05
783.222	21450.5
783.556	21313.32
783.889	21319.88
784.223	21227.9
784.557	21057.51
784.89	21106.32
785.224	20965.99
785.557	20909.27
785.891	20791.98
786.224	20787.69
786.558	20846.44
786.891	20558.54
787.224	20543.63
787.557	20592.66
787.891	20461.82
788.224	20396.29
788.557	20408.26
788.89	20337.76
789.223	20212.11
789.556	20097.54
789.888	20144.09
790.221	20057.99
790.554	19887.6
790.887	19819.13
791.219	19748.85
791.552	19699.13
791.884	19655.97
792.217	19579.36
792.549	19407.16
792.882	19478.8
793.214	19305.01
793.546	19389.53
793.879	19243.32
794.211	19185.24
794.543	19133.04
794.875	19046.04
795.207	19073.83
795.539	18993.38
795.871	19077.9
796.203	18887.85
796.535	18754.52
796.867	18760.4
797.198	18643.79
797.53	18593.85
797.862	18477.01
798.193	18508.88
798.525	18343.91
798.856	18401.76
799.188	18236.34
799.519	18122.45
799.85	18013.07
800.182	18125.16
800.513	18025.27
800.844	17969.23
801.175	18038.38
801.506	17877.03
801.837	17894.43
802.168	17769.24
802.499	17809.01
802.83	17591.84
803.161	17583.48
803.491	17514.33
803.822	17581.22
804.153	17433.88
804.483	17366.31
804.814	17211.96
805.145	17269.59
805.475	17268.46
805.805	17129.93
806.136	17097.62
806.466	17236.59
806.796	17092.42
807.126	16969.94
807.457	16972.19
807.787	16966.77
808.117	16864.63
808.447	16785.53
808.777	16745.31
809.107	16829.6
809.436	16704.41
809.766	16656.5
810.096	16592.32
810.426	16573.56
810.755	16506.22
811.085	16499.21
811.414	16455.15
811.744	16412.89
812.073	16331.31
812.403	16176.06
812.732	16110.97
813.061	16239.33
813.39	16044.54
813.719	16033.24
814.049	16065.1
814.378	16046.34
814.707	15994.14
815.036	15831.43
815.365	15741.49
815.693	15729.29
816.022	15707.6
816.351	15622.85
816.68	15619.69
817.008	15630.08
817.337	15515.96
817.665	15464.21
817.994	15536.53
818.322	15499.69
818.651	15416.98
818.979	15371.11
819.307	15427.15
819.636	15362.52
819.964	15365.46
820.292	15349.41
820.62	15284.56
820.948	15346.93
821.276	15263.09
821.604	15191.9
821.932	15226.48
822.259	15293.6
822.587	15251.34
822.915	15215.86
823.243	15143.09
823.57	15183.99
823.898	15227.83
824.225	15147.84
824.553	15116.65
824.88	15169.3
825.207	15195.97
825.535	15100.61
825.862	15149.19
826.189	15118.23
826.516	15183.54
826.843	15186.25
827.17	15072.36
827.497	15185.12
827.824	15202.52
828.151	15220.38
828.478	15114.62
828.805	15156.2
829.131	15115.29
829.458	15061.51
829.785	15118.01
830.111	15138.34
830.438	15262.86
830.764	15071.23
831.09	15282.07
831.417	15053.83
831.743	15109.19
832.069	15000.95
832.395	15040.27
832.722	15093.15
833.048	15019.93
833.374	15014.73
833.7	14951.68
834.026	14946.94
834.351	14958.46
834.677	15009.99
835.003	15012.47
835.329	14945.81
835.654	14931.57
835.98	14837.34
836.306	14968.41
836.631	14854.51
836.956	14882.98
837.282	14822.65
837.607	14760.95
837.932	14672.82
838.258	14696.1
838.583	14685.48
838.908	14612.48
839.233	14682.54
839.558	14626.04
839.883	14488.42
840.208	14482.77
840.533	14498.81
840.858	14454.3
841.182	14492.49
841.507	14487.51
841.832	14395.54
842.156	14345.82
842.481	14344.92
842.805	14336.11
843.13	14323.45
843.454	14250.01
843.778	14224.02
844.103	14208.88
844.427	14228.99
844.751	14123.91
845.075	14168.2
845.399	14037.58
845.723	13999.17
846.047	14003.01
846.371	13907.42
846.695	13909.45
847.019	13786.06
847.343	13678.72
847.666	13569.57
847.99	13617.93
848.313	13595.33
848.637	13481.21
848.96	13540.42
849.284	13502.68
849.607	13365.28
849.931	13351.73
850.254	13220.66
850.577	13126.87
850.9	13166.19
851.223	13067.89
851.546	13030.38
851.869	12945.86
852.192	12953.77
852.515	12834.68
852.838	12737.28
853.161	12830.61
853.483	12776.6
853.806	12627.22
854.129	12620.22
854.451	12594.46
854.774	12557.85
855.096	12510.84
855.419	12538.64
855.741	12436.5
856.063	12361.92
856.385	12307.91
856.708	12276.05
857.03	12275.6
857.352	12230.17
857.674	12169.84
857.996	12147.24
858.318	12051.19
858.64	12089.39
858.961	12135.03
859.283	12003.51
859.605	11916.51
859.926	11890.07
860.248	11962.84
860.57	11887.81
860.891	11961.03
861.212	11813.69
861.534	11772.78
861.855	11729.62
862.176	11807.13
862.498	11759.45
862.819	11795.16
863.14	11733.24
863.461	11698.89
863.782	11666.57
864.103	11646.69
864.424	11635.39
864.745	11620.02
865.065	11561.72
865.386	11591.55
865.707	11522.39
866.027	11520.59
866.348	11514.49
866.668	11491.89
866.989	11456.41
867.309	11384.55
867.63	11441.72
867.95	11344.32
868.27	11342.96
868.59	11334.6
868.91	11286.92
869.23	11263.64
869.55	11179.58
869.87	11216.41
870.19	11224.78
870.51	11223.65
870.83	11239.24
871.15	11137.55
871.469	11170.99
871.789	11114.27
872.109	11056.87
872.428	11013.48
872.748	11095.29
873.067	11098.45
873.386	11078.34
873.706	11036.76
874.025	10867.5
874.344	10986.59
874.663	11007.61
874.982	10867.04
875.301	10919.92
875.62	10937.55
875.939	10891.9
876.258	10856.88
876.577	10829.53
876.896	10846.71
877.214	10774.39
877.533	10793.6
877.852	10785.46
878.17	10731.46
878.489	10787.27
878.807	10727.16
879.125	10743.88
879.444	10694.17
879.762	10648.75
880.08	10658.69
880.398	10646.71
880.716	10690.1
881.034	10606.26
881.352	10552.02
881.67	10518.35
881.988	10592.7
882.306	10509.77
882.624	10439.94
882.941	10467.96
883.259	10340.73
883.577	10410.11
883.894	10373.05
884.212	10441.52
884.529	10375.08
884.846	10312.26
885.164	10368.98
885.481	10246.5
885.798	10274.52
886.115	10197.01
886.432	10212.6
886.75	10163.56
887.067	10220.06
887.383	10113.17
887.7	10156.78
888.017	10101.42
888.334	10135.54
888.651	10051.7
888.967	10049.44
889.284	9986.84
889.6	9983.68
889.917	9888.54
890.233	9888.99
890.55	9911.14
890.866	9873.17
891.182	9839.28
891.498	9792.04
891.815	9767.64
892.131	9725.61
892.447	9704.36
892.763	9701.65
893.079	9629.79
893.395	9554.99
893.71	9566.97
894.026	9510.24
894.342	9539.17
894.657	9490.81
894.973	9477.48
895.289	9402.9
895.604	9478.38
895.92	9402.68
896.235	9293.3
896.55	9272.28
896.865	9264.83
897.181	9276.35
897.496	9278.61
897.811	9209.69
898.126	9146.41
898.441	9128.56
898.756	9106.41
899.071	9028.68
899.386	9038.84
899.7	8983.25
900.015	8921.79
900.33	8887.21
900.644	8850.37
900.959	8893.99
901.273	8755.91
901.588	8765.18
901.902	8777.38
902.216	8739.42
902.531	8700.55
902.845	8668.91
903.159	8651.74
903.473	8606.31
903.787	8507.33
904.101	8531.51
904.415	8494.68
904.729	8444.96
905.042	8481.8
905.356	8444.51
905.67	8372.42
905.984	8399.09
906.297	8378.3
906.611	8347.56
906.924	8311.41
907.237	8287.9
907.551	8207.23
907.864	8204.74
908.177	8189.83
908.491	8150.51
908.804	8055.37
909.117	8067.34
909.43	8050.4
909.743	8002.04
910.056	7946.9
910.368	7923.62
910.681	7902.83
910.994	7866.9
911.307	7835.71
911.619	7791.42
911.932	7823.06
912.244	7802.27
912.557	7622.61
912.869	7621.93
913.181	7621.25
913.494	7612.44
913.806	7537.87
914.118	7525.66
914.43	7543.06
914.742	7495.38
915.054	7456.06
915.366	7414.25
915.678	7384.88
915.99	7346.23
916.302	7320.25
916.613	7255.84
916.925	7236.63
917.236	7261.49
917.548	7217.65
917.859	7183.53
918.171	7139.01
918.482	7060.37
918.794	7080.48
919.105	7054.26
919.416	7037.77
919.727	7001.38
920.038	6970.42
920.349	6888.17
920.66	6939.01
920.971	6891.33
921.282	6852.46
921.593	6782.18
921.903	6772.24
922.214	6787.6
922.525	6730.43
922.835	6656.53
923.146	6565.24
923.456	6648.17
923.767	6622.41
924.077	6603.2
924.387	6587.16
924.697	6544.22
925.008	6492.02
925.318	6509.19
925.628	6467.61
925.938	6454.73
926.248	6346.03
926.558	6353.27
926.867	6336.32
927.177	6360.95
927.487	6252.48
927.796	6238.01
928.106	6236.66
928.416	6202.31
928.725	6133.38
929.034	6167.73
929.344	6127.06
929.653	6099.26
929.962	6014.29
930.271	6086.15
930.581	5985.59
930.89	5923.45
931.199	5964.57
931.508	5934.75
931.817	5958.7
932.125	5900.17
932.434	5863.11
932.743	5827.86
933.051	5832.15
933.36	5785.6
933.669	5756.22
933.977	5719.16
934.286	5719.61
934.594	5685.03
934.902	5652.27
935.21	5596.22
935.519	5652.94
935.827	5571.59
936.135	5600.97
936.443	5546.28
936.751	5528.65
937.059	5499.73
937.367	5514.64
937.674	5480.07
937.982	5418.15
938.29	5423.8
938.597	5372.05
938.905	5305.84
939.213	5305.84
939.52	5261.99
939.827	5289.11
940.135	5271.49
940.442	5266.97
940.749	5204.37
941.056	5224.71
941.363	5156.23
941.67	5120.76
941.977	5136.57
942.284	5084.6
942.591	5076.24
942.898	5078.95
943.205	5085.05
943.511	5003.24
943.818	5030.36
944.125	4950.82
944.431	4977.26
944.738	4958.73
945.044	4920.99
945.35	4916.92
945.657	4830.37
945.963	4860.42
946.269	4834.89
946.575	4801.67
946.881	4793.53
947.187	4789.01
947.493	4748.56
947.799	4730.48
948.105	4711.73
948.41	4651.61
948.716	4676.47
949.022	4683.93
949.327	4653.2
949.633	4583.14
949.938	4606.42
950.244	4585.4
950.549	4565.97
950.854	4549.02
951.16	4520.32
951.465	4504.05
951.77	4477.61
952.075	4416.82
952.38	4403.49
952.685	4450.94
952.99	4384.73
953.294	4377.95
953.599	4366.88
953.904	4358.52
954.209	4316.48
954.513	4316.03
954.818	4293.66
955.122	4264.51
955.426	4220.21
955.731	4206.65
956.035	4189.03
956.339	4157.84
956.643	4177.73
956.948	4150.39
957.252	4124.17
957.556	4107.9
957.86	4083.04
958.163	4105.19
958.467	4062.7
958.771	4012.08
959.075	4076.94
959.378	4003.5
959.682	3978.19
959.985	3972.99
960.289	3961.92
960.592	3946.55
960.896	3942.48
961.199	3871.3
961.502	3896.61
961.805	3869.71
962.108	3833.56
962.411	3844.63
962.714	3820
963.017	3788.81
963.32	3791.07
963.623	3751.07
963.926	3803.05
964.228	3742.94
964.531	3710.17
964.833	3694.35
965.136	3679.44
965.438	3656.84
965.741	3674.69
966.043	3654.13
966.345	3649.16
966.648	3589.04
966.95	3617.97
967.252	3578.65
967.554	3549.5
967.856	3547.69
968.158	3546.79
968.46	3505.43
968.761	3522.38
969.063	3505.43
969.365	3462.95
969.666	3474.24
969.968	3436.05
970.269	3413.91
970.571	3425.66
970.872	3439.67
971.174	3397.64
971.475	3377.75
971.776	3380.91
972.077	3300.69
972.378	3327.13
972.679	3303.4
972.98	3299.33
973.281	3276.96
973.582	3298.88
973.883	3249.62
974.183	3234.48
974.484	3207.36
974.785	3224.53
975.085	3173.01
975.386	3167.81
975.686	3185.21
975.986	3177.3
976.287	3177.53
976.587	3126.46
976.887	3154.03
977.187	3111.54
977.487	3108.6
977.787	3057.53
978.087	3055.27
978.387	3050.75
978.687	3005.33
978.987	2998.33
979.286	2985.44
979.586	2957.2
979.885	2920.59
980.185	2943.19
980.484	2940.93
980.784	2911.55
981.083	2933.92
981.382	2893.7
981.682	2882.17
981.981	2855.73
982.28	2848.72
982.579	2845.79
982.878	2874.71
983.177	2825.22
983.475	2821.83
983.774	2810.76
984.073	2767.6
984.372	2758.56
984.67	2792.45
984.969	2757.43
985.267	2727.37
985.566	2741.16
985.864	2681.72
986.162	2710.65
986.461	2694.6
986.759	2706.13
987.057	2668.39
987.355	2660.25
987.653	2658.67
987.951	2671.33
988.249	2607.83
988.547	2642.63
988.844	2622.97
989.142	2572.8
989.44	2573.93
989.737	2534.16
990.035	2540.48
990.332	2540.26
990.63	2547.49
990.927	2548.62
991.224	2524.89
991.521	2527.15
991.819	2500.26
992.116	2479.69
992.413	2464.78
992.71	2427.04
993.006	2436.53
993.303	2415.74
993.6	2427.72
993.897	2410.32
994.193	2413.48
994.49	2405.57
994.787	2378.68
995.083	2365.8
995.379	2349.75
995.676	2365.35
995.972	2315.86
996.268	2297.1
996.565	2316.54
996.861	2302.07
997.157	2316.08
997.453	2312.69
997.749	2237.22
998.044	2229.98
998.34	2234.5
998.636	2264.33
998.932	2204.67
999.227	2223.2
999.523	2212.13
999.818	2196.31
1000.114	2194.96
1000.409	2152.7
1000.704	2134.62
1001	2129.2
1001.295	2101.63
1001.59	2099.14
1001.885	2081.06
1002.18	2091
1002.475	2073.38
1002.77	2062.53
1003.065	2026.15
1003.359	2054.4
1003.654	2058.24
1003.949	2016.43
1004.243	2037.22
1004.538	2010.1
1004.832	1986.37
1005.127	1950.22
1005.421	2006.71
1005.715	1952.93
1006.009	1948.18
1006.304	1922.87
1006.598	1949.99
1006.892	1921.97
1007.186	1895.76
1007.48	1908.41
1007.773	1885.13
1008.067	1857.34
1008.361	1846.94
1008.655	1849.65
1008.948	1816.44
1009.242	1818.24
1009.535	1809.43
1009.829	1811.92
1010.122	1799.03
1010.415	1766.95
1010.708	1740.05
1011.001	1785.02
1011.295	1740.73
1011.588	1780.05
1011.881	1727.17
1012.173	1737.34
1012.466	1719.04
1012.759	1710.45
1013.052	1673.39
1013.344	1690.79
1013.637	1687.63
1013.93	1684.01
1014.222	1668.87
1014.514	1639.26
1014.807	1655.08
1015.099	1661.19
1015.391	1624.12
1015.683	1621.41
1015.976	1596.78
1016.268	1581.41
1016.56	1587.06
1016.851	1552.94
1017.143	1556.56
1017.435	1562.88
1017.727	1544.35
1018.018	1530.12
1018.31	1517.23
1018.602	1521.98
1018.893	1487.4
1019.185	1502.32
1019.476	1489.89
1019.767	1486.27
1020.058	1494.86
1020.35	1494.86
1020.641	1445.6
1020.932	1436.33
1021.223	1436.78
1021.514	1410.12
1021.804	1403.11
1022.095	1385.94
1022.386	1393.17
1022.677	1423
1022.967	1356.33
1023.258	1371.25
1023.548	1322.89
1023.839	1385.94
1024.129	1380.29
1024.419	1307.75
1024.709	1308.88
1025	1321.76
1025.29	1296
1025.58	1298.03
1025.87	1295.77
1026.16	1255.32
1026.449	1255.32
1026.739	1280.4
1027.029	1233.4
1027.319	1235.43
1027.608	1234.08
1027.898	1218.71
1028.187	1212.84
1028.477	1213.29
1028.766	1186.62
1029.055	1192.72
1029.344	1162.67
1029.634	1180.29
1029.923	1192.5
1030.212	1162.22
1030.501	1189.56
1030.79	1161.31
1031.078	1140.97
1031.367	1132.39
1031.656	1122.67
1031.945	1125.83
1032.233	1093.52
1032.522	1125.83
1032.81	1103.01
1033.099	1088.77
1033.387	1079.96
1033.675	1068.43
1033.963	1069.56
1034.251	1049.22
1034.54	1046.74
1034.828	1049.9
1035.116	1047.64
1035.403	1039.28
1035.691	1017.36
1035.979	1029.11
1036.267	1008.09
1036.554	1002.45
1036.842	1018.94
1037.129	1001.09
1037.417	985.72
1037.704	978.27
1037.992	995.44
1038.279	950.7
1038.566	947.31
1038.853	947.31
1039.14	947.31
