Data from hue_40_FLMS001491_79.txt Node
Date: Mon Feb 06 15:08:25 GMT 2017
User: dcchb
Spectrometer: FLMS00149
Trigger mode: 0
Integration Time (sec): 2.000000E-2
Scans to average: 10
Electric dark correction enabled: true
Nonlinearity correction enabled: false
Boxcar width: 0
XAxis mode: Wavelengths
Number of Pixels in Spectrum: 2048
>>>>>Begin Spectral Data<<<<<
341.393	-16.5
341.776	-16.5
342.16	-16.5
342.543	-75.25
342.927	-68.02
343.31	-58.98
343.693	-66.89
344.077	-57.63
344.46	-56.5
344.843	-56.72
345.226	-52.65
345.61	-47.23
345.993	-12.88
346.376	-2.26
346.759	9.27
347.142	32.77
347.525	53.33
347.908	51.98
348.291	83.61
348.674	76.16
349.057	104.63
349.44	111.18
349.823	120.67
350.206	174.01
350.588	202.03
350.971	189.15
351.354	223.72
351.737	229.82
352.119	257.62
352.502	276.38
352.884	277.96
353.267	278.86
353.65	292.65
354.032	297.85
354.414	312.08
354.797	308.24
355.179	322.93
355.562	328.8
355.944	334.68
356.326	337.62
356.709	331.29
357.091	342.14
357.473	334
357.855	350.95
358.238	347.11
358.62	352.08
359.002	341.91
359.384	341.69
359.766	327.9
360.148	349.82
360.53	333.1
360.912	324.06
361.294	327.22
361.676	335.58
362.057	329.71
362.439	337.84
362.821	308.24
363.203	311.4
363.584	319.09
363.966	330.16
364.348	333.55
364.729	324.06
365.111	337.62
365.493	310.95
365.874	315.25
366.256	312.31
366.637	321.57
367.019	314.79
367.4	303.49
367.781	312.08
368.163	352.08
368.544	325.42
368.925	328.35
369.306	318.64
369.688	299.88
370.069	327.67
370.45	310.5
370.831	318.64
371.212	315.47
371.593	324.06
371.974	329.48
372.355	310.05
372.736	319.31
373.117	336.94
373.498	315.47
373.879	304.85
374.26	316.83
374.641	317.05
375.021	317.28
375.402	337.84
375.783	321.35
376.163	320.67
376.544	326.77
376.925	328.58
377.305	322.48
377.686	335.13
378.066	303.27
378.447	337.62
378.827	323.38
379.208	307.79
379.588	315.7
379.968	343.27
380.349	342.36
380.729	339.65
381.109	326.77
381.489	352.08
381.87	329.71
382.25	328.35
382.63	335.36
383.01	343.95
383.39	324.06
383.77	332.19
384.15	347.56
384.53	343.95
384.91	332.19
385.29	326.09
385.67	345.08
386.049	355.24
386.429	378.97
386.809	342.14
387.189	365.87
387.568	339.2
387.948	352.53
388.328	354.11
388.707	357.05
389.087	347.79
389.466	340.78
389.846	375.58
390.225	366.77
390.605	350.73
390.984	388.01
391.363	353.89
391.743	361.57
392.122	359.09
392.501	371.29
392.881	382.14
393.26	358.18
393.639	377.84
394.018	364.74
394.397	364.96
394.776	369.48
395.155	364.74
395.534	357.5
395.913	380.33
396.292	372.19
396.671	378.07
397.05	400.89
397.429	400.44
397.808	374.23
398.186	385.3
398.565	392.53
398.944	364.51
399.323	381.46
399.701	403.15
400.08	393.44
400.458	392.53
400.837	406.77
401.215	394.57
401.594	394.79
401.972	404.96
402.351	397.28
402.729	394.34
403.107	385.07
403.486	392.98
403.864	405.87
404.242	407.9
404.62	409.93
404.999	401.35
405.377	418.97
405.755	416.71
406.133	427.11
406.511	412.19
406.889	418.07
407.267	410.84
407.645	435.69
408.023	427.56
408.401	443.6
408.779	418.52
409.156	405.19
409.534	432.98
409.912	432.31
410.29	454.9
410.667	419.65
411.045	437.28
411.422	454.45
411.8	442.93
412.178	453.32
412.555	423.94
412.933	456.03
413.31	434.11
413.687	448.8
414.065	436.82
414.442	472.08
414.819	480.67
415.197	483.83
415.574	454
415.951	495.13
416.328	479.76
416.705	487.67
417.082	476.6
417.46	494.45
417.837	503.49
418.214	488.57
418.591	516.37
418.967	513.43
419.344	507.33
419.721	525.41
420.098	497.61
420.475	498.52
420.852	470.95
421.228	513.66
421.605	530.61
421.982	509.14
422.358	545.07
422.735	521.79
423.111	522.47
423.488	501
423.864	510.04
424.241	545.3
424.617	525.41
424.994	531.96
425.37	561.57
425.746	543.26
426.123	531.29
426.499	541
426.875	539.65
427.251	566.54
427.627	567.67
428.003	568.8
428.379	570.15
428.756	572.19
429.132	561.34
429.507	606.99
429.883	596.82
430.259	588.46
430.635	607.44
431.011	576.71
431.387	588.01
431.763	591.62
432.138	596.82
432.514	613.32
432.89	605.41
433.265	628.68
433.641	642.92
434.016	630.04
434.392	633.66
434.767	653.54
435.143	636.14
435.518	651.06
435.894	657.84
436.269	645.41
436.644	646.99
437.02	670.94
437.395	679.76
437.77	680.21
438.145	679.3
438.52	667.78
438.895	684.5
439.271	707.33
439.646	693.54
440.021	718.4
440.395	715.01
440.77	734.22
441.145	710.49
441.52	738.96
441.895	729.47
442.27	718.63
442.645	720.66
443.019	742.13
443.394	761.56
443.769	735.35
444.143	738.96
444.518	752.97
444.892	757.27
445.267	738.29
445.641	769.92
446.016	768.79
446.39	748.91
446.764	783.71
447.139	785.97
447.513	769.02
447.887	782.58
448.262	789.81
448.636	792.52
449.01	800.2
449.384	808.57
449.758	782.13
450.132	824.39
450.506	822.35
450.88	797.27
451.254	844.5
451.628	843.14
452.002	831.62
452.376	850.37
452.75	842.69
453.123	847.89
453.497	874.1
453.871	858.73
454.244	865.06
454.618	888.56
454.992	906.19
455.365	882.91
455.739	891.28
456.112	911.61
456.486	924.27
456.859	937.15
457.232	946.19
457.606	957.26
457.979	976.92
458.352	964.04
458.725	990.26
459.099	987.09
459.472	1003.82
459.845	1011.72
460.218	1019.86
460.591	1023.02
460.964	1029.8
461.337	1041.55
461.71	1036.36
462.083	1072.51
462.456	1078.62
462.829	1077.71
463.201	1128.78
463.574	1130.37
463.947	1117.03
464.32	1146.41
464.692	1145.28
465.065	1166.52
465.438	1183.25
465.81	1230.93
466.183	1219.63
466.555	1223.02
466.928	1256.24
467.3	1251.04
467.672	1255.33
468.045	1303.02
468.417	1294.43
468.789	1291.72
469.161	1362.45
469.534	1364.71
469.906	1395.22
470.278	1400.19
470.65	1409.45
471.022	1464.37
471.394	1489.23
471.766	1499.62
472.138	1503.01
472.51	1536.46
472.882	1587.53
473.253	1588.21
473.625	1626.17
473.997	1676.34
474.369	1704.81
474.74	1713.63
475.112	1753.4
475.484	1833.62
475.855	1863
476.227	1872.04
476.598	1912.49
476.97	1950.68
477.341	1995.43
477.713	2060.06
478.084	2090.11
478.455	2160.85
478.827	2181.86
479.198	2241.97
479.569	2306.61
479.94	2349.32
480.311	2421.63
480.682	2487.62
481.053	2590.21
481.424	2642.64
481.795	2686.03
482.166	2747.5
482.537	2830.89
482.908	2919.7
483.279	2959.92
483.65	3048.73
484.021	3133.02
484.391	3178.67
484.762	3245.11
485.133	3312.23
485.503	3373.7
485.874	3475.16
486.244	3599.91
486.615	3686.91
486.985	3684.42
487.356	3822.5
487.726	3919.9
488.097	4049.61
488.467	4085.32
488.837	4215.48
489.207	4305.2
489.578	4422.71
489.948	4495.93
490.318	4638.75
490.688	4695.47
491.058	4787.9
491.428	4894.11
491.798	5007.1
492.168	5137.27
492.538	5195.12
492.908	5275.34
493.278	5411.38
493.648	5511.27
494.017	5577.93
494.387	5688.89
494.757	5791.71
495.126	5851.82
495.496	5929.34
495.866	6031.03
496.235	6124.81
496.605	6221.31
496.974	6306.05
497.344	6404.35
497.713	6485.71
498.082	6547.17
498.452	6715.08
498.821	6735.19
499.19	6812.25
499.559	6955.52
499.928	6972.02
500.298	7092.02
500.667	7152.13
501.036	7205.69
501.405	7304.67
501.774	7315.97
502.143	7492.23
502.512	7527.26
502.88	7644.54
503.249	7693.58
503.618	7773.58
503.987	7866.01
504.356	7914.59
504.724	7937.19
505.093	8045.89
505.462	8145.77
505.83	8240.46
506.199	8312.1
506.567	8397.07
506.936	8367.01
507.304	8579.21
507.672	8660.79
508.041	8640
508.409	8779.66
508.777	8812.2
509.145	8917.96
509.514	8940.78
509.882	9025.3
510.25	9063.04
510.618	9152.3
510.986	9269.13
511.354	9267.55
511.722	9349.13
512.09	9472.07
512.458	9500.54
512.826	9568.34
513.193	9642.01
513.561	9675.23
513.929	9768.56
514.297	9852.17
514.664	9924.94
515.032	9960.19
515.4	9977.82
515.767	10063.01
516.135	10188.43
516.502	10136.68
516.869	10324.47
517.237	10370.12
517.604	10346.39
517.972	10443.57
518.339	10570.34
518.706	10533.73
519.073	10638.82
519.44	10743.67
519.808	10817.34
520.175	10860.96
520.542	10964.23
520.909	11006.94
521.276	11028.64
521.643	11132.81
522.009	11138.46
522.376	11187.73
522.743	11336.2
523.11	11424.56
523.477	11549.3
523.843	11529.19
524.21	11758.56
524.577	11826.58
524.943	11834.72
525.31	11880.59
525.676	11968.72
526.043	12012.34
526.409	12150.87
526.776	12272.22
527.142	12291.43
527.508	12335.95
527.874	12392.89
528.241	12563.29
528.607	12596.5
528.973	12638.31
529.339	12664.3
529.705	12845.09
530.071	12869.94
530.437	12996.49
530.803	12967.57
531.169	13164.63
531.535	13072.42
531.901	13158.3
532.267	13268.13
532.632	13226.77
532.998	13366.65
533.364	13397.84
533.73	13477.16
534.095	13608
534.461	13642.35
534.826	13727.55
535.192	13716.25
535.557	13808.9
535.923	13873.76
536.288	13967.54
536.653	13988.78
537.019	13938.39
537.384	14117.14
537.749	14149.91
538.114	14209.34
538.479	14132.28
538.845	14237.14
539.21	14298.16
539.575	14296.35
539.94	14456.8
540.305	14448.66
540.67	14486.85
541.034	14597.81
541.399	14616.34
541.764	14649.78
542.129	14713.06
542.494	14779.05
542.858	14912.38
543.223	14812.27
543.587	15019.27
543.952	14994.41
544.316	15047.06
544.681	15061.98
545.045	15239.6
545.41	15233.72
545.774	15240.73
546.138	15345.59
546.503	15440.05
546.867	15418.58
547.231	15562.53
547.595	15490.89
547.959	15612.92
548.324	15727.72
548.688	15796.65
549.052	15751.68
549.416	15797.32
549.779	15775.86
550.143	15948.73
550.507	15922.07
550.871	16058.56
551.235	16050.65
551.599	16102.63
551.962	16270.31
552.326	16249.97
552.689	16275.28
553.053	16303.3
553.417	16228.95
553.78	16524.76
554.143	16457.42
554.507	16547.36
554.87	16636.85
555.234	16712.55
555.597	16730.41
555.96	16843.62
556.323	16819.9
556.686	16872.32
557.05	17085.43
557.413	17013.56
557.776	17097.63
558.139	17213.78
558.502	17252.2
558.865	17275.48
559.228	17368.13
559.59	17428.69
559.953	17417.85
560.316	17602.93
560.679	17667.11
561.041	17752.08
561.404	17790.72
561.767	17897.16
562.129	17892.64
562.492	17950.26
562.854	18006.98
563.217	18045.63
563.579	18197.71
563.941	18289.69
564.304	18380.08
564.666	18359.07
565.028	18385.73
565.39	18421.21
565.753	18512.51
566.115	18578.72
566.477	18706.17
566.839	18817.58
567.201	18856
567.563	18883.12
567.925	18985.04
568.287	19054.87
568.648	19016.45
569.01	19297.57
569.372	19287.63
569.734	19332.15
570.095	19453.27
570.457	19580.73
570.819	19595.64
571.18	19620.28
571.542	19696.66
571.903	19732.81
572.265	19936.42
572.626	19955.86
572.987	19921.74
573.349	20029.08
573.71	20239.47
574.071	20218
574.432	20317.66
574.794	20489.18
575.155	20657.08
575.516	20518.78
575.877	20845.55
576.238	20825.44
576.599	20868.38
576.96	20963.97
577.32	21042.38
577.681	21219.33
578.042	21296.62
578.403	21491.86
578.763	21484.86
579.124	21665.42
579.485	21768.47
579.845	21990.83
580.206	22013.88
580.566	22074
580.927	22339.98
581.287	22441.67
581.648	22478.5
582.008	22735.67
582.368	22825.61
582.728	23052.5
583.089	23059.73
583.449	23146.28
583.809	23414.53
584.169	23560.96
584.529	23575.88
584.889	23949.43
585.249	23981.52
585.609	24051.34
585.969	24358.46
586.329	24553.03
586.688	24715.73
587.048	24863.3
587.408	24973.58
587.768	25254.48
588.127	25347.36
588.487	25423.74
588.846	25878.19
589.206	25918.41
589.565	26003.16
589.925	26335.13
590.284	26418.74
590.643	26673.87
591.003	26842.91
591.362	27084.94
591.721	27112.28
592.08	27336.91
592.44	27701.42
592.799	27903
593.158	27936.89
593.517	28150.9
593.876	28347.05
594.235	28505.92
594.593	28524.22
594.952	28920.14
595.311	29051.89
595.67	29177.31
596.029	29558.77
596.387	29857.97
596.746	29897.74
597.104	29913.34
597.463	30092.54
597.822	30278.75
598.18	30402.59
598.538	30562.13
598.897	30871.5
599.255	30835.12
599.613	31373.41
599.972	31364.37
600.33	31521.66
600.688	31545.84
601.046	31792.61
601.404	32088.65
601.762	32041.19
602.12	32585.13
602.478	32550.33
602.836	32534.96
603.194	32704.9
603.552	32832.36
603.91	32863.99
604.268	33037.32
604.625	33104.44
604.983	33280.03
605.341	33356.64
605.698	33705.55
606.056	33830.07
606.413	33821.26
606.771	34084.08
607.128	34264.18
607.485	34210.4
607.843	34229.61
608.2	34492.88
608.557	34694.23
608.914	34709.6
609.272	34894
609.629	35132.41
609.986	35168.79
610.343	35169.24
610.7	35463.93
611.057	35675.22
611.414	35518.39
611.771	35597.03
612.127	35848.55
612.484	35869.11
612.841	36133.74
613.198	35944.37
613.554	36176.45
613.911	36424.58
614.267	36543.9
614.624	36620.51
614.98	36642.2
615.337	36851.23
615.693	36899.59
616.05	36786.15
616.406	37094.62
616.762	36910.44
617.118	37086.03
617.475	37336.87
617.831	37439.24
618.187	37489.86
618.543	37429.98
618.899	37671.78
619.255	37608.5
619.611	37818.21
619.967	37923.52
620.323	38072.45
620.678	37704.77
621.034	37879.91
621.39	37874.48
621.746	37922.62
622.101	38465.43
622.457	38118.32
622.812	38172.1
623.168	38333.68
623.523	38351.99
623.879	38504.3
624.234	38182.5
624.589	38426.79
624.945	38426.56
625.3	38679.89
625.655	38581.36
626.01	38710.85
626.365	38813.22
626.72	38782.71
627.075	38713.11
627.43	38771.18
627.785	38653.22
628.14	38825.65
628.495	38919.43
628.85	38960.78
629.205	38768.02
629.559	38999.43
629.914	38804.4
630.269	38841.92
630.623	38861.58
630.978	38687.8
631.332	38972.76
631.687	38875.14
632.041	38921.01
632.396	38977.96
632.75	38725.54
633.104	38934.12
633.459	38560.57
633.813	38822.26
634.167	38794.23
634.521	38691.86
634.875	38822.26
635.229	38870.62
635.583	38542.72
635.937	38773.44
636.291	38715.14
636.645	38875.36
636.999	38597.4
637.352	38806.44
637.706	38315.15
638.06	38650.74
638.413	38669.94
638.767	38575.03
639.121	38617.29
639.474	38429.95
639.828	38344.08
640.181	38460.01
640.534	38545.2
640.888	38399.22
641.241	38265.66
641.594	38250.52
641.947	38383.62
642.301	38386.34
642.654	38309.73
643.007	38351.31
643.36	38347.24
643.713	38291.2
644.066	38317.41
644.419	38126.23
644.771	37858.44
645.124	37537.77
645.477	37589.52
645.83	37358.34
646.182	37223.65
646.535	37101.17
646.888	37164.45
647.24	36945.7
647.593	37151.34
647.945	37022.08
648.298	36888.3
648.65	37018.91
649.002	36764.91
649.355	36921.29
649.707	36904.34
650.059	37042.42
650.411	37431.56
650.763	37489.64
651.115	37736.41
651.467	37674.72
651.819	37767.37
652.171	37627.26
652.523	37508.62
652.875	37626.81
653.227	37485.12
653.578	37766.69
653.93	37677.88
654.282	37408.73
654.633	37365.12
654.985	37633.13
655.337	37578.45
655.688	37386.36
656.039	37559.46
656.391	37156.76
656.742	37307.27
657.094	37405.34
657.445	37586.81
657.796	37376.87
658.147	37243.99
658.498	37288.74
658.849	37426.81
659.2	37281.96
659.551	37178.23
659.902	37369.86
660.253	37219.81
660.604	37380.03
660.955	37108.63
661.306	37275.63
661.656	37173.94
662.007	37215.07
662.358	37178.23
662.708	37165.8
663.059	37099.14
663.409	36950.67
663.76	37158.12
664.11	37093.94
664.461	37235.41
664.811	37214.16
665.161	37060.27
665.511	37032.47
665.862	37112.47
666.212	37226.59
666.562	37157.44
666.912	37131.91
667.262	37067.05
667.612	37097.56
667.962	37041.29
668.312	36998.35
668.662	37223.65
669.011	37168.29
669.361	37042.87
669.711	37075.64
670.06	36960.38
670.41	36922.19
670.76	36932.81
671.109	36912.02
671.459	36917.67
671.808	36866.38
672.157	37011.68
672.507	36787.96
672.856	36787.73
673.205	36749.54
673.554	36906.37
673.904	36782.99
674.253	36917.45
674.602	36784.34
674.951	36246.96
675.3	36076.79
675.649	36616.89
675.998	36778.47
676.346	36723.33
676.695	36879.26
677.044	36451.47
677.393	36559.04
677.741	36543.45
678.09	36499.15
678.438	36491.47
678.787	36478.81
679.135	36509.1
679.484	36364.92
679.832	36530.11
680.181	36280.4
680.529	36223.45
680.877	36290.8
681.225	36198.6
681.573	36416.67
681.922	36257.13
682.27	36002.9
682.618	36135.77
682.966	35906.63
683.314	36009
683.661	35837.02
684.009	35795.67
684.357	35664.15
684.705	35771.26
685.053	35704.82
685.4	35574.43
685.748	35444.04
686.095	35406.53
686.443	35358.84
686.79	35260.32
687.138	35288.34
687.485	35340.09
687.832	35074.56
688.18	35261.22
688.527	35025.52
688.874	34945.75
689.221	34916.6
689.568	34816.71
689.915	34699.88
690.262	34783.27
690.609	34666.66
690.956	34538.3
691.303	34499.66
691.65	34295.14
691.997	34319.32
692.344	34133.79
692.69	34112.32
693.037	34026.22
693.383	33849.73
693.73	33938.32
694.077	33823.52
694.423	33877.53
694.769	33642.05
695.116	33701.71
695.462	33586.24
695.808	33409.97
696.155	33487.71
696.501	33190.31
696.847	33327.03
697.193	33089.98
697.539	33150.54
697.885	32832.36
698.231	32842.75
698.577	32894.5
698.923	32813.6
699.269	32652.47
699.614	32379.71
699.96	32596.21
700.306	32501.29
700.651	32343.1
700.997	32248.64
701.342	32266.5
701.688	32117.57
702.033	31989.22
702.379	32024.47
702.724	31800.29
703.069	32012.27
703.415	31530.92
703.76	31690.92
704.105	31688.88
704.45	31472.62
704.795	31303.36
705.14	31307.43
705.485	31309.91
705.83	31144.27
706.175	31271.04
706.52	31035.57
706.865	31017.26
707.209	30788.12
707.554	30826.53
707.899	30897.27
708.243	30751.96
708.588	30654.79
708.932	30391.97
709.277	30304.97
709.621	30440.56
709.966	30369.82
710.31	30411.18
710.654	30079.44
710.998	30202.82
711.342	30085.76
711.687	30055.25
712.031	29803.74
712.375	29861.36
712.719	29914.92
713.063	29748.14
713.407	29899.55
713.75	29638.09
714.094	29746.79
714.438	29480.58
714.782	29505.66
715.125	29357.87
715.469	29439.68
715.812	29239.23
716.156	29236.07
716.499	29149.29
716.843	29225.22
717.186	29098.22
717.53	29185
717.873	29130.76
718.216	28972.12
718.559	29010.31
718.902	28765.57
719.246	28867.49
719.589	28770.54
719.932	28584.56
720.275	28545.24
720.617	28504.34
720.96	28575.97
721.303	28545.24
721.646	28345.24
721.989	28306.37
722.331	28330.78
722.674	28394.28
723.016	28242.87
723.359	28167.39
723.701	28215.76
724.044	28058.47
724.386	27940.73
724.729	28068.19
725.071	27932.6
725.413	27928.53
725.755	27893.28
726.097	27748.87
726.439	27664.58
726.782	27679.72
727.124	27795.88
727.465	27483.57
727.807	27571.93
728.149	27504.14
728.491	27494.19
728.833	27534.42
729.175	27401.54
729.516	27477.7
729.858	27319.96
730.199	27339.39
730.541	27277.47
730.882	27263.46
731.224	27233.86
731.565	27096.46
731.906	27175.33
732.248	27065.96
732.589	26894.21
732.93	26909.8
733.271	27011.49
733.612	26949.35
733.953	27029.57
734.294	26970.14
734.635	26918.84
734.976	26785.28
735.317	26688.11
735.658	26591.39
735.999	26750.94
736.339	26591.62
736.68	26664.38
737.021	26642.01
737.361	26413.77
737.702	26592.75
738.042	26580.77
738.383	26413.09
738.723	26354.56
739.063	26363.6
739.404	26329.48
739.744	26313.88
740.084	26350.49
740.424	26203.6
740.764	26176.03
741.104	26216.03
741.444	26061.46
741.784	25968.13
742.124	26026.43
742.464	25935.14
742.804	25967
743.143	25836.61
743.483	25888.81
743.823	25752.54
744.162	25744.86
744.502	25736.5
744.841	25655.37
745.181	25687.01
745.52	25580.34
745.86	25653.11
746.199	25649.72
746.538	25607.01
746.877	25591.42
747.216	25553
747.556	25476.17
747.895	25531.53
748.234	25296.74
748.573	25343.06
748.911	25239.56
749.25	25281.37
749.589	25227.36
749.928	25186.68
750.267	25138.32
750.605	25151.66
750.944	25099.9
751.283	24840.02
751.621	25092
751.96	24795.51
752.298	24891.77
752.636	24814.04
752.975	24626.25
753.313	24684.77
753.651	24736.07
753.989	24527.94
754.327	24536.76
754.666	24471.9
755.004	24461.28
755.342	24452.69
755.679	24411.34
756.017	24295.41
756.355	24300.6
756.693	24085.02
757.031	24240.49
757.368	24055.64
757.706	24128.18
758.044	23963.21
758.381	23965.25
758.719	23810.67
759.056	23845.47
759.394	23769.32
759.731	23696.55
760.068	23612.71
760.405	23406.84
760.743	23385.37
761.08	23553.73
761.417	23352.15
761.754	23434.86
762.091	23327.75
762.428	23219.28
762.765	23040.52
763.102	23137.24
763.438	22984.03
763.775	22972.96
764.112	22989
764.449	22922.34
764.785	22848.89
765.122	22657.94
765.458	22511.5
765.795	22509.01
766.131	22467.66
766.467	22547.66
766.804	22265.18
767.14	22138.17
767.476	22134.33
767.812	22071.06
768.148	22124.62
768.485	21891.85
768.821	21886.2
769.157	21881.91
769.492	21770.5
769.828	21686.44
770.164	21464.75
770.5	21433.11
770.836	21499.1
771.171	21341.81
771.507	21368.7
771.842	21080.12
772.178	21217.97
772.513	21134.81
772.849	21059.11
773.184	21033.35
773.519	20972.78
773.855	20758.1
774.19	20713.58
774.525	20714.26
774.86	20720.36
775.195	20593.36
775.53	20593.13
775.865	20468.16
776.2	20258.68
776.535	20178.23
776.87	20138.23
777.205	20099.58
777.539	20001.51
777.874	20045.57
778.209	19793.83
778.543	19830.67
778.878	19712.93
779.212	19689.2
779.547	19582.99
779.881	19607.62
780.215	19384.35
780.55	19538.47
780.884	19365.82
781.218	19310.9
781.552	19314.29
781.886	19163.11
782.22	19105.94
782.554	19008.99
782.888	18827.75
783.222	18862.1
783.556	18752.05
783.889	18722.45
784.223	18479.29
784.557	18498.27
784.89	18582.34
785.224	18434.54
785.557	18349.8
785.891	18333.3
786.224	18321.1
786.558	18202.91
786.891	17958.17
787.224	17893.54
787.557	17929.02
787.891	17910.49
788.224	17936.03
788.557	17887.44
788.89	17832.07
789.223	17836.82
789.556	17621.23
789.888	17488.35
790.221	17470.05
790.554	17357.74
790.887	17403.38
791.219	17420.78
791.552	17263.05
791.884	17206.33
792.217	17179.89
792.549	17070.06
792.882	16985.32
793.214	16863.96
793.546	16908.71
793.879	16781.25
794.211	16698.54
794.543	16788.03
794.875	16696.28
795.207	16746.23
795.539	16563.86
795.871	16608.15
796.203	16470.53
796.535	16390.98
796.867	16362.28
797.198	16236.86
797.53	16257.2
797.862	16122.74
798.193	16223.08
798.525	15980.82
798.856	16083.19
799.188	16002.97
799.519	15906.25
799.85	15838
800.182	15786.03
800.513	15812.69
800.844	15649.53
801.175	15797.55
801.506	15723.2
801.837	15576.31
802.168	15565.47
802.499	15517.78
802.83	15462.42
803.161	15409.99
803.491	15409.99
803.822	15365.92
804.153	15292.48
804.483	15216.55
804.814	15050.68
805.145	15115.31
805.475	15151.24
805.805	14936.1
806.136	15037.8
806.466	14976.1
806.796	14984.24
807.126	14836.67
807.457	14788.09
807.787	14815.66
808.117	14694.53
808.447	14669.9
808.777	14686.85
809.107	14604.14
809.436	14481.88
809.766	14560.97
810.096	14598.71
810.426	14379.06
810.755	14451.15
811.085	14293.41
811.414	14393.07
811.744	14216.35
812.073	14226.52
812.403	14141.78
812.732	14174.54
813.061	14119.4
813.39	14104.04
813.719	14056.58
814.049	14050.25
814.378	14040.99
814.707	13947.43
815.036	13944.72
815.365	13808
815.693	13746.53
816.022	13820.88
816.351	13745.4
816.68	13669.92
817.008	13738.4
817.337	13678.96
817.665	13563.49
817.994	13640.55
818.322	13509.7
818.651	13519.87
818.979	13463.15
819.307	13487.33
819.636	13421.34
819.964	13322.14
820.292	13449.82
820.62	13438.29
820.948	13354.45
821.276	13365.3
821.604	13286.43
821.932	13332.08
822.259	13313.1
822.587	13263.83
822.915	13290.95
823.243	13316.94
823.57	13257.96
823.898	13286.88
824.225	13273.32
824.553	13221.12
824.88	13313.55
825.207	13251.18
825.535	13198.75
825.862	13227.67
826.189	13234.91
826.516	13291.85
826.843	13231.97
827.17	13295.24
827.497	13304.73
827.824	13231.74
828.151	13305.86
828.478	13152.87
828.805	13342.25
829.131	13251.63
829.458	13242.14
829.785	13204.85
830.111	13148.81
830.438	13262.93
830.764	13168.69
831.09	13246.43
831.417	13206.88
831.743	13229.93
832.069	13212.99
832.395	13170.95
832.722	13226.77
833.048	13151.52
833.374	13096.83
833.7	13136.6
834.026	13085.76
834.351	13076.27
834.677	13041.46
835.003	13062.26
835.329	13027.91
835.654	13025.87
835.98	12913.11
836.306	13023.16
836.631	12890.96
836.956	12987.46
837.282	12965.99
837.607	12884.41
837.932	12871.75
838.258	12982.03
838.583	12880.79
838.908	12820
839.233	12833.79
839.558	12832.2
839.883	12779.55
840.208	12700.01
840.533	12719.89
840.858	12673.11
841.182	12616.62
841.507	12645.54
841.832	12635.15
842.156	12565.32
842.481	12614.13
842.805	12618.43
843.13	12478.54
843.454	12425.44
843.778	12393.35
844.103	12419.56
844.427	12431.31
844.751	12390.63
845.075	12351.09
845.399	12288.94
845.723	12254.37
846.047	12253.24
846.371	12123.75
846.695	12193.58
847.019	12015.5
847.343	12041.49
847.666	11893.92
847.99	11900.7
848.313	11973.47
848.637	11785.45
848.96	11792.91
849.284	11699.13
849.607	11644.44
849.931	11668.62
850.254	11609.86
850.577	11476.31
850.9	11429.98
851.223	11470.88
851.546	11409.19
851.869	11262.75
852.192	11398.12
852.515	11240.16
852.838	11226.82
853.161	11155.41
853.483	11155.41
853.806	11055.53
854.129	11045.36
854.451	11003.78
854.774	10945.93
855.096	10896.21
855.419	10938.92
855.741	10953.16
856.063	10798.81
856.385	10811.69
856.708	10698.7
857.03	10792.71
857.352	10844.91
857.674	10688.31
857.996	10633.17
858.318	10540.29
858.64	10562.43
858.961	10474.98
859.283	10568.08
859.605	10481.76
859.926	10480.18
860.248	10445.15
860.57	10358.6
860.891	10331.71
861.212	10351.82
861.534	10388.88
861.855	10309.33
862.176	10349.33
862.498	10297.13
862.819	10310.92
863.14	10215.78
863.461	10291.71
863.782	10173.52
864.103	10171.03
864.424	10101.88
864.745	10137.81
865.065	10154.54
865.386	10060.98
865.707	10120.86
866.027	10056.46
866.348	10053.07
866.668	10009.23
866.989	10011.49
867.309	9943.92
867.63	9932.39
867.95	9946.86
868.27	9879.51
868.59	9913.64
868.91	9950.47
869.23	9908.44
869.55	9807.88
869.87	9797.26
870.19	9785.05
870.51	9896.91
870.83	9751.83
871.15	9812.4
871.469	9796.13
871.789	9799.29
872.109	9753.87
872.428	9646.75
872.748	9701.89
873.067	9745.96
873.386	9778.73
873.706	9657.83
874.025	9673.42
874.344	9572.18
874.663	9583.7
874.982	9543.93
875.301	9626.41
875.62	9567.21
875.939	9571.5
876.258	9508.68
876.577	9569.69
876.896	9461.67
877.214	9543.03
877.533	9541.22
877.852	9521.56
878.17	9413.09
878.489	9482.91
878.807	9405.63
879.125	9358.4
879.444	9404.5
879.762	9368.34
880.08	9349.36
880.398	9284.95
880.716	9301
881.034	9264.39
881.352	9272.75
881.67	9239.76
881.988	9285.63
882.306	9227.1
882.624	9193.43
882.941	9129.93
883.259	9177.16
883.577	9073.21
883.894	9115.47
884.212	9096.03
884.529	9115.92
884.846	8990.5
885.164	9055.13
885.481	9039.08
885.798	9021.23
886.115	8929.26
886.432	8949.82
886.75	8908.24
887.067	8904.4
887.383	8894.23
887.7	8845.64
888.017	8801.8
888.334	8830.73
888.651	8813.33
888.967	8777.4
889.284	8691.97
889.6	8697.62
889.917	8596.84
890.233	8672.77
890.55	8602.03
890.866	8592.99
891.182	8590.06
891.498	8529.04
891.815	8476.16
892.131	8474.81
892.447	8464.18
892.763	8494.01
893.079	8469.38
893.395	8356.39
893.71	8358.88
894.026	8371.98
894.342	8281.59
894.657	8268.71
894.973	8258.09
895.289	8248.82
895.604	8305.77
895.92	8158.2
896.235	8146
896.55	8144.19
896.865	8135.38
897.181	8042.27
897.496	8072.1
897.811	8048.15
898.126	8075.04
898.441	8029.62
898.756	7931.99
899.071	7898.32
899.386	7927.93
899.7	7863.3
900.015	7840.02
900.33	7759.34
900.644	7729.29
900.959	7757.54
901.273	7740.36
901.588	7735.84
901.902	7699.46
902.216	7626.92
902.531	7615.39
902.845	7592.79
903.159	7537.43
903.473	7530.2
903.787	7467.83
904.101	7474.15
904.415	7440.26
904.729	7403.42
905.042	7372.46
905.356	7373.59
905.67	7331.11
905.984	7254.72
906.297	7265.12
906.611	7256.98
906.924	7271
907.237	7176.08
907.551	7173.14
907.864	7091.34
908.177	7135.86
908.491	7094.5
908.804	7008.63
909.117	7016.09
909.43	6995.97
909.743	6918.46
910.056	6963.66
910.368	6946.71
910.681	6897.45
910.994	6860.16
911.307	6846.6
911.619	6764.12
911.932	6800.95
912.244	6736.09
912.557	6716.89
912.869	6743.78
913.181	6696.55
913.494	6702.42
913.806	6673.95
914.118	6579.49
914.43	6585.59
914.742	6561.18
915.054	6512.6
915.366	6523.9
915.678	6461.07
915.99	6452.49
916.302	6436.21
916.613	6338.82
916.925	6374.75
917.236	6336.33
917.548	6299.95
917.859	6295.65
918.171	6223.57
918.482	6233.73
918.794	6237.35
919.105	6202.32
919.416	6158.93
919.727	6132.27
920.038	6081.2
920.349	6081.87
920.66	6017.02
920.971	6027.19
921.282	6027.86
921.593	6003.91
921.903	5939.05
922.214	5923.46
922.525	5956
922.835	5867.19
923.146	5891.6
923.456	5873.74
923.767	5858.6
924.077	5848.66
924.387	5764.14
924.697	5694.54
925.008	5703.8
925.318	5705.16
925.628	5699.06
925.938	5630.36
926.248	5592.62
926.558	5595.33
926.867	5574.32
927.177	5514.43
927.487	5511.95
927.796	5488.22
928.106	5465.62
928.416	5440.53
928.725	5451.83
929.034	5386.3
929.344	5420.2
929.653	5391.27
929.962	5357.6
930.271	5304.04
930.581	5272.4
930.89	5239.86
931.199	5229.24
931.508	5229.92
931.817	5198.06
932.125	5217.49
932.434	5188.79
932.743	5131.16
933.051	5096.14
933.36	5110.37
933.669	5086.19
933.977	5069.02
934.286	5042.13
934.594	5029.47
934.902	4997.61
935.21	5013.88
935.519	4915.58
935.827	4887.56
936.135	4908.57
936.443	4918.51
936.751	4851.85
937.059	4839.87
937.367	4828.57
937.674	4789.48
937.982	4779.08
938.29	4792.42
938.597	4791.74
938.905	4716.94
939.213	4669.48
939.52	4650.5
939.827	4665.64
940.135	4658.41
940.442	4614.57
940.749	4598.07
941.056	4595.36
941.363	4573.89
941.67	4504.97
941.977	4501.12
942.284	4434.46
942.591	4476.27
942.898	4456.15
943.205	4449.6
943.511	4459.77
943.818	4410.51
944.125	4386.1
944.431	4337.74
944.738	4349.72
945.044	4354.46
945.35	4331.86
945.657	4304.52
945.963	4252.77
946.269	4303.16
946.575	4251.64
946.881	4233.56
947.187	4230.85
947.493	4223.17
947.799	4170.74
948.105	4122.6
948.41	4144.3
948.716	4130.51
949.022	4080.8
949.327	4097.52
949.633	4047.8
949.938	4049.16
950.244	4030.18
950.549	3987.47
950.854	3975.94
951.16	3981.14
951.465	3951.99
951.77	3950.86
952.075	3947.69
952.38	3916.06
952.685	3872.67
952.99	3867.47
953.294	3847.36
953.599	3835.83
953.904	3773.69
954.209	3784.53
954.513	3803.97
954.818	3754.93
955.122	3770.3
955.426	3717.64
955.731	3703.86
956.035	3725.55
956.339	3662.5
956.643	3709.06
956.948	3649.85
957.252	3634.71
957.556	3633.12
957.86	3646.01
958.163	3578.21
958.467	3609.4
958.771	3570.75
959.075	3522.62
959.378	3540.47
959.682	3503.18
959.985	3518.33
960.289	3490.98
960.592	3434.03
960.896	3454.15
961.199	3459.34
961.502	3411.44
961.805	3415.96
962.108	3396.75
962.411	3413.02
962.714	3367.37
963.017	3362.85
963.32	3365.79
963.623	3330.08
963.926	3299.8
964.228	3330.76
964.531	3274.49
964.833	3266.13
965.136	3249.63
965.438	3245.11
965.741	3216.41
966.043	3213.93
966.345	3148.39
966.648	3172.35
966.95	3180.03
967.252	3151.78
967.554	3161.72
967.856	3161.27
968.158	3107.94
968.46	3114.04
968.761	3092.8
969.063	3090.09
969.365	3054.38
969.666	3084.44
969.968	3040.82
970.269	3017.77
970.571	3033.59
970.872	3002.86
971.174	2989.53
971.475	2994.27
971.776	2941.84
972.077	2955.63
972.378	2913.14
972.679	2937.55
972.98	2933.93
973.281	2881.28
973.582	2883.77
973.883	2888.96
974.183	2869.98
974.484	2860.49
974.785	2844.9
975.085	2809.87
975.386	2801.73
975.686	2763.32
975.986	2775.75
976.287	2763.32
976.587	2771.68
976.887	2733.26
977.187	2757.89
977.487	2725.13
977.787	2738.91
978.087	2705.69
978.387	2655.98
978.687	2711.12
978.987	2664.79
979.286	2657.11
979.586	2671.79
979.885	2624.11
980.185	2592.25
980.484	2592.47
980.784	2582.76
981.083	2561.74
981.382	2573.94
981.682	2550.22
981.981	2573.27
982.28	2544.57
982.579	2534.62
982.878	2542.08
983.177	2514.28
983.475	2495.98
983.774	2467.51
984.073	2472.03
984.372	2486.26
984.67	2479.48
984.969	2453.49
985.267	2446.49
985.566	2461.4
985.864	2394.97
986.162	2390.22
986.461	2382.99
986.759	2386.38
987.057	2338.92
987.355	2375.08
987.653	2391.35
987.951	2343.67
988.249	2307.51
988.547	2342.54
988.844	2301.63
989.142	2283.78
989.44	2299.37
989.737	2293.05
990.035	2261.18
990.332	2274.97
990.63	2237.23
990.927	2227.29
991.224	2248.53
991.521	2187.74
991.819	2207.17
992.116	2174.18
992.413	2230
992.71	2186.16
993.006	2162.2
993.303	2132.6
993.6	2160.4
993.897	2147.29
994.193	2171.02
994.49	2130.11
994.787	2076.78
995.083	2082.43
995.379	2112.71
995.676	2071.81
995.972	2084.01
996.268	2066.61
996.565	2029.55
996.861	2045.82
997.157	2064.13
997.453	2030.91
997.749	1989.55
998.044	1997.69
998.34	1985.94
998.636	1995.88
998.932	1963.79
999.227	1937.58
999.523	1967.41
999.818	1943
1000.114	1934.64
1000.409	1945.94
1000.704	1890.8
1001	1883.11
1001.295	1879.05
1001.59	1893.96
1001.885	1829.56
1002.18	1882.66
1002.475	1828.2
1002.77	1845.6
1003.065	1844.47
1003.359	1823.23
1003.654	1837.24
1003.949	1816.22
1004.243	1798.37
1004.538	1776.45
1004.832	1775.32
1005.127	1767.41
1005.421	1746.62
1005.715	1743.91
1006.009	1749.78
1006.304	1739.39
1006.598	1709.33
1006.892	1714.76
1007.186	1714.76
1007.48	1696
1007.773	1667.07
1008.067	1658.04
1008.361	1646.51
1008.655	1661.2
1008.948	1650.58
1009.242	1656.45
1009.535	1615.78
1009.829	1627.75
1010.122	1598.15
1010.415	1605.83
1010.708	1596.57
1011.001	1562.44
1011.295	1562.9
1011.588	1550.24
1011.881	1537.36
1012.173	1570.13
1012.466	1534.2
1012.759	1554.99
1013.052	1505.95
1013.344	1504.14
1013.637	1491.49
1013.93	1488.32
1014.222	1507.76
1014.514	1496.91
1014.807	1496.91
1015.099	1478.61
1015.391	1457.14
1015.683	1470.92
1015.976	1442.67
1016.268	1423.69
1016.56	1405.84
1016.851	1420.3
1017.143	1405.84
1017.435	1407.65
1017.727	1388.66
1018.018	1378.49
1018.31	1381.66
1018.602	1397.25
1018.893	1347.31
1019.185	1341.66
1019.476	1338.04
1019.767	1331.49
1020.058	1331.49
1020.35	1320.42
1020.641	1300.08
1020.932	1299.63
1021.223	1309.12
1021.514	1283.13
1021.804	1265.73
1022.095	1261.44
1022.386	1284.94
1022.677	1239.06
1022.967	1256.69
1023.258	1238.84
1023.548	1208.56
1023.839	1219.18
1024.129	1214.66
1024.419	1168.78
1024.709	1178.73
1025	1190.25
1025.29	1179.4
1025.58	1150.25
1025.87	1154.55
1026.16	1178.95
1026.449	1156.13
1026.739	1141.44
1027.029	1144.38
1027.319	1128.56
1027.608	1118.39
1027.898	1133.08
1028.187	1103.02
1028.477	1092.4
1028.766	1127.88
1029.055	1115.22
1029.344	1083.36
1029.634	1088.11
1029.923	1075.68
1030.212	1076.81
1030.501	1086.98
1030.79	1028
1031.078	1035.9
1031.367	1038.84
1031.656	1039.52
1031.945	1010.37
1032.233	1009.92
1032.522	1004.49
1032.81	998.62
1033.099	991.39
1033.387	992.97
1033.675	974.21
1033.963	971.05
1034.251	957.49
1034.54	970.82
1034.828	950.48
1035.116	954.55
1035.403	948.45
1035.691	929.47
1035.979	925.85
1036.267	936.47
1036.554	935.12
1036.842	912.07
1037.129	915.23
1037.417	906.64
1037.704	903.93
1037.992	930.15
1038.279	893.99
1038.566	880.65
1038.853	880.65
1039.14	880.65
