Data from hue_270_FLMS001491_00082.txt Node
Date: Tue Feb 07 15:57:48 GMT 2017
User: dcchb
Spectrometer: FLMS00149
Trigger mode: 0
Integration Time (sec): 2.000000E-2
Scans to average: 10
Electric dark correction enabled: true
Nonlinearity correction enabled: false
Boxcar width: 0
XAxis mode: Wavelengths
Number of Pixels in Spectrum: 2048
>>>>>Begin Spectral Data<<<<<
341.393	-29.8
341.776	-29.8
342.16	-29.8
342.543	-61.67
342.927	-50.59
343.31	-55.79
343.693	-77.94
344.077	-59.86
344.46	-65.28
344.843	-63.25
345.226	-41.55
345.61	-36.81
345.993	-20.54
346.376	-14.43
346.759	10.65
347.142	35.73
347.525	25.56
347.908	61.27
348.291	81.83
348.674	101.49
349.057	118.9
349.44	114.15
349.823	145.56
350.206	152.57
350.588	192.57
350.971	189.85
351.354	205.9
351.737	236.41
352.119	257.87
352.502	256.74
352.884	258.78
353.267	268.95
353.65	273.47
354.032	275.05
354.414	312.34
354.797	294.94
355.179	292.68
355.562	310.08
355.944	329.06
356.326	338.78
356.709	342.39
357.091	322.51
357.473	349.85
357.855	340.81
358.238	331.77
358.62	330.87
359.002	339
359.384	332.9
359.766	332.45
360.148	332
360.53	332.67
360.912	341.71
361.294	339.91
361.676	331.77
362.057	315.27
362.439	320.25
362.821	325.22
363.203	316.86
363.584	320.25
363.966	344.65
364.348	308.72
364.729	307.59
365.111	298.33
365.493	297.42
365.874	298.33
366.256	299.23
366.637	310.53
367.019	313.92
367.4	310.75
367.781	309.62
368.163	321.83
368.544	310.08
368.925	297.87
369.306	298.33
369.688	300.13
370.069	307.14
370.45	300.59
370.831	315.95
371.212	322.28
371.593	305.56
371.974	311.21
372.355	318.89
372.736	302.17
373.117	283.18
373.498	311.88
373.879	301.26
374.26	310.08
374.641	333.8
375.021	332.9
375.402	334.03
375.783	307.36
376.163	332.45
376.544	316.86
376.925	317.76
377.305	342.84
377.686	314.82
378.066	302.62
378.447	322.73
378.827	306.23
379.208	330.19
379.588	320.47
379.968	322.51
380.349	334.48
380.729	324.54
381.109	317.31
381.489	348.72
381.87	341.26
382.25	335.61
382.63	324.99
383.01	343.52
383.39	353.69
383.77	340.13
384.15	345.33
384.53	350.53
384.91	364.54
385.29	350.98
385.67	348.27
386.049	358.89
386.429	353.47
386.809	368.83
387.189	345.1
387.568	363.18
387.948	360.92
388.328	360.47
388.707	356.18
389.087	345.1
389.466	365.67
389.846	382.39
390.225	352.79
390.605	357.53
390.984	366.57
391.363	367.7
391.743	362.28
392.122	358.89
392.501	364.54
392.881	365.89
393.26	393.46
393.639	364.76
394.018	386.23
394.397	394.14
394.776	396.4
395.155	407.7
395.534	383.3
395.913	389.17
396.292	387.36
396.671	409.73
397.05	393.24
397.429	415.16
397.808	414.93
398.186	407.93
398.565	417.42
398.944	413.8
399.323	392.11
399.701	397.98
400.08	408.15
400.458	429.17
400.837	398.44
401.215	411.99
401.594	401.37
401.972	431.66
402.351	411.54
402.729	405.89
403.107	424.2
403.486	422.62
403.864	439.56
404.242	446.8
404.62	434.14
404.999	451.09
405.377	459.9
405.755	463.74
406.133	484.08
406.511	464.2
406.889	451.32
407.267	460.13
407.645	457.19
408.023	464.87
408.401	478.66
408.779	477.53
409.156	522.73
409.534	495.83
409.912	508.94
410.29	512.11
410.667	508.72
411.045	515.49
411.422	528.83
411.8	524.31
412.178	539.68
412.555	545.78
412.933	565.44
413.31	546.91
413.687	562.5
414.065	579.45
414.442	598.2
414.819	595.72
415.197	607.02
415.574	591.88
415.951	587.58
416.328	628.49
416.705	619.9
417.082	636.17
417.46	626.68
417.837	647.02
418.214	644.98
418.591	663.51
418.967	649.95
419.344	665.77
419.721	680.46
420.098	677.07
420.475	691.99
420.852	680.24
421.228	699.44
421.605	703.96
421.982	723.4
422.358	734.7
422.735	741.7
423.111	740.8
423.488	781.7
423.864	765.88
424.241	773.12
424.617	800.91
424.994	777.18
425.37	791.42
425.746	823.28
426.123	818.76
426.499	851.08
426.875	813.57
427.251	847.46
427.627	864.86
428.003	899.44
428.379	900.57
428.756	896.95
429.132	917.07
429.507	916.61
429.883	924.75
430.259	935.14
430.635	949.38
431.011	960
431.387	974.47
431.763	999.55
432.138	1000.68
432.514	996.16
432.89	1012.88
433.265	1046.55
433.641	1064.86
434.016	1093.78
434.392	1089.49
434.767	1131.98
435.143	1117.74
435.518	1134.91
435.894	1146.66
436.269	1163.16
436.644	1192.31
437.02	1208.81
437.395	1218.3
437.77	1232.99
438.145	1255.14
438.52	1276.6
438.895	1251.52
439.271	1298.3
439.646	1336.26
440.021	1325.42
440.395	1350.28
440.77	1338.98
441.145	1357.73
441.52	1370.39
441.895	1368.35
442.27	1404.96
442.645	1398.64
443.019	1406.09
443.394	1429.82
443.769	1447.22
444.143	1454
444.518	1449.48
444.892	1479.09
445.267	1500.55
445.641	1516.15
446.016	1486.77
446.39	1501.91
446.764	1531.06
447.139	1513.43
447.513	1528.12
447.887	1563.15
448.262	1574.68
448.636	1576.71
449.01	1575.81
449.384	1617.61
449.758	1615.8
450.132	1623.71
450.506	1628.01
450.88	1635.69
451.254	1633.88
451.628	1668.46
452.002	1655.13
452.376	1690.15
452.75	1710.27
453.123	1714.33
453.497	1714.56
453.871	1755.01
454.244	1791.39
454.618	1774.67
454.992	1791.39
455.365	1814.9
455.739	1840.21
456.112	1887.21
456.486	1860.77
456.859	1880.66
457.232	1900.32
457.606	1902.58
457.979	1933.08
458.352	1915.68
458.725	1985.29
459.099	1975.8
459.472	2007.21
459.845	2046.08
460.218	2032.29
460.591	2025.74
460.964	2075
461.337	2102.35
461.71	2129.46
462.083	2171.95
462.456	2165.85
462.829	2153.42
463.201	2210.14
463.574	2214.43
463.947	2243.81
464.32	2289.01
464.692	2309.12
465.065	2318.61
465.438	2354.54
465.81	2334.88
466.183	2360.87
466.555	2444.94
466.928	2430.92
467.3	2407.2
467.672	2472.28
468.045	2504.37
468.417	2513.63
468.789	2536.23
469.161	2534.42
469.534	2604.03
469.906	2650.81
470.278	2647.19
470.65	2660.75
471.022	2668.21
471.394	2754.76
471.766	2800.86
472.138	2788.88
472.51	2832.04
472.882	2892.16
473.253	2901.19
473.625	2940.74
473.997	2991.81
474.369	2967.18
474.74	3027.97
475.112	3063.9
475.484	3088.76
475.855	3153.84
476.227	3165.59
476.598	3242.43
476.97	3247.4
477.341	3306.16
477.713	3391.35
478.084	3387.06
478.455	3471.12
478.827	3462.08
479.198	3538.92
479.569	3512.48
479.94	3640.38
480.311	3674.73
480.682	3722.64
481.053	3756.99
481.424	3815.52
481.795	3872.02
482.166	3889.19
482.537	3911.11
482.908	3947.27
483.279	4007.15
483.65	4124.89
484.021	4134.61
484.391	4204.44
484.762	4187.26
485.133	4218
485.503	4275.4
485.874	4357.43
486.244	4418.22
486.615	4435.84
486.985	4487.14
487.356	4528.95
487.726	4546.35
488.097	4660.24
488.467	4630.87
488.837	4726.46
489.207	4766.23
489.578	4814.36
489.948	4880.35
490.318	4863.63
490.688	4956.28
491.058	4987.92
491.428	5062.72
491.798	5043.29
492.168	5146.11
492.538	5177.29
492.908	5205.09
493.278	5255.48
493.648	5262.04
494.017	5301.58
494.387	5384.07
494.757	5405.31
495.126	5444.18
495.496	5477.62
495.866	5474.23
496.235	5538.64
496.605	5537.06
496.974	5561.92
497.344	5611.63
497.713	5628.13
498.082	5674.91
498.452	5725.08
498.821	5745.19
499.19	5683.27
499.559	5742.7
499.928	5801.91
500.298	5821.57
500.667	5853.89
501.036	5855.47
501.405	5950.38
501.774	5877.84
502.143	5936.14
502.512	5946.54
502.88	6020.43
503.249	6005.29
503.618	6018.63
503.987	6040.1
504.356	6034.45
504.724	6094.78
505.093	6106.76
505.462	6051.39
505.83	6150.38
506.199	6108.12
506.567	6245.51
506.936	6184.05
507.304	6275.57
507.672	6253.2
508.041	6271.05
508.409	6289.35
508.777	6316.02
509.145	6339.75
509.514	6317.38
509.882	6364.83
510.25	6375
510.618	6454.55
510.986	6410.26
511.354	6432.18
511.722	6507.88
512.09	6552.17
512.458	6449.58
512.826	6525.05
513.193	6537.26
513.561	6569.35
513.929	6610.25
514.297	6628.33
514.664	6651.6
515.032	6613.64
515.4	6680.53
515.767	6720.08
516.135	6715.78
516.502	6664.26
516.869	6724.6
517.237	6673.98
517.604	6683.92
517.972	6759.4
518.339	6786.52
518.706	6762.79
519.073	6747.87
519.44	6854.54
519.808	6889.11
520.175	6786.97
520.542	6912.84
520.909	6915.78
521.276	6880.07
521.643	6854.76
522.009	6959.85
522.376	7003.69
522.743	6945.16
523.11	7042.1
523.477	7032.61
523.843	7092.72
524.21	7056.34
524.577	7130.01
524.943	7160.29
525.31	7131.14
525.676	7197.58
526.043	7157.58
526.409	7224.47
526.776	7278.48
527.142	7293.4
527.508	7283
527.874	7315.54
528.241	7336.78
528.607	7357.8
528.973	7374.98
529.339	7357.35
529.705	7401.87
530.071	7500.4
530.437	7462.43
530.803	7567.06
531.169	7461.75
531.535	7530
531.901	7517.12
532.267	7547.85
532.632	7612.03
532.998	7601.64
533.364	7622.43
533.73	7622.88
534.095	7664.69
534.461	7622.43
534.826	7647.96
535.192	7712.82
535.557	7739.03
535.923	7657
536.288	7707.17
536.653	7717.34
537.019	7669.43
537.384	7732.25
537.749	7793.27
538.114	7747.17
538.479	7763.44
538.845	7797.79
539.21	7749.88
539.575	7776.55
539.94	7759.82
540.305	7814.96
540.67	7824
541.034	7774.97
541.399	7785.81
541.764	7859.48
542.129	7780.61
542.494	7834.62
542.858	7864.23
543.223	7813.16
543.587	7916.88
543.952	7813.83
544.316	7857.45
544.681	7866.26
545.045	7913.94
545.41	7962.76
545.774	7938.58
546.138	7891.57
546.503	7965.24
546.867	7920.05
547.231	7971.57
547.595	7959.82
547.959	7970.67
548.324	7958.46
548.688	8024.9
549.052	8036.43
549.416	8004.34
549.779	7956.43
550.143	7938.8
550.507	7987.39
550.871	8016.54
551.235	8069.65
551.599	8088.18
551.962	8062.19
552.326	8034.39
552.689	8121.17
553.053	8031.46
553.417	8036.65
553.78	8140.15
554.143	8118.68
554.507	8146.71
554.87	8163.2
555.234	8202.52
555.597	8149.19
555.96	8237.33
556.323	8162.75
556.686	8214.28
557.05	8343.31
557.413	8224.9
557.776	8324.78
558.139	8326.36
558.502	8327.94
558.865	8299.7
559.228	8336.53
559.59	8370.66
559.953	8376.53
560.316	8453.82
560.679	8423.54
561.041	8553.7
561.404	8501.27
561.767	8581.27
562.129	8594.83
562.492	8643.42
562.854	8573.59
563.217	8591.44
563.579	8645.68
563.941	8679.35
564.304	8679.8
564.666	8714.15
565.028	8679.57
565.39	8786.69
565.753	8831.43
566.115	8831.43
566.477	8875.5
566.839	8801.6
567.201	8959.34
567.563	8959.79
567.925	8984.88
568.287	9004.54
568.648	9082.5
569.01	9069.39
569.372	9085.67
569.734	9106
570.095	9167.92
570.457	9226.45
570.819	9194.59
571.18	9179.9
571.542	9264.19
571.903	9242.05
572.265	9360.23
572.626	9259.45
572.987	9400.01
573.349	9454.69
573.71	9436.62
574.071	9459.89
574.432	9480
574.794	9551.64
575.155	9569.72
575.516	9528.82
575.877	9587.57
576.238	9628.48
576.599	9660.79
576.96	9735.59
577.32	9668.02
577.681	9769.49
578.042	9785.31
578.403	9879.09
578.763	9781.24
579.124	9898.53
579.485	9890.39
579.845	9964.29
580.206	9972.42
580.566	9939.2
580.927	9981.69
581.287	10048.8
581.648	10037.05
582.008	10083.38
582.368	10069.59
582.728	10102.81
583.089	10156.82
583.449	10169.03
583.809	10157.95
584.169	10250.83
584.529	10202.47
584.889	10318.4
585.249	10311.17
585.609	10237.05
585.969	10363.82
586.329	10282.92
586.688	10413.09
587.048	10497.38
587.408	10460.09
587.768	10420.77
588.127	10477.94
588.487	10434.78
588.846	10557.04
589.206	10482.69
589.565	10635.68
589.925	10644.04
590.284	10660.76
590.643	10771.72
591.003	10751.84
591.362	10785.51
591.721	10747.99
592.08	10715.45
592.44	10753.87
592.799	10757.94
593.158	10822.34
593.517	10833.19
593.876	10935.79
594.235	10819.18
594.593	10916.35
594.952	10980.08
595.311	10915.22
595.67	10885.84
596.029	10997.48
596.387	11023.24
596.746	11021.66
597.104	10988.21
597.463	11006.29
597.822	11096.23
598.18	10998.38
598.538	11080.19
598.897	11121.09
599.255	10994.77
599.613	11192.05
599.972	11118.83
600.33	11152.96
600.688	11074.77
601.046	11140.98
601.404	11246.29
601.762	11164.03
602.12	11314.76
602.478	11272.73
602.836	11261.43
603.194	11272.5
603.552	11272.95
603.91	11320.86
604.268	11302.1
604.625	11186.17
604.983	11297.36
605.341	11321.76
605.698	11384.36
606.056	11373.74
606.413	11443.8
606.771	11429.11
607.128	11409.22
607.485	11330.35
607.843	11422.78
608.2	11467.07
608.557	11536.45
608.914	11502.78
609.272	11473.62
609.629	11558.14
609.986	11510.23
610.343	11483.57
610.7	11584.81
611.057	11568.99
611.414	11589.78
611.771	11587.52
612.127	11651.25
612.484	11612.15
612.841	11672.72
613.198	11572.61
613.554	11539.61
613.911	11649.21
614.267	11717.91
614.624	11684.92
614.98	11719.04
615.337	11759.04
615.693	11717.01
616.05	11768.98
616.406	11825.93
616.762	11743.22
617.118	11738.02
617.475	11747.29
617.831	11806.72
618.187	11820.06
618.543	11840.85
618.899	11815.08
619.255	11858.02
619.611	11839.04
619.967	11863.45
620.323	11933.27
620.678	11784.13
621.034	11878.36
621.39	11838.36
621.746	11796.55
622.101	11964.91
622.457	11926.49
622.812	11926.49
623.168	11843.56
623.523	11930.79
623.879	11969.43
624.234	11809.66
624.589	11908.64
624.945	12001.07
625.3	11900.51
625.655	11808.53
626.01	11879.04
626.365	11895.99
626.72	11922.88
627.075	11862.54
627.43	11921.3
627.785	11799.27
628.14	11932.37
628.495	11832.49
628.85	11898.25
629.205	11785.26
629.559	11852.82
629.914	11809.44
630.269	11784.35
630.623	11795.88
630.978	11752.49
631.332	11751.13
631.687	11793.84
632.041	11766.72
632.396	11862.09
632.75	11772.6
633.104	11757.23
633.459	11702.32
633.813	11721.98
634.167	11724.24
634.521	11705.71
634.875	11682.43
635.229	11698.48
635.583	11575.32
635.937	11671.13
636.291	11646.28
636.645	11563.34
636.999	11603.79
637.352	11572.83
637.706	11560.4
638.06	11561.53
638.413	11574.64
638.767	11533.96
639.121	11507.97
639.474	11536
639.828	11490.35
640.181	11456.45
640.534	11479.73
640.888	11437.24
641.241	11478.6
641.594	11444.93
641.947	11463.46
642.301	11456.9
642.654	11367.41
643.007	11370.35
643.36	11416.23
643.713	11336
644.066	11403.12
644.419	11387.75
644.771	11266.4
645.124	11226.85
645.477	11239.96
645.83	11163.58
646.182	11074.31
646.535	11045.16
646.888	10985.95
647.24	10939.4
647.593	11039.74
647.945	10947.76
648.298	10978.27
648.65	10882
649.002	10926.52
649.355	10964.03
649.707	10979.85
650.059	10972.17
650.411	11133.75
650.763	11114.54
651.115	11229.34
651.467	11281.99
651.819	11139.62
652.171	11216.68
652.523	11167.87
652.875	11162.9
653.227	11123.13
653.578	11252.61
653.93	11190.69
654.282	11177.81
654.633	11221.2
654.985	11150.47
655.337	11201.77
655.688	11195.67
656.039	11293.97
656.391	11148.89
656.742	11151.6
657.094	11169.45
657.445	11249.45
657.796	11198.15
658.147	11134.2
658.498	11161.99
658.849	11222.56
659.2	11259.17
659.551	11147.76
659.902	11243.8
660.253	11187.98
660.604	11201.09
660.955	11121.32
661.306	11182.56
661.656	11151.83
662.007	11199.06
662.358	11222.78
662.708	11188.21
663.059	11159.73
663.409	11171.71
663.76	11249
664.11	11230.24
664.461	11249.9
664.811	11234.08
665.161	11189.79
665.511	11216.68
665.862	11227.08
666.212	11184.37
666.562	11269.56
666.912	11225.5
667.262	11234.08
667.612	11240.18
667.962	11221.43
668.312	11286.74
668.662	11202.22
669.011	11136.68
669.361	11228.89
669.711	11135.78
670.06	11158.38
670.41	11133.75
670.76	11156.12
671.109	11138.49
671.459	11097.59
671.808	11125.84
672.157	11152.05
672.507	11136.68
672.856	11121.54
673.205	11166.74
673.554	11159.96
673.904	11063.92
674.253	11161.99
674.602	11095.78
674.951	10930.59
675.3	10843.81
675.649	11023.24
675.998	11004.03
676.346	10965.84
676.695	11076.8
677.044	10983.92
677.393	10950.47
677.741	10990.25
678.09	10976.01
678.438	10943.24
678.787	10941.89
679.135	10934.2
679.484	10892.17
679.832	10910.25
680.181	10868.44
680.529	10890.59
680.877	10839.97
681.225	10786.19
681.573	10885.17
681.922	10717.49
682.27	10738.05
682.618	10736.24
682.966	10739.41
683.314	10786.64
683.661	10706.64
684.009	10625.06
684.357	10649.24
684.705	10604.04
685.053	10635
685.4	10594.1
685.748	10548.45
686.095	10517.04
686.443	10516.59
686.79	10505.06
687.138	10557.72
687.485	10496.7
687.832	10491.5
688.18	10432.75
688.527	10364.95
688.874	10384.16
689.221	10386.87
689.568	10308.23
689.915	10268.68
690.262	10268.23
690.609	10238.4
690.956	10152.98
691.303	10210.38
691.65	10121.12
691.997	10169.48
692.344	10079.09
692.69	10081.35
693.037	10020.33
693.383	9976.04
693.73	9995.02
694.077	9929.26
694.423	9974.68
694.769	9901.01
695.116	9839.54
695.462	9858.98
695.808	9733.56
696.155	9823.05
696.501	9730.85
696.847	9686.55
697.193	9632.77
697.539	9673.45
697.885	9569.95
698.231	9579.44
698.577	9537.63
698.923	9432.77
699.269	9491.3
699.614	9410.4
699.96	9441.59
700.306	9351.42
700.651	9347.81
700.997	9287.69
701.342	9284.98
701.688	9263.51
702.033	9240.24
702.379	9196.4
702.724	9186.68
703.069	9230.29
703.415	9120.69
703.76	9109.39
704.105	9059.68
704.45	9079.79
704.795	8951.88
705.14	8922.05
705.485	8988.49
705.83	8899
706.175	8915.95
706.52	8863.07
706.865	8780.14
707.209	8789.85
707.554	8745.11
707.899	8811.1
708.243	8678.22
708.588	8702.62
708.932	8619.24
709.277	8727.48
709.621	8658.56
709.966	8600.71
710.31	8564.55
710.654	8498.56
710.998	8549.41
711.342	8518.9
711.687	8549.86
712.031	8486.58
712.375	8501.95
712.719	8424.21
713.063	8466.92
713.407	8466.92
713.75	8384.44
714.094	8376.31
714.438	8350.77
714.782	8295.63
715.125	8326.81
715.469	8351.9
715.812	8353.03
716.156	8276.19
716.499	8256.53
716.843	8321.84
717.186	8265.57
717.53	8208.85
717.873	8240.26
718.216	8250.88
718.559	8189.19
718.902	8146.93
719.246	8158.01
719.589	8132.02
719.932	8138.12
720.275	8065.13
720.617	8057.67
720.96	8133.6
721.303	8103.09
721.646	8075.3
721.989	8094.05
722.331	8123.2
722.674	8064
723.016	8042.75
723.359	8031.68
723.701	8088.63
724.044	7989.2
724.386	7974.73
724.729	8051.79
725.071	7997.56
725.413	8031.46
725.755	7953.27
726.097	7960.04
726.439	7938.8
726.782	7933.38
727.124	7936.99
727.465	7919.82
727.807	7885.47
728.149	7949.65
728.491	7906.49
728.833	7891.57
729.175	7873.04
729.516	7886.83
729.858	7862.87
730.199	7939.03
730.541	7892.25
730.882	7916.66
731.224	7885.47
731.565	7840.27
731.906	7825.13
732.248	7895.87
732.589	7835.75
732.93	7861.52
733.271	7796.21
733.612	7850.44
733.953	7802.53
734.294	7838.24
734.635	7804.34
734.976	7843.21
735.317	7765.02
735.658	7776.32
735.999	7817.68
736.339	7812.25
736.68	7819.03
737.021	7866.94
737.361	7831.69
737.702	7898.8
738.042	7841.86
738.383	7828.3
738.723	7837.11
739.063	7838.24
739.404	7929.31
739.744	7875.3
740.084	7887.5
740.424	7887.28
740.764	7854.74
741.104	7886.37
741.444	7916.66
741.784	7941.74
742.124	7897.45
742.464	7936.77
742.804	7949.42
743.143	7928.63
743.483	7957.79
743.823	7941.06
744.162	7971.8
744.502	7986.03
744.841	8003.66
745.181	8070.78
745.52	8084.79
745.86	8133.6
746.199	8128.18
746.538	8221.51
746.877	8232.58
747.216	8260.6
747.556	8280.71
747.895	8382.86
748.234	8352.8
748.573	8371.79
748.911	8452.91
749.25	8478
749.589	8518.67
749.928	8631.21
750.267	8684.32
750.605	8748.05
750.944	8753.24
751.283	8802.06
751.621	8888.38
751.96	8939
752.298	9015.84
752.636	9091.54
752.975	9141.48
753.313	9248.15
753.651	9342.38
753.989	9442.04
754.327	9567.46
754.666	9585.54
755.004	9745.53
755.342	9846.55
755.679	10059.2
756.017	10068.01
756.355	10235.92
756.693	10314.11
757.031	10452.41
757.368	10543.93
757.706	10756.81
758.044	10839.52
758.381	11005.16
758.719	11110.7
759.056	11314.98
759.394	11399.73
759.731	11578.71
760.068	11681.53
760.405	11858.02
760.743	11989.09
761.08	12206.03
761.417	12261.17
761.754	12382.08
762.091	12580.71
762.428	12770.31
762.765	12858.9
763.102	13072
763.438	13276.97
763.775	13361.03
764.112	13457.08
764.449	13714.92
764.785	13754.69
765.122	13840.12
765.458	14023.16
765.795	14249.6
766.131	14315.81
766.467	14490.72
766.804	14577.5
767.14	14718.29
767.476	14866.3
767.812	14981.56
768.148	15190.36
768.485	15258.84
768.821	15335.9
769.157	15446.4
769.492	15614.76
769.828	15734.3
770.164	15762.55
770.5	15863.79
770.836	15983.56
771.171	16108.31
771.507	16098.81
771.842	16140.39
772.178	16361.86
772.513	16355.3
772.849	16516.43
773.184	16554.4
773.519	16806.37
773.855	16721.4
774.19	16795.52
774.525	16919.81
774.86	17092.23
775.195	17113.93
775.53	17180.14
775.865	17049.52
776.2	17076.42
776.535	17204.1
776.87	17265.11
777.205	17205.45
777.539	17272.79
777.874	17467.82
778.209	17236.19
778.543	17407.71
778.878	17390.98
779.212	17510.75
779.547	17418.55
779.881	17629.4
780.215	17539.68
780.55	17652.67
780.884	17518.44
781.218	17650.19
781.552	17554.82
781.886	17562.28
782.22	17582.39
782.554	17564.31
782.888	17478.66
783.222	17463.98
783.556	17497.65
783.889	17500.81
784.223	17335.84
784.557	17382.62
784.89	17553.24
785.224	17460.36
785.557	17489.96
785.891	17526.8
786.224	17436.63
786.558	17586.46
786.891	17342.62
787.224	17342.4
787.557	17320.02
787.891	17322.28
788.224	17478.89
788.557	17332.91
788.89	17354.15
789.223	17367.03
789.556	17326.35
789.888	17190.76
790.221	17190.31
790.554	17167.26
790.887	17247.94
791.219	17165.45
791.552	17129.07
791.884	17107.38
792.217	17140.14
792.549	17042.29
792.882	17042.74
793.214	16903.09
793.546	16956.87
793.879	16890.88
794.211	16769.3
794.543	16863.31
794.875	16797.33
795.207	16868.96
795.539	16787.61
795.871	16761.17
796.203	16729.08
796.535	16645.01
796.867	16571.8
797.198	16556.88
797.53	16592.81
797.862	16530.44
798.193	16475.08
798.525	16392.14
798.856	16468.3
799.188	16276.44
799.519	16175.2
799.85	16200.05
800.182	16231.24
800.513	16147.85
800.844	16098.81
801.175	16191.47
801.506	16181.07
801.837	16044.58
802.168	16076.67
802.499	15940.85
802.83	15912.83
803.161	15964.13
803.491	15947.63
803.822	15843.68
804.153	15842.1
804.483	15693.4
804.814	15725.72
805.145	15657.47
805.475	15643.68
805.805	15664.48
806.136	15661.99
806.466	15620.41
806.796	15524.82
807.126	15543.12
807.457	15439.4
807.787	15466.74
808.117	15402.79
808.447	15364.82
808.777	15398.49
809.107	15351.71
809.436	15284.37
809.766	15283.24
810.096	15145.84
810.426	15173.19
810.755	15227.88
811.085	15138.84
811.414	15088.67
811.744	15001.22
812.073	15084.6
812.403	14955.57
812.732	14924.61
813.061	14976.81
813.39	14932.29
813.719	14850.26
814.049	14960.76
814.378	14828.79
814.707	14822.24
815.036	14777.94
815.365	14738.62
815.693	14668.8
816.022	14695.46
816.351	14723.03
816.68	14490.72
817.008	14706.76
817.337	14492.75
817.665	14413.43
817.994	14574.56
818.322	14506.31
818.651	14406.66
818.979	14321.46
819.307	14441.91
819.636	14326.43
819.964	14286.66
820.292	14339.99
820.62	14364.85
820.948	14371.18
821.276	14329.59
821.604	14306.32
821.932	14266.55
822.259	14330.05
822.587	14231.07
822.915	14248.24
823.243	14336.37
823.57	14249.6
823.898	14210.5
824.225	14243.95
824.553	14269.03
824.88	14322.59
825.207	14396.03
825.535	14198.3
825.862	14349.71
826.189	14326.66
826.516	14321.01
826.843	14402.36
827.17	14387.22
827.497	14339.54
827.824	14397.16
828.151	14326.21
828.478	14336.15
828.805	14382.47
829.131	14448.91
829.458	14362.81
829.785	14244.63
830.111	14291.18
830.438	14443.26
830.764	14384.51
831.09	14333.21
831.417	14245.53
831.743	14315.36
832.069	14329.37
832.395	14229.71
832.722	14247.79
833.048	14248.02
833.374	14278.52
833.7	14181.8
834.026	14241.01
834.351	14234
834.677	14208.24
835.003	14301.12
835.329	14182.48
835.654	14175.93
835.98	14058.87
836.306	14149.26
836.631	14040.56
836.956	14131.86
837.282	14200.56
837.607	14039.66
837.932	13985.2
838.258	13988.59
838.583	14034.01
838.908	13945.65
839.233	13968.47
839.558	13908.14
839.883	13954.92
840.208	13905.88
840.533	13891.41
840.858	13890.96
841.182	13788.59
841.507	13792.21
841.832	13787.69
842.156	13777.52
842.481	13745.88
842.805	13691.42
843.13	13658.65
843.454	13657.07
843.778	13624.08
844.103	13571.65
844.427	13567.13
844.751	13525.32
845.075	13451.43
845.399	13368.04
845.723	13366.91
846.047	13435.61
846.371	13308.15
846.695	13284.65
847.019	13173.47
847.343	13126.91
847.666	13061.61
847.99	13032.45
848.313	12980.93
848.637	12949.29
848.96	12907.71
849.284	12892.8
849.607	12755.4
849.931	12733.03
850.254	12645.35
850.577	12622.52
850.9	12586.14
851.223	12456.2
851.546	12478.12
851.869	12378.01
852.192	12454.16
852.515	12304.79
852.838	12298.91
853.161	12253.94
853.483	12206.71
853.806	12158.13
854.129	12121.07
854.451	12094.85
854.774	12089.65
855.096	11905.03
855.419	11936.66
855.741	11929.66
856.063	11875.2
856.385	11863.9
856.708	11832.71
857.03	11870.9
857.352	11809.44
857.674	11692.6
857.996	11663.22
858.318	11612.83
858.64	11610.12
858.961	11511.14
859.283	11594.3
859.605	11529.22
859.926	11548.43
860.248	11430.01
860.57	11407.86
860.891	11483.12
861.212	11385.72
861.534	11349.33
861.855	11245.38
862.176	11276.79
862.498	11323.8
862.819	11273.63
863.14	11270.92
863.461	11208.55
863.782	11159.96
864.103	11176.23
864.424	11147.31
864.745	11152.5
865.065	11100.3
865.386	11039.96
865.707	11047.42
866.027	11059.62
866.348	10993.86
866.668	11044.03
866.989	10970.59
867.309	10943.02
867.63	10968.78
867.95	10910.93
868.27	10837.48
868.59	10888.33
868.91	10893.53
869.23	10789.12
869.55	10804.72
869.87	10881.1
870.19	10822.57
870.51	10813.53
870.83	10809.69
871.15	10764.04
871.469	10712.51
871.789	10645.62
872.109	10752.51
872.428	10640.2
872.748	10628.45
873.067	10580.32
873.386	10661.67
873.706	10679.07
874.025	10531.95
874.344	10561.11
874.663	10554.33
874.982	10568.56
875.301	10563.37
875.62	10532.86
875.939	10466.65
876.258	10501.67
876.577	10475.91
876.896	10449.92
877.214	10330.83
877.533	10468.45
877.852	10487.66
878.17	10417.83
878.489	10458.06
878.807	10381
879.125	10292.19
879.444	10321.79
879.762	10259.87
880.08	10241.79
880.398	10263.71
880.716	10283.83
881.034	10238.63
881.352	10265.52
881.67	10193.43
881.988	10130.61
882.306	10132.87
882.624	10055.81
882.941	10056.71
883.259	9954.57
883.577	10016.71
883.894	9932.65
884.212	10012.65
884.529	9980.33
884.846	9963.61
885.164	9958.18
885.481	9840.9
885.798	9887.9
886.115	9852.2
886.432	9801.35
886.75	9806.1
887.067	9794.57
887.383	9818.53
887.7	9760
888.017	9653.79
888.334	9727.91
888.651	9623.5
888.967	9624.41
889.284	9645.42
889.6	9573.11
889.917	9501.7
890.233	9578.99
890.55	9454.24
890.866	9465.09
891.182	9482.26
891.498	9343.51
891.815	9376.96
892.131	9324.98
892.447	9348.03
892.763	9306.45
893.079	9302.83
893.395	9252.21
893.71	9265.55
894.026	9173.12
894.342	9128.15
894.657	9113.69
894.973	9067.36
895.289	9044.76
895.604	9012.45
895.92	8981.71
896.235	8954.82
896.55	8887.48
896.865	8966.12
897.181	8899.46
897.496	8890.87
897.811	8804.09
898.126	8797.76
898.441	8716.41
898.756	8804.99
899.071	8632.34
899.386	8699.23
899.7	8597.99
900.015	8577.66
900.33	8522.97
900.644	8443.65
900.959	8558.67
901.273	8535.4
901.588	8416.76
901.902	8411.33
902.216	8405.23
902.531	8350.32
902.845	8322.52
903.159	8353.93
903.473	8256.53
903.787	8181.96
904.101	8111.45
904.415	8192.81
904.729	8117.33
905.042	8107.16
905.356	8103.09
905.67	8037.56
905.984	7969.31
906.297	8060.16
906.611	7895.64
906.924	7915.98
907.237	7877.11
907.551	7886.37
907.864	7813.38
908.177	7795.08
908.491	7789.2
908.804	7716.66
909.117	7649.32
909.43	7637.12
909.743	7662.65
910.056	7633.27
910.368	7550.11
910.681	7558.93
910.994	7538.36
911.307	7501.98
911.619	7438.7
911.932	7385.14
912.244	7385.6
912.557	7322.32
912.869	7324.36
913.181	7279.16
913.494	7254.3
913.806	7195.09
914.118	7187.86
914.43	7147.41
914.742	7185.6
915.054	7165.04
915.366	7064.48
915.678	7084.36
915.99	7032.61
916.302	6949.9
916.613	6966.62
916.925	6982.44
917.236	6910.13
917.548	6885.72
917.859	6894.08
918.171	6847.31
918.482	6803.69
918.794	6725.5
919.105	6746.97
919.416	6720.76
919.727	6614.54
920.038	6684.6
920.349	6641.66
920.66	6633.3
920.971	6651.38
921.282	6538.16
921.593	6526.18
921.903	6469.91
922.214	6437.83
922.525	6455.23
922.835	6413.64
923.146	6416.13
923.456	6377.26
923.767	6334.1
924.077	6315.12
924.387	6271.73
924.697	6291.84
925.008	6260.88
925.318	6185.18
925.628	6193.09
925.938	6184.5
926.248	6124.16
926.558	6135.01
926.867	6087.78
927.177	6103.14
927.487	6034.67
927.796	6005.75
928.106	5989.7
928.416	5978.85
928.725	5949.7
929.034	5912.42
929.344	5912.42
929.653	5870.61
929.962	5841
930.271	5793.32
930.581	5791.29
930.89	5771.63
931.199	5782.48
931.508	5729.14
931.817	5737.5
932.125	5659.09
932.434	5660.44
932.743	5616.83
933.051	5578.41
933.36	5612.08
933.669	5581.12
933.977	5532.99
934.286	5491.64
934.594	5501.35
934.902	5498.41
935.21	5463.84
935.519	5389.04
935.827	5414.35
936.135	5397.17
936.443	5321.24
936.751	5355.59
937.059	5332.77
937.367	5297.52
937.674	5305.2
937.982	5281.47
938.29	5213.9
938.597	5240.57
938.905	5160.8
939.213	5156.28
939.52	5186.56
939.827	5137.97
940.135	5081.25
940.442	5075.38
940.749	5022.27
941.056	5070.18
941.363	4996.51
941.67	4962.61
941.977	4981.14
942.284	4895.72
942.591	4890.07
942.898	4901.14
943.205	4879.22
943.511	4859.79
943.818	4810.75
944.125	4809.39
944.431	4764.2
944.738	4783.63
945.044	4745.44
945.35	4724.65
945.657	4723.29
945.963	4736.17
946.269	4642.62
946.575	4674.26
946.881	4610.75
947.187	4611.21
947.493	4556.52
947.799	4549.97
948.105	4597.87
948.41	4532.56
948.716	4513.58
949.022	4447.59
949.327	4458.22
949.633	4427.26
949.938	4432
950.244	4435.39
950.549	4437.65
950.854	4377.77
951.16	4331.67
951.465	4322.85
951.77	4386.81
952.075	4326.69
952.38	4306.81
952.685	4296.86
952.99	4253.02
953.294	4239.01
953.599	4223.65
953.904	4167.15
954.209	4180.26
954.513	4182.52
954.818	4143.2
955.122	4123.99
955.426	4113.82
955.731	4065.01
956.035	4037.44
956.339	4067.94
956.643	4074.5
956.948	4010.32
957.252	4048.06
957.556	4025.46
957.86	3988.17
958.163	3968.06
958.467	3925.12
958.771	3941.39
959.075	3917.21
959.378	3852.81
959.682	3876.31
959.985	3862.75
960.289	3815.75
960.592	3823.88
960.896	3779.59
961.199	3775.52
961.502	3759.25
961.805	3762.19
962.108	3720.83
962.411	3752.02
962.714	3722.87
963.017	3683.1
963.32	3700.5
963.623	3706.37
963.926	3654.4
964.228	3636.09
964.531	3613.27
964.833	3619.59
965.136	3553.16
965.438	3558.8
965.741	3538.47
966.043	3515.19
966.345	3519.71
966.648	3450.78
966.95	3463.21
967.252	3446.04
967.554	3478.58
967.856	3431.12
968.158	3478.13
968.46	3436.32
968.761	3398.58
969.063	3361.97
969.365	3366.49
969.666	3355.87
969.968	3303.22
970.269	3335.99
970.571	3357.68
970.872	3309.32
971.174	3281.52
971.475	3200.17
971.776	3239.72
972.077	3226.61
972.378	3258.7
972.679	3225.48
972.98	3219.38
973.281	3183.9
973.582	3191.58
973.883	3197.01
974.183	3111.36
974.484	3126.5
974.785	3126.5
975.085	3091.92
975.386	3109.78
975.686	3080.85
975.986	3100.96
976.287	3053.51
976.587	3044.69
976.887	2991.14
977.187	3019.38
977.487	3018.25
977.787	2999.72
978.087	2959.05
978.387	2954.3
978.687	2935.54
978.987	2915.21
979.286	2898.48
979.586	2890.57
979.885	2908.43
980.185	2883.34
980.484	2879.05
980.784	2871.82
981.083	2802.44
981.382	2813.29
981.682	2841.76
981.981	2789.79
982.28	2766.28
982.579	2709.34
982.878	2740.75
983.177	2719.28
983.475	2797.92
983.774	2709.11
984.073	2707.3
984.372	2732.39
984.67	2647.19
984.969	2714.99
985.267	2674.99
985.566	2646.51
985.864	2631.82
986.162	2659.39
986.461	2613.07
986.759	2612.39
987.057	2552.28
987.355	2588.66
987.653	2593.18
987.951	2561.77
988.249	2539.17
988.547	2556.12
988.844	2538.04
989.142	2501.43
989.44	2507.53
989.737	2513.63
990.035	2482.9
990.332	2480.19
990.63	2477.25
990.927	2429.12
991.224	2451.72
991.521	2397.93
991.819	2375.78
992.116	2385.95
992.413	2400.19
992.71	2325.84
993.006	2364.03
993.303	2359.97
993.6	2370.36
993.897	2317.03
994.193	2320.42
994.49	2287.2
994.787	2255.34
995.083	2263.7
995.379	2267.99
995.676	2240.42
995.972	2235.45
996.268	2256.92
996.565	2229.35
996.861	2213.3
997.157	2236.35
997.453	2216.69
997.749	2218.5
998.044	2151.84
998.34	2185.96
998.636	2195.22
998.932	2162.91
999.227	2114.32
999.523	2105.74
999.818	2117.71
1000.114	2084.04
1000.409	2096.47
1000.704	2039.75
1001	2091.05
1001.295	2045.17
1001.59	2038.84
1001.885	2016.7
1002.18	2002.91
1002.475	2015.34
1002.77	1986.87
1003.065	1989.13
1003.359	1957.72
1003.654	1939.41
1003.949	1914.78
1004.243	1934.89
1004.538	1927.89
1004.832	1930.6
1005.127	1895.12
1005.421	1905.97
1005.715	1885.18
1006.009	1880.88
1006.304	1864.61
1006.598	1882.24
1006.892	1840.43
1007.186	1808.34
1007.48	1806.08
1007.773	1780.77
1008.067	1810.83
1008.361	1783.03
1008.655	1763.6
1008.948	1787.33
1009.242	1767.44
1009.535	1739.19
1009.829	1726.99
1010.122	1715.46
1010.415	1705.75
1010.708	1691.28
1011.001	1704.39
1011.295	1700.1
1011.588	1670.72
1011.881	1666.43
1012.173	1669.14
1012.466	1664.17
1012.759	1643.37
1013.052	1670.04
1013.344	1614.9
1013.637	1622.58
1013.93	1607.22
1014.222	1610.16
1014.514	1576.03
1014.807	1574
1015.099	1568.12
1015.391	1563.15
1015.683	1570.16
1015.976	1536.49
1016.268	1501.01
1016.56	1525.64
1016.851	1486.77
1017.143	1501.68
1017.435	1515.92
1017.727	1476.6
1018.018	1468.46
1018.31	1477.28
1018.602	1454.45
1018.893	1435.02
1019.185	1470.05
1019.476	1419.88
1019.767	1404.51
1020.058	1381.91
1020.35	1380.1
1020.641	1371.74
1020.932	1398.64
1021.223	1376.72
1021.514	1358.41
1021.804	1349.6
1022.095	1376.72
1022.386	1361.57
1022.677	1332.87
1022.967	1304.4
1023.258	1319.09
1023.548	1274.57
1023.839	1242.48
1024.129	1279.99
1024.419	1280.45
1024.709	1259.66
1025	1224.63
1025.29	1240.9
1025.58	1241.35
1025.87	1235.7
1026.16	1231.63
1026.449	1228.7
1026.739	1223.72
1027.029	1201.35
1027.319	1181.24
1027.608	1195.03
1027.898	1176.04
1028.187	1190.05
1028.477	1151.86
1028.766	1157.74
1029.055	1156.83
1029.344	1148.7
1029.634	1137.4
1029.923	1106.21
1030.212	1110.73
1030.501	1132.2
1030.79	1118.87
1031.078	1108.02
1031.367	1126.33
1031.656	1081.13
1031.945	1108.25
1032.233	1079.32
1032.522	1057.18
1032.81	1049.27
1033.099	1037.29
1033.387	1041.13
1033.675	1059.21
1033.963	1035.48
1034.251	1020.34
1034.54	1015.14
1034.828	1013.79
1035.116	1002.94
1035.403	994.8
1035.691	1016.72
1035.979	1008.59
1036.267	979.21
1036.554	968.82
1036.842	966.33
1037.129	962.04
1037.417	977.4
1037.704	934.92
1037.992	941.92
1038.279	951.87
1038.566	941.25
1038.853	941.25
1039.14	941.25
