Data from hue_60_FLMS001491_55.txt Node
Date: Mon Feb 06 15:17:35 GMT 2017
User: dcchb
Spectrometer: FLMS00149
Trigger mode: 0
Integration Time (sec): 2.000000E-2
Scans to average: 10
Electric dark correction enabled: true
Nonlinearity correction enabled: false
Boxcar width: 0
XAxis mode: Wavelengths
Number of Pixels in Spectrum: 2048
>>>>>Begin Spectral Data<<<<<
341.393	-0.37
341.776	-0.37
342.16	-0.37
342.543	-72
342.927	-74.49
343.31	-62.74
343.693	-82.85
344.077	-60.48
344.46	-53.02
344.843	-68.16
345.226	-29.74
345.61	-36.52
345.993	-15.73
346.376	10.03
346.759	10.25
347.142	15.45
347.525	36.47
347.908	60.87
348.291	77.14
348.674	81.66
349.057	117.37
349.44	142.23
349.823	144.26
350.206	179.29
350.588	208.89
350.971	236.24
351.354	214.09
351.737	218.16
352.119	227.88
352.502	255.9
352.884	268.33
353.267	283.69
353.65	269.46
354.032	314.43
354.414	322.79
354.797	320.98
355.179	325.73
355.562	334.09
355.944	361.88
356.326	345.84
356.709	342.45
357.091	358.95
357.473	350.81
357.855	353.52
358.238	358.72
358.62	348.1
359.002	361.43
359.384	328.44
359.766	366.63
360.148	344.71
360.53	342
360.912	310.81
361.294	356.69
361.676	335.22
362.057	332.73
362.439	325.95
362.821	339.74
363.203	332.28
363.584	338.61
363.966	328.21
364.348	330.25
364.729	336.57
365.111	326.18
365.493	332.05
365.874	334.54
366.256	320.75
366.637	325.27
367.019	322.34
367.4	316.69
367.781	301.55
368.163	313.75
368.544	327.31
368.925	318.72
369.306	342
369.688	329.79
370.069	320.98
370.45	328.44
370.831	318.27
371.212	319.17
371.593	316.46
371.974	313.3
372.355	328.44
372.736	322.11
373.117	323.92
373.498	319.4
373.879	328.66
374.26	324.82
374.641	318.72
375.021	321.88
375.402	342.67
375.783	331.83
376.163	335.67
376.544	320.98
376.925	341.54
377.305	329.57
377.686	322.56
378.066	304.48
378.447	337.7
378.827	318.72
379.208	337.03
379.588	336.35
379.968	328.44
380.349	338.61
380.729	346.97
381.109	327.99
381.489	322.56
381.87	340.87
382.25	323.01
382.63	337.7
383.01	320.3
383.39	348.55
383.77	356.91
384.15	335.9
384.53	352.39
384.91	349.91
385.29	351.04
385.67	364.59
386.049	350.13
386.429	353.97
386.809	343.13
387.189	351.49
387.568	359.4
387.948	355.33
388.328	340.19
388.707	370.47
389.087	363.24
389.466	342.22
389.846	359.17
390.225	349.68
390.605	357.59
390.984	340.64
391.363	361.88
391.743	391.26
392.122	365.05
392.501	364.59
392.881	379.06
393.26	361.43
393.639	389.45
394.018	378.83
394.397	367.76
394.776	387.65
395.155	374.09
395.534	391.49
395.913	378.83
396.292	374.31
396.671	374.76
397.05	370.92
397.429	374.99
397.808	377.7
398.186	399.17
398.565	392.84
398.944	400.53
399.323	391.03
399.701	397.36
400.08	391.71
400.458	389.68
400.837	385.16
401.215	402.33
401.594	394.2
401.972	399.62
402.351	424.71
402.729	408.66
403.107	396.91
403.486	407.53
403.864	401.66
404.242	398.04
404.62	387.65
404.999	407.76
405.377	425.61
405.755	404.82
406.133	429.68
406.511	418.38
406.889	409.79
407.267	412.96
407.645	395.1
408.023	402.33
408.401	419.73
408.779	438.94
409.156	434.88
409.534	454.08
409.912	447.98
410.29	432.16
410.667	440.07
411.045	436.23
411.422	444.37
411.8	422.67
412.178	453.63
412.555	455.44
412.933	473.74
413.31	456.34
413.687	461.09
414.065	448.89
414.442	472.61
414.819	475.55
415.197	476.46
415.574	458.83
415.951	491.6
416.328	483.46
416.705	475.1
417.082	480.07
417.46	491.37
417.837	493.18
418.214	483.69
418.591	497.25
418.967	477.36
419.344	491.82
419.721	505.38
420.098	508.77
420.475	501.09
420.852	482.11
421.228	511.71
421.605	508.09
421.982	519.62
422.358	518.49
422.735	521.2
423.111	514.87
423.488	516.68
423.864	530.01
424.241	529.56
424.617	538.6
424.994	532.95
425.37	530.01
425.746	541.31
426.123	552.39
426.499	548.32
426.875	541.99
427.251	562.33
427.627	550.58
428.003	578.15
428.379	584.7
428.756	575.21
429.132	581.54
429.507	568.43
429.883	587.87
430.259	581.31
430.635	589.9
431.011	575.89
431.387	589.22
431.763	606.17
432.138	625.83
432.514	597.36
432.89	609.11
433.265	647.98
433.641	635.55
434.016	634.64
434.392	641.42
434.767	629.9
435.143	650.69
435.518	665.38
435.894	660.86
436.269	654.08
436.644	643.01
437.02	667.86
437.395	680.07
437.77	683.91
438.145	689.33
438.52	678.71
438.895	684.13
439.271	680.52
439.646	703.57
440.021	692.04
440.395	703.12
440.77	710.12
441.145	689.56
441.52	716.45
441.895	706.73
442.27	734.3
442.645	742.89
443.019	720.29
443.394	722.1
443.769	731.82
444.143	738.37
444.518	743.79
444.892	752.38
445.267	732.04
445.641	787.18
446.016	747.86
446.39	769.1
446.764	745.83
447.139	785.37
447.513	790.35
447.887	749.44
448.262	754.64
448.636	785.6
449.01	791.25
449.384	781.31
449.758	794.41
450.132	802.1
450.506	814.98
450.88	812.94
451.254	794.64
451.628	807.75
452.002	830.57
452.376	826.28
452.75	844.81
453.123	834.64
453.497	857.01
453.871	858.37
454.244	881.87
454.618	888.65
454.992	874.86
455.365	883.68
455.739	899.95
456.112	918.03
456.486	927.07
456.859	905.6
457.232	936.33
457.606	946.5
457.979	947.63
458.352	953.73
458.725	957.57
459.099	993.96
459.472	994.63
459.845	982.21
460.218	1009.78
460.591	1038.25
460.964	1008.42
461.337	1066.72
461.71	1047.74
462.083	1072.6
462.456	1088.19
462.829	1095.65
463.201	1113.05
463.574	1125.48
463.947	1109.66
464.32	1138.36
464.692	1145.37
465.065	1138.36
465.438	1165.93
465.81	1215.42
466.183	1219.04
466.555	1252.26
466.928	1264.01
467.3	1269.88
467.672	1296.55
468.045	1324.57
468.417	1312.59
468.789	1336.32
469.161	1354.63
469.534	1366.83
469.906	1437.79
470.278	1420.61
470.65	1432.14
471.022	1470.78
471.394	1511.68
471.766	1546.03
472.138	1577.44
472.51	1600.95
472.882	1619.03
473.253	1654.96
473.625	1698.57
473.997	1704.45
474.369	1746.71
474.74	1788.96
475.112	1825.35
475.484	1878.68
475.855	1915.06
476.227	1963.87
476.598	2028.28
476.97	2080.03
477.341	2138.11
477.713	2197.99
478.084	2230.76
478.455	2301.04
478.827	2350.53
479.198	2464.2
479.569	2482.96
479.94	2612.9
480.311	2614.25
480.682	2697.64
481.053	2821.48
481.424	2896.51
481.795	2952.78
482.166	3023.28
482.537	3116.84
482.908	3198.64
483.279	3312.77
483.65	3391.18
484.021	3482.48
484.391	3649.93
484.762	3680.89
485.133	3774
485.503	3865.52
485.874	4011.5
486.244	4114.1
486.615	4234.32
486.985	4358.16
487.356	4486.07
487.726	4614.88
488.097	4734.2
488.467	4874.98
488.837	4997.47
489.207	5103
489.578	5322.66
489.948	5347.97
490.318	5576.66
490.688	5670.67
491.058	5837.67
491.428	5964.45
491.798	6092.58
492.168	6280.6
492.538	6426.58
492.908	6558.56
493.278	6755.61
493.648	6775.95
494.017	6988.6
494.387	7118.77
494.757	7278.54
495.126	7418.19
495.496	7583.16
495.866	7770.73
496.235	7921.68
496.605	8124.39
496.974	8204.39
497.344	8342.01
497.713	8470.6
498.082	8587.66
498.452	8798.05
498.821	8944.03
499.19	9016.57
499.559	9226.06
499.928	9342.44
500.298	9514.41
500.667	9691.81
501.036	9748.98
501.405	9904.91
501.774	9954.17
502.143	10130.67
502.512	10306.03
502.88	10489.75
503.249	10575.4
503.618	10720.03
503.987	10849.07
504.356	10969.29
504.724	11114.14
505.093	11237.08
505.462	11383.74
505.83	11512.55
506.199	11696.05
506.567	11871.86
506.936	11955.7
507.304	12156.6
507.672	12143.49
508.041	12423.94
508.409	12491.73
508.777	12737.15
509.145	12746.64
509.514	12840.88
509.882	13117.25
510.25	13086.52
510.618	13277.25
510.986	13389.11
511.354	13560.41
511.722	13769.67
512.09	13911.58
512.458	14000.39
512.826	14143.44
513.193	14211.91
513.561	14269.09
513.929	14468.18
514.297	14754.73
514.664	14788.85
515.032	14732.58
515.4	15008.96
515.767	15091.67
516.135	15323.52
516.502	15228.38
516.869	15589.05
517.237	15683.74
517.604	15637.41
517.972	15875.83
518.339	16020.45
518.706	16038.31
519.073	16103.84
519.44	16303.16
519.808	16437.84
520.175	16530.72
520.542	16779.98
520.909	16781.56
521.276	16919.64
521.643	17142.46
522.009	17262.23
522.376	17474.43
522.743	17579.74
523.11	17770.92
523.477	17958.71
523.843	18150.12
524.21	18205.93
524.577	18373.16
524.943	18435.98
525.31	18613.83
525.676	18823.54
526.043	18940.38
526.409	19041.84
526.776	19327.94
527.142	19334.94
527.508	19401.38
527.874	19701.71
528.241	19767.93
528.607	19824.2
528.973	20054.47
529.339	20075.72
529.705	20209.27
530.071	20468.93
530.437	20454.46
530.803	20637.96
531.169	20757.28
531.535	20803.83
531.901	20770.16
532.267	20945.3
532.632	21117.27
532.998	21075.91
533.364	21281.11
533.73	21313.2
534.095	21515.9
534.461	21589.12
534.826	21704.82
535.192	21919.51
535.557	22031.82
535.923	21942.56
536.288	22187.98
536.653	22298.48
537.019	22222.1
537.384	22331.25
537.749	22360.63
538.114	22529.66
538.479	22610.56
538.845	22661.41
539.21	22650.79
539.575	22804
539.94	22898.24
540.305	22991.57
540.67	22952.02
541.034	23039.7
541.399	23209.87
541.764	23340.71
542.129	23443.31
542.494	23498
542.858	23530.54
543.223	23559.69
543.587	23791.32
543.952	23716.52
544.316	23749.52
544.681	23814.15
545.045	23924.65
545.41	24055.95
545.774	24161.03
546.138	24135.27
546.503	24248.03
546.867	24296.17
547.231	24440.57
547.595	24597.4
547.959	24511.98
548.324	24583.39
548.688	24639.66
549.052	24770.05
549.416	24860.9
549.779	24891.63
550.143	25017.28
550.507	25116.03
550.871	25173.21
551.235	25231.29
551.599	25457.49
551.962	25498.4
552.326	25510.83
552.689	25710.37
553.053	25695.91
553.417	25756.24
553.78	26003.24
554.143	25880.53
554.507	26116.01
554.87	26100.19
555.234	26411.37
555.597	26204.59
555.96	26422.21
556.323	26585.15
556.686	26586.28
557.05	26727.52
557.413	26960.28
557.776	26985.36
558.139	27230.1
558.502	27157.56
558.865	27245.02
559.228	27448.63
559.59	27498.8
559.953	27543.99
560.316	27870.31
560.679	27783.54
561.041	28035.96
561.404	28250.64
561.767	28412.9
562.129	28179.91
562.492	28513.69
562.854	28600.69
563.217	28589.84
563.579	28834.58
563.941	29028.25
564.304	28975.82
564.666	29223.95
565.028	29296.26
565.39	29399.09
565.753	29543.71
566.115	29577.61
566.477	29646.99
566.839	29823.71
567.201	30058.28
567.563	30146.18
567.925	30323.13
568.287	30301.66
568.648	30266.41
569.01	30597.02
569.372	30874.98
569.734	30743.91
570.095	31001.08
570.457	31154.97
570.819	31206.72
571.18	31145.93
571.542	31469.99
571.903	31330.79
572.265	31446.49
572.626	31526.26
572.987	31546.37
573.349	31674.05
573.71	31802.86
574.071	31971.9
574.432	31929.87
574.794	32285.11
575.155	32257.09
575.516	32092.57
575.877	32251.44
576.238	32359.69
576.599	32470.64
576.96	32599.45
577.32	32623.63
577.681	32723.52
578.042	32749.96
578.403	32691.88
578.763	32747.25
579.124	32901.59
579.485	33060.46
579.845	33097.75
580.206	32979.56
580.566	32973
580.927	33088.48
581.287	33284.41
581.648	33131.87
582.008	33313.33
582.368	33324.41
582.728	33405.76
583.089	33312.66
583.449	33288.25
583.809	33389.26
584.169	33450.05
584.529	33387.91
584.889	33462.26
585.249	33419.77
585.609	33342.26
585.969	33601.46
586.329	33452.76
586.688	33586.32
587.048	33679.43
587.408	33601.69
587.768	33499.99
588.127	33477.4
588.487	33491.41
588.846	33659.09
589.206	33537.06
589.565	33760.33
589.925	33738.63
590.284	33703.38
590.643	33800.78
591.003	33875.13
591.362	33925.97
591.721	33814.56
592.08	33760.55
592.44	33894.56
592.799	33952.86
593.158	33853.21
593.517	33812.08
593.876	33878.06
594.235	33951.28
594.593	34058.85
594.952	34034.22
595.311	33951.06
595.67	34121.67
596.029	34267.66
596.387	34209.35
596.746	34323.7
597.104	34195.34
597.463	34169.13
597.822	34220.2
598.18	34313.76
598.538	34234.44
598.897	34482.34
599.255	34191.05
599.613	34702.68
599.972	34368.67
600.33	34582.9
600.688	34477.82
601.046	34627.42
601.404	34590.14
601.762	34539.97
602.12	34777.02
602.478	34721.43
602.836	34884.82
603.194	34620.42
603.552	34786.51
603.91	34790.36
604.268	34935.44
604.625	34841.2
604.983	34963.23
605.341	34826.29
605.698	35044.59
606.056	35089.33
606.413	35144.7
606.771	35367.74
607.128	35374.3
607.485	35150.8
607.843	35152.83
608.2	35464.91
608.557	35474.63
608.914	35506.27
609.272	35626.27
609.629	35637.34
609.986	35887.5
610.343	35657.23
610.7	35987.39
611.057	35905.81
611.414	35901.97
611.771	35995.07
612.127	36102.19
612.484	36114.84
612.841	36247.95
613.198	36133.6
613.554	36218.79
613.911	36348.51
614.267	36417.88
614.624	36400.94
614.98	36497.43
615.337	36628.05
615.693	36555.73
616.05	36535.4
616.406	36779.91
616.762	36630.08
617.118	36744.88
617.475	36842.51
617.831	36797.08
618.187	36818.33
618.543	36849.96
618.899	37075.95
619.255	37030.3
619.611	37046.79
619.967	37282.04
620.323	37187.36
620.678	37103.52
621.034	37015.83
621.39	37049.51
621.746	37097.64
622.101	37654.69
622.457	37189.62
622.812	37348.03
623.168	37426.9
623.523	37465.99
623.879	37673.22
624.234	37258.31
624.589	37522.94
624.945	37620.11
625.3	37513.9
625.655	37490.4
626.01	37503.05
626.365	37640
626.72	37559.78
627.075	37636.16
627.43	37610.17
627.785	37508.25
628.14	37597.97
628.495	37694.23
628.85	37718.87
629.205	37616.27
629.559	37774.46
629.914	37596.16
630.269	37550.28
630.623	37496.05
630.978	37478.87
631.332	37710.51
631.687	37764.74
632.041	37442.26
632.396	37668.7
632.75	37540.11
633.104	37582.6
633.459	37426.9
633.813	37421.02
634.167	37396.16
634.521	37355.71
634.875	37514.35
635.229	37458.53
635.583	37245.66
635.937	37347.58
636.291	37250.63
636.645	37275.49
636.999	37082.27
637.352	37291.99
637.706	37145.1
638.06	37219.9
638.413	37162.5
638.767	37133.35
639.121	37147.81
639.474	37006.34
639.828	36988.49
640.181	36928.61
640.534	37062.61
640.888	36792.11
641.241	36836.18
641.594	36910.98
641.947	37061.03
642.301	36809.29
642.654	36941.26
643.007	36899.45
643.36	36759.57
643.713	36668.95
644.066	36864.65
644.419	36591.21
644.771	36476.87
645.124	36054.05
645.477	36016.09
645.83	35743.55
646.182	35643.67
646.535	35642.99
646.888	35634.18
647.24	35535.2
647.593	35576.32
647.945	35443.22
648.298	35393.73
648.65	35353.51
649.002	35276.67
649.355	35446.61
649.707	35404.8
650.059	35554.63
650.411	35917.78
650.763	35921.63
651.115	36374.27
651.467	36141.28
651.819	36230.54
652.171	36200.49
652.523	36076.42
652.875	36077.1
653.227	35969.99
653.578	36239.81
653.93	36075.97
654.282	35968.18
654.633	35793.49
654.985	35914.62
655.337	35948.74
655.688	35914.85
656.039	36080.94
656.391	35695.87
656.742	35832.59
657.094	35850.89
657.445	35937.44
657.796	35826.94
658.147	35829.43
658.498	35723.67
658.849	35814.96
659.2	35806.83
659.551	35585.36
659.902	35758.01
660.253	35745.36
660.604	35697.9
660.955	35575.19
661.306	35748.07
661.656	35710.56
662.007	35686.83
662.358	35659.94
662.708	35577.45
663.059	35721.63
663.409	35466.95
663.76	35656.1
664.11	35629.2
664.461	35572.03
664.811	35645.7
665.161	35609.32
665.511	35459.27
665.862	35610.22
666.212	35657.45
666.562	35618.36
666.912	35628.53
667.262	35507.4
667.612	35510.56
667.962	35535.87
668.312	35391.24
668.662	35659.49
669.011	35599.6
669.361	35447.74
669.711	35426.95
670.06	35428.76
670.41	35405.03
670.76	35263.79
671.109	35409.78
671.459	35351.92
671.808	35212.04
672.157	35454.75
672.507	35175.21
672.856	35341.98
673.205	35249.55
673.554	35386.05
673.904	35284.35
674.253	35440.06
674.602	35349.89
674.951	34726.86
675.3	34649.8
675.649	35135.43
675.998	35124.58
676.346	35106.28
676.695	35078.94
677.044	34985.38
677.393	35032.61
677.741	35060.86
678.09	34982.89
678.438	34919.84
678.787	34971.37
679.135	34957.58
679.484	34734.76
679.832	34861.77
680.181	34606.18
680.529	34680.53
680.877	34700.64
681.225	34647.99
681.573	34899.28
681.922	34671.49
682.27	34477.37
682.618	34527.76
682.966	34476.24
683.314	34535
683.661	34262.69
684.009	34240.09
684.357	34157.83
684.705	34047.1
685.053	34237.83
685.4	34194.44
685.748	33952.41
686.095	34007.1
686.443	33873.54
686.79	33813.88
687.138	33862.02
687.485	33871.96
687.832	33598.98
688.18	33699.54
688.527	33562.37
688.874	33656.37
689.221	33516.04
689.568	33340.9
689.915	33318.3
690.262	33391.75
690.609	33212.77
690.956	33081.93
691.303	33041.25
691.65	32927.81
691.997	33006.45
692.344	32717.87
692.69	32689.39
693.037	32686.23
693.383	32425.67
693.73	32569.85
694.077	32407.82
694.423	32416.63
694.769	32137.54
695.116	32223.19
695.462	32225.45
695.808	32075.85
696.155	32102.29
696.501	31870.43
696.847	31826.14
697.193	31684.22
697.539	31689.65
697.885	31571.23
698.231	31413.27
698.577	31468.18
698.923	31434.06
699.269	31181.86
699.614	31106.16
699.96	31085.6
700.306	31047.18
700.651	30888.99
700.997	30862.78
701.342	30819.84
701.688	30827.75
702.033	30636.57
702.379	30533.29
702.724	30523.35
703.069	30641.99
703.415	30250.81
703.76	30258.95
704.105	30153.64
704.45	30124.72
704.795	29992.97
705.14	29891.73
705.485	30033.65
705.83	29748.68
706.175	29800.88
706.52	29656.03
706.865	29645.41
707.209	29482.25
707.554	29462.81
707.899	29532.42
708.243	29378.52
708.588	29305.98
708.932	29115.25
709.277	29129.04
709.621	29138.53
709.966	29015.37
710.31	29023.73
710.654	28796.62
710.998	28935.82
711.342	28885.65
711.687	28772.89
712.031	28682.72
712.375	28527.02
712.719	28530.18
713.063	28550.97
713.407	28581.71
713.75	28430.98
714.094	28466.45
714.438	28306.91
714.782	28307.14
715.125	28208.83
715.469	28156.63
715.812	27994.15
716.156	27988.95
716.499	27888.62
716.843	28000.25
717.186	27710.77
717.53	27936.53
717.873	27886.36
718.216	27819.69
718.559	27709.19
718.902	27555.74
719.246	27524.56
719.589	27504.9
719.932	27401.62
720.275	27357.11
720.617	27374.96
720.96	27203.44
721.303	27144.46
721.646	27365.24
721.989	27166.83
722.331	27109.43
722.674	27118.47
723.016	27032.37
723.359	26995.76
723.701	27051.8
724.044	26834.63
724.386	26782.43
724.729	26885.93
725.071	26887.06
725.413	26806.61
725.755	26879.83
726.097	26728.87
726.439	26441.2
726.782	26528.65
727.124	26645.71
727.465	26563.91
727.807	26388.32
728.149	26419.96
728.491	26345.83
728.833	26420.41
729.175	26337.7
729.516	26182
729.858	26081.43
730.199	26182.45
730.541	26079.63
730.882	26132.05
731.224	26138.83
731.565	25944.04
731.906	25898.16
732.248	26000.76
732.589	25802.8
732.93	25702.69
733.271	25818.84
733.612	25748.11
733.953	25798.05
734.294	25624.72
734.635	25722.8
734.976	25610.94
735.317	25572.97
735.658	25497.49
735.999	25529.58
736.339	25403.71
736.68	25511.28
737.021	25404.84
737.361	25372.52
737.702	25492.07
738.042	25382.69
738.383	25253.21
738.723	25372.3
739.063	25215.69
739.404	25281.45
739.744	25180.67
740.084	25032.42
740.424	25047.79
740.764	25041.46
741.104	25056.6
741.444	24859.54
741.784	24850.28
742.124	24902.48
742.464	24856.38
742.804	24813.22
743.143	24726.44
743.483	24813.9
743.823	24556.05
744.162	24612.54
744.502	24639.89
744.841	24494.36
745.181	24696.61
745.52	24547.24
745.86	24458.65
746.199	24404.41
746.538	24485.54
746.877	24481.47
747.216	24436.05
747.556	24291.65
747.895	24402.61
748.234	24293.23
748.573	24245.1
748.911	24180.01
749.25	24150.86
749.589	24022.5
749.928	24050.98
750.267	24085.78
750.605	23974.37
750.944	23914.03
751.283	23821.38
751.621	23885.56
751.96	23707.48
752.298	23836.97
752.636	23706.13
752.975	23596.75
753.313	23643.76
753.651	23706.35
753.989	23499.35
754.327	23493.93
754.666	23406.02
755.004	23335.52
755.342	23408.51
755.679	23404.22
756.017	23145.24
756.355	23238.12
756.693	23183.66
757.031	23162.19
757.368	22953.83
757.706	23023.21
758.044	22909.99
758.381	22939.59
758.719	22807.62
759.056	22904.12
759.394	22764.68
759.731	22423.22
760.068	22540.51
760.405	22492.6
760.743	22451.25
761.08	22423.22
761.417	22486.05
761.754	22301.19
762.091	22226.62
762.428	22102.33
762.765	22103.91
763.102	22141.88
763.438	21951.6
763.775	21869.79
764.112	21858.49
764.449	21915.21
764.785	21725.62
765.122	21557.03
765.458	21436.36
765.795	21555
766.131	21485.62
766.467	21482.01
766.804	21243.82
767.14	21174.9
767.476	21157.72
767.812	21115.91
768.148	21167.44
768.485	21060.1
768.821	20906.88
769.157	20804.06
769.492	20826.2
769.828	20703.27
770.164	20495.14
770.5	20454.91
770.836	20497.4
771.171	20358.42
771.507	20272.09
771.842	20077.07
772.178	20202.04
772.513	20125.66
772.849	19994.36
773.184	19961.82
773.519	20005.89
773.855	19954.36
774.19	19764.31
774.525	19872.33
774.86	19722.73
775.195	19744.2
775.53	19536.07
775.865	19413.81
776.2	19193.93
776.535	19230.77
776.87	19163.2
777.205	19147.38
777.539	19165.91
777.874	19100.83
778.209	18868.06
778.543	18949.42
778.878	18804.34
779.212	18783.32
779.547	18662.19
779.881	18612.48
780.215	18518.92
780.55	18619.93
780.884	18392.37
781.218	18340.62
781.552	18353.95
781.886	18315.76
782.22	18264.69
782.554	18062.66
782.888	18010.91
783.222	17970.46
783.556	17845.72
783.889	17707.42
784.223	17706.96
784.557	17576.12
784.89	17731.82
785.224	17654.76
785.557	17459.96
785.891	17484.82
786.224	17406.63
786.558	17496.35
786.891	17200.31
787.224	17191.27
787.557	17131.39
787.891	17098.17
788.224	17135
788.557	17053.42
788.89	16866.31
789.223	16862.24
789.556	16770.27
789.888	16754.22
790.221	16610.5
790.554	16567.33
790.887	16577.73
791.219	16435.58
791.552	16464.74
791.884	16323.95
792.217	16359.43
792.549	16291.86
792.882	16162.82
793.214	16084.41
793.546	16051.19
793.879	16083.96
794.211	15871.08
794.543	15969.61
794.875	15911.76
795.207	15903.85
795.539	15779.33
795.871	15798.31
796.203	15603.74
796.535	15598.54
796.867	15554.7
797.198	15572.1
797.53	15544.99
797.862	15391.77
798.193	15440.81
798.525	15356.97
798.856	15377.31
799.188	15147.94
799.519	15188.61
799.85	15027.26
800.182	15042.63
800.513	15069.75
800.844	14888.96
801.175	14910.65
801.506	14854.38
801.837	14839.69
802.168	14818.68
802.499	14732.58
802.83	14640.6
803.161	14573.26
803.491	14570.55
803.822	14688.06
804.153	14574.16
804.483	14438.12
804.814	14338.92
805.145	14404
805.475	14413.94
805.805	14270.44
806.136	14303.44
806.466	14347.28
806.796	14220.95
807.126	14151.8
807.457	14107.74
807.787	14124.46
808.117	13969.89
808.447	13999.72
808.777	14021.19
809.107	13918.81
809.436	13855.31
809.766	13904.58
810.096	13838.14
810.426	13855.99
810.755	13795.65
811.085	13761.08
811.414	13594.3
811.744	13622.78
812.073	13594.98
812.403	13595.43
812.732	13458.49
813.061	13496.45
813.39	13418.71
813.719	13384.37
814.049	13461.2
814.378	13347.3
814.707	13300.53
815.036	13283.13
815.365	13179.17
815.693	13162.68
816.022	13200.87
816.351	13075
816.68	13037.71
817.008	13124.71
817.337	12866.41
817.665	12923.36
817.994	12976.92
818.322	12906.64
818.651	12898.28
818.979	12863.25
819.307	12878.62
819.636	12811.73
819.964	12785.96
820.292	12804.27
820.62	12749.13
820.948	12754.55
821.276	12715.68
821.604	12658.28
821.932	12728.11
822.259	12710.71
822.587	12697.6
822.915	12684.95
823.243	12651.96
823.57	12685.17
823.898	12683.82
824.225	12578.06
824.553	12631.84
824.88	12589.13
825.207	12688.11
825.535	12658.28
825.862	12636.36
826.189	12628.68
826.516	12679.07
826.843	12643.14
827.17	12642.46
827.497	12654.44
827.824	12679.75
828.151	12667.55
828.478	12622.58
828.805	12698.51
829.131	12594.33
829.458	12642.92
829.785	12505.07
830.111	12562.69
830.438	12629.36
830.764	12602.47
831.09	12626.42
831.417	12508
831.743	12577.38
832.069	12635.91
832.395	12564.95
832.722	12622.35
833.048	12499.42
833.374	12483.6
833.7	12397.95
834.026	12401.11
834.351	12435.69
834.677	12439.76
835.003	12442.7
835.329	12480.43
835.654	12361.12
835.98	12363.38
836.306	12446.76
836.631	12266.88
836.956	12392.98
837.282	12406.54
837.607	12302.13
837.932	12281.12
838.258	12297.16
838.583	12265.75
838.908	12220.55
839.233	12143.49
839.558	12144.85
839.883	12107.11
840.208	12041.35
840.533	12059.43
840.858	12107.56
841.182	12116.15
841.507	12093.33
841.832	12032.08
842.156	12000.67
842.481	11971.75
842.805	11925.65
843.13	11863.05
843.454	11984.18
843.778	11799.32
844.103	11911.86
844.427	11849.26
844.751	11808.59
845.075	11725.2
845.399	11733.56
845.723	11586.45
846.047	11625.99
846.371	11584.86
846.695	11557.52
847.019	11465.09
847.343	11474.13
847.666	11398.66
847.99	11336.28
848.313	11374.47
848.637	11277.08
848.96	11221.94
849.284	11176.97
849.607	11133.8
849.931	11090.64
850.254	11017.42
850.577	10956.41
850.9	10855.62
851.223	10805.68
851.546	10819.01
851.869	10828.5
852.192	10821.95
852.515	10669.18
852.838	10734.94
853.161	10658.56
853.483	10583.76
853.806	10547.15
854.129	10672.35
854.451	10596.87
854.774	10419.47
855.096	10420.15
855.419	10379.25
855.741	10356.87
856.063	10304.9
856.385	10265.13
856.708	10281.4
857.03	10220.16
857.352	10260.61
857.674	10225.58
857.996	10177.44
858.318	10095.86
858.64	10128.18
858.961	10048.63
859.283	10063.1
859.605	9945.81
859.926	10026.94
860.248	9996.88
860.57	9874.63
860.891	9938.58
861.212	9975.64
861.534	9813.61
861.855	9807.51
862.176	9854.29
862.498	9896.1
862.819	9833.27
863.14	9792.82
863.461	9723.9
863.782	9731.35
864.103	9753.73
864.424	9692.49
864.745	9671.47
865.065	9673.73
865.386	9614.97
865.707	9624.46
866.027	9653.16
866.348	9560.29
866.668	9575.65
866.989	9533.85
867.309	9495.2
867.63	9546.27
867.95	9508.31
868.27	9384.24
868.59	9491.36
868.91	9395.54
869.23	9494.3
869.55	9420.18
869.87	9501.76
870.19	9355.77
870.51	9449.33
870.83	9407.07
871.15	9301.31
871.469	9413.4
871.789	9332.95
872.109	9322.33
872.428	9232.16
872.748	9298.82
873.067	9278.26
873.386	9231.03
873.706	9244.14
874.025	9198.94
874.344	9159.62
874.663	9229.67
874.982	9181.54
875.301	9203.68
875.62	9175.66
875.939	9082.11
876.258	9101.54
876.577	9123.69
876.896	9059.73
877.214	8998.04
877.533	9069
877.852	9003.46
878.17	9048.66
878.489	9008.44
878.807	8977.02
879.125	8965.95
879.444	8996.01
879.762	8862.9
880.08	8922.11
880.398	8881.89
880.716	8895.22
881.034	8855.67
881.352	8854.99
881.67	8880.76
881.988	8770.25
882.306	8783.81
882.624	8847.08
882.941	8711.72
883.259	8645.73
883.577	8648.44
883.894	8694.32
884.212	8631.27
884.529	8623.13
884.846	8586.75
885.164	8585.17
885.481	8539.07
885.798	8648.67
886.115	8529.13
886.432	8503.59
886.75	8518.05
887.067	8494.78
887.383	8471.5
887.7	8451.61
888.017	8342.01
888.334	8409.58
888.651	8360.54
888.967	8350.6
889.284	8365.29
889.6	8349.92
889.917	8285.74
890.233	8272.18
890.55	8184.95
890.866	8252.75
891.182	8177.5
891.498	8177.04
891.815	8143.6
892.131	8082.58
892.447	8125.07
892.763	8086.2
893.079	8064.51
893.395	8006.43
893.71	7978.18
894.026	7980.44
894.342	8004.85
894.657	7932.98
894.973	7869.71
895.289	7932.08
895.604	7798.52
895.92	7801.46
896.235	7827.68
896.55	7808.92
896.865	7729.37
897.181	7714.23
897.496	7714.23
897.811	7662.26
898.126	7664.29
898.441	7590.62
898.756	7601.92
899.071	7507.23
899.386	7523.95
899.7	7450.28
900.015	7494.58
900.33	7451.87
900.644	7469.72
900.959	7423.17
901.273	7418.42
901.588	7348.59
901.902	7306.11
902.216	7302.49
902.531	7253
902.845	7221.59
903.159	7209.84
903.473	7202.61
903.787	7189.27
904.101	7126.68
904.415	7196.96
904.729	7107.92
905.042	7029.73
905.356	7069.96
905.67	7042.84
905.984	6956.96
906.297	6974.14
906.611	6982.27
906.924	6947.7
907.237	6916.74
907.551	6893.01
907.864	6829.28
908.177	6793.13
908.491	6822.5
908.804	6793.58
909.117	6714.26
909.43	6664.54
909.743	6676.97
910.056	6694.6
910.368	6615.73
910.681	6542.96
910.994	6585.67
911.307	6604.88
911.619	6509.74
911.932	6517.2
912.244	6486.69
912.557	6458.22
912.869	6416.19
913.181	6408.5
913.494	6416.64
913.806	6330.99
914.118	6296.42
914.43	6295.74
914.742	6276.08
915.054	6249.64
915.366	6234.5
915.678	6191.56
915.99	6141.17
916.302	6171.45
916.613	6081.73
916.925	6100.49
917.236	6076.31
917.548	6059.36
917.859	6001.28
918.171	5985.01
918.482	5986.59
918.794	5968.97
919.105	5930.55
919.416	5882.42
919.727	5903.88
920.038	5872.92
920.349	5807.39
920.66	5747.96
920.971	5767.62
921.282	5785.92
921.593	5700.05
921.903	5624.57
922.214	5626.38
922.525	5636.09
922.835	5589.54
923.146	5564.46
923.456	5603.55
923.767	5584.57
924.077	5582.08
924.387	5496.66
924.697	5454.63
925.008	5438.59
925.318	5507.74
925.628	5469.09
925.938	5394.07
926.248	5304.58
926.558	5367.63
926.867	5313.62
927.177	5308.42
927.487	5335.54
927.796	5208.08
928.106	5202.43
928.416	5234.3
928.725	5170.8
929.034	5130.35
929.344	5171.7
929.653	5136.9
929.962	5138.93
930.271	5063
930.581	5049.44
930.89	5076.56
931.199	4982.33
931.508	4975.55
931.817	5023.46
932.125	4963.34
932.434	4935.1
932.743	4891.48
933.051	4896.91
933.36	4863.91
933.669	4860.52
933.977	4850.35
934.286	4821.65
934.594	4809.22
934.902	4795.66
935.21	4726.74
935.519	4768.55
935.827	4728.77
936.135	4703.92
936.443	4643.13
936.751	4650.81
937.059	4613.07
937.367	4604.48
937.674	4635.44
937.982	4587.31
938.29	4572.39
938.597	4561.09
938.905	4524.26
939.213	4515.9
939.52	4448.78
939.827	4525.62
940.135	4445.39
940.442	4435
940.749	4426.18
941.056	4415.11
941.363	4393.42
941.67	4375.11
941.977	4318.16
942.284	4319.07
942.591	4304.15
942.898	4280.88
943.205	4263.25
943.511	4271.38
943.818	4227.77
944.125	4151.16
944.431	4174.44
944.738	4163.59
945.044	4098.96
945.35	4131.28
945.657	4119.98
945.963	4104.84
946.269	4056.7
946.575	4044.72
946.881	4019.41
947.187	4066.64
947.493	4028
947.799	3990.04
948.105	3988.68
948.41	4005.86
948.716	3970.83
949.022	3934.67
949.327	3916.37
949.633	3836.59
949.938	3896.25
950.244	3867.78
950.549	3864.62
950.854	3789.82
951.16	3844.73
951.465	3754.11
951.77	3800.89
952.075	3786.88
952.38	3744.39
952.685	3790.72
952.99	3689.03
953.294	3698.74
953.599	3683.6
953.904	3668.69
954.209	3642.93
954.513	3638.86
954.818	3607
955.122	3612.65
955.426	3622.81
955.731	3558.18
956.035	3535.36
956.339	3543.49
956.643	3550.73
956.948	3541.01
957.252	3498.3
957.556	3522.03
957.86	3482.93
958.163	3473.21
958.467	3436.6
958.771	3468.47
959.075	3451.52
959.378	3438.86
959.682	3375.14
959.985	3355.02
960.289	3385.31
960.592	3335.59
960.896	3309.15
961.199	3303.5
961.502	3285.65
961.805	3266.44
962.108	3287
962.411	3218.98
962.714	3222.15
963.017	3231.41
963.32	3232.32
963.623	3226.44
963.926	3190.96
964.228	3207.01
964.531	3155.93
964.833	3147.8
965.136	3143.5
965.438	3118.19
965.741	3087.91
966.043	3100.57
966.345	3077.29
966.648	3091.3
966.95	3077.29
967.252	3034.36
967.554	3013.11
967.856	3012.89
968.158	3003.62
968.46	2997.29
968.761	3009.05
969.063	2964.75
969.365	2969.5
969.666	2976.28
969.968	2923.62
970.269	2916.84
970.571	2911.87
970.872	2896.73
971.174	2869.61
971.475	2876.17
971.776	2873
972.077	2834.59
972.378	2804.3
972.679	2814.02
972.98	2833.68
973.281	2761.82
973.582	2776.28
973.883	2788.71
974.183	2740.8
974.484	2746
974.785	2706
975.085	2726.34
975.386	2722.95
975.686	2692.9
975.986	2685.89
976.287	2693.12
976.587	2650.41
976.887	2654.7
977.187	2636.17
977.487	2625.33
977.787	2619
978.087	2645.44
978.387	2573.35
978.687	2555.27
978.987	2534.26
979.286	2536.29
979.586	2557.31
979.885	2509.4
980.185	2502.84
980.484	2518.66
980.784	2486.12
981.083	2494.93
981.382	2481.38
981.682	2475.05
981.981	2437.08
982.28	2460.13
982.579	2435.5
982.878	2450.19
983.177	2395.95
983.475	2407.25
983.774	2411.32
984.073	2411.09
984.372	2408.61
984.67	2388.95
984.969	2314.15
985.267	2350.31
985.566	2338.55
985.864	2334.03
986.162	2337.88
986.461	2323.64
986.759	2308.72
987.057	2265.56
987.355	2281.83
987.653	2253.36
987.951	2239.8
988.249	2270.99
988.547	2222.4
988.844	2211.1
989.142	2208.61
989.44	2214.26
989.737	2179.46
990.035	2187.37
990.332	2173.59
990.63	2159.8
990.927	2180.82
991.224	2121.84
991.521	2120.48
991.819	2099.46
992.116	2130.42
992.413	2113.93
992.71	2106.92
993.006	2066.02
993.303	2075.06
993.6	2073.7
993.897	2055.85
994.193	2035.06
994.49	2061.05
994.787	2018.11
995.083	2019.69
995.379	1982.63
995.676	1984.67
995.972	1990.09
996.268	1978.79
996.565	1971.11
996.861	1968.85
997.157	1941.05
997.453	1963.2
997.749	1931.56
998.044	1941.28
998.34	1924.55
998.636	1916.87
998.932	1913.03
999.227	1908.06
999.523	1864.22
999.818	1858.57
1000.114	1866.93
1000.409	1856.08
1000.704	1851.56
1001	1833.71
1001.295	1800.04
1001.59	1802.98
1001.885	1814.95
1002.18	1797.1
1002.475	1804.56
1002.77	1754.84
1003.065	1764.56
1003.359	1791.68
1003.654	1746.71
1003.949	1720.49
1004.243	1774.73
1004.538	1746.25
1004.832	1716.88
1005.127	1692.47
1005.421	1728.63
1005.715	1718.68
1006.009	1712.36
1006.304	1695.18
1006.598	1687.72
1006.892	1660.61
1007.186	1643.66
1007.48	1644.56
1007.773	1636.2
1008.067	1618.8
1008.361	1614.73
1008.655	1582.19
1008.948	1605.24
1009.242	1581.51
1009.535	1577.44
1009.829	1546.03
1010.122	1582.42
1010.415	1558.69
1010.708	1572.25
1011.001	1551.23
1011.295	1515.98
1011.588	1505.13
1011.881	1514.62
1012.173	1487.96
1012.466	1478.46
1012.759	1478.46
1013.052	1470.55
1013.344	1480.05
1013.637	1465.36
1013.93	1415.87
1014.222	1464
1014.514	1447.28
1014.807	1418.8
1015.099	1422.19
1015.391	1412.48
1015.683	1412.7
1015.976	1398.24
1016.268	1411.12
1016.56	1374.06
1016.851	1354.4
1017.143	1355.08
1017.435	1377.22
1017.727	1347.62
1018.018	1337.68
1018.31	1351.46
1018.602	1344.23
1018.893	1322.54
1019.185	1305.81
1019.476	1272.59
1019.767	1279.37
1020.058	1285.93
1020.35	1266.49
1020.641	1269.88
1020.932	1252.03
1021.223	1240.5
1021.514	1250.45
1021.804	1248.87
1022.095	1251.8
1022.386	1216.32
1022.677	1233.5
1022.967	1205.7
1023.258	1192.37
1023.548	1202.31
1023.839	1210.9
1024.129	1156.66
1024.419	1185.82
1024.709	1180.62
1025	1176.33
1025.29	1162.77
1025.58	1144.46
1025.87	1121.64
1026.16	1141.98
1026.449	1131.35
1026.739	1134.74
1027.029	1113.73
1027.319	1108.76
1027.608	1101.75
1027.898	1102.88
1028.187	1096.1
1028.477	1056.78
1028.766	1063.79
1029.055	1052.26
1029.344	1053.16
1029.634	1047.74
1029.923	1033.28
1030.212	1043.9
1030.501	1031.47
1030.79	1024.92
1031.078	1022.43
1031.367	1026.72
1031.656	1019.72
1031.945	995.76
1032.233	1008.42
1032.522	998.48
1032.81	977.23
1033.099	972.71
1033.387	985.14
1033.675	960.96
1033.963	953.73
1034.251	965.03
1034.54	953.73
1034.828	946.27
1035.116	929.55
1035.403	919.83
1035.691	928.42
1035.979	907.41
1036.267	917.57
1036.554	929.1
1036.842	908.08
1037.129	881.64
1037.417	860.4
1037.704	881.19
1037.992	884.36
1038.279	867.41
1038.566	883.45
1038.853	883.45
1039.14	883.45
