Data from hue_00_FLMS001491_100.txt Node
Date: Mon Feb 06 15:30:42 GMT 2017
User: dcchb
Spectrometer: FLMS00149
Trigger mode: 0
Integration Time (sec): 2.000000E-2
Scans to average: 10
Electric dark correction enabled: true
Nonlinearity correction enabled: false
Boxcar width: 0
XAxis mode: Wavelengths
Number of Pixels in Spectrum: 2048
>>>>>Begin Spectral Data<<<<<
341.393	-17.53
341.776	-17.53
342.16	-17.53
342.543	-67.47
342.927	-59.33
343.31	-66.57
343.693	-71.76
344.077	-70.41
344.46	-51.65
344.843	-47.36
345.226	-34.93
345.61	-22.27
345.993	-10.07
346.376	-10.97
346.759	16.6
347.142	14.11
347.525	20.44
347.908	48.91
348.291	69.48
348.674	112.19
349.057	104.28
349.44	113.77
349.823	130.26
350.206	156.93
350.588	179.98
350.971	201.22
351.354	222.24
351.737	233.99
352.119	248.68
352.502	245.97
352.884	257.49
353.267	278.74
353.65	298.85
354.032	290.94
354.414	301.56
354.797	313.99
355.179	310.37
355.562	327.77
355.944	314.21
356.326	328.23
356.709	324.16
357.091	318.96
357.473	323.71
357.855	326.64
358.238	343.37
358.62	325.51
359.002	323.71
359.384	328
359.766	340.43
360.148	324.16
360.53	330.71
360.912	326.42
361.294	353.76
361.676	316.02
362.057	339.3
362.439	325.29
362.821	304.72
363.203	306.53
363.584	318.06
363.966	334.78
364.348	316.47
364.729	329.13
365.111	303.59
365.493	326.87
365.874	295.46
366.256	309.7
366.637	318.51
367.019	306.31
367.4	319.19
367.781	309.92
368.163	311.73
368.544	301.79
368.925	314.89
369.306	318.51
369.688	304.72
370.069	298.4
370.45	298.85
370.831	322.58
371.212	312.63
371.593	295.23
371.974	310.83
372.355	288.9
372.736	287.77
373.117	331.84
373.498	298.17
373.879	312.18
374.26	298.85
374.641	327.32
375.021	323.71
375.402	298.62
375.783	319.41
376.163	318.96
376.544	313.99
376.925	333.2
377.305	310.83
377.686	299.53
378.066	316.47
378.447	320.99
378.827	323.25
379.208	331.84
379.588	318.28
379.968	330.26
380.349	303.59
380.729	316.02
381.109	335.91
381.489	317.38
381.87	333.65
382.25	323.93
382.63	336.14
383.01	315.57
383.39	336.81
383.77	332.29
384.15	336.36
384.53	329.58
384.91	356.47
385.29	339.07
385.67	313.08
386.049	340.65
386.429	347.89
386.809	344.95
387.189	335.91
387.568	334.78
387.948	333.88
388.328	347.21
388.707	353.08
389.087	337.04
389.466	351.28
389.846	349.47
390.225	336.59
390.605	357.15
390.984	347.66
391.363	351.5
391.743	344.95
392.122	356.25
392.501	351.05
392.881	371.39
393.26	352.63
393.639	360.09
394.018	352.18
394.397	361.9
394.776	348.56
395.155	365.29
395.534	368.45
395.913	393.53
396.292	370.26
396.671	387.66
397.05	384.72
397.429	361.45
397.808	361.45
398.186	372.29
398.565	376.36
398.944	375.91
399.323	373.65
399.701	395.79
400.08	368.68
400.458	402.12
400.837	418.39
401.215	381.11
401.594	389.92
401.972	404.38
402.351	390.6
402.729	406.42
403.107	410.94
403.486	372.29
403.864	393.76
404.242	391.5
404.62	405.74
404.999	400.99
405.377	386.53
405.755	399.64
406.133	389.92
406.511	400.09
406.889	411.61
407.267	424.27
407.645	408
408.023	420.2
408.401	436.02
408.779	434.66
409.156	421.56
409.534	442.12
409.912	423.82
410.29	419.3
410.667	431.95
411.045	423.14
411.422	423.59
411.8	452.97
412.178	460.88
412.555	456.36
412.933	455.45
413.31	459.07
413.687	467.21
414.065	466.98
414.442	453.87
414.819	440.09
415.197	462.01
415.574	479.86
415.951	485.06
416.328	467.21
416.705	463.59
417.082	475.79
417.46	484.83
417.837	496.81
418.214	482.57
418.591	496.58
418.967	498.62
419.344	501.78
419.721	478.73
420.098	504.49
420.475	509.46
420.852	477.37
421.228	506.75
421.605	513.31
421.982	512.85
422.358	515.34
422.735	529.8
423.111	524.6
423.488	537.71
423.864	532.51
424.241	540.2
424.617	546.98
424.994	554.89
425.37	546.07
425.746	544.04
426.123	563.7
426.499	544.49
426.875	567.99
427.251	557.6
427.627	573.19
428.003	560.99
428.379	567.99
428.756	547.2
429.132	567.54
429.507	586.07
429.883	579.07
430.259	594.89
430.635	601.89
431.011	593.53
431.387	611.83
431.763	610.7
432.138	632.17
432.514	616.13
432.89	631.95
433.265	664.04
433.641	645.28
434.016	639.18
434.392	636.47
434.767	644.6
435.143	677.37
435.518	625.17
435.894	650.03
436.269	647.31
436.644	674.66
437.02	648.22
437.395	664.04
437.77	683.7
438.145	681.21
438.52	727.76
438.895	691.38
439.271	696.8
439.646	740.87
440.021	736.35
440.395	730.02
440.77	722.34
441.145	715.33
441.52	731.83
441.895	737.71
442.27	717.59
442.645	737.03
443.019	749.91
443.394	764.37
443.769	751.49
444.143	761.43
444.518	738.16
444.892	754.43
445.267	789.91
445.641	790.36
446.016	776.35
446.39	784.03
446.764	767.31
447.139	771.83
447.513	767.54
447.887	792.62
448.262	786.97
448.636	796.01
449.01	818.83
449.384	823.58
449.758	826.97
450.132	831.49
450.506	827.87
450.88	834.88
451.254	822.9
451.628	845.27
452.002	840.53
452.376	867.87
452.75	850.92
453.123	862.45
453.497	858.16
453.871	876.91
454.244	891.83
454.618	877.14
454.992	904.26
455.365	908.78
455.739	910.36
456.112	916.46
456.486	913.52
456.859	923.24
457.232	952.62
457.606	960.3
457.979	956.01
458.352	977.47
458.725	995.78
459.099	1003.01
459.472	989.68
459.845	1015.67
460.218	998.04
460.591	1025.16
460.964	1025.61
461.337	1038.26
461.71	1083.91
462.083	1064.03
462.456	1098.6
462.829	1076
463.201	1078.49
463.574	1086.17
463.947	1105.61
464.32	1132.5
464.692	1128.66
465.065	1138.6
465.438	1177.7
465.81	1126.4
466.183	1168.43
466.555	1208.88
466.928	1221.76
467.3	1188.54
467.672	1218.82
468.045	1253.17
468.417	1260.86
468.789	1260.63
469.161	1271.7
469.534	1313.74
469.906	1309.67
470.278	1326.39
470.65	1337.92
471.022	1363.23
471.394	1377.01
471.766	1392.6
472.138	1420.17
472.51	1431.93
472.882	1440.74
473.253	1482.32
473.625	1494.97
473.997	1506.27
474.369	1532.94
474.74	1541.98
475.112	1582.66
475.484	1627.17
475.855	1607.51
476.227	1622.2
476.598	1700.62
476.97	1701.75
477.341	1716.89
477.713	1736.32
478.084	1772.71
478.455	1846.6
478.827	1827.4
479.198	1863.55
479.569	1900.39
479.94	1948.75
480.311	1956.88
480.682	1989.2
481.053	2033.04
481.424	2084.11
481.795	2097.22
482.166	2123.21
482.537	2181.06
482.908	2242.53
483.279	2223.09
483.65	2288.85
484.021	2318.46
484.391	2352.13
484.762	2374.27
485.133	2383.77
485.503	2443.88
485.874	2491.11
486.244	2507.38
486.615	2600.93
486.985	2627.83
487.356	2623.53
487.726	2645.68
488.097	2707.37
488.467	2719.58
488.837	2786.01
489.207	2806.35
489.578	2839.8
489.948	2877.99
490.318	2950.98
490.688	2942.39
491.058	3017.42
491.428	3046.57
491.798	3068.49
492.168	3128.38
492.538	3128.15
492.908	3208.38
493.278	3196.85
493.648	3220.13
494.017	3284.53
494.387	3290.86
494.757	3360.01
495.126	3383.51
495.496	3402.72
495.866	3458.76
496.235	3461.93
496.605	3503.74
496.974	3494.7
497.344	3549.61
497.713	3537.41
498.082	3559.33
498.452	3641.36
498.821	3675.71
499.19	3659.66
499.559	3700.34
499.928	3679.32
500.298	3732.88
500.667	3728.36
501.036	3754.58
501.405	3824.18
501.774	3819.21
502.143	3852.65
502.512	3911.18
502.88	3907.79
503.249	3952.31
503.618	3957.51
503.987	3991.41
504.356	4003.16
504.724	4030.73
505.093	4006.77
505.462	3983.04
505.83	4082.25
506.199	4138.97
506.567	4147.56
506.936	4166.99
507.304	4161.57
507.672	4187.56
508.041	4200.44
508.409	4236.6
508.777	4256.03
509.145	4263.49
509.514	4263.26
509.882	4315.69
510.25	4340.55
510.618	4342.13
510.986	4322.92
511.354	4386.42
511.722	4426.2
512.09	4444.05
512.458	4452.86
512.826	4460.32
513.193	4492.86
513.561	4499.87
513.929	4505.07
514.297	4548.23
514.664	4580.54
515.032	4572.18
515.4	4607.66
515.767	4653.54
516.135	4642.46
516.502	4612.63
516.869	4688.79
517.237	4687.43
517.604	4672.74
517.972	4723.82
518.339	4748.9
518.706	4787.77
519.073	4768.11
519.44	4799.52
519.808	4828.67
520.175	4820.99
520.542	4909.57
520.909	4862.8
521.276	4871.16
521.643	4910.93
522.009	4933.98
522.376	4914.32
522.743	5027.31
523.11	5043.13
523.477	5007.88
523.843	5067.08
524.21	5145.27
524.577	5186.18
524.943	5162.22
525.31	5204.93
525.676	5209.68
526.043	5256.46
526.409	5293.74
526.776	5345.95
527.142	5346.62
527.508	5356.12
527.874	5381.2
528.241	5404.93
528.607	5397.02
528.973	5489.22
529.339	5470.46
529.705	5477.69
530.071	5567.86
530.437	5601.31
530.803	5637.01
531.169	5617.58
531.535	5625.94
531.901	5698.71
532.267	5678.82
532.632	5701.19
532.998	5728.76
533.364	5799.49
533.73	5782.32
534.095	5803.79
534.461	5814.64
534.826	5841.3
535.192	5868.42
535.557	5932.37
535.923	5944.12
536.288	5964.01
536.653	6052.82
537.019	5952.71
537.384	5979.38
537.749	6066.38
538.114	6052.14
538.479	6068.19
538.845	6090.33
539.21	6068.41
539.575	6117.9
539.94	6156.32
540.305	6204.23
540.67	6164.91
541.034	6241.29
541.399	6250.56
541.764	6280.16
542.129	6379.82
542.494	6338.01
542.858	6409.42
543.223	6361.29
543.587	6445.58
543.952	6428.86
544.316	6467.27
544.681	6445.58
545.045	6480.61
545.41	6462.98
545.774	6503.2
546.138	6604.44
546.503	6598.8
546.867	6563.77
547.231	6696.19
547.595	6661.84
547.959	6759.92
548.324	6707.27
548.688	6754.95
549.052	6767.15
549.416	6836.08
549.779	6784.78
550.143	6862.74
550.507	6878.11
550.871	6862.52
551.235	6860.26
551.599	6911.78
551.962	6943.42
552.326	6917.88
552.689	7011.67
553.053	7062.06
553.417	7037.2
553.78	7073.36
554.143	7052.34
554.507	7077.88
554.87	7148.61
555.234	7161.27
555.597	7149.74
555.96	7177.99
556.323	7117.2
556.686	7158.1
557.05	7210.08
557.413	7325.33
557.776	7320.36
558.139	7332.79
558.502	7322.17
558.865	7337.53
559.228	7410.53
559.59	7408.27
559.953	7432.45
560.316	7490.98
560.679	7482.61
561.041	7523.97
561.404	7558.54
561.767	7609.39
562.129	7543.4
562.492	7617.3
562.854	7696.62
563.217	7737.52
563.579	7673.34
563.941	7810.29
564.304	7808.26
564.666	7805.09
565.028	7806.67
565.39	7843.96
565.753	7911.98
566.115	7864.75
566.477	7901.59
566.839	7987.01
567.201	7967.12
567.563	8036.5
567.925	8079.21
568.287	8115.82
568.648	8147.23
569.01	8181.13
569.372	8170.28
569.734	8122.37
570.095	8273.55
570.457	8307
570.819	8301.12
571.18	8309.94
571.542	8379.31
571.903	8414.34
572.265	8542.7
572.626	8482.14
572.987	8544.73
573.349	8570.04
573.71	8615.47
574.071	8684.62
574.432	8683.71
574.794	8789.25
575.155	8790.83
575.516	8855.46
575.877	8925.29
576.238	8979.07
576.599	9018.84
576.96	9071.5
577.32	9132.06
577.681	9186.52
578.042	9325.96
578.403	9374.77
578.763	9381.55
579.124	9527.98
579.485	9603.24
579.845	9725.94
580.206	9792.16
580.566	9911.25
580.927	10000.29
581.287	10019.72
581.648	10159.15
582.008	10387.62
582.368	10475.76
582.728	10494.74
583.089	10539.71
583.449	10812.24
583.809	10904.9
584.169	11086.81
584.529	11185.34
584.889	11428.5
585.249	11462.85
585.609	11623.07
585.969	11898.77
586.329	12060.12
586.688	12237.97
587.048	12432.54
587.408	12560.22
587.768	12723.61
588.127	12966.54
588.487	13145.97
588.846	13519.52
589.206	13549.12
589.565	13828.89
589.925	14108.43
590.284	14331.7
590.643	14530.34
591.003	14823.66
591.362	15081.28
591.721	15206.48
592.08	15479.01
592.44	15735.28
592.799	15980.7
593.158	16253.91
593.517	16507.24
593.876	16787
594.235	16975.92
594.593	17259.76
594.952	17564.16
595.311	17815.22
595.67	17990.59
596.029	18319.62
596.387	18705.82
596.746	19033.95
597.104	19215.64
597.463	19380.61
597.822	19790.54
598.18	19957.99
598.538	20227.14
598.897	20546.45
599.255	20671.65
599.613	21266.66
599.972	21328.58
600.33	21617.38
600.688	21794.1
601.046	22230.93
601.404	22458.49
601.762	22602.67
602.12	23071.13
602.478	23221.86
602.836	23434.06
603.194	23562.19
603.552	23789.98
603.91	23960.15
604.268	24286.47
604.625	24527.82
604.983	24906.11
605.341	24864.3
605.698	25289.15
606.056	25518.98
606.413	25700.89
606.771	25962.35
607.128	26299.75
607.485	26378.84
607.843	26621.77
608.2	27046.62
608.557	27280.06
608.914	27305.6
609.272	27660.61
609.629	27811.57
609.986	28093.6
610.343	28221.5
610.7	28620.36
611.057	28761.38
611.414	28875.05
611.771	29020.58
612.127	29290.63
612.484	29419.44
612.841	29571.07
613.198	29705.08
613.554	29814.91
613.911	30124.73
614.267	30270.26
614.624	30348.68
614.98	30643.81
615.337	30874.54
615.693	30931.49
616.05	31032.05
616.406	31352.72
616.762	31180.07
617.118	31421.19
617.475	31480.63
617.831	31726.27
618.187	31961.07
618.543	32019.14
618.899	32250.55
619.255	32429.3
619.611	32605.34
619.967	32598.34
620.323	32870.65
620.678	32725.34
621.034	32824.77
621.39	32950.87
621.746	33034.48
622.101	33455.94
622.457	33373.01
622.812	33507.92
623.168	33581.36
623.523	33621.36
623.879	33748.59
624.234	33582.27
624.589	33774.35
624.945	33909.49
625.3	33955.14
625.655	34078.75
626.01	34152.87
626.365	34231.97
626.72	34238.07
627.075	34292.76
627.43	34388.12
627.785	34446.2
628.14	34447.1
628.495	34692.52
628.85	34564.39
629.205	34528
629.559	34872.18
629.914	34638.74
630.269	34748.79
630.623	34713.31
630.978	34705.63
631.332	34875.11
631.687	35117.37
632.041	34837.83
632.396	34845.28
632.75	34905.17
633.104	34910.14
633.459	34801.44
633.813	34847.09
634.167	34890.48
634.521	34930.71
634.875	34879.18
635.229	35003.02
635.583	34791.95
635.937	34872.4
636.291	34965.96
636.645	35012.06
636.999	34903.81
637.352	35089.8
637.706	34936.13
638.06	35059.97
638.413	34928.9
638.767	34820.65
639.121	34982.68
639.474	34804.83
639.828	34837.15
640.181	34871.27
640.534	35055.45
640.888	34759.64
641.241	34702.69
641.594	34881.89
641.947	34971.83
642.301	34887.09
642.654	34965.73
643.007	34794.44
643.36	34919.63
643.713	34751.95
644.066	34927.77
644.419	34809.81
644.771	34514.45
645.124	34309.93
645.477	34260.21
645.83	34050.28
646.182	33996.27
646.535	33794.01
646.888	33806.44
647.24	33640.34
647.593	33900.22
647.945	33849.6
648.298	33714.01
648.65	33569.39
649.002	33532.1
649.355	33714.69
649.707	33638.08
650.059	33664.07
650.411	34129.82
650.763	34242.81
651.115	34521
651.467	34353.77
651.819	34482.58
652.171	34397.61
652.523	34283.94
652.875	34264.28
653.227	34237.62
653.578	34356.48
653.93	34328.46
654.282	34223.83
654.633	34205.75
654.985	34264.06
655.337	34257.05
655.688	34224.74
656.039	34341.12
656.391	34115.13
656.742	34161.46
657.094	34053.44
657.445	34340.66
657.796	34105.19
658.147	34151.52
658.498	34037.4
658.849	34278.29
659.2	34161.46
659.551	34005.08
659.902	34144.51
660.253	34066.55
660.604	34227.22
660.955	33956.95
661.306	34152.87
661.656	33891.86
662.007	34027.68
662.358	33905.65
662.708	33966.21
663.059	34057.96
663.409	33845.76
663.76	34043.5
664.11	34045.98
664.461	34081.24
664.811	34055.25
665.161	34011.18
665.511	33938.19
665.862	33956.95
666.212	34108.81
666.562	34053.67
666.912	33947.91
667.262	34038.98
667.612	34004.4
667.962	34042.82
668.312	33796.72
668.662	34081.24
669.011	33892.32
669.361	33843.05
669.711	33895.25
670.06	33766.67
670.41	33766.89
670.76	33756.73
671.109	33838.31
671.459	33792.43
671.808	33726.22
672.157	33788.81
672.507	33582.27
672.856	33728.7
673.205	33692.77
673.554	33861.36
673.904	33714.69
674.253	33991.52
674.602	33811.87
674.951	33234.48
675.3	33163.75
675.649	33608.48
675.998	33546.56
676.346	33765.76
676.695	33712.43
677.044	33549.05
677.393	33540.91
677.741	33565.09
678.09	33579.78
678.438	33435.15
678.787	33567.58
679.135	33535.49
679.484	33206.91
679.832	33408.03
680.181	33221.15
680.529	33300.92
680.877	33214.59
681.225	33148.15
681.573	33252.78
681.922	33123.07
682.27	33007.59
682.618	33007.59
682.966	33053.69
683.314	33118.1
683.661	32946.58
684.009	32758.79
684.357	32768.28
684.705	32721.05
685.053	32673.14
685.4	32746.58
685.748	32538.68
686.095	32587.04
686.443	32423.65
686.79	32480.83
687.138	32428.85
687.485	32426.59
687.832	32282.64
688.18	32236.77
688.527	32137.33
688.874	32119.48
689.221	31964
689.568	32019.14
689.915	31982.76
690.262	31938.24
690.609	31806.72
690.956	31649.89
691.303	31746.38
691.65	31557.24
691.997	31420.06
692.344	31266.85
692.69	31325.83
693.037	31302.1
693.383	31098.94
693.73	31183.01
694.077	30951.6
694.423	30991.6
694.769	30885.39
695.116	30811.04
695.462	30841.77
695.808	30790.48
696.155	30748.44
696.501	30558.62
696.847	30549.8
697.193	30422.8
697.539	30484.27
697.885	30231.39
698.231	30158.18
698.577	30096.03
698.923	30124.5
699.269	29932.65
699.614	29883.15
699.96	29835.02
700.306	29729.71
700.651	29706.66
700.997	29454.24
701.342	29501.92
701.688	29534.69
702.033	29484.07
702.379	29231.42
702.724	29294.47
703.069	29343.06
703.415	28905.78
703.76	28972.44
704.105	29027.58
704.45	28999.56
704.795	28910.98
705.14	28740.13
705.485	28746.01
705.83	28576.07
706.175	28575.84
706.52	28571.55
706.865	28515.73
707.209	28330.88
707.554	28430.54
707.899	28420.82
708.243	28238.45
708.588	28254.27
708.932	28038.01
709.277	27886.37
709.621	28026.25
709.966	27772.02
710.31	27887.73
710.654	27653.84
710.998	27492.71
711.342	27612.93
711.687	27556.21
712.031	27421.3
712.375	27294.52
712.719	27481.64
713.063	27323.9
713.407	27358.25
713.75	27258.14
714.094	27216.78
714.438	27012.72
714.782	27040.52
715.125	27040.07
715.469	26974.08
715.812	26850.47
716.156	26677.59
716.499	26814.99
716.843	26716.01
717.186	26647.99
717.53	26749.23
717.873	26674.88
718.216	26648.66
718.559	26618.83
718.902	26420.87
719.246	26562.79
719.589	26342.23
719.932	26223.59
720.275	26296.58
720.617	26222.69
720.96	26219.75
721.303	26304.94
721.646	26133.87
721.989	26077.61
722.331	26113.31
722.674	26045.29
723.016	25934.33
723.359	26017.04
723.701	26001
724.044	25725.75
724.386	25716.94
724.729	25755.35
725.071	25688.91
725.413	25664.28
725.755	25692.53
726.097	25508.13
726.439	25496.15
726.782	25505.64
727.124	25549.48
727.465	25424.97
727.807	25382.71
728.149	25308.36
728.491	25227.46
728.833	25312.88
729.175	25157.86
729.516	25122.6
729.858	25087.12
730.199	25175.71
730.541	25017.97
730.882	25005.32
731.224	25055.94
731.565	24885.32
731.906	25002.61
732.248	24940.91
732.589	24726.68
732.93	24730.75
733.271	24708.38
733.612	24785.66
733.953	24774.81
734.294	24625.44
734.635	24553.58
734.976	24690.52
735.317	24603.97
735.658	24571.66
735.999	24561.49
736.339	24502.51
736.68	24521.71
737.021	24440.81
737.361	24240.37
737.702	24408.04
738.042	24402.62
738.383	24211.21
738.723	24368.05
739.063	24235.39
739.404	24250.08
739.744	24142.74
740.084	24086.92
740.424	24118.33
740.764	24019.81
741.104	24093.48
741.444	24005.8
741.784	24003.99
742.124	24016.19
742.464	23919.47
742.804	23900.49
743.143	23824.78
743.483	23768.51
743.823	23726.03
744.162	23715.63
744.502	23648.97
744.841	23611.46
745.181	23699.81
745.52	23602.64
745.86	23617.56
746.199	23575.52
746.538	23579.82
746.877	23631.79
747.216	23493.27
747.556	23445.81
747.895	23576.43
748.234	23359.26
748.573	23285.36
748.911	23382.31
749.25	23325.81
749.589	23173.5
749.928	23193.84
750.267	23180.28
750.605	23161.07
750.944	23094.41
751.283	22990.91
751.621	23053.96
751.96	22887.63
752.298	22927.41
752.636	22822.78
752.975	22714.98
753.313	22677.47
753.651	22787.52
753.989	22646.74
754.327	22694.19
754.666	22471.15
755.004	22670.69
755.342	22564.93
755.679	22517.47
756.017	22345.05
756.355	22432.05
756.693	22336.01
757.031	22394.54
757.368	22031.38
757.706	22160.19
758.044	22042.01
758.381	22085.62
758.719	22083.81
759.056	22065.28
759.394	21990.03
759.731	21920.88
760.068	21747.32
760.405	21801.79
760.743	21655.35
761.08	21739.87
761.417	21558.63
761.754	21520.21
762.091	21498.06
762.428	21404.96
762.765	21253.1
763.102	21315.24
763.438	21207.22
763.775	21074.57
764.112	21237.05
764.449	21128.13
764.785	21021.92
765.122	20915.48
765.458	20850.4
765.795	20777.18
766.131	20777.18
766.467	20695.15
766.804	20625.55
767.14	20576.73
767.476	20506.68
767.812	20355.72
768.148	20434.36
768.485	20254.48
768.821	20160.7
769.157	20172.9
769.492	20233.92
769.828	20064.88
770.164	19895.39
770.5	20005.45
770.836	19867.15
771.171	19667.15
771.507	19738.56
771.842	19549.19
772.178	19556.65
772.513	19482.98
772.849	19517.78
773.184	19369.08
773.519	19414.5
773.855	19262.42
774.19	19200.5
774.525	19120.05
774.86	19126.15
775.195	19135.19
775.53	19004.57
775.865	18823.78
776.2	18861.98
776.535	18657.69
776.87	18612.94
777.205	18531.36
777.539	18514.64
777.874	18570.01
778.209	18370.69
778.543	18338.83
778.878	18164.59
779.212	18178.6
779.547	18113.07
779.881	18148.32
780.215	17901.1
780.55	17953.3
780.884	17862.68
781.218	17769.35
781.552	17773.42
781.886	17691.84
782.22	17650.26
782.554	17559.41
782.888	17373.2
783.222	17397.83
783.556	17346.08
783.889	17237.16
784.223	17102.02
784.557	17170.27
784.89	17208.69
785.224	17034.91
785.557	16968.69
785.891	16896.6
786.224	16774.12
786.558	16831.97
786.891	16628.81
787.224	16684.18
787.557	16668.36
787.891	16551.98
788.224	16524.18
788.557	16529.38
788.89	16347.92
789.223	16410.29
789.556	16277.64
789.888	16260.91
790.221	16167.13
790.554	16076.06
790.887	16077.19
791.219	15906.35
791.552	15951.32
791.884	15835.39
792.217	15800.14
792.549	15734.37
792.882	15684.43
793.214	15605.11
793.546	15635.62
793.879	15566.7
794.211	15439.69
794.543	15565.57
794.875	15444.89
795.207	15497.32
795.539	15239.7
795.871	15354.72
796.203	15121.96
796.535	15066.14
796.867	15068.4
797.198	15048.74
797.53	15065.24
797.862	14936.43
798.193	14891.46
798.525	14901.18
798.856	14878.13
799.188	14736.66
799.519	14659.37
799.85	14599.26
800.182	14581.18
800.513	14594.52
800.844	14473.84
801.175	14532.15
801.506	14515.2
801.837	14377.8
802.168	14406.5
802.499	14279.5
802.83	14203.34
803.161	14228.43
803.491	14144.36
803.822	14191.59
804.153	14136.68
804.483	13996.79
804.814	13932.61
805.145	13935.33
805.475	13964.25
805.805	13905.95
806.136	13941.2
806.466	13796.35
806.796	13853.97
807.126	13717.48
807.457	13632.96
807.787	13668.44
808.117	13611.49
808.447	13530.59
808.777	13646.75
809.107	13585.28
809.436	13435.9
809.766	13559.97
810.096	13441.33
810.426	13378.05
810.755	13348.67
811.085	13338.28
811.414	13279.52
811.744	13171.28
812.073	13160.2
812.403	13083.6
812.732	13079.3
813.061	13079.75
813.39	12992.07
813.719	12990.49
814.049	13042.24
814.378	12941
814.707	12941.68
815.036	12995.92
815.365	12851.74
815.693	12714.79
816.022	12716.37
816.351	12732.65
816.68	12598.19
817.008	12623.27
817.337	12582.82
817.665	12493.56
817.994	12608.13
818.322	12536.94
818.651	12537.85
818.979	12429.15
819.307	12506.21
819.636	12450.84
819.964	12303.5
820.292	12461.92
820.62	12345.09
820.948	12357.74
821.276	12373.33
821.604	12360.68
821.932	12310.51
822.259	12314.8
822.587	12281.81
822.915	12243.17
823.243	12340.11
823.57	12320.68
823.898	12273.9
824.225	12281.13
824.553	12272.32
824.88	12253.34
825.207	12264.64
825.535	12255.6
825.862	12297.4
826.189	12170.4
826.516	12211.53
826.843	12323.39
827.17	12319.55
827.497	12319.55
827.824	12330.4
828.151	12323.16
828.478	12174.02
828.805	12294.92
829.131	12317.06
829.458	12225.77
829.785	12159.33
830.111	12211.53
830.438	12207.91
830.764	12250.85
831.09	12277.97
831.417	12155.71
831.743	12273
832.069	12163.85
832.395	12170.17
832.722	12240
833.048	12130.4
833.374	12172.89
833.7	12086.11
834.026	12100.12
834.351	12178.08
834.677	12080.91
835.003	12141.7
835.329	12158.65
835.654	12045.21
835.98	12072.1
836.306	12017.41
836.631	11984.42
836.956	12092.21
837.282	11996.17
837.607	11890.41
837.932	11888.15
838.258	11877.07
838.583	11965.89
838.908	11863.97
839.233	11820.81
839.558	11867.58
839.883	11789.85
840.208	11744.65
840.533	11803.4
840.858	11764.76
841.182	11766.8
841.507	11761.15
841.832	11618.78
842.156	11652.45
842.481	11638.89
842.805	11626.69
843.13	11482.96
843.454	11491.32
843.778	11463.3
844.103	11448.84
844.427	11509.63
844.751	11487.03
845.075	11365.22
845.399	11359.8
845.723	11339.24
846.047	11361.16
846.371	11238.22
846.695	11261.27
847.019	11127.26
847.343	11129.3
847.666	11013.37
847.99	11066.02
848.313	10997.1
848.637	10965.23
848.96	10915.29
849.284	10937.44
849.607	10787.61
849.931	10788.06
850.254	10679.82
850.577	10673.26
850.9	10580.16
851.223	10587.39
851.546	10569.31
851.869	10478.47
852.192	10532.93
852.515	10413.38
852.838	10425.81
853.161	10386.94
853.483	10278.47
853.806	10279.6
854.129	10242.54
854.451	10231.92
854.774	10125.93
855.096	10192.83
855.419	10150.34
855.741	10106.05
856.063	10037.8
856.385	10038.48
856.708	9986.95
857.03	9938.82
857.352	9892.04
857.674	9939.05
857.996	9938.14
858.318	9865.6
858.64	9819.28
858.961	9775.44
859.283	9759.39
859.605	9720.3
859.926	9726.4
860.248	9646.17
860.57	9660.41
860.891	9677.13
861.212	9571.37
861.534	9579.28
861.855	9578.83
862.176	9545.84
862.498	9579.51
862.819	9521.43
863.14	9485.27
863.461	9451.6
863.782	9451.15
864.103	9439.17
864.424	9397.14
864.745	9470.81
865.065	9357.14
865.386	9349.01
865.707	9342
866.027	9283.7
866.348	9275.11
866.668	9281.89
866.989	9291.61
867.309	9209.8
867.63	9291.61
867.95	9233.98
868.27	9211.16
868.59	9214.77
868.91	9186.75
869.23	9169.58
869.55	9151.95
869.87	9124.6
870.19	9089.35
870.51	9132.74
870.83	9099.97
871.15	9092.52
871.469	9039.86
871.789	9020.88
872.109	9062.91
872.428	9037.15
872.748	9026.08
873.067	8943.14
873.386	8956.7
873.706	8996.7
874.025	8924.61
874.344	8879.87
874.663	8914.67
874.982	8873.54
875.301	8917.15
875.62	8838.96
875.939	8809.81
876.258	8820.88
876.577	8762.13
876.896	8758.74
877.214	8841
877.533	8768.68
877.852	8761.45
878.17	8762.13
878.489	8778.17
878.807	8653.66
879.125	8707.67
879.444	8782.92
879.762	8675.58
880.08	8676.71
880.398	8661.34
880.716	8649.14
881.034	8560.55
881.352	8645.07
881.67	8608.69
881.988	8551.51
882.306	8619.53
882.624	8534.11
882.941	8456.15
883.259	8503.15
883.577	8415.02
883.894	8437.17
884.212	8384.51
884.529	8416.6
884.846	8341.8
885.164	8394
885.481	8391.52
885.798	8384.51
886.115	8286.89
886.432	8314
886.75	8320.78
887.067	8223.61
887.383	8166.89
887.7	8221.8
888.017	8153.33
888.334	8171.86
888.651	8135.03
888.967	8142.48
889.284	8137.74
889.6	8054.35
889.917	8036.72
890.233	7970.51
890.55	8037.85
890.866	8027.68
891.182	7926.67
891.498	7898.2
891.815	7863.62
892.131	7925.54
892.447	7814.58
892.763	7817.29
893.079	7798.54
893.395	7823.17
893.71	7789.05
894.026	7786.79
894.342	7737.75
894.657	7692.33
894.973	7695.26
895.289	7634.47
895.604	7733.91
895.92	7580.24
896.235	7605.32
896.55	7546.57
896.865	7547.7
897.181	7471.77
897.496	7518.55
897.811	7540.92
898.126	7417.08
898.441	7364.65
898.756	7376.85
899.071	7339.11
899.386	7387.25
899.7	7295.27
900.015	7271.55
900.33	7239
900.644	7202.62
900.959	7230.87
901.273	7130.53
901.588	7132.79
901.902	7089.63
902.216	7081.04
902.531	7134.6
902.845	7043.53
903.159	7065.68
903.473	6986.13
903.787	6951.55
904.101	6945.45
904.415	6909.97
904.729	6885.57
905.042	6873.82
905.356	6844.66
905.67	6862.07
905.984	6810.77
906.297	6825.46
906.611	6743.42
906.924	6731.22
907.237	6729.19
907.551	6706.59
907.864	6669.08
908.177	6656.42
908.491	6609.64
908.804	6549.08
909.117	6525.13
909.43	6503.2
909.743	6473.83
910.056	6457.1
910.368	6485.8
910.681	6437.44
910.994	6385.69
911.307	6347.05
911.619	6300.72
911.932	6355.19
912.244	6286.94
912.557	6248.75
912.869	6267.5
913.181	6173.5
913.494	6190.67
913.806	6158.36
914.118	6171.91
914.43	6099.83
914.742	6075.42
915.054	6051.24
915.366	5993.61
915.678	6001.75
915.99	6012.6
916.302	5928.98
916.613	5900.06
916.925	5910.45
917.236	5944.8
917.548	5851.7
917.859	5902.54
918.171	5806.27
918.482	5720.17
918.794	5783.45
919.105	5755.65
919.416	5677.46
919.727	5711.36
920.038	5710.46
920.349	5637.01
920.66	5588.65
920.971	5590.01
921.282	5616.9
921.593	5555.66
921.903	5522.44
922.214	5485.38
922.525	5489.9
922.835	5528.09
923.146	5436.11
923.456	5450.13
923.767	5385.49
924.077	5381.88
924.387	5406.74
924.697	5308.89
925.008	5309.79
925.318	5313.18
925.628	5301.2
925.938	5276.12
926.248	5225.27
926.558	5209
926.867	5199.28
927.177	5140.75
927.487	5144.82
927.796	5105.05
928.106	5086.97
928.416	5059.63
928.725	5021.44
929.034	5012.17
929.344	5057.59
929.653	5022.79
929.962	4980.53
930.271	4974.66
930.581	4945.51
930.89	4877.03
931.199	4856.69
931.508	4883.13
931.817	4854.66
932.125	4819.63
932.434	4839.52
932.743	4773.76
933.051	4784.15
933.36	4769.01
933.669	4724.72
933.977	4720.2
934.286	4689.92
934.594	4687.43
934.902	4641.56
935.21	4679.3
935.519	4620.77
935.827	4570.37
936.135	4577.61
936.443	4532.18
936.751	4539.87
937.059	4517.95
937.367	4464.84
937.674	4480.21
937.982	4420.1
938.29	4431.85
938.597	4427.1
938.905	4401.57
939.213	4404.95
939.52	4331.96
939.827	4352.53
940.135	4369.02
940.442	4314.11
940.749	4274.34
941.056	4312.08
941.363	4252.19
941.67	4223.04
941.977	4225.98
942.284	4171.74
942.591	4202.93
942.898	4173.32
943.205	4191.4
943.511	4123.83
943.818	4096.94
944.125	4097.84
944.431	4074.79
944.738	4046.09
945.044	4058.98
945.35	4019.88
945.657	4003.84
945.963	4009.94
946.269	3924.97
946.575	3953.44
946.881	3956.61
947.187	3948.92
947.493	3904.4
947.799	3869.15
948.105	3905.31
948.41	3835.48
948.716	3858.53
949.022	3805.42
949.327	3816.5
949.633	3741.47
949.938	3769.49
950.244	3775.14
950.549	3715.03
950.854	3705.99
951.16	3723.84
951.465	3685.43
951.77	3672.09
952.075	3728.36
952.38	3637.52
952.685	3656.5
952.99	3605.2
953.294	3624.86
953.599	3546.45
953.904	3578.08
954.209	3557.97
954.513	3571.98
954.818	3548.03
955.122	3528.59
955.426	3516.84
955.731	3433.91
956.035	3494.92
956.339	3480.46
956.643	3493.34
956.948	3391.2
957.252	3393.91
957.556	3403.85
957.86	3384.87
958.163	3386.68
958.467	3373.34
958.771	3356.62
959.075	3318.66
959.378	3285.89
959.682	3245.21
959.985	3313.23
960.289	3281.37
960.592	3251.31
960.896	3273.46
961.199	3228.04
961.502	3206.34
961.805	3198.43
962.108	3164.08
962.411	3183.29
962.714	3147.59
963.017	3154.82
963.32	3169.28
963.623	3112.79
963.926	3134.93
964.228	3110.75
964.531	3072.79
964.833	3061.94
965.136	3041.37
965.438	3022.39
965.741	3040.47
966.043	3034.14
966.345	3015.61
966.648	3006.8
966.95	2986.01
967.252	2963.18
967.554	2951.66
967.856	2924.54
968.158	2934.26
968.46	2941.72
968.761	2903.98
969.063	2876.63
969.365	2849.29
969.666	2844.32
969.968	2884.32
970.269	2824.66
970.571	2832.79
970.872	2810.42
971.174	2812.68
971.475	2818.56
971.776	2762.51
972.077	2743.08
972.378	2748.95
972.679	2752.34
972.98	2755.51
973.281	2715.06
973.582	2753.92
973.883	2670.54
974.183	2694.04
974.484	2668.28
974.785	2660.14
975.085	2673.25
975.386	2668.5
975.686	2668.05
975.986	2615.62
976.287	2633.93
976.587	2581.05
976.887	2608.39
977.187	2591.22
977.487	2597.09
977.787	2549.64
978.087	2550.54
978.387	2564.78
978.687	2539.47
978.987	2507.38
979.286	2480.03
979.586	2509.86
979.885	2424.22
980.185	2462.41
980.484	2444.1
980.784	2461.96
981.083	2438.9
981.382	2431
981.682	2407.04
981.981	2396.87
982.28	2413.14
982.579	2365.23
982.878	2393.71
983.177	2362.07
983.475	2343.31
983.774	2350.77
984.073	2345.35
984.372	2323.88
984.67	2340.6
984.969	2306.93
985.267	2312.81
985.566	2309.19
985.864	2271.23
986.162	2245.92
986.461	2223.54
986.759	2233.94
987.057	2229.64
987.355	2200.72
987.653	2186.03
987.951	2209.53
988.249	2199.36
988.547	2203.66
988.844	2199.36
989.142	2144.68
989.44	2138.12
989.737	2136.31
990.035	2139.7
990.332	2107.39
990.63	2148.52
990.927	2123.66
991.224	2094.51
991.521	2106.48
991.819	2056.99
992.116	2067.39
992.413	2068.07
992.71	2044.11
993.006	2066.49
993.303	2053.83
993.6	2046.82
993.897	2048.41
994.193	2024.23
994.49	2001.85
994.787	2025.13
995.083	1976.77
995.379	1968.86
995.676	1969.54
995.972	1951.91
996.268	1947.17
996.565	1948.75
996.861	1912.59
997.157	1916.66
997.453	1901.97
997.749	1887.05
998.044	1867.39
998.34	1906.04
998.636	1869.65
998.932	1854.29
999.227	1869.88
999.523	1856.1
999.818	1821.97
1000.114	1833.05
1000.409	1796.44
1000.704	1796.66
1001	1783.1
1001.295	1777.68
1001.59	1771.58
1001.885	1789.66
1002.18	1748.53
1002.475	1756.66
1002.77	1778.36
1003.065	1727.29
1003.359	1742.65
1003.654	1729.77
1003.949	1696.33
1004.243	1697.68
1004.538	1718.25
1004.832	1698.36
1005.127	1655.65
1005.421	1665.82
1005.715	1655.87
1006.009	1649.55
1006.304	1636.67
1006.598	1658.36
1006.892	1606.16
1007.186	1607.51
1007.48	1605.93
1007.773	1582.88
1008.067	1561.64
1008.361	1570.23
1008.655	1582.43
1008.948	1576.33
1009.242	1531.13
1009.535	1523.9
1009.829	1555.09
1010.122	1516.9
1010.415	1497.91
1010.708	1509.66
1011.001	1495.2
1011.295	1486.61
1011.588	1479.16
1011.881	1490
1012.173	1495.43
1012.466	1487.07
1012.759	1450.46
1013.052	1447.29
1013.344	1417.69
1013.637	1447.74
1013.93	1414.07
1014.222	1417.46
1014.514	1384.47
1014.807	1398.71
1015.099	1392.83
1015.391	1394.41
1015.683	1388.99
1015.976	1381.76
1016.268	1345.83
1016.56	1353.74
1016.851	1326.17
1017.143	1362.77
1017.435	1329.56
1017.727	1318.26
1018.018	1316.67
1018.31	1290.46
1018.602	1286.39
1018.893	1294.98
1019.185	1285.94
1019.476	1261.08
1019.767	1242.55
1020.058	1251.82
1020.35	1267.86
1020.641	1248.43
1020.932	1257.69
1021.223	1209.33
1021.514	1214.53
1021.804	1215.21
1022.095	1202.33
1022.386	1186.06
1022.677	1180.18
1022.967	1174.53
1023.258	1172.72
1023.548	1147.64
1023.839	1157.58
1024.129	1163.46
1024.419	1156
1024.709	1157.58
1025	1149
1025.29	1101.76
1025.58	1108.09
1025.87	1080.52
1026.16	1107.19
1026.449	1105.61
1026.739	1067.42
1027.029	1068.77
1027.319	1069.68
1027.608	1064.93
1027.898	1065.16
1028.187	1052.95
1028.477	1059.51
1028.766	1021.77
1029.055	1054.99
1029.344	1043.69
1029.634	1021.09
1029.923	1013.63
1030.212	1012.05
1030.501	1017.47
1030.79	975.89
1031.078	1004.14
1031.367	988.77
1031.656	1008.21
1031.945	978.6
1032.233	974.08
1032.522	945.38
1032.81	953.75
1033.099	968.89
1033.387	950.81
1033.675	950.58
1033.963	913.52
1034.251	922.33
1034.54	927.31
1034.828	929.11
1035.116	922.79
1035.403	913.07
1035.691	932.28
1035.979	903.58
1036.267	895.44
1036.554	897.48
1036.842	864.93
1037.129	902.67
1037.417	879.17
1037.704	867.42
1037.992	850.7
1038.279	852.96
1038.566	857.93
1038.853	857.93
1039.14	857.93
