Data from hue_22_FLMS001491_00009.txt Node
Date: Tue Feb 07 17:09:25 GMT 2017
User: dcchb
Spectrometer: FLMS00149
Trigger mode: 0
Integration Time (sec): 2.000000E-2
Scans to average: 10
Electric dark correction enabled: true
Nonlinearity correction enabled: false
Boxcar width: 0
XAxis mode: Wavelengths
Number of Pixels in Spectrum: 2048
>>>>>Begin Spectral Data<<<<<
341.393	-10.47
341.776	-10.47
342.16	-10.47
342.543	-65.15
342.927	-70.8
343.31	-52.95
343.693	-77.36
344.077	-66.51
344.46	-52.05
344.843	-44.14
345.226	-47.75
345.61	-43.69
345.993	-19.28
346.376	0.16
346.759	4.45
347.142	18.69
347.525	27.05
347.908	79.02
348.291	76.09
348.674	84.22
349.057	114.05
349.44	126.93
349.823	144.78
350.206	168.29
350.588	193.82
350.971	202.41
351.354	218.23
351.737	227.04
352.119	248.96
352.502	264.1
352.884	271.11
353.267	257.78
353.65	298.45
354.032	301.16
354.414	291.45
354.797	310.88
355.179	313.37
355.562	312.24
355.944	319.24
356.326	322.63
356.709	341.16
357.091	331.9
357.473	323.76
357.855	326.02
358.238	337.1
358.62	345.68
359.002	338.45
359.384	360.37
359.766	340.49
360.148	341.84
360.53	347.49
360.912	330.54
361.294	326.02
361.676	330.99
362.057	351.11
362.439	328.28
362.821	320.6
363.203	300.71
363.584	317.21
363.966	360.15
364.348	326.47
364.729	340.03
365.111	310.43
365.493	310.43
365.874	306.14
366.256	347.72
366.637	292.58
367.019	324.21
367.4	318.34
367.781	300.26
368.163	319.24
368.544	312.92
368.925	322.86
369.306	315.85
369.688	308.62
370.069	332.35
370.45	310.2
370.831	329.86
371.212	316.31
371.593	309.3
371.974	328.28
372.355	309.75
372.736	324.44
373.117	312.46
373.498	326.7
373.879	309.3
374.26	314.95
374.641	327.83
375.021	319.24
375.402	319.02
375.783	334.38
376.163	309.98
376.544	323.08
376.925	319.47
377.305	310.88
377.686	326.02
378.066	321.5
378.447	323.99
378.827	336.42
379.208	346.59
379.588	315.18
379.968	339.36
380.349	356.3
380.729	319.69
381.109	348.62
381.489	353.37
381.87	319.69
382.25	332.8
382.63	340.03
383.01	360.82
383.39	329.86
383.77	343.42
384.15	338.68
384.53	336.42
384.91	341.16
385.29	345.23
385.67	341.62
386.049	341.39
386.429	335.97
386.809	347.94
387.189	345.23
387.568	353.59
387.948	367.6
388.328	355.85
388.707	357.21
389.087	347.49
389.466	348.17
389.846	378.9
390.225	353.82
390.605	358.34
390.984	359.02
391.363	368.28
391.743	353.59
392.122	366.25
392.501	361.95
392.881	362.63
393.26	379.13
393.639	368.96
394.018	373.03
394.397	370.77
394.776	382.52
395.155	374.61
395.534	370.77
395.913	382.29
396.292	360.37
396.671	378.9
397.05	361.95
397.429	373.93
397.808	375.06
398.186	380.48
398.565	373.25
398.944	383.87
399.323	380.03
399.701	378.22
400.08	384.78
400.458	375.51
400.837	390.88
401.215	391.33
401.594	385.23
401.972	406.92
402.351	391.33
402.729	392.46
403.107	394.5
403.486	410.99
403.864	398.56
404.242	420.03
404.62	420.03
404.999	434.27
405.377	412.57
405.755	416.64
406.133	406.47
406.511	423.42
406.889	415.96
407.267	431.33
407.645	416.64
408.023	432.01
408.401	437.43
408.779	410.31
409.156	436.08
409.534	421.39
409.912	422.74
410.29	463.87
410.667	457.77
411.045	438.79
411.422	432.69
411.8	455.74
412.178	457.09
412.555	459.35
412.933	470.88
413.31	447.38
413.687	455.28
414.065	454.83
414.442	448.05
414.819	468.17
415.197	464.78
415.574	468.62
415.951	474.04
416.328	483.31
416.705	480.59
417.082	508.39
417.46	480.82
417.837	488.28
418.214	490.09
418.591	495.51
418.967	482.4
419.344	487.83
419.721	497.09
420.098	507.71
420.475	507.26
420.852	506.58
421.228	502.74
421.605	507.71
421.982	527.83
422.358	526.24
422.735	523.08
423.111	511.33
423.488	529.18
423.864	550.2
424.241	523.31
424.617	568.05
424.994	540.71
425.37	543.19
425.746	544.77
426.123	521.95
426.499	532.57
426.875	551.1
427.251	555.4
427.627	570.76
428.003	563.76
428.379	562.63
428.756	573.47
429.132	602.4
429.507	590.65
429.883	596.52
430.259	592
430.635	582.51
431.011	594.72
431.387	619.35
431.763	610.31
432.138	599.24
432.514	608.05
432.89	621.38
433.265	610.53
433.641	647.6
434.016	643.75
434.392	642.85
434.767	666.8
435.143	653.47
435.518	655.73
435.894	640.14
436.269	655.73
436.644	664.77
437.02	665.67
437.395	672.23
437.77	701.38
438.145	696.41
438.52	689.18
438.895	713.13
439.271	686.01
439.646	737.76
440.021	701.61
440.395	698.22
440.77	719.01
441.145	703.41
441.52	733.47
441.895	719.68
442.27	729.63
442.645	736.41
443.019	749.51
443.394	742.28
443.769	743.64
444.143	759.68
444.518	744.77
444.892	772.79
445.267	728.27
445.641	753.58
446.016	799.46
446.39	786.8
446.764	774.37
447.139	777.31
447.513	776.41
447.887	759.46
448.262	777.08
448.636	782.73
449.01	802.85
449.384	804.88
449.758	798.55
450.132	806.01
450.506	822.51
450.88	807.82
451.254	787.25
451.628	834.26
452.002	839.68
452.376	829.06
452.75	848.04
453.123	839.46
453.497	857.99
453.871	882.39
454.244	893.01
454.618	872.45
454.992	879
455.365	891.66
455.739	899.79
456.112	930.53
456.486	953.35
456.859	938.21
457.232	937.76
457.606	932.56
457.979	961.71
458.352	953.12
458.725	954.48
459.099	991.32
459.472	1015.72
459.845	996.06
460.218	993.12
460.591	1003.97
460.964	1020.24
461.337	1041.03
461.71	1032.67
462.083	1052.11
462.456	1066.79
462.829	1078.32
463.201	1082.16
463.574	1097.3
463.947	1131.43
464.32	1129.84
464.692	1147.7
465.065	1126.68
465.438	1152.44
465.81	1176.85
466.183	1162.38
466.555	1219.33
466.928	1203.74
467.3	1204.19
467.672	1230.86
468.045	1209.39
468.417	1270.4
468.789	1253.23
469.161	1298.65
469.534	1297.52
469.906	1326.67
470.278	1327.13
470.65	1348.14
471.022	1363.96
471.394	1403.51
471.766	1398.99
472.138	1432.43
472.51	1449.16
472.882	1460
473.253	1506.1
473.625	1490.51
473.997	1537.29
474.369	1544.75
474.74	1574.13
475.112	1585.65
475.484	1615.48
475.855	1637.17
476.227	1660.68
476.598	1723.95
476.97	1713.56
477.341	1765.08
477.713	1811.41
478.084	1799.43
478.455	1853.44
478.827	1843.95
479.198	1925.53
479.569	1908.13
479.94	1969.37
480.311	1982.48
480.682	2025.19
481.053	2106.99
481.424	2135.47
481.795	2150.61
482.166	2175.24
482.537	2198.97
482.908	2231.74
483.279	2319.87
483.65	2293.88
484.021	2359.42
484.391	2378.62
484.762	2419.75
485.133	2454.1
485.503	2480.77
485.874	2543.82
486.244	2558.51
486.615	2620.2
486.985	2671.05
487.356	2730.71
487.726	2715.34
488.097	2788.78
488.467	2812.51
488.837	2880.76
489.207	2963.24
489.578	2921.21
489.948	3018.83
490.318	3047.53
490.688	3107.87
491.058	3140.86
491.428	3137.93
491.798	3162.78
492.168	3279.62
492.538	3299.73
492.908	3324.81
493.278	3369.11
493.648	3407.3
494.017	3423.79
494.387	3528.88
494.757	3512.38
495.126	3533.17
495.496	3555.99
495.866	3624.47
496.235	3653.39
496.605	3628.31
496.974	3659.95
497.344	3708.76
497.713	3751.47
498.082	3800.73
498.452	3852.26
498.821	3881.86
499.19	3870.11
499.559	3965.02
499.928	3934.06
500.298	4013.38
500.667	4055.87
501.036	4065.13
501.405	4033.72
501.774	4068.97
502.143	4101.52
502.512	4133.83
502.88	4134.74
503.249	4176.09
503.618	4209.54
503.987	4244.79
504.356	4280.49
504.724	4243.43
505.093	4341.28
505.462	4325.01
505.83	4347.61
506.199	4360.27
506.567	4427.16
506.936	4401.4
507.304	4473.71
507.672	4526.59
508.041	4519.36
508.409	4527.27
508.777	4563.88
509.145	4561.17
509.514	4632.58
509.882	4619.02
510.25	4650.43
510.618	4682.97
510.986	4671.22
511.354	4703.08
511.722	4783.31
512.09	4790.09
512.458	4812.01
512.826	4840.03
513.193	4838.9
513.561	4871.44
513.929	4863.3
514.297	4902.4
514.664	4960.7
515.032	4969.29
515.4	5016.75
515.767	5013.13
516.135	5096.29
516.502	5009.74
516.869	5078.89
517.237	5107.82
517.604	5077.31
517.972	5132.9
518.339	5190.53
518.706	5150.75
519.073	5200.02
519.44	5211.32
519.808	5248.15
520.175	5235.5
520.542	5312.33
520.909	5396.62
521.276	5245.89
521.643	5363.18
522.009	5337.42
522.376	5426
522.743	5427.36
523.11	5508.71
523.477	5520.69
523.843	5536.96
524.21	5602.04
524.577	5645.2
524.943	5655.6
525.31	5684.07
525.676	5716.16
526.043	5759.55
526.409	5788.25
526.776	5811.08
527.142	5833.22
527.508	5860.57
527.874	5932.65
528.241	5921.81
528.607	5938.08
528.973	5963.39
529.339	6033.22
529.705	6045.19
530.071	6038.19
530.437	6122.48
530.803	6174.23
531.169	6154.8
531.535	6178.07
531.901	6182.59
532.267	6204.29
532.632	6226.43
532.998	6256.26
533.364	6392.76
533.73	6353.66
534.095	6399.76
534.461	6395.92
534.826	6502.36
535.192	6472.08
535.557	6478.4
535.923	6457.16
536.288	6514.11
536.653	6573.54
537.019	6577.84
537.384	6566.76
537.749	6671.39
538.114	6655.35
538.479	6657.61
538.845	6705.06
539.21	6673.65
539.575	6750.94
539.94	6799.98
540.305	6778.73
540.67	6849.47
541.034	6837.26
541.399	6852.18
541.764	6870.03
542.129	6908
542.494	6946.19
542.858	6956.13
543.223	6964.27
543.587	7004.26
543.952	7029.8
544.316	7043.36
544.681	7124.04
545.045	7150.48
545.41	7192.73
545.774	7195.9
546.138	7237.03
546.503	7217.82
546.867	7265.95
547.231	7262.34
547.595	7315.22
547.959	7340.3
548.324	7419.17
548.688	7387.31
549.052	7439.06
549.416	7471.15
549.779	7442.67
550.143	7477.02
550.507	7559.05
550.871	7558.83
551.235	7516.79
551.599	7677.69
551.962	7635.43
552.326	7659.39
552.689	7704.59
553.053	7637.24
553.417	7673.63
553.78	7830.68
554.143	7725.15
554.507	7834.98
554.87	7826.62
555.234	7924.69
555.597	7861.19
555.96	7849.89
556.323	7960.85
556.686	7957.91
557.05	8053.28
557.413	7993.39
557.776	8047.85
558.139	8107.29
558.502	8139.6
558.865	8090.11
559.228	8133.5
559.59	8196.1
559.953	8218.24
560.316	8296.89
560.679	8292.37
561.041	8336.43
561.404	8346.6
561.767	8420.05
562.129	8377.79
562.492	8402.87
562.854	8525.81
563.217	8478.12
563.579	8570.1
563.941	8554.51
564.304	8584.56
564.666	8662.75
565.028	8633.83
565.39	8640.15
565.753	8693.94
566.115	8783.2
566.477	8787.72
566.839	8840.6
567.201	8847.15
567.563	8923.54
567.925	8931.9
568.287	8909.75
568.648	8925.34
569.01	8982.07
569.372	9080.82
569.734	9124.44
570.095	9185.45
570.457	9190.42
570.819	9189.29
571.18	9207.82
571.542	9292.34
571.903	9301.61
572.265	9380.7
572.626	9417.99
572.987	9420.92
573.349	9479
573.71	9545.89
574.071	9644.65
574.432	9660.47
574.794	9769.39
575.155	9705.66
575.516	9787.92
575.877	9825.66
576.238	9922.61
576.599	9977.97
576.96	10095.94
577.32	10067.69
577.681	10232.65
578.042	10220.23
578.403	10278.3
578.763	10416.6
579.124	10494.34
579.485	10585.64
579.845	10694.56
580.206	10783.6
580.566	10863.37
580.927	10950.15
581.287	11095.46
581.648	11182.91
582.008	11412.51
582.368	11412.28
582.728	11658.61
583.089	11756.46
583.449	11892.05
583.809	12012.95
584.169	12225.6
584.529	12321.64
584.889	12590.33
585.249	12628.3
585.609	12833.26
585.969	13119.58
586.329	13240.26
586.688	13474.38
587.048	13717.31
587.408	13892.45
587.768	14110.29
588.127	14350.74
588.487	14474.8
588.846	14883.38
589.206	15005.64
589.565	15269.13
589.925	15524.49
590.284	15825.5
590.643	16061.2
591.003	16340.74
591.362	16704.35
591.721	16846.04
592.08	17148.41
592.44	17455.97
592.799	17705.9
593.158	17966.46
593.517	18460.01
593.876	18565.32
594.235	18876.72
594.593	19271.97
594.952	19535.46
595.311	19649.58
595.67	20122.79
596.029	20599.84
596.387	20843
596.746	21222.65
597.104	21397.33
597.463	21725.69
597.822	22137.88
598.18	22300.36
598.538	22749.84
598.897	23172.2
599.255	23351.86
599.613	23854.9
599.972	24027.32
600.33	24418.27
600.688	24527.42
601.046	24933.51
601.404	25428.64
601.762	25596.77
602.12	26076.08
602.478	26290.54
602.836	26667.02
603.194	26791.54
603.552	27015.04
603.91	27351.98
604.268	27881.46
604.625	27942.47
604.983	28336.13
605.341	28561.44
605.698	28902.67
606.056	29337.01
606.413	29411.59
606.771	29806.38
607.128	30117.33
607.485	30244.56
607.843	30390.09
608.2	30863.07
608.557	31155.27
608.914	31289.95
609.272	31779.66
609.629	31939.43
609.986	32295.58
610.343	32339.42
610.7	32888.56
611.057	32944.6
611.414	33282.22
611.771	33257.59
612.127	33692.38
612.484	33815.09
612.841	34171.01
613.198	34277.67
613.554	34483.77
613.911	34735.97
614.267	34916.98
614.624	35065
614.98	35347.02
615.337	35563.74
615.693	35676.96
616.05	35828.14
616.406	36229.94
616.762	36290.5
617.118	36383.15
617.475	36683.26
617.831	36851.39
618.187	37125.05
618.543	37153.3
618.899	37507.64
619.255	37491.37
619.611	37702.21
619.967	37958.03
620.323	38005.26
620.678	38000.29
621.034	38229.88
621.39	38264.91
621.746	38362.76
622.101	38830.32
622.457	38688.63
622.812	38964.33
623.168	39005.91
623.523	39058.34
623.879	39340.59
624.234	39083.2
624.589	39306.24
624.945	39573.58
625.3	39558.66
625.655	39614.26
626.01	39746
626.365	39830.29
626.72	39710.07
627.075	39858.54
627.43	39922.72
627.785	40029.84
628.14	40208.59
628.495	40285.2
628.85	40301.47
629.205	40168.59
629.559	40538.07
629.914	40476.38
630.269	40406.32
630.623	40380.34
630.978	40380.11
631.332	40704.85
631.687	40868.69
632.041	40598.64
632.396	40741.23
632.75	40712.31
633.104	40772.19
633.459	40529.71
633.813	40687.9
634.167	40750.04
634.521	40705.3
634.875	40788.91
635.229	40855.13
635.583	40725.41
635.937	40681.12
636.291	40703.94
636.645	40799.31
636.999	40685.19
637.352	40870.04
637.706	40740.55
638.06	40736.49
638.413	40745.07
638.767	40784.39
639.121	40903.49
639.474	40516.15
639.828	40580.78
640.181	40722.25
640.534	40676.83
640.888	40795.24
641.241	40646.09
641.594	40657.39
641.947	40712.53
642.301	40594.79
642.654	40635.02
643.007	40676.6
643.36	40753.43
643.713	40583.04
644.066	40907.1
644.419	40561.8
644.771	40254.69
645.124	39861.25
645.477	39872.33
645.83	39742.39
646.182	39737.42
646.535	39510.75
646.888	39598.66
647.24	39434.15
647.593	39839.56
647.945	39551.43
648.298	39344.21
648.65	39355.05
649.002	39217.66
649.355	39449.74
649.707	39441.15
650.059	39591.43
650.411	40000.91
650.763	40108.48
651.115	40449.04
651.467	40319.77
651.819	40232.09
652.171	40293.56
652.523	40159.1
652.875	40258.31
653.227	40117.97
653.578	40261.7
653.93	40280.45
654.282	40100.12
654.633	39905.32
654.985	40037.29
655.337	40038.88
655.688	40120.68
656.039	40164.3
656.391	40129.95
656.742	39951.65
657.094	40172.66
657.445	39990.06
657.796	40105.99
658.147	39941.25
658.498	39959.33
658.849	40165.88
659.2	39961.14
659.551	39953
659.902	40098.76
660.253	39967.47
660.604	39926.11
660.955	39781.71
661.306	39987.58
661.656	39901.71
662.007	39822.84
662.358	40010.85
662.708	39956.84
663.059	39945.77
663.409	39626.68
663.76	39973.12
664.11	39968.82
664.461	39894.47
664.811	39959.33
665.161	39904.64
665.511	39830.97
665.862	39836.62
666.212	39936.96
666.562	39944.87
666.912	39857.86
667.262	39832.55
667.612	39740.13
667.962	39871.88
668.312	39762.27
668.662	39910.52
669.011	39760.47
669.361	39805.89
669.711	39796.85
670.06	39877.52
670.41	39649.51
670.76	39559.12
671.109	39849.28
671.459	39596.63
671.808	39635.95
672.157	39765.44
672.507	39529.06
672.856	39556.4
673.205	39541.26
673.554	39604.09
673.904	39539.45
674.253	39564.54
674.602	39649.51
674.951	39113.03
675.3	38999.13
675.649	39457.87
675.998	39481.6
676.346	39291.1
676.695	39558.44
677.044	39248.84
677.393	39348.73
677.741	39453.36
678.09	39352.12
678.438	39216.53
678.787	39272.8
679.135	39211.1
679.484	39047.49
679.832	39299.46
680.181	39030.54
680.529	39077.77
680.877	38960.26
681.225	38988.28
681.573	39056.3
681.922	38906.7
682.27	38739.02
682.618	38786.03
682.966	38728.85
683.314	38910.54
683.661	38680.27
684.009	38531.35
684.357	38444.34
684.705	38426.94
685.053	38548.75
685.4	38338.13
685.748	38129.77
686.095	38175.87
686.443	37970.68
686.79	37987.18
687.138	38059.04
687.485	38069.44
687.832	37972.04
688.18	38059.49
688.527	37655.21
688.874	37791.25
689.221	37753.29
689.568	37526.85
689.915	37473.97
690.262	37473.29
690.609	37333.86
690.956	37357.37
691.303	37269.01
691.65	37126.18
691.997	37148.56
692.344	36958.28
692.69	36928
693.037	36842.35
693.383	36494.56
693.73	36642.58
694.077	36498.86
694.423	36539.76
694.769	36420.89
695.116	36402.81
695.462	36286.21
695.808	36084.4
696.155	36172.31
696.501	35846.22
696.847	35958.98
697.193	35726.45
697.539	35905.43
697.885	35638.54
698.231	35663.17
698.577	35464.76
698.923	35434.48
699.269	35154.94
699.614	35064.32
699.96	35112
700.306	35184.31
700.651	34810.99
700.997	34717.21
701.342	34695.29
701.688	34661.16
702.033	34577.1
702.379	34448.97
702.724	34369.87
703.069	34500.27
703.415	34173.27
703.76	34182.08
704.105	34202.19
704.45	34081.97
704.795	33962.2
705.14	33791.58
705.485	33784.8
705.83	33747.74
706.175	33751.81
706.52	33613.73
706.865	33617.35
707.209	33434.98
707.554	33301.43
707.899	33437.24
708.243	33180.3
708.588	33070.92
708.932	33025.05
709.277	32929.01
709.621	32871.38
709.966	32683.36
710.31	32742.35
710.654	32559.98
710.998	32640.43
711.342	32671.39
711.687	32471.17
712.031	32397.72
712.375	32331.96
712.719	32305.29
713.063	32323.83
713.407	32344.16
713.75	32104.85
714.094	32159.76
714.438	31973.55
714.782	32106.2
715.125	31951.63
715.469	31870.05
715.812	31766.1
716.156	31657.4
716.499	31561.13
716.843	31501.02
717.186	31541.47
717.53	31537.18
717.873	31648.81
718.216	31454.92
718.559	31330.63
718.902	31176.51
719.246	31350.74
719.589	31179.22
719.932	31033.24
720.275	30999.34
720.617	30931.77
720.96	30778.78
721.303	31041.6
721.646	30952.34
721.989	30622.85
722.331	30838.89
722.674	30718.44
723.016	30679.35
723.359	30577.88
723.701	30636.86
724.044	30404.33
724.386	30299.02
724.729	30467.15
725.071	30394.16
725.413	30350.32
725.755	30243.43
726.097	30157.33
726.439	29967.5
726.782	30107.39
727.124	30183.54
727.465	29972.02
727.807	30039.59
728.149	29953.27
728.491	29853.61
728.833	29955.98
729.175	29810.44
729.516	29728.41
729.858	29824
730.199	29773.84
730.541	29675.08
730.882	29614.29
731.224	29628.75
731.565	29377.46
731.906	29450.91
732.248	29455.2
732.589	29388.76
732.93	29272.61
733.271	29210.46
733.612	29234.87
733.953	29270.12
734.294	29090.69
734.635	29082.55
734.976	29139.05
735.317	28971.37
735.658	29064.7
735.999	29021.99
736.339	28928.89
736.68	29015.66
737.021	28862
737.361	28796.91
737.702	28980.41
738.042	28890.92
738.383	28753.98
738.723	28808.66
739.063	28575.22
739.404	28718.95
739.744	28674.43
740.084	28533.42
740.424	28446.87
740.764	28456.36
741.104	28548.11
741.444	28346.08
741.784	28329.58
742.124	28296.13
742.464	28294.33
742.804	28321.44
743.143	28258.85
743.483	28264.04
743.823	27945.86
744.162	28078.51
744.502	28123.48
744.841	28032.19
745.181	28013.2
745.52	27862.7
745.86	27951.28
746.199	27817.96
746.538	27833.55
746.877	27923.49
747.216	27904.73
747.556	27739.54
747.895	27812.08
748.234	27782.02
748.573	27521.69
748.911	27623.16
749.25	27618.86
749.589	27425.87
749.928	27580.9
750.267	27459.09
750.605	27534.35
750.944	27287.8
751.283	27276.95
751.621	27304.07
751.96	27154.02
752.298	27163.96
752.636	27180.91
752.975	27086.22
753.313	26916.28
753.651	27045.55
753.989	26883.52
754.327	26715.39
754.666	26690.75
755.004	26769.85
755.342	26741.15
755.679	26666.57
756.017	26657.76
756.355	26676.29
756.693	26500.02
757.031	26536.63
757.368	26372.8
757.706	26349.29
758.044	26309.29
758.381	26425.68
758.719	26154.72
759.056	26173.93
759.394	26118.56
759.731	25973.94
760.068	26063.65
760.405	25720.38
760.743	25819.82
761.08	25781.62
761.417	25633.83
761.754	25589.99
762.091	25574.4
762.428	25507.73
762.765	25298.25
763.102	25379.83
763.438	25280.17
763.775	25195.43
764.112	25189.55
764.449	25114.3
764.785	24994.3
765.122	24889.44
765.458	24781.65
765.795	24816.45
766.131	24694.2
766.467	24673.4
766.804	24492.62
767.14	24393.41
767.476	24443.58
767.812	24263.25
768.148	24200.87
768.485	24055.34
768.821	24050.14
769.157	23981.45
769.492	23925.85
769.828	23853.77
770.164	23665.07
770.5	23708.46
770.836	23628.01
771.171	23432.31
771.507	23545.98
771.842	23269.83
772.178	23325.42
772.513	23272.09
772.849	23147.34
773.184	23106.89
773.519	23075.03
773.855	22927.01
774.19	22841.59
774.525	22795.04
774.86	22727.24
775.195	22635.04
775.53	22574.7
775.865	22459.9
776.2	22254.49
776.535	22136.07
776.87	22189.4
777.205	22047.03
777.539	21987.6
777.874	22018.33
778.209	21795.74
778.543	21818.11
778.878	21691.79
779.212	21673.26
779.547	21513.26
779.881	21592.58
780.215	21446.6
780.55	21473.94
780.884	21260.84
781.218	21134.06
781.552	21259.94
781.886	21109.2
782.22	21002.32
782.554	20881.19
782.888	20758.03
783.222	20698.37
783.556	20666.05
783.889	20588.99
784.223	20390.58
784.557	20456.79
784.89	20366.17
785.224	20231.49
785.557	20214.99
785.891	20102.45
786.224	20093.19
786.558	19943.36
786.891	19873.98
787.224	19894.32
787.557	19800.76
787.891	19688
788.224	19602.58
788.557	19736.59
788.89	19597.38
789.223	19560.32
789.556	19320.33
789.888	19420.44
790.221	19265.41
790.554	19147.67
790.887	19083.27
791.219	19038.07
791.552	18963.5
791.884	18846.89
792.217	18864.07
792.549	18819.77
792.882	18668.37
793.214	18692.09
793.546	18643.51
793.879	18476.28
794.211	18438.54
794.543	18563.96
794.875	18405.1
795.207	18367.58
795.539	18402.84
795.871	18293.69
796.203	18108.15
796.535	18049.85
796.867	18064.99
797.198	17935.05
797.53	17957.65
797.862	17775.73
798.193	17806.01
798.525	17722.4
798.856	17683.76
799.188	17524.89
799.519	17441.73
799.85	17335.97
800.182	17404.22
800.513	17394.5
800.844	17232.47
801.175	17321.96
801.506	17374.84
801.837	17233.37
802.168	17092.14
802.499	17061.63
802.83	16967.84
803.161	16899.6
803.491	16916.55
803.822	16940.95
804.153	16769.66
804.483	16701.41
804.814	16721.3
805.145	16623.67
805.475	16661.41
805.805	16565.14
806.136	16504.58
806.466	16484.47
806.796	16540.51
807.126	16328.31
807.457	16286.05
807.787	16315.21
808.117	16199.28
808.447	16205.6
808.777	16182.33
809.107	16024.37
809.436	15928.78
809.766	16053.74
810.096	15968.55
810.426	15923.58
810.755	15900.08
811.085	15942.79
811.414	15920.64
811.744	15753.64
812.073	15685.84
812.403	15728.33
812.732	15632.29
813.061	15678.84
813.39	15510.26
813.719	15508.45
814.049	15582.12
814.378	15453.08
814.707	15436.81
815.036	15362.46
815.365	15313.2
815.693	15278.17
816.022	15202.69
816.351	15156.59
816.68	15064.62
817.008	15085.86
817.337	14934.45
817.665	14947.11
817.994	14912.08
818.322	14898.97
818.651	14882.02
818.979	14897.62
819.307	14892.42
819.636	14807
819.964	14695.81
820.292	14731.07
820.62	14711.63
820.948	14698.3
821.276	14734.91
821.604	14769.48
821.932	14668.24
822.259	14700.56
822.587	14723.38
822.915	14569.04
823.243	14696.72
823.57	14642.48
823.898	14663.72
824.225	14579.21
824.553	14643.84
824.88	14659.43
825.207	14674.57
825.535	14600.9
825.862	14673.89
826.189	14651.3
826.516	14628.02
826.843	14581.24
827.17	14686.77
827.497	14649.49
827.824	14625.08
828.151	14599.55
828.478	14591.86
828.805	14747.56
829.131	14643.39
829.458	14583.95
829.785	14581.69
830.111	14608.13
830.438	14660.56
830.764	14607.45
831.09	14535.37
831.417	14537.4
831.743	14599.32
832.069	14603.16
832.395	14510.28
832.722	14563.61
833.048	14474.58
833.374	14576.04
833.7	14350.74
834.026	14409.49
834.351	14454.46
834.677	14413.34
835.003	14474.58
835.329	14386.44
835.654	14355.48
835.98	14302.83
836.306	14313.68
836.631	14247.46
836.956	14304.64
837.282	14320.46
837.607	14221.7
837.932	14207.01
838.258	14196.17
838.583	14223.51
838.908	14088.6
839.233	14163.62
839.558	14138.77
839.883	14118.88
840.208	14054.48
840.533	13996.62
840.858	13933.12
841.182	14024.87
841.507	13983.29
841.832	13878.21
842.156	13901.94
842.481	13909.39
842.805	13846.8
843.13	13813.8
843.454	13805.67
843.778	13690.42
844.103	13658.78
844.427	13588.27
844.751	13552.57
845.075	13563.87
845.399	13650.64
845.723	13480.7
846.047	13489.74
846.371	13442.29
846.695	13338.56
847.019	13322.06
847.343	13260.82
847.666	13145.57
847.99	13058.57
848.313	13070.55
848.637	13051.11
848.96	12979.7
849.284	13000.27
849.607	12897.44
849.931	12882.08
850.254	12734.96
850.577	12704
850.9	12664.46
851.223	12623.33
851.546	12520.73
851.869	12514.4
852.192	12554.63
852.515	12400.96
852.838	12339.94
853.161	12347.18
853.483	12278.02
853.806	12248.42
854.129	12176.78
854.451	12160.29
854.774	12132.04
855.096	12033.51
855.419	12023.57
855.741	12015.43
856.063	12001.2
856.385	11902.67
856.708	11887.98
857.03	11811.14
857.352	11822.44
857.674	11808.43
857.996	11712.84
858.318	11606.4
858.64	11670.81
858.961	11612.73
859.283	11558.04
859.605	11508.33
859.926	11556.24
860.248	11516.91
860.57	11471.27
860.891	11528.89
861.212	11399.86
861.534	11441.21
861.855	11347.2
862.176	11405.73
862.498	11299.29
862.819	11273.76
863.14	11287.54
863.461	11242.8
863.782	11227.66
864.103	11271.72
864.424	11232.4
864.745	11232.18
865.065	11158.73
865.386	11140.88
865.707	11095.46
866.027	11185.4
866.348	11026.08
866.668	11112.63
866.989	11113.31
867.309	11031.05
867.63	11022.01
867.95	10985.63
868.27	10970.94
868.59	10944.05
868.91	10943.82
869.23	10862.47
869.55	10864.73
869.87	10958.51
870.19	10834.22
870.51	10873.32
870.83	10857.95
871.15	10801
871.469	10764.39
871.789	10850.27
872.109	10755.8
872.428	10706.77
872.748	10736.6
873.067	10689.82
873.386	10713.32
873.706	10657.73
874.025	10631.29
874.344	10628.35
874.663	10630.38
874.982	10610.5
875.301	10606.2
875.62	10474.46
875.939	10490.28
876.258	10474.23
876.577	10444.17
876.896	10457.28
877.214	10411.63
877.533	10403.27
877.852	10415.25
878.17	10380.9
878.489	10357.62
878.807	10345.42
879.125	10343.61
879.444	10333.89
879.762	10291.86
880.08	10307.45
880.398	10262.48
880.716	10326.21
881.034	10233.11
881.352	10274.01
881.67	10144.52
881.988	10226.1
882.306	10146.56
882.624	10081.92
882.941	10093.22
883.259	10051.64
883.577	10038.54
883.894	9970.74
884.212	9958.76
884.529	10041.02
884.846	9963.06
885.164	9952.66
885.481	9847.35
885.798	9960.57
886.115	9735.04
886.432	9829.05
886.75	9866.56
887.067	9813
887.383	9743.85
887.7	9767.81
888.017	9664.08
888.334	9749.5
888.651	9682.84
888.967	9733.23
889.284	9681.03
889.6	9589.51
889.917	9585.67
890.233	9639.45
890.55	9474.48
890.866	9540.92
891.182	9443.52
891.498	9441.72
891.815	9455.95
892.131	9450.3
892.447	9365.78
892.763	9354.94
893.079	9375.73
893.395	9275.84
893.71	9224.09
894.026	9224.32
894.342	9249.18
894.657	9158.33
894.973	9133.93
895.289	9124.44
895.604	9074.04
895.92	9052.8
896.235	8972.12
896.55	8994.27
896.865	8984.78
897.181	8927.15
897.496	8985.23
897.811	8890.09
898.126	8888.06
898.441	8803.54
898.756	8801.51
899.071	8723.32
899.386	8757.67
899.7	8737.55
900.015	8644.22
900.33	8586.37
900.644	8578.01
900.959	8544.79
901.273	8564.68
901.588	8555.86
901.902	8431.8
902.216	8473.83
902.531	8434.28
902.845	8456.88
903.159	8274.97
903.473	8286.49
903.787	8248.53
904.101	8228.19
904.415	8253.72
904.729	8167.17
905.042	8173.5
905.356	8185.48
905.67	8110.9
905.984	8069.55
906.297	8054.63
906.611	8025.71
906.924	8011.92
907.237	7977.12
907.551	7984.8
907.864	7888.99
908.177	7910.23
908.491	7862.77
908.804	7821.19
909.117	7792.27
909.43	7725.38
909.743	7667.75
910.056	7651.71
910.368	7637.69
910.681	7588.43
910.994	7591.37
911.307	7580.97
911.619	7483.57
911.932	7460.98
912.244	7429.79
912.557	7416.91
912.869	7420.75
913.181	7368.1
913.494	7359.51
913.806	7292.17
914.118	7237.03
914.43	7225.73
914.742	7234.54
915.054	7220.98
915.366	7176.69
915.678	7130.14
915.99	7079.52
916.302	7070.48
916.613	6970.37
916.925	7051.95
917.236	7018.5
917.548	6954.55
917.859	6946.87
918.171	6873.19
918.482	6897.83
918.794	6865.96
919.105	6834.78
919.416	6812.18
919.727	6733.31
920.038	6762.92
920.349	6714.33
920.66	6701
920.971	6625.74
921.282	6603.6
921.593	6581.23
921.903	6594.78
922.214	6555.46
922.525	6529.93
922.835	6444.05
923.146	6482.92
923.456	6413.55
923.767	6378.97
924.077	6392.08
924.387	6351.4
924.697	6277.5
925.008	6306.43
925.318	6245.41
925.628	6243.38
925.938	6205.42
926.248	6141.91
926.558	6157.28
926.867	6134.46
927.177	6058.75
927.487	6071.41
927.796	6003.61
928.106	6039.09
928.416	6015.14
928.725	5918.64
929.034	5944.86
929.344	5924.97
929.653	5915.03
929.962	5876.61
930.271	5860.79
930.581	5745.32
930.89	5775.14
931.199	5760.91
931.508	5753.68
931.817	5748.25
932.125	5786.22
932.434	5683.62
932.743	5628.03
933.051	5632.32
933.36	5618.09
933.669	5573.57
933.977	5541.03
934.286	5513.46
934.594	5547.58
934.902	5458.54
935.21	5456.74
935.519	5466.45
935.827	5459.45
936.135	5393.01
936.443	5356.17
936.751	5369.28
937.059	5315.04
937.367	5318.89
937.674	5280.47
937.982	5285.67
938.29	5230.75
938.597	5214.48
938.905	5169.96
939.213	5116.63
939.52	5154.6
939.827	5183.3
940.135	5140.13
940.442	5086.12
940.749	5095.84
941.056	5077.08
941.363	4994.37
941.67	5016.07
941.977	4954.15
942.284	4908.05
942.591	4945.79
942.898	4906.02
943.205	4925.9
943.511	4882.29
943.818	4909.86
944.125	4828.05
944.431	4740.37
944.738	4805.68
945.044	4771.33
945.35	4733.36
945.657	4711.22
945.963	4700.6
946.269	4691.11
946.575	4657.21
946.881	4658.79
947.187	4643.2
947.493	4620.6
947.799	4572.69
948.105	4633.48
948.41	4538.79
948.716	4506.03
949.022	4492.92
949.327	4512.13
949.633	4453.82
949.938	4457.44
950.244	4471.9
950.549	4389.64
950.854	4362.53
951.16	4365.01
951.465	4338.12
951.77	4324.56
952.075	4306.48
952.38	4294.05
952.685	4278.46
952.99	4202.98
953.294	4231
953.599	4170.44
953.904	4198.69
954.209	4111.91
954.513	4177.67
954.818	4104.91
955.122	4076.21
955.426	4154.62
955.731	4088.86
956.035	4056.77
956.339	4041.63
956.643	4031.24
956.948	4031.01
957.252	3989.43
957.556	3969.99
957.86	3952.14
958.163	3962.76
958.467	3931.13
958.771	3896.1
959.075	3952.59
959.378	3837.12
959.682	3829.89
959.985	3811.13
960.289	3840.73
960.592	3826.04
960.896	3747.85
961.199	3803.67
961.502	3776.78
961.805	3739.94
962.108	3733.16
962.411	3735.2
962.714	3660.4
963.017	3680.28
963.32	3669.66
963.623	3649.55
963.926	3679.61
964.228	3625.82
964.531	3643.9
964.833	3593.06
965.136	3554.19
965.438	3540.63
965.741	3536.33
966.043	3522.55
966.345	3503.34
966.648	3524.36
966.95	3484.58
967.252	3460.86
967.554	3443
967.856	3457.01
968.158	3399.16
968.46	3397.13
968.761	3371.14
969.063	3347.64
969.365	3337.24
969.666	3331.37
969.968	3317.81
970.269	3316.9
970.571	3327.07
970.872	3323.68
971.174	3283.68
971.475	3251.6
971.776	3239.39
972.077	3203.23
972.378	3224.93
972.679	3247.75
972.98	3190.58
973.281	3195.55
973.582	3183.57
973.883	3134.76
974.183	3117.14
974.484	3171.37
974.785	3123.24
975.085	3098.38
975.386	3109
975.686	3086.4
975.986	3029.68
976.287	3047.53
976.587	3038.49
976.887	3038.04
977.187	3049.57
977.487	3008.66
977.787	2960.53
978.087	2956.24
978.387	2951.94
978.687	2922.34
978.987	2926.86
979.286	2925.73
979.586	2871.72
979.885	2879.4
980.185	2858.61
980.484	2859.29
980.784	2835.34
981.083	2833.3
981.382	2810.48
981.682	2813.64
981.981	2779.52
982.28	2781.1
982.579	2782.68
982.878	2784.94
983.177	2768.22
983.475	2710.59
983.774	2694.32
984.073	2709.46
984.372	2696.13
984.67	2683.47
984.969	2671.72
985.267	2681.21
985.566	2652.97
985.864	2650.71
986.162	2599.64
986.461	2601.89
986.759	2611.16
987.057	2578.17
987.355	2565.06
987.653	2553.53
987.951	2559.41
988.249	2554.44
988.547	2543.14
988.844	2530.03
989.142	2483.25
989.44	2506.53
989.737	2453.42
990.035	2495.46
990.332	2458.4
990.63	2443.25
990.927	2430.6
991.224	2424.72
991.521	2453.42
991.819	2420.66
992.116	2419.98
992.413	2405.97
992.71	2327.33
993.006	2341.11
993.303	2342.24
993.6	2368.91
993.897	2305.18
994.193	2338.17
994.49	2334.11
994.787	2317.83
995.083	2306.31
995.379	2262.02
995.676	2241
995.972	2255.69
996.268	2267.67
996.565	2242.58
996.861	2240.1
997.157	2242.81
997.453	2189.02
997.749	2203.49
998.044	2161.91
998.34	2163.04
998.636	2132.98
998.932	2157.16
999.227	2147.9
999.523	2104.96
999.818	2136.37
1000.114	2098.41
1000.409	2087.33
1000.704	2072.64
1001	2103.83
1001.295	2074
1001.59	2046.66
1001.885	2048.46
1002.18	2039.2
1002.475	1998.07
1002.77	2000.1
1003.065	1993.32
1003.359	1972.98
1003.654	1972.31
1003.949	1921.46
1004.243	1964.17
1004.538	1939.77
1004.832	1941.8
1005.127	1923.95
1005.421	1915.13
1005.715	1905.19
1006.009	1899.09
1006.304	1881.46
1006.598	1888.92
1006.892	1848.02
1007.186	1839.43
1007.48	1829.94
1007.773	1825.19
1008.067	1812.54
1008.361	1831.52
1008.655	1783.84
1008.948	1796.72
1009.242	1790.16
1009.535	1780
1009.829	1751.07
1010.122	1738.41
1010.415	1756.27
1010.708	1765.53
1011.001	1697.96
1011.295	1734.57
1011.588	1704.29
1011.881	1717.62
1012.173	1706.1
1012.466	1658.19
1012.759	1662.03
1013.052	1674.01
1013.344	1637.4
1013.637	1648.7
1013.93	1621.36
1014.222	1600.57
1014.514	1604.18
1014.807	1608.7
1015.099	1550.4
1015.391	1581.81
1015.683	1575.26
1015.976	1554.92
1016.268	1563.28
1016.56	1530.06
1016.851	1522.83
1017.143	1538.87
1017.435	1525.99
1017.727	1479.66
1018.018	1468.59
1018.31	1484.86
1018.602	1488.25
1018.893	1462.94
1019.185	1437.18
1019.476	1434.92
1019.767	1456.61
1020.058	1437.86
1020.35	1443.73
1020.641	1409.84
1020.932	1421.13
1021.223	1396.5
1021.514	1361.25
1021.804	1369.16
1022.095	1380.23
1022.386	1378.42
1022.677	1373
1022.967	1334.58
1023.258	1320.57
1023.548	1311.08
1023.839	1293.45
1024.129	1292.32
1024.419	1292.78
1024.709	1278.99
1025	1274.92
1025.29	1260.69
1025.58	1264.3
1025.87	1273.12
1026.16	1252.33
1026.449	1232.21
1026.739	1247.58
1027.029	1239.9
1027.319	1219.33
1027.608	1190.18
1027.898	1185.66
1028.187	1193.12
1028.477	1184.98
1028.766	1204.42
1029.055	1173.01
1029.344	1163.74
1029.634	1137.98
1029.923	1132.55
1030.212	1121.71
1030.501	1133.68
1030.79	1144.98
1031.078	1133.91
1031.367	1103.4
1031.656	1124.42
1031.945	1099.34
1032.233	1102.27
1032.522	1061.82
1032.81	1092.78
1033.099	1053.69
1033.387	1063.63
1033.675	1072.22
1033.963	1060.24
1034.251	1060.24
1034.54	1043.97
1034.828	1040.58
1035.116	1003.07
1035.403	1019.34
1035.691	1000.58
1035.979	1026.34
1036.267	962.39
1036.554	1007.36
1036.842	979.56
1037.129	980.47
1037.417	951.32
1037.704	964.42
1037.992	968.72
1038.279	956.06
1038.566	963.75
1038.853	963.75
1039.14	963.75
