Data from hue_200_FLMS001491_00092.txt Node
Date: Tue Feb 07 16:44:12 GMT 2017
User: dcchb
Spectrometer: FLMS00149
Trigger mode: 0
Integration Time (sec): 2.000000E-2
Scans to average: 10
Electric dark correction enabled: true
Nonlinearity correction enabled: false
Boxcar width: 0
XAxis mode: Wavelengths
Number of Pixels in Spectrum: 2048
>>>>>Begin Spectral Data<<<<<
341.393	-31.62
341.776	-31.62
342.16	-31.62
342.543	-58.29
342.927	-72.07
343.31	-67.33
343.693	-72.98
344.077	-55.13
344.46	-40.21
344.843	-37.27
345.226	-63.26
345.61	-46.09
345.993	-33.43
346.376	12.9
346.759	10.41
347.142	26.91
347.525	47.47
347.908	45.66
348.291	76.62
348.674	87.02
349.057	108.71
349.44	121.82
349.823	153.68
350.206	149.16
350.588	200.01
350.971	207.24
351.354	235.26
351.737	238.2
352.119	261.25
352.502	255.83
352.884	251.08
353.267	263.74
353.65	278.65
354.032	289.95
354.414	312.32
354.797	278.42
355.179	306.22
355.562	310.51
355.944	324.07
356.326	303.51
356.709	320.68
357.091	322.27
357.473	334.47
357.855	324.75
358.238	326.33
358.62	335.37
359.002	325.66
359.384	345.77
359.766	334.92
360.148	338.08
360.53	342.15
360.912	329.5
361.294	326.79
361.676	324.07
362.057	337.63
362.439	324.75
362.821	337.18
363.203	325.88
363.584	313.9
363.966	328.37
364.348	307.58
364.729	329.72
365.111	302.83
365.493	335.15
365.874	321.36
366.256	318.42
366.637	315.71
367.019	298.09
367.4	308.03
367.781	301.25
368.163	304.41
368.544	283.85
368.925	295.83
369.306	298.09
369.688	313.45
370.069	324.3
370.45	320.68
370.831	312.32
371.212	316.16
371.593	289.05
371.974	320.68
372.355	295.6
372.736	312.32
373.117	310.74
373.498	296.5
373.879	298.54
374.26	287.92
374.641	299.67
375.021	294.47
375.402	313.23
375.783	324.75
376.163	322.04
376.544	303.51
376.925	347.12
377.305	319.33
377.686	329.72
378.066	327.69
378.447	324.75
378.827	336.5
379.208	320.01
379.588	318.42
379.968	319.78
380.349	336.73
380.729	316.39
381.109	327.24
381.489	336.95
381.87	314.81
382.25	320.46
382.63	332.21
383.01	343.28
383.39	339.67
383.77	322.49
384.15	335.82
384.53	335.6
384.91	348.03
385.29	338.54
385.67	358.2
386.049	347.35
386.429	343.73
386.809	348.71
387.189	341.02
387.568	360.91
387.948	355.94
388.328	369.5
388.707	348.71
389.087	357.97
389.466	357.07
389.846	354.81
390.225	354.81
390.605	364.07
390.984	371.08
391.363	353.68
391.743	348.48
392.122	366.56
392.501	353.45
392.881	364.98
393.26	352.55
393.639	357.29
394.018	369.5
394.397	393.68
394.776	348.93
395.155	399.78
395.534	379.44
395.913	388.93
396.292	367.69
396.671	386.22
397.05	385.31
397.429	381.47
397.808	378.76
398.186	395.03
398.565	384.41
398.944	423.51
399.323	401.59
399.701	404.98
400.08	398.2
400.458	390.29
400.837	407.24
401.215	420.79
401.594	383.96
401.972	404.07
402.351	402.04
402.729	390.29
403.107	418.99
403.486	435.48
403.864	445.2
404.242	408.59
404.62	440.91
404.999	445.88
405.377	459.44
405.755	460.57
406.133	457.86
406.511	458.76
406.889	440.68
407.267	479.32
407.645	479.55
408.023	482.26
408.401	481.13
408.779	473.9
409.156	487.46
409.534	497.85
409.912	510.06
410.29	515.48
410.667	509.38
411.045	532.66
411.422	534.92
411.8	562.49
412.178	541.92
412.555	550.73
412.933	569.72
413.31	573.11
413.687	607
414.065	595.25
414.442	610.17
414.819	611.07
415.197	646.55
415.574	637.74
415.951	646.1
416.328	664.18
416.705	649.71
417.082	644.97
417.46	664.4
417.837	680.9
418.214	707.11
418.591	738.3
418.967	718.64
419.344	739.66
419.721	723.38
420.098	721.8
420.475	735.36
420.852	754.57
421.228	771.29
421.605	805.19
421.982	806.32
422.358	825.3
422.735	855.81
423.111	861.69
423.488	894.91
423.864	896.04
424.241	903.04
424.617	905.53
424.994	960.44
425.37	948.69
425.746	927.9
426.123	978.75
426.499	989.37
426.875	997.95
427.251	1035.47
427.627	1056.48
428.003	1037.5
428.379	1060.1
428.756	1063.94
429.132	1078.63
429.507	1088.35
429.883	1112.75
430.259	1128.12
430.635	1129.48
431.011	1139.19
431.387	1166.99
431.763	1184.84
432.138	1203.37
432.514	1230.26
432.89	1237.95
433.265	1267.33
433.641	1306.42
434.016	1315.23
434.392	1350.04
434.767	1390.49
435.143	1367.89
435.518	1384.38
435.894	1429.13
436.269	1423.71
436.644	1503.25
437.02	1500.99
437.395	1529.24
437.77	1559.75
438.145	1583.93
438.52	1587.32
438.895	1632.74
439.271	1655.11
439.646	1687.88
440.021	1722
440.395	1740.76
440.77	1766.97
441.145	1782.11
441.52	1806.52
441.895	1849.46
442.27	1851.04
442.645	1839.29
443.019	1917.93
443.394	1908.66
443.769	1940.98
444.143	1905.5
444.518	1968.78
444.892	1956.35
445.267	1999.28
445.641	2027.08
446.016	2034.99
446.39	2038.38
446.764	2097.59
447.139	2089.45
447.513	2088.55
447.887	2111.6
448.262	2137.81
448.636	2145.04
449.01	2158.83
449.384	2194.98
449.758	2187.53
450.132	2241.31
450.506	2266.17
450.88	2245.38
451.254	2279.28
451.628	2302.33
452.002	2340.07
452.376	2343.46
452.75	2404.7
453.123	2412.83
453.497	2430.23
453.871	2469.33
454.244	2467.07
454.618	2516.56
454.992	2556.56
455.365	2564.92
455.739	2611.24
456.112	2651.47
456.486	2661.41
456.859	2696.21
457.232	2701.86
457.606	2732.6
457.979	2763.56
458.352	2816.21
458.725	2852.82
459.099	2859.83
459.472	2923.55
459.845	2934.4
460.218	2942.31
460.591	2979.14
460.964	3005.13
461.337	3041.97
461.71	3147.28
462.083	3150.89
462.456	3169.87
462.829	3175.75
463.201	3234.51
463.574	3226.14
463.947	3323.77
464.32	3369.64
464.692	3388.4
465.065	3429.75
465.438	3487.38
465.81	3512.69
466.183	3564.44
466.555	3655.29
466.928	3615.96
467.3	3626.81
467.672	3687.6
468.045	3817.31
468.417	3849.86
468.789	3860.48
469.161	3821.38
469.534	3942.96
469.906	4001.94
470.278	4040.13
470.65	4110.41
471.022	4155.61
471.394	4234.25
471.766	4221.37
472.138	4286.46
472.51	4387.92
472.882	4444.87
473.253	4513.79
473.625	4535.94
473.997	4622.49
474.369	4663.17
474.74	4717.18
475.112	4732.09
475.484	4852.99
475.855	4886.67
476.227	4972.99
476.598	5111.74
476.97	5115.81
477.341	5212.31
477.713	5290.04
478.084	5308.58
478.455	5456.37
478.827	5477.84
479.198	5647.1
479.569	5667.66
479.94	5769.81
480.311	5852.97
480.682	5939.52
481.053	6054.54
481.424	6159.63
481.795	6187.87
482.166	6269.91
482.537	6304.93
482.908	6508.54
483.279	6525.94
483.65	6658.6
484.021	6712.83
484.391	6808.2
484.762	6886.16
485.133	6894.07
485.503	6997.8
485.874	7123.44
486.244	7141.07
486.615	7328.86
486.985	7425.81
487.356	7489.31
487.726	7495.41
488.097	7667.38
488.467	7659.02
488.837	7809.98
489.207	7955.74
489.578	8056.3
489.948	8043.64
490.318	8178.78
490.688	8224.43
491.058	8321.6
491.428	8382.17
491.798	8546.68
492.168	8583.07
492.538	8568.38
492.908	8586
493.278	8799.56
493.648	8776.28
494.017	8929.72
494.387	8888.82
494.757	9008.59
495.126	9128.14
495.496	9096.72
495.866	9157.74
496.235	9205.2
496.605	9281.58
496.974	9295.36
497.344	9372.65
497.713	9417.85
498.082	9455.81
498.452	9522.02
498.821	9554.34
499.19	9647.44
499.559	9650.16
499.928	9731.06
500.298	9725.86
500.667	9818.74
501.036	9741
501.405	9810.15
501.774	9823.71
502.143	9906.19
502.512	9894.44
502.88	9979.64
503.249	9986.87
503.618	10050.6
503.987	9969.7
504.356	10036.36
504.724	10112.06
505.093	10077.49
505.462	10082.46
505.83	10156.58
506.199	10280.2
506.567	10312.51
506.936	10296.47
507.304	10290.14
507.672	10359.97
508.041	10422.11
508.409	10389.35
508.777	10433.41
509.145	10515.67
509.514	10443.13
509.882	10551.38
510.25	10510.47
510.618	10537.59
510.986	10515.67
511.354	10580.98
511.722	10635.21
512.09	10710.47
512.458	10624.82
512.826	10662.11
513.193	10703.91
513.561	10703.69
513.929	10737.81
514.297	10846.28
514.664	10868.65
515.032	10820.07
515.4	10851.03
515.767	10882.21
516.135	10886.28
516.502	10689
516.869	10883.34
517.237	10894.87
517.604	10813.52
517.972	10914.76
518.339	10927.18
518.706	10868.65
519.073	10908.43
519.44	10891.71
519.808	10992.49
520.175	10940.97
520.542	11000.18
520.909	11057.8
521.276	10990.01
521.643	10987.3
522.009	11047.41
522.376	11070.68
522.743	11078.82
523.11	11120.4
523.477	11184.35
523.843	11128.54
524.21	11145.94
524.577	11087.18
524.943	11135.54
525.31	11197.69
525.676	11208.76
526.043	11138.7
526.409	11160.4
526.776	11185.48
527.142	11160.17
527.508	11188.87
527.874	11175.54
528.241	11097.8
528.607	11243.79
528.973	11215.99
529.339	11179.38
529.705	11166.73
530.071	11181.87
530.437	11177.12
530.803	11135.09
531.169	11156.78
531.535	11048.76
531.901	11109.55
532.267	11057.8
532.632	11103.68
532.998	11040.63
533.364	11021.19
533.73	10947.3
534.095	10988.43
534.461	10945.26
534.826	10939.84
535.192	10996.34
535.557	10885.83
535.923	10811.71
536.288	10894.42
536.653	10858.03
537.019	10766.28
537.384	10746.85
537.749	10605.38
538.114	10643.35
538.479	10574.43
538.845	10616.01
539.21	10495.11
539.575	10451.94
539.94	10458.04
540.305	10406.75
540.67	10376.69
541.034	10402.9
541.399	10303.25
541.764	10329.91
542.129	10198.16
542.494	10227.32
542.858	10153.42
543.223	10084.27
543.587	10145.74
543.952	10027.77
544.316	9972.63
544.681	9964.95
545.045	9912.52
545.41	9820.77
545.774	9806.99
546.138	9805.63
546.503	9786.42
546.867	9674.79
547.231	9780.77
547.595	9622.59
547.959	9606.09
548.324	9633.66
548.688	9575.36
549.052	9552.53
549.416	9420.11
549.779	9412.65
550.143	9376.72
550.507	9389.82
550.871	9309.6
551.235	9271.41
551.599	9293.33
551.962	9200
552.326	9141.24
552.689	9213.11
553.053	9091.53
553.417	9026.9
553.78	9118.42
554.143	9021.25
554.507	9017.4
554.87	8932.66
555.234	9040.45
555.597	8895.6
555.96	8897.18
556.323	8862.61
556.686	8787.13
557.05	8823.28
557.413	8861.25
557.776	8849.72
558.139	8716.4
558.502	8798.65
558.865	8722.27
559.228	8773.79
559.59	8672.78
559.953	8684.98
560.316	8695.6
560.679	8666
561.041	8606.12
561.404	8660.8
561.767	8617.64
562.129	8557.08
562.492	8551.88
562.854	8598.43
563.217	8576.51
563.579	8579.68
563.941	8525.44
564.304	8580.13
564.666	8594.36
565.028	8565.21
565.39	8575.38
565.753	8588.26
566.115	8527.7
566.477	8571.54
566.839	8568.6
567.201	8591.65
567.563	8589.62
567.925	8621.26
568.287	8586.23
568.648	8627.36
569.01	8569.28
569.372	8631.88
569.734	8606.57
570.095	8622.16
570.457	8661.26
570.819	8561.6
571.18	8580.81
571.542	8609.51
571.903	8546.23
572.265	8621.48
572.626	8604.53
572.987	8591.2
573.349	8628.94
573.71	8583.29
574.071	8635.04
574.432	8597.75
574.794	8643.4
575.155	8622.16
575.516	8609.73
575.877	8597.3
576.238	8587.58
576.599	8621.71
576.96	8614.7
577.32	8663.97
577.681	8620.58
578.042	8603.4
578.403	8620.13
578.763	8620.35
579.124	8609.96
579.485	8652.89
579.845	8673.46
580.206	8602.95
580.566	8617.41
580.927	8643.4
581.287	8596.4
581.648	8615.61
582.008	8594.36
582.368	8606.12
582.728	8626
583.089	8666.9
583.449	8613.12
583.809	8578.55
584.169	8623.52
584.529	8610.41
584.889	8656.51
585.249	8608.38
585.609	8526.34
585.969	8517.08
586.329	8563.63
586.688	8569.28
587.048	8585.55
587.408	8540.35
587.768	8501.94
588.127	8548.94
588.487	8482.95
588.846	8546.68
589.206	8451.32
589.565	8487.7
589.925	8522.73
590.284	8436.85
590.643	8510.3
591.003	8502.84
591.362	8509.62
591.721	8518.89
592.08	8511.65
592.44	8507.59
592.799	8509.62
593.158	8420.58
593.517	8466.91
593.876	8422.39
594.235	8518.89
594.593	8454.71
594.952	8460.36
595.311	8460.36
595.67	8370.64
596.029	8475.5
596.387	8479.57
596.746	8406.8
597.104	8383.3
597.463	8422.39
597.822	8415.39
598.18	8436.18
598.538	8350.3
598.897	8484.54
599.255	8367.93
599.613	8531.99
599.972	8385.78
600.33	8396.18
600.688	8406.57
601.046	8393.47
601.404	8451.09
601.762	8372
602.12	8410.64
602.478	8398.21
602.836	8402.28
603.194	8345.56
603.552	8382.84
603.91	8418.78
604.268	8370.87
604.625	8328.16
604.983	8406.8
605.341	8370.87
605.698	8378.78
606.056	8375.16
606.413	8374.03
606.771	8423.97
607.128	8416.29
607.485	8357.99
607.843	8337.42
608.2	8432.33
608.557	8369.06
608.914	8391.43
609.272	8454.48
609.629	8416.52
609.986	8440.24
610.343	8424.88
610.7	8436.18
611.057	8373.35
611.414	8459.23
611.771	8481.15
612.127	8465.1
612.484	8473.24
612.841	8426.46
613.198	8397.76
613.554	8428.95
613.911	8514.37
614.267	8495.38
614.624	8463.75
614.98	8491.77
615.337	8495.16
615.693	8516.85
616.05	8484.31
616.406	8508.72
616.762	8457.64
617.118	8412.22
617.475	8489.06
617.831	8490.41
618.187	8560.69
618.543	8538.09
618.899	8608.83
619.255	8517.98
619.611	8482.5
619.967	8553.69
620.323	8561.37
620.678	8505.78
621.034	8553.24
621.39	8578.55
621.746	8489.73
622.101	8624.19
622.457	8496.29
622.812	8506.23
623.168	8488.83
623.523	8530.41
623.879	8539.9
624.234	8607.92
624.589	8531.54
624.945	8547.13
625.3	8546.23
625.655	8567.02
626.01	8567.92
626.365	8499.68
626.72	8503.52
627.075	8493.8
627.43	8545.55
627.785	8524.31
628.14	8480.47
628.495	8492.45
628.85	8535.61
629.205	8408.15
629.559	8543.07
629.914	8528.83
630.269	8470.07
630.623	8444.09
630.978	8434.59
631.332	8419.68
631.687	8488.38
632.041	8405.22
632.396	8484.31
632.75	8358.89
633.104	8356.4
633.459	8336.52
633.813	8339.91
634.167	8358.44
634.521	8404.31
634.875	8386.91
635.229	8313.02
635.583	8313.69
635.937	8341.94
636.291	8304.88
636.645	8313.69
636.999	8275.28
637.352	8288.38
637.706	8154.6
638.06	8292.9
638.413	8289.74
638.767	8217.2
639.121	8261.94
639.474	8194.83
639.828	8198.44
640.181	8178.1
640.534	8242.51
640.888	8193.02
641.241	8145.11
641.594	8160.03
641.947	8185.56
642.301	8164.09
642.654	8139.24
643.007	8127.71
643.36	8068.05
643.713	8117.77
644.066	8147.37
644.419	8110.76
644.771	8042.29
645.124	7955.96
645.477	7938.11
645.83	7899.24
646.182	7882.07
646.535	7842.97
646.888	7904.89
647.24	7833.71
647.593	7860.15
647.945	7865.12
648.298	7854.27
648.65	7841.39
649.002	7841.84
649.355	7837.55
649.707	7798.23
650.059	7946.7
650.411	7891.56
650.763	8021.27
651.115	7992.12
651.467	8073.47
651.819	8015.17
652.171	8053.14
652.523	7977.88
652.875	7985.34
653.227	7917.77
653.578	8042.29
653.93	8067.15
654.282	7962.29
654.633	7994.83
654.985	8014.04
655.337	8041.16
655.688	8039.8
656.039	8077.09
656.391	8015.17
656.742	7968.62
657.094	7980.6
657.445	8030.99
657.796	8069.18
658.147	8026.47
658.498	8072.57
658.849	8023.76
659.2	8108.73
659.551	8042.74
659.902	8086.36
660.253	8056.75
660.604	8030.76
660.955	8003.42
661.306	8098.33
661.656	8060.14
662.007	8060.82
662.358	8099.46
662.708	8127.26
663.059	8079.35
663.409	8073.93
663.76	8117.31
664.11	8095.17
664.461	8115.96
664.811	8094.26
665.161	8149.63
665.511	8092.46
665.862	8101.95
666.212	8096.3
666.562	8142.17
666.912	8045.68
667.262	8081.84
667.612	8162.96
667.962	8101.27
668.312	8117.77
668.662	8145.79
669.011	8158.22
669.361	8099.91
669.711	8103.53
670.06	8077.09
670.41	8078.9
670.76	8058.33
671.109	8106.02
671.459	8140.14
671.808	8083.19
672.157	8101.27
672.507	8073.25
672.856	8025.11
673.205	8050.2
673.554	8077.32
673.904	8060.14
674.253	8049.29
674.602	8044.55
674.951	7977.88
675.3	7901.05
675.649	7989.63
675.998	8048.16
676.346	7973.82
676.695	8037.54
677.044	7988.96
677.393	7979.47
677.741	7953.25
678.09	8000.26
678.438	7960.26
678.787	7955.74
679.135	7930.2
679.484	7910.54
679.832	7859.69
680.181	7878.45
680.529	7905.79
680.877	7840.03
681.225	7882.07
681.573	7871.45
681.922	7826.02
682.27	7748.96
682.618	7814.27
682.966	7820.6
683.314	7798.23
683.661	7738.57
684.009	7700.38
684.357	7681.39
684.705	7642.07
685.053	7724.1
685.4	7614.73
685.748	7631.23
686.095	7669.87
686.443	7546.48
686.79	7605.01
687.138	7522.3
687.485	7567.72
687.832	7506.26
688.18	7538.35
688.527	7474.62
688.874	7496.99
689.221	7435.52
689.568	7422.42
689.915	7427.62
690.262	7393.27
690.609	7333.83
690.956	7389.88
691.303	7353.95
691.65	7368.63
691.997	7296.09
692.344	7256.77
692.69	7256.32
693.037	7196.66
693.383	7181.52
693.73	7148.98
694.077	7152.14
694.423	7093.84
694.769	7092.71
695.116	7076.21
695.462	7057.46
695.808	7028.53
696.155	7048.19
696.501	6920.06
696.847	6967.97
697.193	6908.31
697.539	6952.6
697.885	6815.2
698.231	6828.54
698.577	6860.85
698.923	6833.96
699.269	6722.32
699.614	6726.16
699.96	6674.87
700.306	6642.1
700.651	6636
700.997	6611.37
701.342	6601.87
701.688	6554.42
702.033	6587.64
702.379	6553.97
702.724	6565.49
703.069	6541.76
703.415	6488.21
703.76	6457.02
704.105	6438.94
704.45	6404.59
704.795	6382.67
705.14	6362.11
705.485	6326.85
705.83	6352.84
706.175	6318.27
706.52	6349.23
706.865	6290.7
707.209	6266.74
707.554	6228.78
707.899	6224.03
708.243	6166.63
708.588	6195.56
708.932	6119.4
709.277	6160.3
709.621	6096.58
709.966	6095.45
710.31	6134.99
710.654	6049.12
710.998	6026.52
711.342	6068.78
711.687	6012.96
712.031	5971.16
712.375	6005.28
712.719	5974.77
713.063	5971.16
713.407	5994.21
713.75	6012.29
714.094	5951.95
714.438	5920.31
714.782	5949.46
715.125	5873.76
715.469	5918.95
715.812	5909.01
716.156	5832.18
716.499	5876.47
716.843	5862.68
717.186	5882.57
717.53	5830.14
717.873	5866.3
718.216	5818.84
718.559	5784.27
718.902	5825.85
719.246	5814.32
719.589	5758.51
719.932	5768.45
720.275	5779.3
720.617	5769.58
720.96	5766.64
721.303	5755.12
721.646	5729.13
721.989	5740.88
722.331	5685.06
722.674	5757.38
723.016	5722.58
723.359	5706.53
723.701	5742.01
724.044	5666.53
724.386	5707.43
724.729	5735
725.071	5686.64
725.413	5675.12
725.755	5667.44
726.097	5604.39
726.439	5649.58
726.782	5666.98
727.124	5671.96
727.465	5641.22
727.807	5669.02
728.149	5637.83
728.491	5694.55
728.833	5639.19
729.175	5669.02
729.516	5617.72
729.858	5667.44
730.199	5622.01
730.541	5655.46
730.882	5645.52
731.224	5657.04
731.565	5661.56
731.906	5664.27
732.248	5671.28
732.589	5642.8
732.93	5627.89
733.271	5595.35
733.612	5665.18
733.953	5681.22
734.294	5656.14
734.635	5662.69
734.976	5649.13
735.317	5631.05
735.658	5633.31
735.999	5634.44
736.339	5617.27
736.68	5621.79
737.021	5719.41
737.361	5672.18
737.702	5691.84
738.042	5702.01
738.383	5706.98
738.723	5743.14
739.063	5706.53
739.404	5732.74
739.744	5727.32
740.084	5704.72
740.424	5763.03
740.764	5778.62
741.104	5833.53
741.444	5786.75
741.784	5777.04
742.124	5757.15
742.464	5864.49
742.804	5832.18
743.143	5898.84
743.483	5924.83
743.823	5861.55
744.162	5901.78
744.502	5967.54
744.841	5984.04
745.181	6041.21
745.52	6086.18
745.86	6081.44
746.199	6071.27
746.538	6105.84
746.877	6200.3
747.216	6251.38
747.556	6283.46
747.895	6335.44
748.234	6337.47
748.573	6349
748.911	6478.94
749.25	6517.81
749.589	6544.25
749.928	6565.04
750.267	6698.37
750.605	6743.79
750.944	6855.43
751.283	6877.35
751.621	6928.65
751.96	7022.2
752.298	7121.86
752.636	7180.39
752.975	7279.82
753.313	7373.38
753.651	7506.26
753.989	7561.85
754.327	7721.62
754.666	7808.17
755.004	7941.27
755.342	8057.88
755.679	8200.93
756.017	8272.11
756.355	8479.79
756.693	8501.26
757.031	8697.86
757.368	8862.15
757.706	9001.81
758.044	9163.61
758.381	9324.97
758.719	9448.13
759.056	9628.01
759.394	9811.51
759.731	9910.94
760.068	10031.16
760.405	10266.64
760.743	10364.49
761.08	10550.47
761.417	10640.86
761.754	10864.36
762.091	11072.04
762.428	11161.75
762.765	11300.28
763.102	11515.87
763.438	11659.59
763.775	11856.43
764.112	12045.35
764.449	12297.32
764.785	12379.12
765.122	12549.74
765.458	12567.37
765.795	12825.67
766.131	13026.11
766.467	13156.28
766.804	13320.79
767.14	13411.86
767.476	13650.5
767.812	13681.69
768.148	13830.16
768.485	13960.55
768.821	14017.05
769.157	14273.76
769.492	14399.86
769.828	14586.3
770.164	14601.66
770.5	14751.04
770.836	14892.28
771.171	14861.54
771.507	15097.02
771.842	15104.02
772.178	15229.9
772.513	15433.05
772.849	15457.23
773.184	15523
773.519	15685.25
773.855	15758.92
774.19	15744.68
774.525	15885.25
774.86	16049.31
775.195	16058.8
775.53	16055.19
775.865	16073.94
776.2	16134.05
776.535	16156.88
776.87	16218.12
777.205	16293.82
777.539	16329.08
777.874	16447.27
778.209	16337.89
778.543	16454.04
778.878	16428.96
779.212	16469.64
779.547	16510.54
779.881	16679.35
780.215	16588.96
780.55	16623.76
780.884	16663.3
781.218	16692.91
781.552	16788.73
781.886	16726.35
782.22	16675.28
782.554	16715.28
782.888	16721.61
783.222	16617.88
783.556	16596.19
783.889	16692.68
784.223	16639.8
784.557	16584.89
784.89	16652.46
785.224	16636.19
785.557	16589.41
785.891	16619.69
786.224	16657.2
786.558	16704.66
786.891	16574.27
787.224	16467.6
787.557	16597.32
787.891	16567.71
788.224	16620.14
788.557	16589.18
788.89	16578.79
789.223	16636.86
789.556	16578.79
789.888	16542.4
790.221	16540.6
790.554	16368.17
790.887	16431.67
791.219	16365.01
791.552	16428.51
791.884	16339.7
792.217	16347.83
792.549	16286.82
792.882	16239.81
793.214	16114.84
793.546	16246.37
793.879	16132.25
794.211	16070.1
794.543	16096.77
794.875	16088.18
795.207	16195.29
795.539	16080.04
795.871	16015.64
796.203	15908.75
796.535	15925.25
796.867	15927.5
797.198	15887.96
797.53	15860.61
797.862	15795.98
798.193	15759.37
798.525	15718.47
798.856	15721.18
799.188	15560.73
799.519	15534.29
799.85	15488.42
800.182	15499.49
800.513	15557.12
800.844	15530.91
801.175	15467.4
801.506	15503.56
801.837	15403.68
802.168	15453.62
802.499	15320.06
802.83	15316.9
803.161	15247.52
803.491	15265.38
803.822	15292.27
804.153	15191.71
804.483	15128.88
804.814	15064.25
805.145	15073.29
805.475	15043.23
805.805	14971.37
806.136	14981.77
806.466	15052.73
806.796	14965.5
807.126	14773.19
807.457	14838.95
807.787	14843.92
808.117	14821.09
808.447	14726.63
808.777	14815.9
809.107	14720.53
809.436	14694.32
809.766	14657.48
810.096	14627.2
810.426	14515.56
810.755	14556.69
811.085	14584.49
811.414	14503.59
811.744	14400.77
812.073	14357.6
812.403	14532.29
812.732	14304.72
813.061	14368.9
813.39	14221.56
813.719	14240.32
814.049	14363.25
814.378	14271.28
814.707	14202.35
815.036	14237.61
815.365	14151.28
815.693	14074.22
816.022	14121
816.351	14057.5
816.68	13972.98
817.008	14049.36
817.337	13923.72
817.665	13889.82
817.994	13984.05
818.322	13983.83
818.651	13823.38
818.979	13788.35
819.307	13915.81
819.636	13845.98
819.964	13751.06
820.292	13870.16
820.62	13815.24
820.948	13735.7
821.276	13741.57
821.604	13727.79
821.932	13829.48
822.259	13824.06
822.587	13742.48
822.915	13741.12
823.243	13826.77
823.57	13618.19
823.898	13704.74
824.225	13738.86
824.553	13737.73
824.88	13739.99
825.207	13790.39
825.535	13702.48
825.862	13804.62
826.189	13654.57
826.516	13796.26
826.843	13851.63
827.17	13801.23
827.497	13727.79
827.824	13808.69
828.151	13822.7
828.478	13801.23
828.805	13827.9
829.131	13705.42
829.458	13769.14
829.785	13656.15
830.111	13661.12
830.438	13774.79
830.764	13801.91
831.09	13832.87
831.417	13734.34
831.743	13761.91
832.069	13820.44
832.395	13769.37
832.722	13690.73
833.048	13734.12
833.374	13744.74
833.7	13601.46
834.026	13662.71
834.351	13663.38
834.677	13679.2
835.003	13678.98
835.329	13642.59
835.654	13721.24
835.98	13564.86
836.306	13622.25
836.631	13580.45
836.956	13594.46
837.282	13636.04
837.607	13625.42
837.932	13503.84
838.258	13500.45
838.583	13547.23
838.908	13465.42
839.233	13403.05
839.558	13445.08
839.883	13363.28
840.208	13287.57
840.533	13363.73
840.858	13299.1
841.182	13336.39
841.507	13282.15
841.832	13268.59
842.156	13187.24
842.481	13274.47
842.805	13211.64
843.13	13156.73
843.454	13121.7
843.778	13101.14
844.103	12965.55
844.427	13003.51
844.751	12997.19
845.075	12981.37
845.399	12905.21
845.723	12913.35
846.047	12895.27
846.371	12779.34
846.695	12798.1
847.019	12600.59
847.343	12644.2
847.666	12577.08
847.99	12564.43
848.313	12554.94
848.637	12457.54
848.96	12424.09
849.284	12382.29
849.607	12323.08
849.931	12301.39
850.254	12208.96
850.577	12096.19
850.9	12059.81
851.223	12115.18
851.546	12072.01
851.869	11912.24
852.192	12026.59
852.515	11927.84
852.838	11871.34
853.161	11860.49
853.483	11733.49
853.806	11687.16
854.129	11687.62
854.451	11709.31
854.774	11597.68
855.096	11591.35
855.419	11578.47
855.741	11480.39
856.063	11388.64
856.385	11432.26
856.708	11403.1
857.03	11341.18
857.352	11346.16
857.674	11306.16
857.996	11308.64
858.318	11185.71
858.64	11230
858.961	11173.51
859.283	11167.4
859.605	11063.9
859.926	11089.44
860.248	11024.36
860.57	10947.75
860.891	11025.26
861.212	10865.27
861.534	10963.34
861.855	10846.96
862.176	10965.83
862.498	10899.16
862.819	10912.27
863.14	10834.08
863.461	10834.98
863.782	10780.52
864.103	10800.86
864.424	10732.39
864.745	10776.68
865.065	10647.19
865.386	10752.95
865.707	10719.73
866.027	10702.78
866.348	10658.26
866.668	10594.99
866.989	10549.57
867.309	10569.68
867.63	10537.82
867.95	10635.89
868.27	10480.87
868.59	10459.85
868.91	10497.37
869.23	10440.87
869.55	10446.07
869.87	10536.69
870.19	10437.25
870.51	10444.71
870.83	10421.89
871.15	10357.71
871.469	10337.6
871.789	10404.26
872.109	10385.5
872.428	10271.83
872.748	10334.88
873.067	10224.6
873.386	10354.09
873.706	10288.33
874.025	10301.89
874.344	10220.08
874.663	10230.25
874.982	10184.38
875.301	10185.06
875.62	10253.3
875.939	10223.47
876.258	10052.18
876.577	9977.15
876.896	10097.6
877.214	10014.44
877.533	10091.27
877.852	10036.13
878.17	10005.85
878.489	9973.31
878.807	9995.01
879.125	9914.78
879.444	9931.5
879.762	9928.79
880.08	9976.93
880.398	9882.01
880.716	9919.53
881.034	9861.68
881.352	9895.8
881.67	9844.28
881.988	9802.92
882.306	9790.94
882.624	9751.85
882.941	9626.43
883.259	9722.47
883.577	9713.43
883.894	9696.93
884.212	9628.24
884.529	9603.38
884.846	9609.93
885.164	9576.49
885.481	9625.3
885.798	9554.79
886.115	9510.72
886.432	9549.59
886.75	9443.38
887.067	9484.06
887.383	9455.58
887.7	9442.48
888.017	9368.13
888.334	9392.31
888.651	9374.23
888.967	9325.19
889.284	9330.16
889.6	9279.32
889.917	9231.86
890.233	9196.16
890.55	9143.05
890.866	9165.2
891.182	9171.75
891.498	9056.05
891.815	9029.83
892.131	9056.5
892.447	9028.93
892.763	9024.18
893.079	8977.41
893.395	8905.99
893.71	8887.46
894.026	8879.55
894.342	8850.18
894.657	8777.41
894.973	8755.94
895.289	8752.1
895.604	8694.7
895.92	8659.9
896.235	8667.36
896.55	8632.78
896.865	8610.86
897.181	8577.42
897.496	8612.67
897.811	8549.39
898.126	8535.61
898.441	8429.17
898.756	8474.37
899.071	8388.72
899.386	8385.56
899.7	8309.4
900.015	8328.16
900.33	8253.58
900.644	8192.79
900.959	8260.14
901.273	8214.49
901.588	8177.43
901.902	8133.13
902.216	8176.3
902.531	8059.24
902.845	8024.66
903.159	7992.57
903.473	7919.58
903.787	7938.79
904.101	7892.46
904.415	7870.54
904.729	7875.29
905.042	7803.65
905.356	7765.01
905.67	7792.13
905.984	7761.39
906.297	7771.11
906.611	7696.76
906.924	7687.72
907.237	7616.31
907.551	7637.55
907.864	7567.72
908.177	7522.98
908.491	7550.32
908.804	7494.73
909.117	7434.39
909.43	7358.01
909.743	7415.64
910.056	7331.35
910.368	7299.48
910.681	7315.3
910.994	7262.65
911.307	7258.58
911.619	7201.63
911.932	7188.98
912.244	7097.23
912.557	7118.7
912.869	7092.71
913.181	7053.84
913.494	7032.37
913.806	6999.38
914.118	6930
914.43	6901.75
914.742	6862.21
915.054	6813.39
915.366	6795.99
915.678	6794.86
915.99	6732.72
916.302	6690.46
916.613	6674.87
916.925	6721.87
917.236	6696.79
917.548	6618.37
917.859	6606.17
918.171	6607.75
918.482	6589.67
918.794	6549.22
919.105	6494.53
919.416	6525.94
919.727	6442.1
920.038	6483.69
920.349	6443.91
920.66	6349.23
920.971	6408.21
921.282	6395.1
921.593	6383.58
921.903	6284.82
922.214	6258.61
922.525	6221.09
922.835	6213.64
923.146	6218.61
923.456	6196.46
923.767	6148.78
924.077	6132.06
924.387	6102.23
924.697	6108.55
925.008	6094.54
925.318	6027.43
925.628	5999.18
925.938	6006.64
926.248	5923.7
926.558	5924.15
926.867	5890.71
927.177	5881.89
927.487	5856.58
927.796	5847.32
928.106	5837.37
928.416	5761.9
928.725	5763.7
929.034	5767.77
929.344	5724.61
929.653	5706.98
929.962	5632.86
930.271	5665.85
930.581	5587.66
930.89	5615.23
931.199	5564.16
931.508	5573.88
931.817	5535.46
932.125	5478.74
932.434	5526.87
932.743	5430.38
933.051	5426.76
933.36	5422.92
933.669	5403.26
933.977	5382.02
934.286	5347.67
934.594	5335.69
934.902	5244.17
935.21	5309.25
935.519	5295.47
935.827	5266.99
936.135	5196.26
936.443	5168.24
936.751	5165.53
937.059	5164.4
937.367	5102.48
937.674	5073.55
937.982	5061.8
938.29	5063.38
938.597	5051.63
938.905	5029.71
939.213	5004.85
939.52	4978.87
939.827	4989.49
940.135	4903.61
940.442	4937.96
940.749	4854.35
941.056	4909.72
941.363	4876.27
941.67	4814.12
941.977	4789.72
942.284	4761.24
942.591	4804.86
942.898	4785.2
943.205	4779.1
943.511	4695.48
943.818	4701.81
944.125	4632.21
944.431	4679.67
944.738	4654.13
945.044	4614.13
945.35	4587.92
945.657	4611.19
945.963	4561.25
946.269	4559.22
946.575	4520.8
946.881	4469.28
947.187	4457.75
947.493	4494.59
947.799	4501.59
948.105	4449.61
948.41	4436.73
948.716	4445.55
949.022	4400.35
949.327	4405.77
949.633	4285.33
949.938	4319
950.244	4313.35
950.549	4289.62
950.854	4263.18
951.16	4239.68
951.465	4292.78
951.77	4199
952.075	4129.85
952.38	4174.14
952.685	4160.58
952.99	4112.45
953.294	4105.89
953.599	4077.65
953.904	4107.02
954.209	4088.72
954.513	4066.35
954.818	4050.76
955.122	4000.59
955.426	4026.8
955.731	3989.74
956.035	3972.34
956.339	3947.93
956.643	3913.36
956.948	3920.81
957.252	3904.54
957.556	3880.59
957.86	3895.28
958.163	3853.25
958.467	3818.44
958.771	3816.64
959.075	3797.43
959.378	3782.74
959.682	3801.95
959.985	3773.7
960.289	3756.3
960.592	3736.64
960.896	3730.31
961.199	3706.36
961.502	3675.85
961.805	3671.1
962.108	3631.11
962.411	3633.59
962.714	3603.54
963.017	3623.87
963.32	3620.94
963.623	3556.3
963.926	3526.93
964.228	3536.19
964.531	3507.27
964.833	3487.83
965.136	3469.75
965.438	3482.63
965.741	3474.73
966.043	3479.92
966.345	3414.16
966.648	3439.92
966.95	3401.51
967.252	3382.98
967.554	3381.85
967.856	3324.22
968.158	3341.4
968.46	3298.68
968.761	3322.41
969.063	3267.27
969.365	3307.05
969.666	3273.37
969.968	3254.84
970.269	3198.57
970.571	3223.88
970.872	3169.65
971.174	3189.99
971.475	3200.38
971.776	3151.34
972.077	3160.61
972.378	3160.38
972.679	3140.72
972.98	3109.99
973.281	3094.4
973.582	3091.91
973.883	3088.52
974.183	3031.8
974.484	3059.59
974.785	3048.75
975.085	3008.97
975.386	3005.81
975.686	2994.96
975.986	2951.8
976.287	2954.06
976.587	2961.74
976.887	2935.3
977.187	2930.11
977.487	2926.94
977.787	2897.79
978.087	2873.38
978.387	2876.77
978.687	2887.4
978.987	2846.94
979.286	2853.72
979.586	2844.46
979.885	2820.96
980.185	2754.97
980.484	2777.34
980.784	2768.3
981.083	2774.18
981.382	2739.15
981.682	2741.64
981.981	2740.51
982.28	2731.47
982.579	2662.99
982.878	2673.39
983.177	2671.58
983.475	2677.46
983.774	2671.81
984.073	2639.27
984.372	2617.12
984.67	2635.43
984.969	2641.53
985.267	2607.63
985.566	2572.6
985.864	2522.21
986.162	2535.31
986.461	2546.84
986.759	2545.03
987.057	2534.64
987.355	2509.78
987.653	2505.71
987.951	2491.25
988.249	2453.96
988.547	2501.64
988.844	2497.35
989.142	2477.01
989.44	2417.58
989.737	2414.41
990.035	2461.64
990.332	2413.51
990.63	2397.69
990.927	2385.04
991.224	2361.53
991.521	2374.41
991.819	2359.95
992.116	2340.97
992.413	2339.61
992.71	2284.02
993.006	2289.45
993.303	2315.89
993.6	2277.92
993.897	2291.25
994.193	2286.28
994.49	2275.89
994.787	2237.7
995.083	2247.86
995.379	2175.32
995.676	2217.13
995.972	2215.78
996.268	2196.57
996.565	2196.79
996.861	2186.85
997.157	2157.02
997.453	2149.56
997.749	2151.6
998.044	2151.82
998.34	2098.04
998.636	2104.82
998.932	2091.03
999.227	2096.91
999.523	2075.21
999.818	2077.25
1000.114	2021.66
1000.409	2032.73
1000.704	2013.52
1001	2026.18
1001.295	1975.56
1001.59	2015.55
1001.885	2005.39
1002.18	1956.12
1002.475	1978.49
1002.77	1941.43
1003.065	1952.73
1003.359	1932.39
1003.654	1919.96
1003.949	1894.65
1004.243	1917.93
1004.538	1882
1004.832	1897.14
1005.127	1876.57
1005.421	1890.59
1005.715	1825.5
1006.009	1841.77
1006.304	1831.38
1006.598	1817.82
1006.892	1801.32
1007.186	1781.89
1007.48	1781.89
1007.773	1778.05
1008.067	1783.92
1008.361	1765.62
1008.655	1747.09
1008.948	1733.53
1009.242	1740.08
1009.535	1701.21
1009.829	1735.79
1010.122	1688.56
1010.415	1669.57
1010.708	1641.78
1011.001	1667.99
1011.295	1656.02
1011.588	1685.39
1011.881	1651.27
1012.173	1642.91
1012.466	1607.88
1012.759	1607.88
1013.052	1580.31
1013.344	1628.45
1013.637	1585.51
1013.93	1581.44
1014.222	1591.38
1014.514	1557.49
1014.807	1542.35
1015.099	1543.02
1015.391	1519.97
1015.683	1530.82
1015.976	1518.62
1016.268	1503.48
1016.56	1513.87
1016.851	1469.13
1017.143	1484.49
1017.435	1483.36
1017.727	1445.17
1018.018	1442.24
1018.31	1426.64
1018.602	1426.64
1018.893	1427.32
1019.185	1390.49
1019.476	1406.98
1019.767	1383.93
1020.058	1384.38
1020.35	1358.62
1020.641	1351.17
1020.932	1348
1021.223	1336.02
1021.514	1360.2
1021.804	1338.06
1022.095	1334.67
1022.386	1310.04
1022.677	1296.25
1022.967	1290.38
1023.258	1304.39
1023.548	1272.98
1023.839	1271.85
1024.129	1276.59
1024.419	1272.75
1024.709	1237.5
1025	1255.35
1025.29	1250.38
1025.58	1221
1025.87	1205.86
1026.16	1222.35
1026.449	1206.31
1026.739	1191.62
1027.029	1205.41
1027.319	1199.98
1027.608	1172.19
1027.898	1165.41
1028.187	1150.94
1028.477	1158.18
1028.766	1150.49
1029.055	1151.62
1029.344	1130.15
1029.634	1157.5
1029.923	1095.13
1030.212	1080.89
1030.501	1099.19
1030.79	1116.37
1031.078	1103.94
1031.367	1057.39
1031.656	1065.3
1031.945	1067.56
1032.233	1068.01
1032.522	1065.52
1032.81	1042.25
1033.099	1036.82
1033.387	1050.83
1033.675	1028.01
1033.963	1048.8
1034.251	1019.65
1034.54	1022.81
1034.828	1006.77
1035.116	980.1
1035.403	983.94
1035.691	996.37
1035.979	978.07
1036.267	959.31
1036.554	926.32
1036.842	960.67
1037.129	955.7
1037.417	966.54
1037.704	944.17
1037.992	930.39
1038.279	929.71
1038.566	938.29
1038.853	938.29
1039.14	938.29
