Data from hue_220_FLMS001491_00054.txt Node
Date: Tue Feb 07 16:39:39 GMT 2017
User: dcchb
Spectrometer: FLMS00149
Trigger mode: 0
Integration Time (sec): 2.000000E-2
Scans to average: 10
Electric dark correction enabled: true
Nonlinearity correction enabled: false
Boxcar width: 0
XAxis mode: Wavelengths
Number of Pixels in Spectrum: 2048
>>>>>Begin Spectral Data<<<<<
341.393	-18.9
341.776	-18.9
342.16	-18.9
342.543	-67.26
342.927	-58.67
343.31	-55.28
343.693	-61.16
344.077	-55.28
344.46	-63.19
344.843	-43.08
345.226	-53.93
345.61	-26.58
345.993	-10.54
346.376	-1.95
346.759	7.77
347.142	28.11
347.525	31.5
347.908	46.41
348.291	64.04
348.674	102.68
349.057	90.48
349.44	129.35
349.823	121.89
350.206	154.66
350.588	213.86
350.971	187.42
351.354	226.75
351.737	227.2
352.119	245.5
352.502	261.77
352.884	277.14
353.267	290.92
353.65	278.72
354.032	271.94
354.414	301.77
354.797	296.35
355.179	324.37
355.562	319.17
355.944	331.15
356.326	335.9
356.709	325.5
357.091	304.26
357.473	340.41
357.855	317.82
358.238	343.58
358.62	341.54
359.002	343.35
359.384	320.75
359.766	337.25
360.148	327.31
360.53	325.5
360.912	330.47
361.294	322.79
361.676	308.33
362.057	318.27
362.439	322.34
362.821	315.78
363.203	329.79
363.584	322.11
363.966	297.03
364.348	314.43
364.729	302.9
365.111	328.89
365.493	323.24
365.874	304.48
366.256	313.07
366.637	310.36
367.019	320.53
367.4	313.3
367.781	319.17
368.163	311.49
368.544	297.48
368.925	296.12
369.306	334.77
369.688	309
370.069	329.79
370.45	309.46
370.831	306.29
371.212	310.13
371.593	318.27
371.974	309.23
372.355	306.07
372.736	311.71
373.117	323.24
373.498	296.57
373.879	299.74
374.26	301.55
374.641	297.7
375.021	302.45
375.402	296.57
375.783	290.25
376.163	316.46
376.544	310.81
376.925	296.8
377.305	307.65
377.686	305.16
378.066	318.27
378.447	326.86
378.827	315.78
379.208	301.32
379.588	328.21
379.968	314.2
380.349	336.35
380.729	321.66
381.109	331.83
381.489	327.53
381.87	336.12
382.25	339.51
382.63	338.83
383.01	312.84
383.39	334.31
383.77	320.3
384.15	340.41
384.53	349.68
384.91	342.67
385.29	339.06
385.67	342.67
386.049	342.22
386.429	346.29
386.809	350.81
387.189	353.97
387.568	349
387.948	365.5
388.328	344.48
388.707	356.23
389.087	322.34
389.466	369.57
389.846	323.24
390.225	355.56
390.605	355.1
390.984	366.85
391.363	369.34
391.743	360.75
392.122	355.56
392.501	357.82
392.881	385.39
393.26	356.23
393.639	372.73
394.018	363.92
394.397	384.03
394.776	371.37
395.155	378.61
395.534	357.36
395.913	348.32
396.292	381.54
396.671	402.56
397.05	404.37
397.429	369.79
397.808	369.34
398.186	387.19
398.565	391.49
398.944	388.55
399.323	372.5
399.701	385.16
400.08	377.48
400.458	394.42
400.837	402.33
401.215	419.06
401.594	408.21
401.972	423.35
402.351	397.81
402.729	413.63
403.107	431.03
403.486	414.54
403.864	412.96
404.242	429.23
404.62	439.4
404.999	429.68
405.377	430.13
405.755	468.55
406.133	458.83
406.511	451.37
406.889	473.97
407.267	450.24
407.645	457.47
408.023	480.3
408.401	463.8
408.779	474.2
409.156	488.89
409.534	488.89
409.912	475.55
410.29	482.78
410.667	485.27
411.045	517.81
411.422	519.62
411.8	506.96
412.178	508.55
412.555	532.27
412.933	541.31
413.31	580.63
413.687	562.56
414.065	580.41
414.442	575.89
414.819	588.32
415.197	569.34
415.574	601.42
415.951	606.62
416.328	596.45
416.705	591.48
417.082	626.73
417.46	635.77
417.837	639.16
418.214	656.11
418.591	636
418.967	664.25
419.344	692.95
419.721	672.16
420.098	691.82
420.475	689.78
420.852	683.23
421.228	711.25
421.605	707.41
421.982	737.47
422.358	754.42
422.735	722.33
423.111	773.62
423.488	774.75
423.864	811.36
424.241	781.08
424.617	804.81
424.994	831.93
425.37	818.14
425.746	836.9
426.123	855.2
426.499	871.7
426.875	886.39
427.251	884.58
427.627	933.85
428.003	910.57
428.379	934.52
428.756	927.74
429.132	955.54
429.507	992.38
429.883	997.8
430.259	967.52
430.635	995.31
431.011	1001.41
431.387	1023.11
431.763	1037.57
432.138	1044.8
432.514	1054.07
432.89	1084.8
433.265	1081.19
433.641	1128.42
434.016	1113.95
434.392	1139.49
434.767	1181.52
435.143	1199.6
435.518	1214.74
435.894	1222.2
436.269	1257.45
436.644	1277.79
437.02	1314.4
437.395	1304.46
437.77	1296.1
438.145	1366.6
438.52	1370.9
438.895	1380.84
439.271	1396.43
439.646	1433.04
440.021	1436.43
440.395	1498.58
440.77	1469.88
441.145	1484.34
441.52	1519.59
441.895	1522.3
442.27	1564.34
442.645	1569.54
443.019	1581.51
443.394	1584.68
443.769	1614.51
444.143	1612.02
444.518	1625.13
444.892	1638.46
445.267	1668.97
445.641	1713.71
446.016	1684.56
446.39	1708.51
446.764	1742.19
447.139	1690.44
447.513	1696.99
447.887	1754.61
448.262	1783.77
448.636	1767.5
449.01	1803.43
449.384	1789.64
449.758	1802.52
450.132	1829.87
450.506	1846.59
450.88	1855.86
451.254	1852.47
451.628	1873.71
452.002	1916.42
452.376	1923.2
452.75	1962.07
453.123	1958.23
453.497	1975.85
453.871	2003.87
454.244	2026.92
454.618	2026.25
454.992	2089.75
455.365	2076.64
455.739	2103.08
456.112	2131.1
456.486	2136.53
456.859	2153.47
457.232	2184.21
457.606	2172.91
457.979	2202.51
458.352	2255.39
458.725	2308.95
459.099	2307.59
459.472	2358.21
459.845	2341.04
460.218	2389.4
460.591	2361.15
460.964	2388.27
461.337	2423.98
461.71	2442.05
462.083	2510.75
462.456	2500.58
462.829	2496.29
463.201	2577.42
463.574	2575.61
463.947	2604.99
464.32	2683.4
464.692	2671.65
465.065	2683.4
465.438	2696.06
465.81	2740.8
466.183	2774.25
466.555	2823.97
466.928	2828.26
467.3	2880.46
467.672	2889.05
468.045	2959.78
468.417	2967.01
468.789	2993
469.161	3011.08
469.534	3035.94
469.906	3134.24
470.278	3123.39
470.65	3162.94
471.022	3195.71
471.394	3269.6
471.766	3295.59
472.138	3304.86
472.51	3355.48
472.882	3387.57
473.253	3417.85
473.625	3498.52
473.997	3529.26
474.369	3591.63
474.74	3626.88
475.112	3643.38
475.484	3715.47
475.855	3748.01
476.227	3743.04
476.598	3912.75
476.97	3932.41
477.341	3992.3
477.713	4000.43
478.084	4046.98
478.455	4143.25
478.827	4163.37
479.198	4284.04
479.569	4282.01
479.94	4356.58
480.311	4402.23
480.682	4474.77
481.053	4583.47
481.424	4632.96
481.795	4634.99
482.166	4737.59
482.537	4765.61
482.908	4820.07
483.279	4920.18
483.65	4979.61
484.021	5046.05
484.391	5049.9
484.762	5076.56
485.133	5135.99
485.503	5223
485.874	5297.35
486.244	5321.98
486.615	5488.98
486.985	5463.44
487.356	5508.19
487.726	5550.9
488.097	5660.5
488.467	5701.63
488.837	5790.67
489.207	5808.97
489.578	5923.09
489.948	5982.3
490.318	6015.52
490.688	6051.9
491.058	6065.91
491.428	6204.89
491.798	6252.58
492.168	6360.82
492.538	6401.5
492.908	6367.83
493.278	6421.84
493.648	6448.5
494.017	6533.7
494.387	6544.09
494.757	6601.49
495.126	6677.42
495.496	6689.4
495.866	6669.06
496.235	6727.37
496.605	6798.32
496.974	6805.78
497.344	6849.17
497.713	6860.24
498.082	6986.34
498.452	6905.89
498.821	6978.66
499.19	7028.83
499.559	7067.24
499.928	7119.67
500.298	7109.5
500.667	7167.13
501.036	7142.27
501.405	7210.06
501.774	7210.52
502.143	7271.08
502.512	7247.8
502.88	7286.22
503.249	7296.39
503.618	7303.4
503.987	7314.69
504.356	7365.31
504.724	7373.22
505.093	7329.61
505.462	7409.61
505.83	7442.83
506.199	7468.81
506.567	7501.36
506.936	7517.85
507.304	7618.19
507.672	7604.18
508.041	7591.52
508.409	7632.88
508.777	7638.53
509.145	7679.66
509.514	7692.09
509.882	7723.5
510.25	7636.27
510.618	7791.07
510.986	7671.75
511.354	7734.34
511.722	7782.25
512.09	7811.63
512.458	7787
512.826	7862.02
513.193	7862.7
513.561	7845.53
513.929	7885.75
514.297	7922.81
514.664	7907.45
515.032	7897.96
515.4	7906.32
515.767	8025.64
516.135	7896.6
516.502	7919.88
516.869	8017.28
517.237	7986.09
517.604	7913.77
517.972	7982.47
518.339	7986.54
518.706	7921.46
519.073	7942.47
519.44	8051.17
519.808	8077.61
520.175	7975.92
520.542	8032.42
520.909	8060.44
521.276	7950.84
521.643	8077.16
522.009	8027.9
522.376	8115.8
522.743	8066.09
523.11	8098.18
523.477	8153.54
523.843	8186.54
524.21	8164.16
524.577	8221.56
524.943	8212.3
525.31	8207.1
525.676	8233.54
526.043	8206.65
526.409	8156.48
526.776	8271.28
527.142	8236.7
527.508	8237.38
527.874	8297.27
528.241	8258.17
528.607	8276.93
528.973	8316.93
529.339	8261.56
529.705	8252.75
530.071	8301.11
530.437	8295.69
530.803	8274.22
531.169	8291.39
531.535	8235.35
531.901	8212.75
532.267	8208.91
532.632	8235.35
532.998	8248.68
533.364	8232.41
533.73	8241.22
534.095	8222.24
534.461	8163.71
534.826	8226.31
535.192	8219.98
535.557	8211.17
535.923	8135.92
536.288	8157.16
536.653	8204.16
537.019	8088.46
537.384	8066.31
537.749	8105.63
538.114	8159.19
538.479	8036.94
538.845	8010.27
539.21	8038.74
539.575	8040.55
539.94	7996.03
540.305	8052.75
540.67	7977.05
541.034	7971.4
541.399	7978.41
541.764	7881.69
542.129	7997.61
542.494	7927.79
542.858	7887.56
543.223	7907.45
543.587	7825.64
543.952	7861.35
544.316	7841.46
544.681	7800.11
545.045	7808.47
545.41	7799.88
545.774	7689.15
546.138	7719.2
546.503	7739.77
546.867	7642.14
547.231	7672.2
547.595	7690.96
547.959	7672.65
548.324	7570.28
548.688	7599.43
549.052	7540.68
549.416	7539.77
549.779	7540.45
550.143	7509.72
550.507	7563.05
550.871	7521.47
551.235	7473.79
551.599	7515.14
551.962	7500.23
552.326	7420.23
552.689	7431.3
553.053	7357.86
553.417	7364.64
553.78	7477.4
554.143	7408.7
554.507	7415.26
554.87	7455.93
555.234	7413.45
555.597	7309.05
555.96	7294.36
556.323	7359.89
556.686	7373.9
557.05	7358.76
557.413	7281.25
557.776	7283.06
558.139	7316.5
558.502	7272.21
558.865	7288.25
559.228	7316.05
559.59	7337.52
559.953	7292.32
560.316	7286.67
560.679	7338.2
561.041	7346.56
561.404	7343.85
561.767	7361.47
562.129	7342.72
562.492	7387.24
562.854	7312.89
563.217	7345.88
563.579	7345.65
563.941	7400.12
564.304	7378.87
564.666	7419.1
565.028	7424.07
565.39	7404.86
565.753	7396.73
566.115	7483.73
566.477	7427.46
566.839	7483.28
567.201	7519.21
567.563	7441.7
567.925	7520.56
568.287	7532.32
568.648	7478.76
569.01	7579.77
569.372	7545.2
569.734	7506.33
570.095	7549.26
570.457	7592.88
570.819	7604.86
571.18	7572.09
571.542	7638.08
571.903	7606.89
572.265	7605.99
572.626	7681.69
572.987	7634.46
573.349	7691.63
573.71	7681.69
574.071	7657.96
574.432	7720.33
574.794	7794.68
575.155	7769.82
575.516	7762.59
575.877	7763.04
576.238	7777.73
576.599	7866.77
576.96	7827
577.32	7855.7
577.681	7886.66
578.042	7821.35
578.403	7866.54
578.763	7895.7
579.124	7911.29
579.485	7957.16
579.845	8024.73
580.206	7984.28
580.566	7971.4
580.927	8020.44
581.287	8087.56
581.648	8015.92
582.008	8034.9
582.368	8051.85
582.728	8056.6
583.089	8051.85
583.449	8073.09
583.809	8064.73
584.169	8123.71
584.529	8064.05
584.889	8224.5
585.249	8117.39
585.609	8088.69
585.969	8173.43
586.329	8100.44
586.688	8209.36
587.048	8217.95
587.408	8195.58
587.768	8219.98
588.127	8217.27
588.487	8232.18
588.846	8255.69
589.206	8262.01
589.565	8234.44
589.925	8373.88
590.284	8300.21
590.643	8302.47
591.003	8380.43
591.362	8395.57
591.721	8349.02
592.08	8330.49
592.44	8433.54
592.799	8407.1
593.158	8400.09
593.517	8350.6
593.876	8425.85
594.235	8368.23
594.593	8410.49
594.952	8462.24
595.311	8406.64
595.67	8459.52
596.029	8507.43
596.387	8537.04
596.746	8459.75
597.104	8445.74
597.463	8484.61
597.822	8530.93
598.18	8516.92
598.538	8542.68
598.897	8563.93
599.255	8488.22
599.613	8611.16
599.972	8498.39
600.33	8552.4
600.688	8492.52
601.046	8560.99
601.404	8553.08
601.762	8609.58
602.12	8639.41
602.478	8666.52
602.836	8640.76
603.194	8610.71
603.552	8576.13
603.91	8534.32
604.268	8607.32
604.625	8606.86
604.983	8591.5
605.341	8563.7
605.698	8624.49
606.056	8624.49
606.413	8607.32
606.771	8674.88
607.128	8686.86
607.485	8686.41
607.843	8664.04
608.2	8714.66
608.557	8765.96
608.914	8699.07
609.272	8685.51
609.629	8731.38
609.986	8751.49
610.343	8764.37
610.7	8772.51
611.057	8757.37
611.414	8772.51
611.771	8782.68
612.127	8780.87
612.484	8812.73
612.841	8732.06
613.198	8823.36
613.554	8774.77
613.911	8811.38
614.267	8816.12
614.624	8764.6
614.98	8847.08
615.337	8891.83
615.693	8824.49
616.05	8831.49
616.406	8893.18
616.762	8855.9
617.118	8939.96
617.475	8849.12
617.831	8987.19
618.187	8937.7
618.543	8919.85
618.899	8982.67
619.255	8897.25
619.611	8982.9
619.967	8962.33
620.323	9004.82
620.678	8946.06
621.034	8932.51
621.39	8947.42
621.746	8942.67
622.101	8994.88
622.457	8909.23
622.812	8955.1
623.168	8963.92
623.523	8961.21
623.879	8989.23
624.234	8895.9
624.589	9035.33
624.945	8993.52
625.3	8993.75
625.655	8962.11
626.01	8944.26
626.365	9004.14
626.72	9008.44
627.075	8943.58
627.43	8905.16
627.785	8937.93
628.14	8869.68
628.495	8944.93
628.85	8955.56
629.205	8889.57
629.559	8959.85
629.914	8952.39
630.269	8887.99
630.623	8866.74
630.978	8877.14
631.332	8831.72
631.687	8883.47
632.041	8920.08
632.396	8867.42
632.75	8792.17
633.104	8840.53
633.459	8802.79
633.813	8817.71
634.167	8801.89
634.521	8818.38
634.875	8787.65
635.229	8808.21
635.583	8728.67
635.937	8689.12
636.291	8725.96
636.645	8742.23
636.999	8711.04
637.352	8678.05
637.706	8684.83
638.06	8719.86
638.413	8695.22
638.767	8613.64
639.121	8687.77
639.474	8639.18
639.828	8658.61
640.181	8643.25
640.534	8614.32
640.888	8594.44
641.241	8617.49
641.594	8632.17
641.947	8613.64
642.301	8615.9
642.654	8619.97
643.007	8564.15
643.36	8590.14
643.713	8538.39
644.066	8598.5
644.419	8546.07
644.771	8480.77
645.124	8393.31
645.477	8377.49
645.83	8342.01
646.182	8325.06
646.535	8313.09
646.888	8261.34
647.24	8268.12
647.593	8291.39
647.945	8266.99
648.298	8252.3
648.65	8200.32
649.002	8195.35
649.355	8254.33
649.707	8182.47
650.059	8337.94
650.411	8435.8
650.763	8392.63
651.115	8489.58
651.467	8469.47
651.819	8454.33
652.171	8450.48
652.523	8468.56
652.875	8416.36
653.227	8444.38
653.578	8492.29
653.93	8410.03
654.282	8335.23
654.633	8397.15
654.985	8387.89
655.337	8400.99
655.688	8463.59
656.039	8480.99
656.391	8408
656.742	8383.14
657.094	8406.19
657.445	8469.47
657.796	8449.13
658.147	8418.39
658.498	8493.65
658.849	8463.14
659.2	8427.43
659.551	8485.29
659.902	8454.55
660.253	8402.8
660.604	8483.25
660.955	8495.68
661.306	8433.76
661.656	8438.05
662.007	8463.14
662.358	8474.44
662.708	8497.71
663.059	8497.94
663.409	8495.45
663.76	8492.74
664.11	8470.82
664.461	8485.51
664.811	8536.81
665.161	8448
665.511	8469.69
665.862	8558.73
666.212	8523.25
666.562	8520.76
666.912	8531.16
667.262	8467.21
667.612	8469.69
667.962	8516.92
668.312	8564.38
668.662	8601.67
669.011	8499.75
669.361	8487.77
669.711	8460.2
670.06	8473.31
670.41	8410.03
670.76	8440.31
671.109	8433.76
671.459	8505.85
671.808	8460.2
672.157	8406.87
672.507	8351.5
672.856	8470.82
673.205	8414.55
673.554	8394.89
673.904	8411.16
674.253	8462.01
674.602	8356.7
674.951	8260.88
675.3	8229.25
675.649	8341.11
675.998	8353.09
676.346	8363.48
676.695	8348.11
677.044	8368.68
677.393	8298.85
677.741	8317.61
678.09	8357.61
678.438	8260.88
678.787	8351.96
679.135	8323.26
679.484	8311.5
679.832	8376.36
680.181	8268.79
680.529	8224.95
680.877	8208.91
681.225	8242.35
681.573	8269.92
681.922	8191.28
682.27	8193.32
682.618	8182.02
682.966	8188.12
683.314	8130.04
683.661	8039.87
684.009	8052.98
684.357	8059.53
684.705	8044.62
685.053	8034.45
685.4	7994
685.748	7971.85
686.095	8005.07
686.443	7906.54
686.79	7910.61
687.138	7881.69
687.485	7985.64
687.832	7892.31
688.18	7918.97
688.527	7914
688.874	7892.76
689.221	7758.52
689.568	7767.34
689.915	7722.37
690.262	7858.41
690.609	7697.28
690.956	7712.65
691.303	7666.32
691.65	7615.93
691.997	7629.04
692.344	7576.38
692.69	7544.07
693.037	7629.49
693.383	7521.02
693.73	7558.98
694.077	7511.3
694.423	7447.12
694.769	7460.91
695.116	7459.55
695.462	7404.18
695.808	7433.56
696.155	7397.86
696.501	7280.57
696.847	7294.58
697.193	7306.56
697.539	7302.27
697.885	7206.9
698.231	7197.86
698.577	7173.68
698.923	7147.69
699.269	7143.17
699.614	7113.34
699.96	7072.67
700.306	7051.42
700.651	7051.88
700.997	7057.53
701.342	7002.61
701.688	6977.98
702.033	6934.14
702.379	6937.53
702.724	6864.99
703.069	6913.58
703.415	6842.84
703.76	6835.61
704.105	6769.17
704.45	6796.29
704.795	6778.89
705.14	6744.54
705.485	6701.6
705.83	6702.28
706.175	6703.19
706.52	6710.64
706.865	6609.4
707.209	6634.03
707.554	6622.51
707.899	6629.29
708.243	6604.43
708.588	6576.63
708.932	6517.65
709.277	6508.84
709.621	6521.72
709.966	6476.52
710.31	6510.87
710.654	6422.51
710.998	6411.67
711.342	6437.2
711.687	6376.41
712.031	6438.56
712.375	6360.6
712.719	6435.62
713.063	6329.41
713.407	6385.45
713.75	6346.13
714.094	6314.72
714.438	6332.57
714.782	6334.61
715.125	6298.45
715.469	6270.43
715.812	6255.74
716.156	6233.14
716.499	6225.68
716.843	6235.85
717.186	6202.86
717.53	6247.38
717.873	6249.86
718.216	6197.89
718.559	6149.53
718.902	6168.28
719.246	6148.85
719.589	6123.77
719.932	6139.13
720.275	6058.46
720.617	6078.57
720.96	6114.05
721.303	6090.55
721.646	6160.83
721.989	6048.97
722.331	6153.14
722.674	6051.23
723.016	6122.86
723.359	6063.65
723.701	6063.65
724.044	6111.34
724.386	6059.36
724.729	6102.75
725.071	6058.46
725.413	6025.46
725.755	6015.97
726.097	6027.5
726.439	5985.92
726.782	6032.47
727.124	6048.06
727.465	6009.87
727.807	5966.71
728.149	5959.93
728.491	6045.12
728.833	6030.43
729.175	6022.75
729.516	6024.11
729.858	6026.14
730.199	6021.62
730.541	5946.6
730.882	5937.33
731.224	6001.28
731.565	5965.13
731.906	5999.48
732.248	5975.97
732.589	5976.2
732.93	5987.05
733.271	6008.74
733.612	5991.79
733.953	5980.49
734.294	6018.91
734.635	5944.79
734.976	5986.59
735.317	5928.97
735.658	5956.31
735.999	6025.92
736.339	6009.64
736.68	5976.65
737.021	6027.5
737.361	5967.84
737.702	6018.01
738.042	5983.66
738.383	5933.94
738.723	6027.27
739.063	6051.23
739.404	6065.46
739.744	6034.95
740.084	6002.19
740.424	6059.59
740.764	6076.31
741.104	6072.69
741.444	6149.53
741.784	6128.74
742.124	6086.03
742.464	6121.96
742.804	6166.48
743.143	6150.43
743.483	6191.79
743.823	6205.12
744.162	6151.11
744.502	6205.12
744.841	6249.86
745.181	6279.69
745.52	6336.42
745.86	6340.48
746.199	6348.84
746.538	6395.4
746.877	6370.76
747.216	6427.71
747.556	6477.2
747.895	6555.17
748.234	6571.66
748.573	6653.24
748.911	6676.29
749.25	6704.32
749.589	6794.48
749.928	6827.7
750.267	6930.98
750.605	6929.17
750.944	6988.83
751.283	7043.97
751.621	7218.43
751.96	7170.52
752.298	7301.81
752.636	7428.59
752.975	7428.14
753.313	7539.32
753.651	7631.75
753.989	7714.23
754.327	7830.16
754.666	7937.05
755.004	8062.92
755.342	8177.27
755.679	8251.17
756.017	8382.24
756.355	8534.78
756.693	8642.12
757.031	8800.31
757.368	8869.23
757.706	9022.22
758.044	9163.01
758.381	9321.42
758.719	9424.7
759.056	9606.84
759.394	9736.55
759.731	9882.31
760.068	10058.35
760.405	10165.02
760.743	10332.47
761.08	10576.98
761.417	10660.82
761.754	10829.18
762.091	11006.35
762.428	11108.04
762.765	11276.4
763.102	11387.13
763.438	11708.25
763.775	11807.01
764.112	11985.53
764.449	12164.51
764.785	12316.37
765.122	12403.15
765.458	12622.58
765.795	12724.72
766.131	12934.89
766.467	13124.03
766.804	13226.86
767.14	13300.07
767.476	13489.22
767.812	13617.13
768.148	13801.98
768.485	13876.78
768.821	13988.19
769.157	14160.39
769.492	14262.08
769.828	14431.34
770.164	14448.97
770.5	14658.23
770.836	14752.47
771.171	14827.49
771.507	14951.78
771.842	15083.53
772.178	15212.11
772.513	15271.77
772.849	15374.14
773.184	15508.38
773.519	15629.96
773.855	15704.08
774.19	15711.99
774.525	15778.88
774.86	15907.24
775.195	15967.12
775.53	16081.92
775.865	16042.15
776.2	16032.88
776.535	16143.62
776.87	16179.09
777.205	16271.75
777.539	16227
777.874	16368.92
778.209	16371.63
778.543	16426.77
778.878	16395.13
779.212	16503.15
779.547	16512.87
779.881	16627.67
780.215	16586.99
780.55	16711.51
780.884	16675.35
781.218	16709.93
781.552	16697.05
781.886	16757.16
782.22	16730.49
782.554	16753.54
782.888	16683.49
783.222	16761.23
783.556	16622.47
783.889	16682.58
784.223	16544.96
784.557	16679.87
784.89	16777.5
785.224	16592.87
785.557	16751.96
785.891	16647.56
786.224	16734.79
786.558	16767.33
786.891	16640.1
787.224	16619.76
787.557	16486.88
787.891	16560.1
788.224	16617.5
788.557	16654.34
788.89	16581.57
789.223	16615.02
789.556	16570.5
789.888	16609.14
790.221	16552.19
790.554	16360.56
790.887	16506.09
791.219	16278.75
791.552	16389.71
791.884	16326.21
792.217	16327.11
792.549	16356.94
792.882	16215.25
793.214	16326.89
793.546	16203.27
793.879	16273.78
794.211	16220.68
794.543	16262.26
794.875	16107.23
795.207	16227.23
795.539	16098.42
795.871	16175.93
796.203	16065.2
796.535	15997.4
796.867	15900.68
797.198	15922.15
797.53	15986.33
797.862	15853.23
798.193	15882.83
798.525	15770.29
798.856	15760.57
799.188	15627.92
799.519	15625.66
799.85	15548.6
800.182	15508.83
800.513	15589.28
800.844	15529.85
801.175	15539.56
801.506	15477.42
801.837	15515.16
802.168	15454.59
802.499	15430.64
802.83	15367.82
803.161	15316.52
803.491	15362.39
803.822	15374.14
804.153	15210.76
804.483	15138.22
804.814	15145
805.145	15181.83
805.475	15135.28
805.805	15020.03
806.136	15049.86
806.466	15022.29
806.796	15041.27
807.126	14976.64
807.457	14873.82
807.787	14913.14
808.117	14908.17
808.447	14820.26
808.777	14856.19
809.107	14779.81
809.436	14776.42
809.766	14705.69
810.096	14670.66
810.426	14643.77
810.755	14677.89
811.085	14658
811.414	14549.08
811.744	14493.94
812.073	14453.26
812.403	14519.7
812.732	14489.65
813.061	14405.58
813.39	14396.77
813.719	14311.35
814.049	14349.31
814.378	14371.01
814.707	14339.14
815.036	14339.14
815.365	14232.48
815.693	14127.17
816.022	14224.12
816.351	14048.3
816.68	14107.96
817.008	14159.94
817.337	14024.12
817.665	13999.26
817.994	14079.71
818.322	14052.82
818.651	13931.92
818.979	13940.28
819.307	13958.36
819.636	13885.14
819.964	13869.1
820.292	13919.27
820.62	13847.63
820.948	13892.6
821.276	13920.17
821.604	13782.1
821.932	13868.65
822.259	13969.89
822.587	13872.71
822.915	13873.39
823.243	13866.84
823.57	13883.11
823.898	13892.15
824.225	13771.25
824.553	13814.86
824.88	13865.03
825.207	13867.29
825.535	13804.47
825.862	13939.38
826.189	13818.93
826.516	13914.52
826.843	13885.37
827.17	13926.5
827.497	13888.99
827.824	13905.93
828.151	13891.47
828.478	13924.92
828.805	13994.52
829.131	13883.34
829.458	13883.79
829.785	13873.62
830.111	13846.05
830.438	13874.3
830.764	13841.75
831.09	13860.96
831.417	13794.07
831.743	13873.84
832.069	13898.25
832.395	13808.99
832.722	13801.53
833.048	13762.89
833.374	13771.25
833.7	13767.86
834.026	13760.17
834.351	13770.8
834.677	13802.66
835.003	13747.07
835.329	13740.74
835.654	13759.27
835.98	13706.17
836.306	13705.26
836.631	13655.54
836.956	13679.73
837.282	13725.83
837.607	13604.47
837.932	13538.26
838.258	13590.01
838.583	13711.36
838.908	13383.01
839.233	13511.59
839.558	13418.26
839.883	13461.2
840.208	13505.72
840.533	13403.12
840.858	13429.79
841.182	13419.17
841.507	13457.13
841.832	13398.38
842.156	13336.01
842.481	13383.24
842.805	13258.27
843.13	13277.48
843.454	13229.57
843.778	13272.96
844.103	13185.27
844.427	13135.56
844.751	13147.08
845.075	13100.08
845.399	13032.06
845.723	12962.91
846.047	12972.4
846.371	12863.93
846.695	12926.75
847.019	12706.42
847.343	12719.52
847.666	12713.42
847.99	12652.86
848.313	12595.46
848.637	12478.4
848.96	12569.25
849.284	12506.2
849.607	12383.94
849.931	12353.88
850.254	12253.77
850.577	12272.53
850.9	12201.35
851.223	12153.66
851.546	12042.93
851.869	12006.55
852.192	12039.99
852.515	11921.81
852.838	11872.31
853.161	11893.56
853.483	11794.8
853.806	11754.58
854.129	11811.75
854.451	11650.4
854.774	11635.71
855.096	11588.48
855.419	11663.51
855.741	11555.26
856.063	11523.62
856.385	11557.75
856.708	11466.22
857.03	11447.92
857.352	11404.98
857.674	11351.65
857.996	11368.83
858.318	11277.53
858.64	11311.65
858.961	11214.03
859.283	11160.47
859.605	11138.1
859.926	11188.72
860.248	11042.73
860.57	10995.73
860.891	11094.03
861.212	11040.92
861.534	10986.91
861.855	10949.18
862.176	10946.46
862.498	10993.92
862.819	10938.33
863.14	10990.53
863.461	10867.82
863.782	10820.37
864.103	10842.29
864.424	10849.74
864.745	10781.72
865.065	10727.26
865.386	10781.04
865.707	10739.24
866.027	10770.87
866.348	10757.09
866.668	10694.72
866.989	10627.83
867.309	10595.51
867.63	10675.74
867.95	10622.18
868.27	10560.94
868.59	10570.2
868.91	10562.07
869.23	10479.13
869.55	10445.91
869.87	10541.95
870.19	10458.11
870.51	10537.89
870.83	10444.78
871.15	10456.53
871.469	10371.11
871.789	10373.6
872.109	10411.11
872.428	10337.21
872.748	10367.04
873.067	10363.2
873.386	10343.09
873.706	10346.03
874.025	10235.75
874.344	10199.14
874.663	10346.71
874.982	10261.96
875.301	10265.58
875.62	10208.63
875.939	10124.34
876.258	10164.56
876.577	10127.05
876.896	10205.01
877.214	10163.89
877.533	10168.4
877.852	10102.64
878.17	10134.51
878.489	10144.68
878.807	9987.17
879.125	10010.22
879.444	10049.31
879.762	10031.46
880.08	10018.58
880.398	9971.57
880.716	9924.34
881.034	9938.58
881.352	9948.3
881.67	9921.18
881.988	9856.77
882.306	9792.6
882.624	9780.62
882.941	9727.74
883.259	9711.47
883.577	9789.66
883.894	9728.64
884.212	9753.05
884.529	9669.44
884.846	9636.89
885.164	9613.62
885.481	9616.1
885.798	9549.21
886.115	9530.46
886.432	9545.82
886.75	9515.09
887.067	9486.39
887.383	9466.28
887.7	9480.74
888.017	9436.9
888.334	9455.2
888.651	9379.05
888.967	9393.51
889.284	9276.23
889.6	9280.97
889.917	9253.17
890.233	9197.58
890.55	9192.84
890.866	9288.2
891.182	9170.24
891.498	9110.58
891.815	9094.76
892.131	9062.45
892.447	9103.35
892.763	9019.28
893.079	8987.65
893.395	9020.41
893.71	8938.15
894.026	8899.74
894.342	8837.59
894.657	8733.19
894.973	8828.78
895.289	8817.93
895.604	8756.24
895.92	8697.48
896.235	8682.12
896.55	8668.11
896.865	8666.98
897.181	8640.08
897.496	8649.57
897.811	8523.7
898.126	8521.44
898.441	8521.67
898.756	8431.73
899.071	8430.6
899.386	8503.59
899.7	8402.8
900.015	8342.46
900.33	8282.8
900.644	8210.49
900.959	8238.06
901.273	8225.41
901.588	8233.54
901.902	8150.15
902.216	8134.56
902.531	8117.61
902.845	8085.3
903.159	8117.39
903.473	8029.03
903.787	7973.21
904.101	7928.24
904.415	7976.6
904.729	7888.92
905.042	7827.22
905.356	7830.16
905.67	7879.65
905.984	7820.67
906.297	7766.89
906.611	7734.8
906.924	7709.49
907.237	7699.77
907.551	7671.3
907.864	7591.98
908.177	7645.76
908.491	7558.08
908.804	7507.23
909.117	7459.55
909.43	7401.92
909.743	7352.21
910.056	7346.56
910.368	7365.54
910.681	7293.23
910.994	7316.05
911.307	7232.21
911.619	7176.39
911.932	7230.18
912.244	7130.07
912.557	7156.96
912.869	7085.55
913.181	7072.22
913.494	7057.98
913.806	6965.1
914.118	7029.05
914.43	6950.41
914.742	6935.72
915.054	6948.15
915.366	6832
915.678	6869.06
915.99	6887.81
916.302	6828.38
916.613	6749.51
916.925	6704.77
917.236	6700.93
917.548	6637.65
917.859	6710.42
918.171	6642.4
918.482	6594.71
918.794	6623.41
919.105	6595.84
919.416	6509.07
919.727	6493.25
920.038	6429.97
920.349	6443.08
920.66	6429.75
920.971	6450.54
921.282	6405.57
921.593	6329.64
921.903	6306.59
922.214	6300.71
922.525	6315.85
922.835	6258
923.146	6218.9
923.456	6215.97
923.767	6186.36
924.077	6152.92
924.387	6190.66
924.697	6094.39
925.008	6081.73
925.318	6024.56
925.628	6070.89
925.938	6036.31
926.248	5949.31
926.558	5916.54
926.867	5901.62
927.177	5892.59
927.487	5880.16
927.796	5828.63
928.106	5828.86
928.416	5784.79
928.725	5801.06
929.034	5687.84
929.344	5737.34
929.653	5748.18
929.962	5690.56
930.271	5685.13
930.581	5610.33
930.89	5609.65
931.199	5605.14
931.508	5594.97
931.817	5547.51
932.125	5579.15
932.434	5507.51
932.743	5464.35
933.051	5448.53
933.36	5421.86
933.669	5402.2
933.977	5407.4
934.286	5383.9
934.594	5374.86
934.902	5364.24
935.21	5311.36
935.519	5236.33
935.827	5295.99
936.135	5237.69
936.443	5171.25
936.751	5191.59
937.059	5187.74
937.367	5157.69
937.674	5153.62
937.982	5141.87
938.29	5107.07
938.597	5106.84
938.905	5038.6
939.213	5021.42
939.52	4982.33
939.827	5039.27
940.135	4979.39
940.442	4928.77
940.749	4946.62
941.056	4952.5
941.363	4880.41
941.67	4874.53
941.977	4833.4
942.284	4831.6
942.591	4819.62
942.898	4778.49
943.205	4786.63
943.511	4767.64
943.818	4717.25
944.125	4698.94
944.431	4670.92
944.738	4706.4
945.044	4629.34
945.35	4602.9
945.657	4608.33
945.963	4559.96
946.269	4562.68
946.575	4536.46
946.881	4509.57
947.187	4463.7
947.493	4460.31
947.799	4514.77
948.105	4493.3
948.41	4357.94
948.716	4370.59
949.022	4370.37
949.327	4428.89
949.633	4375.56
949.938	4344.38
950.244	4321.55
950.549	4258.05
950.854	4268.67
951.16	4305.28
951.465	4223.48
951.77	4178.28
952.075	4199.75
952.38	4158.85
952.685	4192.97
952.99	4158.39
953.294	4146.64
953.599	4093.99
953.904	4121.33
954.209	4079.07
954.513	4027.1
954.818	4030.71
955.122	4037.94
955.426	4014.22
955.731	3996.59
956.035	3988
956.339	3967.66
956.643	3961.11
956.948	3939.42
957.252	3882.69
957.556	3891.06
957.86	3878.63
958.163	3870.27
958.467	3865.97
958.771	3831.4
959.075	3842.02
959.378	3795.24
959.682	3857.16
959.985	3777.39
960.289	3745.75
960.592	3766.09
960.896	3748.23
961.199	3686.54
961.502	3676.82
961.805	3668.91
962.108	3668.69
962.411	3658.75
962.714	3601.8
963.017	3602.48
963.32	3609.48
963.623	3578.3
963.926	3558.18
964.228	3569.48
964.531	3519.54
964.833	3527.22
965.136	3501.01
965.438	3446.32
965.741	3498.3
966.043	3376.27
966.345	3420.33
966.648	3414.91
966.95	3394.35
967.252	3408.36
967.554	3395.7
967.856	3384.18
968.158	3342.82
968.46	3352.76
968.761	3322.03
969.063	3320.9
969.365	3317.06
969.666	3292.2
969.968	3271.19
970.269	3233.22
970.571	3260.34
970.872	3231.64
971.174	3214.69
971.475	3193.67
971.776	3190.51
972.077	3167.23
972.378	3169.04
972.679	3153.67
972.98	3130.85
973.281	3175.59
973.582	3129.27
973.883	3083.85
974.183	3076.16
974.484	3048.59
974.785	3047.01
975.085	3010.4
975.386	3008.82
975.686	3048.59
975.986	3014.47
976.287	2967.92
976.587	2949.84
976.887	2985.32
977.187	2936.96
977.487	2926.56
977.787	2908.71
978.087	2914.36
978.387	2918.2
978.687	2886.56
978.987	2877.75
979.286	2858.77
979.586	2836.17
979.885	2818.54
980.185	2780.8
980.484	2814.7
980.784	2765.44
981.083	2786.45
981.382	2755.27
981.682	2783.29
981.981	2747.36
982.28	2732.22
982.579	2703.52
982.878	2715.95
983.177	2703.74
983.475	2707.36
983.774	2672.56
984.073	2674.82
984.372	2640.92
984.67	2626.23
984.969	2640.92
985.267	2600.47
985.566	2584.65
985.864	2591.2
986.162	2570.86
986.461	2577.42
986.759	2557.76
987.057	2520.7
987.355	2525.22
987.653	2506.23
987.951	2494.93
988.249	2498.55
988.547	2513.01
988.844	2446.8
989.142	2488.15
989.44	2428.95
989.737	2444.09
990.035	2416.29
990.332	2417.42
990.63	2412
990.927	2396.18
991.224	2384.2
991.521	2373.13
991.819	2345.33
992.116	2350.53
992.413	2331.1
992.71	2315.5
993.006	2364.99
993.303	2300.36
993.6	2305.79
993.897	2297.43
994.193	2289.52
994.49	2253.81
994.787	2255.17
995.083	2253.36
995.379	2242.74
995.676	2228.95
995.972	2212.68
996.268	2187.82
996.565	2205
996.861	2183.08
997.157	2180.14
997.453	2145.11
997.749	2142.85
998.044	2160.71
998.34	2150.08
998.636	2115.74
998.932	2064.44
999.227	2062.63
999.523	2082.97
999.818	2063.08
1000.114	2042.06
1000.409	2060.14
1000.704	2048.62
1001	2017.43
1001.295	2020.82
1001.59	2001.16
1001.885	1984.21
1002.18	1970.43
1002.475	1968.62
1002.77	1988.28
1003.065	1937.43
1003.359	1919.13
1003.654	1944.67
1003.949	1918.68
1004.243	1932.92
1004.538	1879.58
1004.832	1918.45
1005.127	1861.96
1005.421	1856.08
1005.715	1846.36
1006.009	1845.91
1006.304	1845.69
1006.598	1820.15
1006.892	1792.58
1007.186	1776.99
1007.48	1815.63
1007.773	1822.64
1008.067	1819.47
1008.361	1776.76
1008.655	1750.55
1008.948	1759.36
1009.242	1714.62
1009.535	1696.09
1009.829	1720.72
1010.122	1710.32
1010.415	1683.2
1010.708	1671.91
1011.001	1682.98
1011.295	1669.65
1011.588	1669.87
1011.881	1640.49
1012.173	1639.82
1012.466	1622.19
1012.759	1638.23
1013.052	1645.92
1013.344	1599.82
1013.637	1602.53
1013.93	1561.85
1014.222	1558.01
1014.514	1576.31
1014.807	1560.95
1015.099	1550.33
1015.391	1539.25
1015.683	1530.89
1015.976	1526.37
1016.268	1523.66
1016.56	1471.68
1016.851	1479.82
1017.143	1461.52
1017.435	1479.82
1017.727	1461.97
1018.018	1446.83
1018.31	1454.74
1018.602	1457
1018.893	1479.37
1019.185	1415.87
1019.476	1417
1019.767	1400.73
1020.058	1395.98
1020.35	1405.47
1020.641	1381.74
1020.932	1361.63
1021.223	1365.7
1021.514	1374.29
1021.804	1359.37
1022.095	1322.08
1022.386	1326.83
1022.677	1327.51
1022.967	1314.63
1023.258	1283.44
1023.548	1285.93
1023.839	1275.31
1024.129	1275.98
1024.419	1270.11
1024.709	1275.08
1025	1243.67
1025.29	1235.08
1025.58	1227.4
1025.87	1234.4
1026.16	1221.07
1026.449	1235.53
1026.739	1214.06
1027.029	1213.39
1027.319	1178.13
1027.608	1167.74
1027.898	1169.32
1028.187	1144.69
1028.477	1177.45
1028.766	1146.04
1029.055	1144.91
1029.344	1149.43
1029.634	1110.34
1029.923	1124.35
1030.212	1115.76
1030.501	1084.35
1030.79	1081.86
1031.078	1079.83
1031.367	1093.84
1031.656	1058.59
1031.945	1064.92
1032.233	1079.83
1032.522	1043.9
1032.81	1043
1033.099	1054.29
1033.387	1040.74
1033.675	1040.74
1033.963	1034.63
1034.251	1023.33
1034.54	1017.69
1034.828	1026.95
1035.116	996.67
1035.403	1012.94
1035.691	963
1035.979	984.24
1036.267	969.55
1036.554	942.88
1036.842	956.9
1037.129	956.67
1037.417	946.95
1037.704	907.41
1037.992	941.53
1038.279	938.14
1038.566	943.56
1038.853	943.56
1039.14	943.56
