Data from hue_70_FLMS001491_2.txt Node
Date: Mon Feb 06 15:19:58 GMT 2017
User: dcchb
Spectrometer: FLMS00149
Trigger mode: 0
Integration Time (sec): 2.000000E-2
Scans to average: 10
Electric dark correction enabled: true
Nonlinearity correction enabled: false
Boxcar width: 0
XAxis mode: Wavelengths
Number of Pixels in Spectrum: 2048
>>>>>Begin Spectral Data<<<<<
341.393	10.1
341.776	10.1
342.16	10.1
342.543	-64.7
342.927	-65.15
343.31	-77.58
343.693	-47.98
344.077	-49.33
344.46	-59.5
344.843	-49.56
345.226	-36.91
345.61	-43.46
345.993	-25.38
346.376	1.06
346.759	6.26
347.142	21.4
347.525	33.83
347.908	68.63
348.291	61.4
348.674	82.64
349.057	114.5
349.44	134.39
349.823	148.63
350.206	166.25
350.588	168.06
350.971	221.17
351.354	218.23
351.737	236.08
352.119	249.87
352.502	275.18
352.884	265.69
353.267	242.41
353.65	293.48
354.032	290.32
354.414	321.95
354.797	298.68
355.179	302.75
355.562	313.37
355.944	311.56
356.326	312.24
356.709	332.8
357.091	349.75
357.473	336.87
357.855	344.55
358.238	336.19
358.62	335.97
359.002	340.03
359.384	330.54
359.766	343.42
360.148	331.45
360.53	325.57
360.912	323.08
361.294	328.28
361.676	331.9
362.057	327.83
362.439	337.77
362.821	309.07
363.203	321.5
363.584	335.97
363.966	333.93
364.348	333.71
364.729	323.08
365.111	306.36
365.493	311.11
365.874	318.79
366.256	322.18
366.637	309.98
367.019	318.57
367.4	325.8
367.781	311.11
368.163	305.68
368.544	294.61
368.925	311.79
369.306	325.34
369.688	289.64
370.069	305.01
370.45	294.38
370.831	299.13
371.212	292.58
371.593	316.76
371.974	324.44
372.355	333.03
372.736	322.18
373.117	316.08
373.498	305.01
373.879	319.47
374.26	300.26
374.641	325.8
375.021	322.86
375.402	324.21
375.783	317.66
376.163	326.02
376.544	318.79
376.925	335.74
377.305	344.1
377.686	336.42
378.066	327.6
378.447	315.4
378.827	313.82
379.208	335.74
379.588	335.97
379.968	352.69
380.349	316.31
380.729	323.31
381.109	325.8
381.489	342.29
381.87	317.66
382.25	305.46
382.63	333.93
383.01	339.36
383.39	340.94
383.77	333.48
384.15	326.25
384.53	352.01
384.91	331.67
385.29	357.89
385.67	358.34
386.049	352.91
386.429	342.52
386.809	330.09
387.189	329.86
387.568	338
387.948	354.04
388.328	366.93
388.707	350.65
389.087	362.41
389.466	348.17
389.846	389.3
390.225	355.4
390.605	352.91
390.984	364.89
391.363	358.34
391.743	351.33
392.122	378.68
392.501	347.94
392.881	368.51
393.26	367.38
393.639	380.48
394.018	376.87
394.397	362.41
394.776	380.48
395.155	357.21
395.534	349.3
395.913	384.55
396.292	371.9
396.671	356.98
397.05	394.95
397.429	378.9
397.808	368.51
398.186	391.56
398.565	374.38
398.944	382.52
399.323	388.62
399.701	398.79
400.08	395.17
400.458	375.74
400.837	384.55
401.215	389.07
401.594	371.9
401.972	393.14
402.351	415.96
402.729	403.08
403.107	402.63
403.486	368.96
403.864	402.18
404.242	412.57
404.62	407.38
404.999	404.89
405.377	417.09
405.755	394.27
406.133	414.61
406.511	392.01
406.889	432.91
407.267	425.23
407.645	426.36
408.023	419.81
408.401	422.07
408.779	429.97
409.156	422.29
409.534	445.34
409.912	418.68
410.29	451.44
410.667	439.92
411.045	438.34
411.422	442.86
411.8	447.83
412.178	461.84
412.555	440.6
412.933	435.62
413.31	447.83
413.687	467.71
414.065	479.01
414.442	481.95
414.819	486.02
415.197	467.94
415.574	478.33
415.951	462.29
416.328	480.37
416.705	479.46
417.082	467.71
417.46	492.8
417.837	471.56
418.214	481.27
418.591	508.62
418.967	497.54
419.344	493.25
419.721	503.42
420.098	519.46
420.475	483.08
420.852	490.31
421.228	485.79
421.605	529.18
421.982	501.61
422.358	517.43
422.735	515.4
423.111	517.66
423.488	523.08
423.864	543.19
424.241	533.93
424.617	531.21
424.994	530.76
425.37	533.7
425.746	545.23
426.123	547.94
426.499	535.51
426.875	558.56
427.251	574.6
427.627	536.64
428.003	562.85
428.379	579.58
428.756	582.74
429.132	571.67
429.507	576.41
429.883	597.43
430.259	595.62
430.635	596.07
431.011	603.08
431.387	619.8
431.763	627.03
432.138	612.57
432.514	614.6
432.89	644.88
433.265	641.49
433.641	643.75
434.016	624.55
434.392	669.29
434.767	668.84
435.143	673.13
435.518	648.5
435.894	676.75
436.269	675.39
436.644	694.6
437.02	694.6
437.395	683.08
437.77	689.63
438.145	703.41
438.52	694.15
438.895	710.19
439.271	703.41
439.646	707.48
440.021	719.23
440.395	711.32
440.77	713.81
441.145	738.22
441.52	735.73
441.895	732.79
442.27	725.79
442.645	739.12
443.019	755.39
443.394	741.83
443.769	774.6
444.143	751.32
444.518	770.08
444.892	757.42
445.267	778.44
445.641	761.04
446.016	781.38
446.39	790.64
446.764	773.02
447.139	796.97
447.513	798.1
447.887	768.04
448.262	814.37
448.636	789.29
449.01	803.07
449.384	814.82
449.758	807.14
450.132	821.6
450.506	849.4
450.88	833.58
451.254	836.97
451.628	861.15
452.002	861.6
452.376	876.29
452.75	883.75
453.123	889.85
453.497	902.5
453.871	896.18
454.244	912.45
454.618	908.83
454.992	903.18
455.365	936.18
455.739	942.96
456.112	968.94
456.486	970.98
456.859	968.72
457.232	966.91
457.606	975.72
457.979	1012.56
458.352	995.16
458.725	1037.42
459.099	1011.2
459.472	1036.74
459.845	1060.24
460.218	1062.5
460.591	1084.19
460.964	1090.97
461.337	1092.56
461.71	1108.6
462.083	1142.27
462.456	1141.14
462.829	1160.12
463.201	1180.24
463.574	1161.25
463.947	1207.81
464.32	1201.48
464.692	1230.63
465.065	1232.44
465.438	1245.32
465.81	1290.52
466.183	1260.91
466.555	1314.02
466.928	1330.29
467.3	1330.52
467.672	1380.68
468.045	1381.81
468.417	1389.5
468.789	1408.71
469.161	1416.84
469.534	1465.88
469.906	1504.07
470.278	1522.38
470.65	1533.22
471.022	1574.58
471.394	1602.6
471.766	1619.55
472.138	1637.63
472.51	1692.09
472.882	1729.38
473.253	1783.16
473.625	1773.44
473.997	1822.48
474.369	1867.45
474.74	1881.01
475.112	1920.78
475.484	1950.16
475.855	2020.44
476.227	2062.25
476.598	2097.28
476.97	2146.31
477.341	2255.01
477.713	2274.22
478.084	2323.03
478.455	2422.69
478.827	2450.49
479.198	2541.78
479.569	2580.88
479.94	2703.59
480.311	2725.96
480.682	2829.69
481.053	2939.97
481.424	3020.41
481.795	3053.41
482.166	3129.34
482.537	3196.46
482.908	3297.92
483.279	3407.07
483.65	3441.19
484.021	3587.86
484.391	3718.7
484.762	3764.58
485.133	3889.32
485.503	3922.76
485.874	4058.35
486.244	4205.02
486.615	4340.61
486.985	4433.71
487.356	4591.9
487.726	4629.86
488.097	4817.43
488.467	4896.3
488.837	5071.66
489.207	5192.56
489.578	5299.9
489.948	5362.05
490.318	5568.6
490.688	5648.82
491.058	5803.62
491.428	6011.75
491.798	6073.22
492.168	6277.96
492.538	6319.99
492.908	6482.7
493.278	6658.74
493.648	6719.98
494.017	6896.02
494.387	7025.51
494.757	7136.24
495.126	7395.67
495.496	7446.97
495.866	7554.98
496.235	7726.73
496.605	7891.02
496.974	8022.09
497.344	8125.82
497.713	8346.83
498.082	8414.85
498.452	8571.46
498.821	8639.25
499.19	8724.22
499.559	9007.83
499.928	9090.31
500.298	9180.93
500.667	9337.99
501.036	9417.08
501.405	9527.59
501.774	9596.51
502.143	9808.71
502.512	9921.7
502.88	10047.57
503.249	10183.84
503.618	10289.15
503.987	10395.81
504.356	10552.19
504.724	10632.19
505.093	10778.63
505.462	10886.87
505.83	10992.86
506.199	11156.7
506.567	11310.37
506.936	11359.63
507.304	11514.43
507.672	11618.83
508.041	11671.49
508.409	11871.03
508.777	12021.99
509.145	12129.33
509.514	12145.15
509.882	12274.41
510.25	12341.53
510.618	12535.64
510.986	12635.53
511.354	12651.8
511.722	12825.35
512.09	13006.82
512.458	12950.55
512.826	13096.99
513.193	13233.93
513.561	13290.65
513.929	13468.95
514.297	13599.35
514.664	13717.99
515.032	13808.15
515.4	13982.16
515.767	13932.44
516.135	14106.68
516.502	13970.18
516.869	14193
517.237	14314.58
517.604	14359.1
517.972	14509.15
518.339	14637.51
518.706	14622.37
519.073	14701.46
519.44	14862.14
519.808	14963.15
520.175	14972.42
520.542	15176.93
520.909	15296.25
521.276	15317.72
521.643	15484.95
522.009	15607.2
522.376	15657.14
522.743	15715
523.11	15858.27
523.477	16009
523.843	16072.05
524.21	16197.24
524.577	16343.23
524.943	16368.99
525.31	16536.9
525.676	16675.42
526.043	16712.48
526.409	16706.61
526.776	17004.91
527.142	16993.61
527.508	17081.06
527.874	17138.91
528.241	17161.74
528.607	17269.76
528.973	17443.99
529.339	17398.34
529.705	17546.36
530.071	17663.19
530.437	17712.01
530.803	17854.83
531.169	17911.1
531.535	17868.61
531.901	17935.73
532.267	17969.63
532.632	18056.63
532.998	18076.74
533.364	18129.85
533.73	18162.16
534.095	18330.75
534.461	18414.13
534.826	18426.56
535.192	18417.98
535.557	18533.45
535.923	18453.46
536.288	18599.21
536.653	18589.5
537.019	18464.98
537.384	18661.81
537.749	18687.35
538.114	18774.58
538.479	18742.49
538.845	18811.41
539.21	18762.6
539.575	18843.95
539.94	18887.12
540.305	18944.74
540.67	18902.03
541.034	18936.38
541.399	18975.02
541.764	19067.22
542.129	19114
542.494	19101.35
542.858	19118.97
543.223	19139.77
543.587	19239.2
543.952	19331.62
544.316	19155.58
544.681	19200.78
545.045	19249.37
545.41	19238.07
545.774	19312.64
546.138	19350.83
546.503	19359.19
546.867	19249.37
547.231	19479.87
547.595	19344.28
547.959	19457.27
548.324	19487.78
548.688	19471.28
549.052	19449.81
549.416	19598.96
549.779	19578.85
550.143	19534.33
550.507	19628.11
550.871	19664.72
551.235	19691.16
551.599	19730.03
551.962	19784.95
552.326	19773.87
552.689	19836.24
553.053	19764.83
553.417	19743.37
553.78	20052.51
554.143	19906.52
554.507	19953.76
554.87	19969.12
555.234	20162.79
555.597	19970.03
555.96	20018.84
556.323	20167.76
556.686	20190.13
557.05	20278.94
557.413	20315.33
557.776	20407.08
558.139	20394.42
558.502	20393.29
558.865	20532.72
559.228	20565.72
559.59	20658.14
559.953	20609.11
560.316	20757.35
560.679	20751.47
561.041	20849.78
561.404	20904.46
561.767	21028.3
562.129	20884.13
562.492	21113.72
562.854	21030.11
563.217	21004.57
563.579	21042.99
563.941	21237.79
564.304	21315.08
564.666	21374.73
565.028	21318.92
565.39	21506.48
565.753	21616.54
566.115	21588.74
566.477	21769.98
566.839	21709.19
567.201	21754.39
567.563	21875.06
567.925	21952.8
568.287	21935.17
568.648	21945.34
569.01	22056.07
569.372	22254.49
569.734	22114.38
570.095	22270.98
570.457	22283.19
570.819	22332.45
571.18	22288.38
571.542	22493.58
571.903	22447.47
572.265	22519.11
572.626	22514.14
572.987	22704.19
573.349	22724.53
573.71	22732.89
574.071	22816.05
574.432	22923.17
574.794	22897.41
575.155	22944.18
575.516	22840.23
575.877	23049.27
576.238	23001.36
576.599	23062.6
576.96	23003.84
577.32	23076.16
577.681	23174.01
578.042	23279.54
578.403	23287.23
578.763	23228.02
579.124	23246.1
579.485	23364.96
579.845	23363.16
580.206	23341.46
580.566	23390.73
580.927	23385.08
581.287	23475.7
581.648	23372.87
582.008	23545.3
582.368	23411.07
582.728	23395.47
583.089	23407
583.449	23454.45
583.809	23473.66
584.169	23354.12
584.529	23516.6
584.889	23554.34
585.249	23475.24
585.609	23407
585.969	23578.97
586.329	23405.87
586.688	23487.9
587.048	23441.57
587.408	23417.17
587.768	23476.83
588.127	23456.94
588.487	23360.67
588.846	23557.95
589.206	23343.04
589.565	23350.05
589.925	23543.94
590.284	23463.27
590.643	23443.38
591.003	23558.18
591.362	23514.34
591.721	23487.22
592.08	23476.83
592.44	23520.44
592.799	23644.73
593.158	23525.19
593.517	23564.73
593.876	23612.19
594.235	23499.65
594.593	23567.22
594.952	23688.35
595.311	23507.11
595.67	23609.48
596.029	23641.79
596.387	23651.74
596.746	23737.84
597.104	23593.43
597.463	23581.91
597.822	23641.79
598.18	23544.17
598.538	23550.27
598.897	23782.58
599.255	23584.85
599.613	23873.65
599.972	23748.91
600.33	23703.94
600.688	23769.02
601.046	23724.96
601.404	23830.26
601.762	23754.79
602.12	23785.74
602.478	23898.74
602.836	23770.83
603.194	23817.38
603.552	23821.9
603.91	23688.35
604.268	23776.93
604.625	23768.34
604.983	23854.22
605.341	23764.95
605.698	23962.01
606.056	24011.05
606.413	23828.46
606.771	24072.74
607.128	24114.55
607.485	23929.92
607.843	23915.91
608.2	24078.17
608.557	24224.15
608.914	24166.53
609.272	24268.9
609.629	24158.62
609.986	24360.19
610.343	24183.47
610.7	24407.2
611.057	24408.78
611.414	24308.89
611.771	24371.04
612.127	24405.39
612.484	24467.31
612.841	24499.62
613.198	24535.56
613.554	24590.7
613.911	24591.37
614.267	24657.59
614.624	24686.29
614.98	24659.17
615.337	24761.54
615.693	24697.59
616.05	24692.39
616.406	24945.71
616.762	24815.32
617.118	24886.05
617.475	24803.8
617.831	24910.69
618.187	24928.99
618.543	24966.96
618.899	25105.03
619.255	24978.48
619.611	25018.03
619.967	25104.13
620.323	25124.92
620.678	25060.29
621.034	25015.32
621.39	25005.37
621.746	25059.16
622.101	25341.18
622.457	25044.47
622.812	25074.07
623.168	25186.16
623.523	25182.54
623.879	25260.06
624.234	25172.37
624.589	25224.35
624.945	25202.2
625.3	25237.23
625.655	25274.75
626.01	25330.34
626.365	25410.79
626.72	25317.68
627.075	25351.81
627.43	25292.82
627.785	25246.27
628.14	25295.08
628.495	25293.5
628.85	25321.07
629.205	25224.8
629.559	25369.43
629.914	25262.54
630.269	25380.73
630.623	25196.1
630.978	25184.8
631.332	25318.36
631.687	25323.33
632.041	25221.64
632.396	25255.08
632.75	25133.28
633.104	25087.86
633.459	25004.24
633.813	25058.48
634.167	24947.97
634.521	25035.66
634.875	25146.16
635.229	25109.33
635.583	24985.04
635.937	24938.26
636.291	25099.61
636.645	24933.74
636.999	25009.22
637.352	24882.89
637.706	24816.68
638.06	24996.79
638.413	24807.64
638.767	24799.73
639.121	24805.6
639.474	24682.44
639.828	24699.62
640.181	24788.88
640.534	24768.77
640.888	24660.07
641.241	24626.17
641.594	24568.55
641.947	24737.58
642.301	24592.05
642.654	24674.08
643.007	24511.83
643.36	24628.89
643.713	24472.96
644.066	24490.81
644.419	24510.25
644.771	24327.43
645.124	24188.9
645.477	24115.91
645.83	24019.41
646.182	23830.04
646.535	23845.86
646.888	23920.2
647.24	23663.94
647.593	23880.66
647.945	23731.28
648.298	23718.63
648.65	23599.99
649.002	23628.69
649.355	23674.34
649.707	23645.18
650.059	23778.06
650.411	24045.17
650.763	24054.21
651.115	24264.38
651.467	24164.72
651.819	24208.33
652.171	24225.06
652.523	24211.27
652.875	24055.79
653.227	23985.51
653.578	24115.68
653.93	24207.65
654.282	24108
654.633	23955.68
654.985	24068.22
655.337	24035.91
655.688	24059.86
656.039	24193.19
656.391	23905.74
656.742	24048.56
657.094	24071.16
657.445	24153.87
657.796	24104.38
658.147	24060.99
658.498	24062.12
658.849	24022.8
659.2	24006.3
659.551	23957.72
659.902	24100.99
660.253	24070.26
660.604	24161.33
660.955	23937.83
661.306	24076.36
661.656	23986.19
662.007	24025.06
662.358	23991.61
662.708	23998.62
663.059	24039.75
663.409	23958.85
663.76	24154.55
664.11	24102.35
664.461	24129.92
664.811	24074.78
665.161	24139.86
665.511	24042.91
665.862	24012.18
666.212	24102.35
666.562	24117.49
666.912	24072.52
667.262	24022.35
667.612	24013.76
667.962	24132.85
668.312	23961.11
668.662	24092.86
669.011	23949.36
669.361	23927.21
669.711	23926.53
670.06	24013.99
670.41	23981.45
670.76	23992.29
671.109	23925.4
671.459	23904.84
671.808	23877.95
672.157	23985.51
672.507	23768.57
672.856	23752.07
673.205	23832.3
673.554	23856.7
673.904	23799.53
674.253	23992.97
674.602	23831.39
674.951	23486.32
675.3	23482.93
675.649	23773.99
675.998	23759.53
676.346	23772.41
676.695	23813.99
677.044	23649.48
677.393	23779.64
677.741	23755.24
678.09	23725.41
678.438	23628.46
678.787	23574
679.135	23591.85
679.484	23502.59
679.832	23434.34
680.181	23397.51
680.529	23437.28
680.877	23316.38
681.225	23362.03
681.573	23466.43
681.922	23171.52
682.27	23169.04
682.618	23233.67
682.966	23184.18
683.314	23253.56
683.661	23121.81
684.009	23044.97
684.357	22983.96
684.705	22945.09
685.053	23040.68
685.4	22982.83
685.748	22789.84
686.095	22740.35
686.443	22703.51
686.79	22756.17
687.138	22773.79
687.485	22668.26
687.832	22668.26
688.18	22561.37
688.527	22601.82
688.874	22586.68
689.221	22483.18
689.568	22467.81
689.915	22346.46
690.262	22261.04
690.609	22270.53
690.956	22153.92
691.303	22081.83
691.65	22077.54
691.997	22028.05
692.344	21866.02
692.69	21848.62
693.037	21851.78
693.383	21692.24
693.73	21783.09
694.077	21659.02
694.423	21571.57
694.769	21539.7
695.116	21462.42
695.462	21431
695.808	21381.51
696.155	21423.55
696.501	21265.13
696.847	21097.68
697.193	21056.78
697.539	21107.85
697.885	21023.78
698.231	20916.67
698.577	20760.06
698.923	20713.74
699.269	20772.72
699.614	20677.58
699.96	20459.73
700.306	20538.37
700.651	20426.06
700.997	20398.26
701.342	20327.98
701.688	20373.4
702.033	20238.49
702.379	20166.86
702.724	20175.67
703.069	20142.22
703.415	19979.52
703.76	19974.55
704.105	19880.54
704.45	19894.55
704.795	19861.78
705.14	19746.75
705.485	19750.14
705.83	19664.5
706.175	19690.49
706.52	19540.66
706.865	19474.45
707.209	19393.09
707.554	19301.12
707.899	19370.95
708.243	19230.38
708.588	19269.03
708.932	19036.94
709.277	18995.36
709.621	19015.25
709.966	18924.86
710.31	18921.69
710.654	18783.16
710.998	18853.44
711.342	18789.49
711.687	18754.69
712.031	18747.46
712.375	18598.54
712.719	18628.59
713.063	18585.88
713.407	18651.42
713.75	18572.77
714.094	18509.5
714.438	18454.81
714.782	18457.3
715.125	18400.35
715.469	18408.94
715.812	18359.67
716.156	18273.8
716.499	18277.41
716.843	18251.2
717.186	18201.71
717.53	18263.86
717.873	18187.02
718.216	18151.09
718.559	18078.1
718.902	17987.03
719.246	18017.99
719.589	17944.54
719.932	17912.45
720.275	17911.32
720.617	17866.8
720.96	17858.89
721.303	17838.78
721.646	17672.23
721.989	17703.42
722.331	17756.07
722.674	17763.3
723.016	17735.73
723.359	17741.38
723.701	17601.73
724.044	17648.28
724.386	17450.77
724.729	17554.95
725.071	17494.16
725.413	17431.79
725.755	17450.32
726.097	17409.64
726.439	17370.09
726.782	17352.02
727.124	17467.72
727.465	17375.74
727.807	17330.1
728.149	17339.13
728.491	17271.11
728.833	17380.04
729.175	17193.38
729.516	17247.39
729.858	17230.66
730.199	17242.19
730.541	17325.35
730.882	17224.56
731.224	17258.91
731.565	17073.6
731.906	17181.85
732.248	17213.26
732.589	17005.13
732.93	17010.1
733.271	17027.96
733.612	17085.58
733.953	17043.78
734.294	16965.13
734.635	16949.31
734.976	17033.83
735.317	16888.75
735.658	16982.76
735.999	16966.94
736.339	16829.54
736.68	17016.66
737.021	16966.49
737.361	16911.35
737.702	16969.88
738.042	17004.45
738.383	16928.07
738.723	16940.5
739.063	16855.98
739.404	17033.83
739.744	16886.27
740.084	16855.31
740.424	17020.05
740.764	16846.04
741.104	16890.33
741.444	16865.25
741.784	16823.89
742.124	16851.69
742.464	16876.77
742.804	16728.08
743.143	16896.66
743.483	16962.2
743.823	16850.56
744.162	16769.21
744.502	16908.41
744.841	16786.83
745.181	16932.59
745.52	16842.88
745.86	16928.3
746.199	16906.15
746.538	16984.12
746.877	17105.92
747.216	17047.62
747.556	17009.88
747.895	17066.37
748.234	17034.96
748.573	17058.69
748.911	17171.23
749.25	17115.86
749.589	17232.24
749.928	17153.6
750.267	17262.3
750.605	17371
750.944	17292.58
751.283	17373.03
751.621	17327.38
751.96	17411.9
752.298	17432.24
752.636	17552.24
752.975	17604.89
753.313	17598.11
753.651	17766.02
753.989	17667.04
754.327	17752.23
754.666	17797.88
755.004	17901.38
755.342	17972.11
755.679	18121.03
756.017	17980.02
756.355	18174.82
756.693	18197.42
757.031	18280.58
757.368	18182.5
757.706	18389.95
758.044	18379.11
758.381	18518.99
758.719	18507.92
759.056	18598.08
759.394	18689.16
759.731	18609.16
760.068	18674.47
760.405	18722.6
760.743	18721.25
761.08	18887.57
761.417	18971.41
761.754	18945.87
762.091	19003.05
762.428	19007.11
762.765	19032.88
763.102	19164.17
763.438	19109.48
763.775	19140.44
764.112	19235.58
764.449	19302.92
764.785	19300.21
765.122	19302.02
765.458	19292.98
765.795	19356.48
766.131	19497.72
766.467	19351.51
766.804	19388.57
767.14	19352.19
767.476	19411.85
767.812	19340.44
768.148	19452.98
768.485	19368.23
768.821	19309.93
769.157	19411.4
769.492	19424.73
769.828	19425.41
770.164	19295.02
770.5	19257.5
770.836	19309.48
771.171	19292.08
771.507	19254.56
771.842	19192.19
772.178	19230.38
772.513	19294.79
772.849	19250.5
773.184	19223.15
773.519	19264.51
773.855	19179.31
774.19	19105.87
774.525	19131.63
774.86	19057.73
775.195	19048.69
775.53	19021.8
775.865	19031.97
776.2	18873.33
776.535	18827.46
776.87	18816.16
777.205	18802.82
777.539	18799.21
777.874	18789.94
778.209	18614.81
778.543	18608.03
778.878	18622.04
779.212	18565.09
779.547	18438.99
779.881	18533.68
780.215	18404.42
780.55	18509.27
780.884	18306.79
781.218	18234.7
781.552	18319.22
781.886	18246.23
782.22	17999
782.554	18130.75
782.888	17948.84
783.222	17943.41
783.556	17864.32
783.889	17699.35
784.223	17726.24
784.557	17636.08
784.89	17780.93
785.224	17623.42
785.557	17551.56
785.891	17536.19
786.224	17506.59
786.558	17425.46
786.891	17314.73
787.224	17286.48
787.557	17247.61
787.891	17146.82
788.224	17247.84
788.557	17140.5
788.89	17120.61
789.223	17054.4
789.556	16950.67
789.888	16909.77
790.221	16871.35
790.554	16714.97
790.887	16756.32
791.219	16752.94
791.552	16575.54
791.884	16528.76
792.217	16510.46
792.549	16514.07
792.882	16341.19
793.214	16289.44
793.546	16331.48
793.879	16258.94
794.211	16148.66
794.543	16125.16
794.875	16200.86
795.207	16230.24
795.539	16104.59
795.871	16050.13
796.203	15930.81
796.535	15870.25
796.867	15855.33
797.198	15807.2
797.53	15857.14
797.862	15594.77
798.193	15739.85
798.525	15562.01
798.856	15723.13
799.188	15491.73
799.519	15460.54
799.85	15298.06
800.182	15322.92
800.513	15376.25
800.844	15245.63
801.175	15274.56
801.506	15198.4
801.837	15112.53
802.168	15079.08
802.499	15092.64
802.83	14986.43
803.161	14979.65
803.491	15018.07
803.822	14876.15
804.153	14889.93
804.483	14709.37
804.814	14740.78
805.145	14708.02
805.475	14663.05
805.805	14606.55
806.136	14691.97
806.466	14588.02
806.796	14587.79
807.126	14473.9
807.457	14442.26
807.787	14353.22
808.117	14391.87
808.447	14331.3
808.777	14327.46
809.107	14316.62
809.436	14256.5
809.766	14255.37
810.096	14138.77
810.426	14113.46
810.755	14111.65
811.085	13991.43
811.414	14013.35
811.744	13957.53
812.073	13934.25
812.403	13927.02
812.732	13869.17
813.061	13865.78
813.39	13753.47
813.719	13766.35
814.049	13754.82
814.378	13732.68
814.707	13668.04
815.036	13675.05
815.365	13538.33
815.693	13471.89
816.022	13442.74
816.351	13412.23
816.68	13378.33
817.008	13458.78
817.337	13212.92
817.665	13248.17
817.994	13319.81
818.322	13290.88
818.651	13273.03
818.979	13115.06
819.307	13186.25
819.636	13186.02
819.964	13045.69
820.292	13125.69
820.62	13047.72
820.948	13052.47
821.276	13056.99
821.604	13054.5
821.932	13147.83
822.259	13145.12
822.587	13059.02
822.915	13007.95
823.243	13114.61
823.57	13029.64
823.898	13021.51
824.225	13030.77
824.553	12986.71
824.88	12960.04
825.207	13054.28
825.535	13058.8
825.862	13053.6
826.189	12969.08
826.516	12967.5
826.843	13079.13
827.17	13016.31
827.497	13040.04
827.824	13063.09
828.151	13079.36
828.478	13003.43
828.805	13106.48
829.131	13003.43
829.458	12998.01
829.785	12936.99
830.111	12943.09
830.438	12995.97
830.764	13032.81
831.09	13071.22
831.417	12934.05
831.743	13012.47
832.069	12983.54
832.395	12814.96
832.722	12912.36
833.048	12873.26
833.374	12837.33
833.7	12800.04
834.026	12890.66
834.351	12945.8
834.677	12901.51
835.003	12990.55
835.329	12856.31
835.654	12797.78
835.98	12774.28
836.306	12765.7
836.631	12738.58
836.956	12742.65
837.282	12843.66
837.607	12710.78
837.932	12681.18
838.258	12649.77
838.583	12682.99
838.908	12571.35
839.233	12618.81
839.558	12609.54
839.883	12514.63
840.208	12554.63
840.533	12473.5
840.858	12502.88
841.182	12540.39
841.507	12461.97
841.832	12388.53
842.156	12410.9
842.481	12401.86
842.805	12339.27
843.13	12271.47
843.454	12254.75
843.778	12278.48
844.103	12245.94
844.427	12081.65
844.751	12266.95
845.075	12175.43
845.399	12156.45
845.723	11972.27
846.047	12030.35
846.371	11907.64
846.695	11939.28
847.019	11854.31
847.343	11826.96
847.666	11687.76
847.99	11645.72
848.313	11668.55
848.637	11617.48
848.96	11585.61
849.284	11564.15
849.607	11434.21
849.931	11466.75
850.254	11356.69
850.577	11316.02
850.9	11255.9
851.223	11236.02
851.546	11151.73
851.869	11124.83
852.192	11132.74
852.515	11066.53
852.838	11045.06
853.161	11064.05
853.483	10956.25
853.806	10891.39
854.129	10897.95
854.451	10878.51
854.774	10799.87
855.096	10732.98
855.419	10791.74
855.741	10736.6
856.063	10635.58
856.385	10672.64
856.708	10629.48
857.03	10535.25
857.352	10572.76
857.674	10511.97
857.996	10545.41
858.318	10443.5
858.64	10485.76
858.961	10414.57
859.283	10368.24
859.605	10364.63
859.926	10349.26
860.248	10238.76
860.57	10289.38
860.891	10241.92
861.212	10181.13
861.534	10158.76
861.855	10163.05
862.176	10190.85
862.498	10163.28
862.819	10186.78
863.14	10068.14
863.461	10071.75
863.782	9961.7
864.103	9969.38
864.424	9926.45
864.745	10052.55
865.065	9901.36
865.386	9932.32
865.707	9958.99
866.027	9867.01
866.348	9956.5
866.668	9872.21
866.989	9829.95
867.309	9724.19
867.63	9767.13
867.95	9765.32
868.27	9746.79
868.59	9789.05
868.91	9722.84
869.23	9663.18
869.55	9686.91
869.87	9726
870.19	9682.16
870.51	9774.81
870.83	9695.49
871.15	9635.61
871.469	9623.41
871.789	9690.07
872.109	9569.62
872.428	9514.26
872.748	9619.11
873.067	9570.75
873.386	9553.35
873.706	9509.74
874.025	9456.86
874.344	9450.98
874.663	9494.14
874.982	9425.67
875.301	9436.97
875.62	9370.76
875.939	9384.54
876.258	9383.19
876.577	9357.42
876.896	9425.22
877.214	9307.26
877.533	9331.89
877.852	9340.02
878.17	9353.36
878.489	9291.89
878.807	9259.8
879.125	9231.33
879.444	9279.91
879.762	9243.98
880.08	9158.33
880.398	9224.32
880.716	9149.52
881.034	9200.14
881.352	9124.89
881.67	9032.69
881.988	9131.89
882.306	9031.1
882.624	9072.23
882.941	8952.01
883.259	8986.81
883.577	8946.36
883.894	8947.94
884.212	8915.85
884.529	8936.42
884.846	8904.78
885.164	8867.04
885.481	8868.17
885.798	8849.64
886.115	8801.05
886.432	8762.86
886.75	8759.47
887.067	8811.22
887.383	8753.15
887.7	8779.81
888.017	8719.02
888.334	8710.66
888.651	8695.97
888.967	8623.88
889.284	8595.64
889.6	8585.24
889.917	8523.55
890.233	8524.45
890.55	8522.42
890.866	8497.79
891.182	8508.18
891.498	8462.98
891.815	8457.79
892.131	8419.6
892.447	8369.88
892.763	8339.15
893.079	8318.81
893.395	8340.5
893.71	8289.2
894.026	8206.95
894.342	8239.03
894.657	8128.98
894.973	8129.43
895.289	8145.7
895.604	8162.2
895.92	8046.05
896.235	8079.04
896.55	8053.95
896.865	8039.94
897.181	7986.84
897.496	7973.96
897.811	7890.34
898.126	7932.83
898.441	7866.62
898.756	7865.26
899.071	7810.8
899.386	7781.42
899.7	7728.31
900.015	7707.75
900.33	7688.31
900.644	7698.94
900.959	7642.89
901.273	7590.46
901.588	7608.99
901.902	7616.68
902.216	7565.15
902.531	7520.41
902.845	7522.22
903.159	7444.93
903.473	7459.85
903.787	7408.77
904.101	7362.9
904.415	7318.16
904.729	7314.09
905.042	7336.91
905.356	7256.46
905.67	7269.12
905.984	7239.97
906.297	7203.58
906.611	7126.97
906.924	7139.63
907.237	7097.14
907.551	7089.01
907.864	7067.09
908.177	7033.19
908.491	7030.7
908.804	6935.79
909.117	6922.23
909.43	6878.39
909.743	6824.16
910.056	6842.69
910.368	6863.48
910.681	6794.33
910.994	6779.64
911.307	6730.37
911.619	6680.21
911.932	6701.9
912.244	6691.96
912.557	6689.7
912.869	6627.78
913.181	6566.99
913.494	6578.51
913.806	6543.94
914.118	6505.75
914.43	6464.39
914.742	6447.44
915.054	6412.64
915.366	6379.42
915.678	6343.49
915.99	6353.89
916.302	6286.77
916.613	6342.36
916.925	6282.7
917.236	6281.35
917.548	6220.33
917.859	6201.12
918.171	6115.25
918.482	6135.14
918.794	6144.4
919.105	6128.13
919.416	5980.79
919.727	6044.52
920.038	6004.97
920.349	5930.62
920.66	5948.02
920.971	5969.26
921.282	5892.43
921.593	5854.92
921.903	5844.75
922.214	5819.44
922.525	5799.1
922.835	5799.55
923.146	5769.72
923.456	5745.54
923.767	5747.35
924.077	5720.46
924.387	5683.85
924.697	5704.41
925.008	5699.44
925.318	5615.37
925.628	5586.9
925.938	5590.52
926.248	5498.77
926.558	5507.58
926.867	5488.82
927.177	5474.59
927.487	5493.34
927.796	5426.68
928.106	5384.87
928.416	5407.7
928.725	5359.11
929.034	5355.95
929.344	5355.04
929.653	5259.45
929.962	5215.61
930.271	5242.5
930.581	5236.18
930.89	5212.9
931.199	5139.46
931.508	5151.43
931.817	5136.29
932.125	5140.81
932.434	5134.26
932.743	5016.75
933.051	5050.19
933.36	5016.52
933.669	4977.43
933.977	4976.3
934.286	4985.79
934.594	4958.67
934.902	4919.8
935.21	4907.6
935.519	4849.75
935.827	4870.31
936.135	4844.77
936.443	4817.2
936.751	4802.29
937.059	4752.35
937.367	4756.64
937.674	4702.18
937.982	4698.11
938.29	4673.03
938.597	4678.9
938.905	4597.32
939.213	4623.08
939.52	4608.85
939.827	4634.61
940.135	4580.83
940.442	4574.72
940.749	4527.95
941.056	4540.83
941.363	4456.08
941.67	4503.31
941.977	4532.69
942.284	4442.75
942.591	4383.32
942.898	4404.33
943.205	4399.36
943.511	4368.4
943.818	4369.31
944.125	4350.1
944.431	4251.34
944.738	4298.12
945.044	4303.09
945.35	4271.23
945.657	4256.99
945.963	4226.03
946.269	4192.36
946.575	4180.84
946.881	4180.84
947.187	4170.89
947.493	4131.35
947.799	4127.5
948.105	4085.92
948.41	4102.19
948.716	4050.9
949.022	4047.05
949.327	4069.2
949.633	4007.06
949.938	4025.59
950.244	3978.13
950.549	3965.25
950.854	3934.29
951.16	3927.51
951.465	3920.96
951.77	3882.31
952.075	3902.65
952.38	3870.11
952.685	3848.19
952.99	3800.28
953.294	3808.87
953.599	3817.23
953.904	3791.69
954.209	3759.15
954.513	3763.9
954.818	3750.79
955.122	3745.14
955.426	3718.02
955.731	3654.97
956.035	3692.49
956.339	3641.87
956.643	3674.18
956.948	3600.51
957.252	3576.11
957.556	3584.92
957.86	3563.23
958.163	3563.23
958.467	3520.74
958.771	3510.8
959.075	3536.33
959.378	3499.27
959.682	3499.72
959.985	3487.97
960.289	3429.22
960.592	3456.56
960.896	3409.56
961.199	3391.93
961.502	3413.85
961.805	3368.88
962.108	3343.8
962.411	3339.5
962.714	3345.15
963.017	3325.27
963.32	3290.01
963.623	3279.17
963.926	3302.67
964.228	3241.2
964.531	3205.04
964.833	3275.1
965.136	3241.88
965.438	3206.62
965.741	3207.75
966.043	3173.86
966.345	3156.23
966.648	3164.14
966.95	3189
967.252	3125.95
967.554	3120.07
967.856	3098.83
968.158	3072.62
968.46	3083.24
968.761	3085.27
969.063	3057.7
969.365	3027.42
969.666	3067.87
969.968	3000.75
970.269	3026.29
970.571	2976.12
970.872	2997.82
971.174	2957.59
971.475	2946.74
971.776	2912.62
972.077	2882.34
972.378	2923.24
972.679	2939.29
972.98	2917.59
973.281	2866.07
973.582	2854.77
973.883	2829.23
974.183	2825.84
974.484	2805.96
974.785	2828.33
975.085	2762.12
975.386	2793.98
975.686	2774.09
975.986	2772.51
976.287	2759.86
976.587	2702.23
976.887	2762.12
977.187	2716.24
977.487	2707.43
977.787	2687.32
978.087	2668.79
978.387	2669.01
978.687	2662.68
978.987	2668.79
979.286	2590.14
979.586	2600.99
979.885	2629.69
980.185	2589.69
980.484	2571.84
980.784	2572.52
981.083	2596.47
981.382	2555.34
981.682	2572.52
981.981	2536.13
982.28	2505.17
982.579	2509.69
982.878	2485.06
983.177	2487.55
983.475	2464.5
983.774	2451.62
984.073	2438.06
984.372	2427.21
984.67	2423.82
984.969	2410.71
985.267	2373.43
985.566	2384.5
985.864	2386.53
986.162	2405.52
986.461	2426.31
986.759	2381.34
987.057	2323.26
987.355	2305.63
987.653	2331.62
987.951	2335.46
988.249	2307.21
988.547	2290.72
988.844	2284.62
989.142	2277.84
989.44	2265.63
989.737	2238.51
990.035	2279.19
990.332	2262.47
990.63	2195.8
990.927	2216.14
991.224	2195.8
991.521	2194
991.819	2196.93
992.116	2177.05
992.413	2169.14
992.71	2151.29
993.006	2134.34
993.303	2138.4
993.6	2147.22
993.897	2130.95
994.193	2121
994.49	2112.87
994.787	2095.02
995.083	2056.15
995.379	2081.46
995.676	2064.96
995.972	2037.16
996.268	2029.25
996.565	2064.51
996.861	2010.72
997.157	1991.97
997.453	2004.17
997.749	1989.26
998.044	1956.04
998.34	1958.07
998.636	1968.47
998.932	1947
999.227	1952.42
999.523	1945.87
999.818	1937.05
1000.114	1924.4
1000.409	1890.28
1000.704	1871.29
1001	1851.18
1001.295	1888.47
1001.59	1864.51
1001.885	1876.72
1002.18	1808.47
1002.475	1829.94
1002.77	1825.64
1003.065	1809.6
1003.359	1791.29
1003.654	1786.78
1003.949	1780
1004.243	1789.49
1004.538	1735.25
1004.832	1726.89
1005.127	1768.92
1005.421	1721.92
1005.715	1724.86
1006.009	1717.85
1006.304	1713.78
1006.598	1698.42
1006.892	1714.23
1007.186	1683.27
1007.48	1674.46
1007.773	1668.59
1008.067	1656.83
1008.361	1664.29
1008.655	1636.95
1008.948	1631.3
1009.242	1626.55
1009.535	1593.33
1009.829	1604.18
1010.122	1575.03
1010.415	1577.97
1010.708	1582.71
1011.001	1570.51
1011.295	1567.57
1011.588	1553.11
1011.881	1561.7
1012.173	1535.03
1012.466	1509.49
1012.759	1546.1
1013.052	1518.31
1013.344	1484.18
1013.637	1522.38
1013.93	1464.75
1014.222	1461.59
1014.514	1503.39
1014.807	1475.37
1015.099	1452.55
1015.391	1445.09
1015.683	1426.56
1015.976	1417.52
1016.268	1452.55
1016.56	1378.42
1016.851	1377.07
1017.143	1369.16
1017.435	1377.52
1017.727	1380.23
1018.018	1378.2
1018.31	1342.49
1018.602	1344.53
1018.893	1359.67
1019.185	1328.03
1019.476	1336.39
1019.767	1329.61
1020.058	1281.93
1020.35	1286.45
1020.641	1293.91
1020.932	1301.59
1021.223	1294.58
1021.514	1254.59
1021.804	1261.82
1022.095	1227.92
1022.386	1249.84
1022.677	1247.13
1022.967	1229.05
1023.258	1217.75
1023.548	1198.32
1023.839	1192.67
1024.129	1195.83
1024.419	1161.03
1024.709	1156.74
1025	1185.43
1025.29	1154.7
1025.58	1170.97
1025.87	1156.51
1026.16	1158.09
1026.449	1158.77
1026.739	1126.45
1027.029	1139.79
1027.319	1112.89
1027.608	1113.57
1027.898	1104.53
1028.187	1096.85
1028.477	1081.71
1028.766	1081.71
1029.055	1074.93
1029.344	1083.97
1029.634	1015.04
1029.923	1061.6
1030.212	1058.21
1030.501	1048.72
1030.79	1050.07
1031.078	1017.98
1031.367	1008.72
1031.656	1020.02
1031.945	998.55
1032.233	1021.82
1032.522	1007.13
1032.81	987.93
1033.099	974.14
1033.387	979.56
1033.675	978.66
1033.963	980.47
1034.251	975.72
1034.54	946.57
1034.828	954.71
1035.116	963.29
1035.403	941.6
1035.691	927.36
1035.979	921.26
1036.267	916.74
1036.554	913.8
1036.842	901.37
1037.129	878.78
1037.417	911.09
1037.704	919
1037.992	903.63
1038.279	851.43
1038.566	886.69
1038.853	886.69
1039.14	886.69
