Data from hue_00_FLMS001491_80.txt Node
Date: Mon Feb 06 15:30:13 GMT 2017
User: dcchb
Spectrometer: FLMS00149
Trigger mode: 0
Integration Time (sec): 2.000000E-2
Scans to average: 10
Electric dark correction enabled: true
Nonlinearity correction enabled: false
Boxcar width: 0
XAxis mode: Wavelengths
Number of Pixels in Spectrum: 2048
>>>>>Begin Spectral Data<<<<<
341.393	-28.12
341.776	-28.12
342.16	-28.12
342.543	-38.97
342.927	-60.66
343.31	-54.11
343.693	-64.28
344.077	-53.43
344.46	-72.19
344.843	-50.49
345.226	-49.36
345.61	-44.84
345.993	-22.02
346.376	-16.37
346.759	18.66
347.142	18.66
347.525	34.02
347.908	64.53
348.291	80.35
348.674	91.88
349.057	118.99
349.44	137.98
349.823	141.82
350.206	158.99
350.588	194.25
350.971	206.68
351.354	215.49
351.737	241.02
352.119	243.74
352.502	266.79
352.884	280.35
353.267	283.74
353.65	303.85
354.032	319.89
354.414	295.26
354.797	326.45
355.179	330.29
355.562	335.03
355.944	317.18
356.326	317.18
356.709	337.52
357.091	318.31
357.473	309.95
357.855	328.48
358.238	350.63
358.62	348.82
359.002	370.96
359.384	343.39
359.766	344.52
360.148	345.65
360.53	317.41
360.912	319.89
361.294	334.58
361.676	335.26
362.057	318.76
362.439	321.7
362.821	318.54
363.203	329.61
363.584	321.47
363.966	306.56
364.348	315.83
364.729	307.92
365.111	303.17
365.493	318.99
365.874	309.27
366.256	302.04
366.637	326.67
367.019	308.37
367.4	288.48
367.781	287.13
368.163	334.36
368.544	307.01
368.925	304.53
369.306	315.83
369.688	308.14
370.069	299.55
370.45	306.33
370.831	281.02
371.212	307.92
371.593	307.92
371.974	307.69
372.355	294.58
372.736	328.48
373.117	298.88
373.498	301.81
373.879	298.88
374.26	321.93
374.641	318.08
375.021	303.85
375.402	317.86
375.783	298.88
376.163	302.27
376.544	332.1
376.925	315.15
377.305	319.44
377.686	341.81
378.066	329.84
378.447	345.43
378.827	323.73
379.208	338.65
379.588	330.29
379.968	323.96
380.349	319.67
380.729	328.03
381.109	332.1
381.489	314.02
381.87	329.16
382.25	320.8
382.63	323.73
383.01	332.32
383.39	315.15
383.77	316.5
384.15	321.25
384.53	344.3
384.91	338.88
385.29	323.73
385.67	341.81
386.049	342.94
386.429	344.3
386.809	335.71
387.189	328.71
387.568	333.9
387.948	342.04
388.328	347.91
388.707	316.5
389.087	364.41
389.466	355.82
389.846	368.25
390.225	374.58
390.605	356.28
390.984	342.49
391.363	375.71
391.743	370.06
392.122	360.34
392.501	340.68
392.881	365.54
393.26	368.7
393.639	355.6
394.018	378.2
394.397	377.97
394.776	356.05
395.155	370.06
395.534	351.53
395.913	362.15
396.292	353.11
396.671	368.25
397.05	371.42
397.429	363.73
397.808	364.64
398.186	362.83
398.565	349.72
398.944	379.33
399.323	375.26
399.701	369.61
400.08	360.12
400.458	384.07
400.837	384.07
401.215	379.78
401.594	370.96
401.972	393.34
402.351	354.02
402.729	375.03
403.107	383.85
403.486	383.39
403.864	383.17
404.242	384.98
404.62	410.29
404.999	412.77
405.377	398.53
405.755	424.75
406.133	405.54
406.511	398.31
406.889	390.63
407.267	390.85
407.645	389.95
408.023	395.14
408.401	382.72
408.779	392.21
409.156	413.68
409.534	408.03
409.912	415.48
410.29	427.01
410.667	406.9
411.045	420.91
411.422	431.3
411.8	421.36
412.178	442.6
412.555	413
412.933	427.01
413.31	427.91
413.687	450.28
414.065	450.74
414.442	419.55
414.819	453.67
415.197	451.41
415.574	460
415.951	443.28
416.328	458.42
416.705	444.41
417.082	448.02
417.46	468.36
417.837	469.72
418.214	470.4
418.591	470.85
418.967	488.93
419.344	479.66
419.721	494.35
420.098	479.66
420.475	480.11
420.852	488.48
421.228	495.26
421.605	479.89
421.982	509.27
422.358	507.91
422.735	512.88
423.111	487.12
423.488	521.92
423.864	512.43
424.241	526.67
424.617	515.14
424.994	504.29
425.37	515.14
425.746	543.84
426.123	545.65
426.499	523.73
426.875	546.78
427.251	533.22
427.627	545.88
428.003	551.07
428.379	533.67
428.756	551.07
429.132	555.14
429.507	571.64
429.883	550.4
430.259	528.02
430.635	570.96
431.011	550.62
431.387	594.01
431.763	573.22
432.138	601.69
432.514	606.44
432.89	601.69
433.265	584.07
433.641	606.89
434.016	616.38
434.392	609.6
434.767	607.57
435.143	601.47
435.518	600.11
435.894	628.36
436.269	640.34
436.644	628.81
437.02	658.87
437.395	634.23
437.77	652.77
438.145	639.88
438.52	650.05
438.895	669.26
439.271	673.33
439.646	676.27
440.021	684.85
440.395	658.64
440.77	664.74
441.145	663.61
441.52	678.98
441.895	677.62
442.27	699.09
442.645	690.05
443.019	690.96
443.394	686.21
443.769	709.71
444.143	707.91
444.518	746.77
444.892	707.23
445.267	735.7
445.641	707.23
446.016	721.46
446.39	723.72
446.764	730.05
447.139	697.28
447.513	740.9
447.887	739.54
448.262	729.37
448.636	731.63
449.01	761.46
449.384	746.77
449.758	769.82
450.132	750.16
450.506	772.76
450.88	783.16
451.254	747
451.628	747.45
452.002	770.95
452.376	789.48
452.75	777.06
453.123	767.79
453.497	805.76
453.871	801.24
454.244	810.73
454.618	802.59
454.992	806.66
455.365	824.29
455.739	845.75
456.112	824.51
456.486	834
456.859	842.36
457.232	860.44
457.606	853.66
457.979	891.18
458.352	880.56
458.725	878.07
459.099	909.71
459.472	899.54
459.845	913.1
460.218	909.93
460.591	925.75
460.964	912.42
461.337	947.9
461.71	961.01
462.083	955.36
462.456	975.47
462.829	949.71
463.201	969.14
463.574	979.54
463.947	1002.36
464.32	1035.81
464.692	1015.92
465.065	1034
465.438	1038.07
465.81	1039.42
466.183	1067.22
466.555	1069.7
466.928	1083.94
467.3	1070.38
467.672	1101.12
468.045	1119.87
468.417	1114
468.789	1122.36
469.161	1118.52
469.534	1145.41
469.906	1147.22
470.278	1170.72
470.65	1163.94
471.022	1213.2
471.394	1238.29
471.766	1213.2
472.138	1251.39
472.51	1258.17
472.882	1297.49
473.253	1286.87
473.625	1304.95
473.997	1342.92
474.369	1357.15
474.74	1378.17
475.112	1416.36
475.484	1419.3
475.855	1409.58
476.227	1470.14
476.598	1499.97
476.97	1505.17
477.341	1511.5
477.713	1524.38
478.084	1563.48
478.455	1621.1
478.827	1628.56
479.198	1675.11
479.569	1668.56
479.94	1724.83
480.311	1730.48
480.682	1776.8
481.053	1814.54
481.424	1862.45
481.795	1884.6
482.166	1926.63
482.537	1917.59
482.908	1966.18
483.279	1982.22
483.65	2026.51
484.021	2064.03
484.391	2087.3
484.762	2149
485.133	2106.06
485.503	2163.46
485.874	2216.11
486.244	2219.28
486.615	2238.03
486.985	2355.55
487.356	2363.45
487.726	2341.76
488.097	2425.83
488.467	2454.53
488.837	2492.49
489.207	2543.56
489.578	2573.17
489.948	2561.19
490.318	2607.06
490.688	2655.88
491.058	2682.77
491.428	2718.25
491.798	2754.4
492.168	2802.99
492.538	2833.72
492.908	2847.96
493.278	2918.02
493.648	2916.89
494.017	2948.07
494.387	3007.73
494.757	3017.9
495.126	3043.44
495.496	3056.32
495.866	3106.71
496.235	3128.86
496.605	3152.36
496.974	3166.82
497.344	3191.68
497.713	3230.55
498.082	3213.6
498.452	3306.93
498.821	3318.91
499.19	3324.79
499.559	3353.71
499.928	3398
500.298	3375.41
500.667	3433.94
501.036	3390.77
501.405	3422.64
501.774	3451.79
502.143	3500.83
502.512	3502.18
502.88	3517.55
503.249	3543.99
503.618	3573.59
503.987	3567.26
504.356	3623.99
504.724	3655.4
505.093	3601.39
505.462	3635.29
505.83	3643.42
506.199	3702.4
506.567	3725.68
506.936	3721.39
507.304	3733.36
507.672	3805.45
508.041	3808.39
508.409	3806.58
508.777	3817.65
509.145	3850.42
509.514	3837.54
509.882	3880.48
510.25	3875.51
510.618	3912.34
510.986	3894.04
511.354	3935.62
511.722	3929.52
512.09	3980.14
512.458	3995.05
512.826	3957.99
513.193	4002.51
513.561	4023.98
513.929	4042.73
514.297	4063.07
514.664	4077.31
515.032	4098.78
515.4	4091.09
515.767	4134.48
516.135	4132.22
516.502	4148.27
516.869	4171.77
517.237	4160.92
517.604	4182.39
517.972	4193.46
518.339	4199.11
518.706	4233.91
519.073	4219.68
519.44	4211.99
519.808	4251.31
520.175	4241.6
520.542	4293.57
520.909	4269.39
521.276	4295.83
521.643	4338.09
522.009	4379.45
522.376	4363.85
522.743	4409.5
523.11	4423.51
523.477	4425.32
523.843	4409.28
524.21	4491.31
524.577	4529.5
524.943	4540.35
525.31	4549.84
525.676	4612.21
526.043	4583.06
526.409	4627.58
526.776	4647.24
527.142	4644.52
527.508	4702.6
527.874	4739.66
528.241	4735.14
528.607	4756.84
528.973	4759.78
529.339	4794.13
529.705	4814.69
530.071	4819.66
530.437	4876.61
530.803	4891.75
531.169	4883.39
531.535	4825.31
531.901	4911.41
532.267	4890.39
532.632	4973.33
532.998	4958.64
533.364	5019.88
533.73	5048.58
534.095	5050.62
534.461	5068.92
534.826	5122.48
535.192	5110.95
535.557	5138.98
535.923	5136.04
536.288	5132.42
536.653	5222.59
537.019	5171.74
537.384	5247.67
537.749	5231.63
538.114	5231.85
538.479	5320.89
538.845	5310.04
539.21	5296.26
539.575	5328.12
539.94	5371.06
540.305	5405.86
540.67	5340.78
541.034	5384.62
541.399	5408.12
541.764	5418.97
542.129	5487.21
542.494	5505.75
542.858	5535.12
543.223	5479.53
543.587	5576.93
543.952	5578.29
544.316	5602.01
544.681	5569.7
545.045	5658.28
545.41	5703.48
545.774	5737.38
546.138	5723.82
546.503	5731.5
546.867	5711.39
547.231	5799.07
547.595	5857.6
547.959	5849.46
548.324	5841.56
548.688	5847.21
549.052	5910.03
549.416	5928.11
549.779	5896.92
550.143	5946.19
550.507	5984.6
550.871	5933.53
551.235	5947.54
551.599	6028.67
551.962	6006.97
552.326	6007.65
552.689	6066.41
553.053	6136.01
553.417	6110.02
553.78	6173.07
554.143	6160.87
554.507	6172.17
554.87	6148.44
555.234	6208.55
555.597	6257.59
555.96	6238.38
556.323	6283.8
556.686	6280.64
557.05	6333.07
557.413	6344.14
557.776	6314.09
558.139	6386.85
558.502	6393.63
558.865	6400.41
559.228	6438.83
559.59	6454.42
559.953	6463.46
560.316	6536
560.679	6496.45
561.041	6551.14
561.404	6617.58
561.767	6604.25
562.129	6576.68
562.492	6606.28
562.854	6573.74
563.217	6630.24
563.579	6609.67
563.941	6669.33
564.304	6786.16
564.666	6733.96
565.028	6757.24
565.39	6778.48
565.753	6794.07
566.115	6854.64
566.477	6856.67
566.839	6877.23
567.201	6851.47
567.563	6916.78
567.925	6962.43
568.287	6968.08
568.648	7024.58
569.01	7040.85
569.372	7068.64
569.734	7095.31
570.095	7108.41
570.457	7179.6
570.819	7154.97
571.18	7183.44
571.542	7206.49
571.903	7250.78
572.265	7302.53
572.626	7415.53
572.987	7358.8
573.349	7413.72
573.71	7493.26
574.071	7460.04
574.432	7547.05
574.794	7628.85
575.155	7618.01
575.516	7734.61
575.877	7762.41
576.238	7848.96
576.599	7885.8
576.96	7947.71
577.32	8034.04
577.681	8125.79
578.042	8180.93
578.403	8288.95
578.763	8338.44
579.124	8384.09
579.485	8509.51
579.845	8606
580.206	8653.68
580.566	8773.46
580.927	8858.2
581.287	9086.89
581.648	9139.32
582.008	9288.92
582.368	9377.06
582.728	9564.17
583.089	9617.73
583.449	9803.71
583.809	9913.76
584.169	10085.29
584.529	10215.23
584.889	10488.44
585.249	10628.77
585.609	10699.51
585.969	10956.68
586.329	11153.73
586.688	11478.02
587.048	11498.81
587.408	11725.47
587.768	11962.75
588.127	12233.7
588.487	12366.36
588.846	12693.13
589.206	12864.65
589.565	13099.22
589.925	13444.29
590.284	13596.15
590.643	13825.3
591.003	14083.15
591.362	14514.1
591.721	14679.29
592.08	14847.87
592.44	15143.91
592.799	15381.19
593.158	15634.74
593.517	16028.86
593.876	16256.42
594.235	16615.51
594.593	16799.46
594.952	17032.22
595.311	17328.49
595.67	17706.1
596.029	18048.92
596.387	18274.45
596.746	18615.23
597.104	18833.98
597.463	19028.55
597.822	19427.86
598.18	19661.76
598.538	19995.76
598.897	20325.24
599.255	20340.84
599.613	21003.64
599.972	21157.99
600.33	21462.84
600.688	21741.93
601.046	21992.32
601.404	22313.66
601.762	22507.33
602.12	22972.18
602.478	23134.43
602.836	23367.87
603.194	23526.51
603.552	23919.05
603.91	24057.12
604.268	24490.33
604.625	24644.22
604.983	24875.41
605.341	25096.64
605.698	25362.17
606.056	25627.7
606.413	25857.53
606.771	26129.84
607.128	26427.68
607.485	26407.12
607.843	26823.6
608.2	27027.44
608.557	27364.15
608.914	27402.8
609.272	27758.27
609.629	28046.62
609.986	28259.27
610.343	28441.41
610.7	28705.36
611.057	28797.34
611.414	28963.43
611.771	29118.91
612.127	29440.03
612.484	29543.98
612.841	29789.4
613.198	29873.92
613.554	30181.71
613.911	30371.08
614.267	30519.32
614.624	30606.55
614.98	30825.98
615.337	31078.18
615.693	31226.42
616.05	31332.18
616.406	31531.73
616.762	31562.91
617.118	31780.99
617.475	31846.97
617.831	32082
618.187	32182.11
618.543	32351.59
618.899	32595.65
619.255	32663.22
619.611	32759.04
619.967	33079.03
620.323	33166.94
620.678	33083.33
621.034	33096.66
621.39	33398.57
621.746	33276.99
622.101	33774.61
622.457	33658.45
622.812	33777.54
623.168	33881.04
623.523	33975.5
623.879	34186.8
624.234	33995.84
624.589	34188.83
624.945	34394.25
625.3	34399.9
625.655	34433.35
626.01	34575.72
626.365	34623.62
626.72	34721.25
627.075	34740.23
627.43	34714.47
627.785	34647.13
628.14	34861.81
628.495	34958.08
628.85	34886.89
629.205	34748.82
629.559	35040.79
629.914	35135.47
630.269	35153.1
630.623	35037.62
630.978	34942.71
631.332	35210.73
631.687	35314.23
632.041	35224.51
632.396	35308.13
632.75	35268.35
633.104	35405.3
633.459	35221.8
633.813	35219.31
634.167	35278.3
634.521	35353.77
634.875	35364.17
635.229	35408.01
635.583	35187.45
635.937	35271.52
636.291	35269.71
636.645	35368.91
636.999	35176.15
637.352	35349.25
637.706	35185.19
638.06	35322.36
638.413	35322.14
638.767	35255.02
639.121	35446.2
639.474	35176.15
639.828	35209.37
640.181	35207.11
640.534	35380.67
640.888	35209.6
641.241	34958.76
641.594	35194.91
641.947	35224.06
642.301	35166.66
642.654	35142.48
643.007	35282.36
643.36	35244.85
643.713	35135.02
644.066	35181.57
644.419	35025.87
644.771	34792.43
645.124	34511.76
645.477	34560.8
645.83	34239.45
646.182	34220.7
646.535	34118.78
646.888	34109.96
647.24	33986.58
647.593	34226.57
647.945	34121.26
648.298	34138.21
648.65	33867.49
649.002	33732.35
649.355	33989.74
649.707	33955.39
650.059	34081.04
650.411	34570.07
650.763	34535.26
651.115	34886.89
651.467	34857.74
651.819	34837.63
652.171	34808.03
652.523	34539.33
652.875	34665.88
653.227	34457.98
653.578	34853.22
653.93	34777.52
654.282	34579.56
654.633	34555.38
654.985	34516.28
655.337	34649.84
655.688	34552.89
656.039	34677.41
656.391	34344.31
656.742	34417.08
657.094	34558.54
657.445	34630.85
657.796	34446
658.147	34410.07
658.498	34380.24
658.849	34419.11
659.2	34521.03
659.551	34347.7
659.902	34456.85
660.253	34316.74
660.604	34528.48
660.955	34271.54
661.306	34534.59
661.656	34286.68
662.007	34262.28
662.358	34377.53
662.708	34327.36
663.059	34323.52
663.409	34195.61
663.76	34455.49
664.11	34405.55
664.461	34323.97
664.811	34396.06
665.161	34192.67
665.511	34181.83
665.862	34369.62
666.212	34403.97
666.562	34329.39
666.912	34360.13
667.262	34255.05
667.612	34439.67
667.962	34309.73
668.312	34264.08
668.662	34431.31
669.011	34319.68
669.361	34227.93
669.711	34183.86
670.06	34177.08
670.41	34209.85
670.76	34048.27
671.109	34241.26
671.459	34117.87
671.808	34165.78
672.157	34112.22
672.507	33907.71
672.856	33977.54
673.205	34034.26
673.554	34089.4
673.904	34018.44
674.253	34079.46
674.602	34148.38
674.951	33527.16
675.3	33438.34
675.649	33980.93
675.998	33938.22
676.346	33957.88
676.695	34076.52
677.044	33655.74
677.393	33911.78
677.741	33823.64
678.09	33857.77
678.438	33650.77
678.787	33823.87
679.135	33825
679.484	33579.36
679.832	33759.01
680.181	33535.06
680.529	33621.62
680.877	33550.21
681.225	33478.12
681.573	33755.85
681.922	33398.12
682.27	33278.57
682.618	33326.26
682.966	33234.73
683.314	33402.41
683.661	33237.45
684.009	33097.79
684.357	33077.45
684.705	32928.98
685.053	33102.08
685.4	32945.93
685.748	32751.36
686.095	32980.73
686.443	32681.53
686.79	32738.93
687.138	32789.77
687.485	32718.14
687.832	32508.42
688.18	32520.63
688.527	32419.61
688.874	32516.79
689.221	32387.07
689.568	32199.73
689.915	32267.08
690.262	32126.97
690.609	32004.03
690.956	31979.85
691.303	31987.76
691.65	31788.67
691.997	31794.09
692.344	31637.49
692.69	31588.68
693.037	31797.71
693.383	31406.31
693.73	31616.24
694.077	31285.18
694.423	31220.78
694.769	31217.16
695.116	31159.99
695.462	31084.06
695.808	31038.18
696.155	31079.31
696.501	30822.59
696.847	30830.28
697.193	30563.17
697.539	30708.7
697.885	30447.01
698.231	30381.7
698.577	30277.98
698.923	30455.82
699.269	30249.5
699.614	30103.74
699.96	30071.2
700.306	30048.83
700.651	29934.26
700.997	29869.4
701.342	29850.19
701.688	29761.6
702.033	29664.21
702.379	29692.91
702.724	29523.87
703.069	29533.14
703.415	29231
703.76	29273.26
704.105	29269.64
704.45	29143.32
704.795	29058.35
705.14	28871.23
705.485	28935.86
705.83	28885.02
706.175	28917.33
706.52	28781.52
706.865	28640.5
707.209	28646.38
707.554	28426.5
707.899	28617.68
708.243	28464.01
708.588	28392.37
708.932	28218.82
709.277	28167.07
709.621	28209.1
709.966	28057.69
710.31	28014.31
710.654	27910.81
710.998	27894.53
711.342	27807.98
711.687	27838.94
712.031	27709.23
712.375	27554.43
712.719	27704.94
713.063	27603.47
713.407	27641.66
713.75	27405.06
714.094	27488.9
714.438	27392.85
714.782	27379.97
715.125	27243.03
715.469	27197.38
715.812	27068.12
716.156	27046.42
716.499	27057.27
716.843	26986.99
717.186	26768.46
717.53	26981.79
717.873	26964.84
718.216	26788.12
718.559	26811.17
718.902	26598.07
719.246	26649.37
719.589	26579.32
719.932	26424.74
720.275	26496.38
720.617	26518.3
720.96	26392.65
721.303	26393.33
721.646	26435.36
721.989	26248.7
722.331	26192.66
722.674	26170.29
723.016	26272.2
723.359	26075.37
723.701	26053.23
724.044	25971.87
724.386	25876.73
724.729	26039.22
725.071	25888.26
725.413	25898.66
725.755	25801.71
726.097	25742.95
726.439	25663.41
726.782	25674.03
727.124	25746.34
727.465	25526.01
727.807	25713.58
728.149	25514.48
728.491	25490.53
728.833	25444.43
729.175	25483.52
729.516	25411.21
729.858	25405.56
730.199	25299.57
730.541	25257.77
730.882	25191.56
731.224	25311.1
731.565	25050.99
731.906	25128.73
732.248	25152.91
732.589	25016.42
732.93	24989.98
733.271	24937.1
733.612	24948.85
733.953	24971
734.294	24944.78
734.635	24769.42
734.976	24857.33
735.317	24763.54
735.658	24645.81
735.999	24672.25
736.339	24535.3
736.68	24725.58
737.021	24686.26
737.361	24486.26
737.702	24577.11
738.042	24553.38
738.383	24520.39
738.723	24516.32
739.063	24397
739.404	24480.39
739.744	24329.43
740.084	24246.04
740.424	24302.76
740.764	24213.5
741.104	24340.05
741.444	24181.64
741.784	24100.74
742.124	24122.43
742.464	24018.25
742.804	24125.59
743.143	24013.73
743.483	23973.51
743.823	23778.94
744.162	23842.89
744.502	23807.86
744.841	23787.75
745.181	23859.61
745.52	23735.55
745.86	23836.56
746.199	23720.86
746.538	23684.93
746.877	23720.41
747.216	23622.78
747.556	23580.07
747.895	23629.34
748.234	23546.4
748.573	23569.22
748.911	23381.66
749.25	23391.83
749.589	23326.75
749.928	23314.99
750.267	23347.31
750.605	23242.68
750.944	23254.66
751.283	23127.2
751.621	23360.42
751.96	23001.78
752.298	23130.59
752.636	23107.32
752.975	23003.36
753.313	22937.83
753.651	23008.34
753.989	22842.92
754.327	22816.25
754.666	22738.96
755.004	22651.73
755.342	22701.68
755.679	22597.05
756.017	22556.82
756.355	22589.82
756.693	22526.09
757.031	22518.63
757.368	22444.06
757.706	22342.36
758.044	22321.35
758.381	22359.09
758.719	22300.56
759.056	22215.36
759.394	22228.92
759.731	22085.2
760.068	22004.97
760.405	21999.77
760.743	21918.87
761.08	21839.1
761.417	21753.68
761.754	21760.01
762.091	21645.21
762.428	21594.14
762.765	21466
763.102	21659.22
763.438	21383.52
763.775	21454.25
764.112	21323.86
764.449	21308.72
764.785	21255.84
765.122	21048.84
765.458	21040.7
765.795	20972.23
766.131	20986.02
766.467	20906.02
766.804	20809.98
767.14	20737.89
767.476	20669.19
767.812	20645.91
768.148	20704.67
768.485	20524.79
768.821	20419.7
769.157	20294.06
769.492	20330.44
769.828	20272.14
770.164	20080.28
770.5	20083.67
770.836	20109.43
771.171	20027.17
771.507	19970.68
771.842	19789.21
772.178	19809.32
772.513	19779.72
772.849	19700.4
773.184	19583.57
773.519	19554.87
773.855	19501.08
774.19	19354.19
774.525	19395.32
774.86	19350.58
775.195	19237.14
775.53	19147.87
775.865	19028.1
776.2	18943.13
776.535	18759.18
776.87	18863.36
777.205	18718.5
777.539	18804.15
777.874	18657.26
778.209	18574.55
778.543	18453.65
778.878	18437.61
779.212	18346.54
779.547	18298.86
779.881	18269.25
780.215	18184.28
780.55	18158.07
780.884	18103.38
781.218	17969.82
781.552	17980.45
781.886	17961.24
782.22	17818.87
782.554	17648.93
782.888	17643.73
783.222	17573.68
783.556	17533.9
783.889	17517.41
784.223	17337.75
784.557	17243.52
784.89	17299.33
785.224	17219.56
785.557	17104.08
785.891	17076.06
786.224	17016.18
786.558	16980.7
786.891	16840.14
787.224	16795.39
787.557	16796.07
787.891	16739.35
788.224	16720.14
788.557	16669.29
788.89	16636.98
789.223	16564.89
789.556	16453.03
789.888	16389.53
790.221	16399.47
790.554	16233.6
790.887	16271.56
791.219	16173.49
791.552	16151.11
791.884	15976.88
792.217	15977.33
792.549	15943.44
792.882	15896.88
793.214	15845.59
793.546	15807.62
793.879	15743.44
794.211	15634.97
794.543	15650.11
794.875	15606.27
795.207	15609.21
795.539	15477.01
795.871	15488.31
796.203	15387.07
796.535	15337.8
796.867	15273.17
797.198	15292.61
797.53	15129.22
797.862	15114.98
798.193	15144.59
798.525	15035.21
798.856	14984.82
799.188	14892.39
799.519	14870.24
799.85	14771.94
800.182	14816.01
800.513	14813.97
800.844	14576.69
801.175	14700.08
801.506	14696.24
801.837	14577.6
802.168	14572.63
802.499	14479.75
802.83	14369.47
803.161	14383.48
803.491	14363.37
803.822	14390.71
804.153	14237.49
804.483	14195.91
804.814	14147.78
805.145	14132.64
805.475	14096.25
805.805	14088.8
806.136	14072.53
806.466	14060.32
806.796	13955.01
807.126	13867.79
807.457	13873.21
807.787	13846.32
808.117	13733.55
808.447	13681.35
808.777	13778.52
809.107	13658.07
809.436	13746.21
809.766	13728.13
810.096	13591.41
810.426	13571.07
810.755	13511.86
811.085	13493.11
811.414	13503.95
811.744	13366.33
812.073	13342.38
812.403	13362.94
812.732	13248.37
813.061	13256.05
813.39	13231.42
813.719	13097.41
814.049	13274.81
814.378	13116.17
814.707	13102.61
815.036	13062.16
815.365	13005.43
815.693	12885.89
816.022	12863.97
816.351	12904.65
816.68	12822.61
817.008	12828.04
817.337	12721.37
817.665	12767.02
817.994	12756.63
818.322	12661.72
818.651	12528.39
818.979	12557.99
819.307	12680.7
819.636	12580.14
819.964	12520.48
820.292	12557.99
820.62	12448.16
820.948	12448.16
821.276	12560.47
821.604	12443.64
821.932	12441.61
822.259	12511.21
822.587	12430.53
822.915	12494.94
823.243	12463.75
823.57	12373.14
823.898	12307.6
824.225	12426.69
824.553	12325.45
824.88	12456.75
825.207	12442.74
825.535	12371.33
825.862	12457.2
826.189	12364.77
826.516	12423.3
826.843	12459.23
827.17	12416.52
827.497	12493.58
827.824	12417.43
828.151	12417.88
828.478	12469.18
828.805	12431.89
829.131	12383.76
829.458	12365
829.785	12309.41
830.111	12383.98
830.438	12482.51
830.764	12407.48
831.09	12408.16
831.417	12337.43
831.743	12333.59
832.069	12322.06
832.395	12275.28
832.722	12315.96
833.048	12327.49
833.374	12340.37
833.7	12286.81
834.026	12303.76
834.351	12290.65
834.677	12257.21
835.003	12341.72
835.329	12232.12
835.654	12239.81
835.98	12134.95
836.306	12170.43
836.631	12151.45
836.956	12149.86
837.282	12160.49
837.607	12096.53
837.932	12047.27
838.258	12078.68
838.583	12084.78
838.908	11950.32
839.233	12042.97
839.558	11971.11
839.883	11950.1
840.208	11913.03
840.533	11941.51
840.858	11818.35
841.182	11962.52
841.507	11823.55
841.832	11827.39
842.156	11744
842.481	11797.11
842.805	11774.51
843.13	11711.68
843.454	11677.33
843.778	11654.28
844.103	11600.73
844.427	11518.92
844.751	11587.39
845.075	11589.43
845.399	11507.62
845.723	11500.39
846.047	11525.47
846.371	11358.92
846.695	11388.98
847.019	11350.56
847.343	11234.86
847.666	11140.4
847.99	11174.75
848.313	11182.88
848.637	11084.58
848.96	10996.9
849.284	11024.7
849.607	10942.44
849.931	10933.17
850.254	10870.58
850.577	10742.44
850.9	10766.4
851.223	10721.88
851.546	10641.88
851.869	10649.34
852.192	10610.02
852.515	10481.21
852.838	10503.13
853.161	10557.36
853.483	10409.34
853.806	10439.4
854.129	10399.85
854.451	10300.65
854.774	10199.63
855.096	10252.06
855.419	10244.38
855.741	10211.16
856.063	10095.91
856.385	10177.94
856.708	10133.42
857.03	10080.77
857.352	10125.06
857.674	10051.16
857.996	9989.47
858.318	9937.04
858.64	9907.44
858.961	9851.62
859.283	9905.63
859.605	9770.49
859.926	9909.25
860.248	9769.59
860.57	9748.12
860.891	9826.76
861.212	9766.88
861.534	9737.95
861.855	9660.66
862.176	9699.76
862.498	9685.97
862.819	9630.83
863.14	9603.72
863.461	9609.37
863.782	9535.7
864.103	9535.92
864.424	9510.39
864.745	9491.4
865.065	9467.45
865.386	9437.62
865.707	9463.38
866.027	9461.57
866.348	9394.46
866.668	9460.22
866.989	9366.89
867.309	9300.22
867.63	9343.84
867.95	9329.83
868.27	9304.74
868.59	9246.21
868.91	9286.44
869.23	9262.48
869.55	9222.03
869.87	9249.6
870.19	9233.1
870.51	9192.43
870.83	9183.39
871.15	9156.04
871.469	9186.33
871.789	9170.96
872.109	9121.02
872.428	9102.26
872.748	9197.63
873.067	9126.21
873.386	9039.66
873.706	9044.86
874.025	9011.19
874.344	8959.67
874.663	9011.19
874.982	9005.09
875.301	9026.33
875.62	8990.63
875.939	8949.5
876.258	8942.94
876.577	8900.01
876.896	8858.43
877.214	8830.18
877.533	8803.74
877.852	8801.48
878.17	8868.82
878.489	8843.96
878.807	8829.5
879.125	8810.97
879.444	8737.98
879.762	8747.02
880.08	8777.07
880.398	8760.8
880.716	8693.23
881.034	8679.45
881.352	8716.73
881.67	8614.36
881.988	8654.14
882.306	8697.98
882.624	8614.36
882.941	8561.71
883.259	8531.2
883.577	8540.69
883.894	8528.49
884.212	8508.6
884.529	8526.91
884.846	8490.3
885.164	8457.08
885.481	8466.35
885.798	8450.07
886.115	8389.06
886.432	8369.4
886.75	8317.42
887.067	8395.84
887.383	8273.58
887.7	8290.08
888.017	8272.45
888.334	8349.96
888.651	8267.25
888.967	8228.61
889.284	8198.1
889.6	8191.55
889.917	8161.95
890.233	8120.14
890.55	8071.33
890.866	8111.78
891.182	8082.63
891.498	8003.76
891.815	8045.34
892.131	8029.29
892.447	8055.06
892.763	7951.1
893.079	7922.86
893.395	7900.71
893.71	7871.33
894.026	7822.29
894.342	7883.76
894.657	7752.01
894.973	7732.81
895.289	7802.41
895.604	7746.59
895.92	7646.03
896.235	7699.36
896.55	7628.63
896.865	7709.08
897.181	7621.85
897.496	7598.12
897.811	7547.5
898.126	7486.48
898.441	7422.53
898.756	7489.2
899.071	7416.88
899.386	7495.75
899.7	7403.55
900.015	7301.86
900.33	7285.59
900.644	7359.26
900.959	7286.94
901.273	7348.41
901.588	7244.23
901.902	7206.27
902.216	7180.96
902.531	7175.08
902.845	7114.06
903.159	7100.96
903.473	7049.89
903.787	6988.19
904.101	7022.09
904.415	6982.77
904.729	6986.38
905.042	6970.11
905.356	6928.98
905.67	6916.56
905.984	6895.31
906.297	6836.56
906.611	6768.99
906.924	6843.56
907.237	6768.76
907.551	6767.41
907.864	6712.72
908.177	6730.35
908.491	6649.67
908.804	6669.1
909.117	6593.63
909.43	6614.19
909.743	6565.38
910.056	6490.8
910.368	6541.42
910.681	6445.83
910.994	6416.91
911.307	6388.89
911.619	6386.85
911.932	6352.5
912.244	6334.42
912.557	6352.28
912.869	6299.4
913.181	6298.49
913.494	6224.82
913.806	6186.41
914.118	6256.23
914.43	6171.04
914.742	6186.41
915.054	6137.37
915.366	6134.43
915.678	6130.36
915.99	6067.09
916.302	5997.94
916.613	5980.76
916.925	6004.71
917.236	5937.6
917.548	5924.27
917.859	5966.3
918.171	5831.16
918.482	5804.49
918.794	5842.91
919.105	5799.97
919.416	5799.97
919.727	5828.45
920.038	5762.46
920.349	5701.67
920.66	5728.34
920.971	5683.37
921.282	5679.98
921.593	5600.88
921.903	5576.93
922.214	5551.62
922.525	5556.59
922.835	5530.6
923.146	5460.32
923.456	5500.55
923.767	5493.32
924.077	5443.83
924.387	5504.16
924.697	5394.79
925.008	5383.71
925.318	5397.95
925.628	5366.31
925.938	5339.2
926.248	5278.18
926.558	5255.58
926.867	5267.33
927.177	5235.92
927.487	5148.24
927.796	5162.48
928.106	5190.95
928.416	5134
928.725	5101.69
929.034	5087
929.344	5079.77
929.653	5047
929.962	4999.32
930.271	5003.39
930.581	4998.64
930.89	4947.57
931.199	4947.79
931.508	4914.8
931.817	4924.74
932.125	4881.35
932.434	4898.53
932.743	4812.88
933.051	4748.93
933.36	4739.89
933.669	4803.16
933.977	4778.98
934.286	4705.31
934.594	4732.66
934.902	4731.98
935.21	4680.91
935.519	4626.67
935.827	4647.69
936.135	4630.06
936.443	4582.61
936.751	4565.43
937.059	4557.75
937.367	4534.25
937.674	4539.44
937.982	4516.17
938.29	4462.61
938.597	4494.25
938.905	4423.97
939.213	4419.9
939.52	4358.2
939.827	4409.95
940.135	4335.83
940.442	4305.78
940.749	4308.04
941.056	4373.12
941.363	4297.87
941.67	4259
941.977	4247.7
942.284	4251.99
942.591	4221.71
942.898	4217.19
943.205	4200.47
943.511	4162.28
943.818	4102.17
944.125	4133.8
944.431	4148.49
944.738	4096.29
945.044	4064.43
945.35	4065.1
945.657	4021.26
945.963	4032.34
946.269	3962.51
946.575	4035.73
946.881	3954.83
947.187	3950.31
947.493	3946.01
947.799	3925.22
948.105	3936.52
948.41	3868.27
948.716	3869.18
949.022	3879.12
949.327	3847.48
949.633	3813.59
949.938	3819.69
950.244	3805.45
950.549	3725
950.854	3791.89
951.16	3743.08
951.465	3735.17
951.77	3700.59
952.075	3684.78
952.38	3684.55
952.685	3675.51
952.99	3648.39
953.294	3625.34
953.599	3608.85
953.904	3594.16
954.209	3588.96
954.513	3624.21
954.818	3581.28
955.122	3541.73
955.426	3497.44
955.731	3515.51
956.035	3493.37
956.339	3511
956.643	3504.89
956.948	3464.44
957.252	3459.47
957.556	3434.39
957.86	3417.89
958.163	3388.29
958.467	3396.2
958.771	3428.74
959.075	3362.75
959.378	3357.1
959.682	3339.02
959.985	3304.45
960.289	3310.1
960.592	3292.7
960.896	3276.2
961.199	3272.36
961.502	3237.33
961.805	3255.86
962.108	3217.9
962.411	3237.78
962.714	3166.15
963.017	3176.09
963.32	3202.53
963.623	3159.37
963.926	3162.08
964.228	3112.36
964.531	3059.03
964.833	3087.28
965.136	3053.38
965.438	3077.11
965.741	3088.18
966.043	3023.1
966.345	3053.83
966.648	3004.34
966.95	3031.46
967.252	2986.49
967.554	2965.7
967.856	2944.91
968.158	2937.68
968.46	2935.64
968.761	2939.48
969.063	2904.91
969.365	2905.14
969.666	2930.9
969.968	2857.45
970.269	2871.46
970.571	2885.47
970.872	2838.7
971.174	2814.97
971.475	2817.45
971.776	2776.78
972.077	2777
972.378	2757.12
972.679	2740.85
972.98	2724.8
973.281	2754.18
973.582	2746.95
973.883	2711.47
974.183	2728.87
974.484	2684.58
974.785	2670.79
975.085	2666.95
975.386	2678.93
975.686	2663.33
975.986	2635.31
976.287	2631.47
976.587	2575.88
976.887	2603.22
977.187	2567.97
977.487	2592.83
977.787	2584.47
978.087	2518.25
978.387	2551.47
978.687	2520.29
978.987	2513.28
979.286	2508.76
979.586	2554.41
979.885	2498.82
980.185	2476.67
980.484	2475.77
980.784	2430.8
981.083	2452.04
981.382	2452.49
981.682	2440.74
981.981	2449.55
982.28	2402.1
982.579	2382.89
982.878	2389.22
983.177	2405.71
983.475	2432.15
983.774	2356.9
984.073	2325.26
984.372	2370.46
984.67	2330.46
984.969	2356.9
985.267	2303.8
985.566	2291.14
985.864	2297.24
986.162	2285.04
986.461	2241.42
986.759	2246.4
987.057	2215.21
987.355	2221.31
987.653	2250.24
987.951	2207.3
988.249	2259.5
988.547	2198.71
988.844	2210.92
989.142	2190.35
989.44	2132.27
989.737	2141.99
990.035	2160.97
990.332	2170.24
990.63	2151.03
990.927	2136.34
991.224	2079.39
991.521	2099.96
991.819	2095.21
992.116	2081.43
992.413	2089.11
992.71	2014.31
993.006	2047.53
993.303	2015.67
993.6	2040.53
993.897	2029.68
994.193	2030.13
994.49	2042.33
994.787	2025.61
995.083	1984.71
995.379	1987.42
995.676	1982.45
995.972	1975.67
996.268	1963.24
996.565	1933.18
996.861	1962.11
997.157	1928.21
997.453	1952.39
997.749	1922.79
998.044	1918.27
998.34	1864.48
998.636	1896.8
998.932	1865.84
999.227	1844.6
999.523	1866.74
999.818	1858.38
1000.114	1840.53
1000.409	1804.6
1000.704	1786.29
1001	1791.27
1001.295	1784.04
1001.59	1814.99
1001.885	1795.11
1002.18	1771.15
1002.475	1749.69
1002.77	1778.84
1003.065	1755.56
1003.359	1749.69
1003.654	1735
1003.949	1700.2
1004.243	1706.3
1004.538	1690.93
1004.832	1700.65
1005.127	1687.99
1005.421	1685.51
1005.715	1654.77
1006.009	1655.45
1006.304	1666.75
1006.598	1640.31
1006.892	1637.37
1007.186	1621.1
1007.48	1617.26
1007.773	1599.86
1008.067	1620.65
1008.361	1581.33
1008.655	1575
1008.948	1560.99
1009.242	1549.92
1009.535	1570.03
1009.829	1539.97
1010.122	1478.51
1010.415	1507.21
1010.708	1487.55
1011.001	1518.05
1011.295	1499.75
1011.588	1489.13
1011.881	1487.09
1012.173	1459.75
1012.466	1478.51
1012.759	1458.39
1013.052	1469.47
1013.344	1455.91
1013.637	1441.45
1013.93	1417.04
1014.222	1419.75
1014.514	1426.98
1014.807	1414.55
1015.099	1428.79
1015.391	1406.19
1015.683	1366.64
1015.976	1368.23
1016.268	1349.47
1016.56	1347.44
1016.851	1331.17
1017.143	1348.34
1017.435	1335.91
1017.727	1325.06
1018.018	1333.2
1018.31	1306.08
1018.602	1324.16
1018.893	1281.22
1019.185	1302.01
1019.476	1276.25
1019.767	1275.57
1020.058	1270.83
1020.35	1248
1020.641	1242.58
1020.932	1250.26
1021.223	1230.15
1021.514	1211.39
1021.804	1221.79
1022.095	1171.17
1022.386	1215.91
1022.677	1205.29
1022.967	1172.3
1023.258	1196.03
1023.548	1161.9
1023.839	1168.68
1024.129	1143.83
1024.419	1156.48
1024.709	1153.54
1025	1124.17
1025.29	1144.5
1025.58	1133.2
1025.87	1115.13
1026.16	1084.17
1026.449	1141.34
1026.739	1095.47
1027.029	1092.08
1027.319	1073.77
1027.608	1077.84
1027.898	1069.93
1028.187	1062.25
1028.477	1067.9
1028.766	1042.36
1029.055	1065.64
1029.344	1033.55
1029.634	1052.75
1029.923	1012.98
1030.212	1020.67
1030.501	1021.8
1030.79	1007.56
1031.078	1014.56
1031.367	988.8
1031.656	977.95
1031.945	972.3
1032.233	963.72
1032.522	959.88
1032.81	975.02
1033.099	960.33
1033.387	961.23
1033.675	962.14
1033.963	959.2
1034.251	950.61
1034.54	935.02
1034.828	906.32
1035.116	932.98
1035.403	905.64
1035.691	902.25
1035.979	918.97
1036.267	902.93
1036.554	935.02
1036.842	878.07
1037.129	863.83
1037.417	841.91
1037.704	865.19
1037.992	850.5
1038.279	865.42
1038.566	858.18
1038.853	858.18
1039.14	858.18
