Data from hue_30_FLMS001491_19.txt Node
Date: Mon Feb 06 15:04:50 GMT 2017
User: dcchb
Spectrometer: FLMS00149
Trigger mode: 0
Integration Time (sec): 2.000000E-2
Scans to average: 10
Electric dark correction enabled: true
Nonlinearity correction enabled: false
Boxcar width: 0
XAxis mode: Wavelengths
Number of Pixels in Spectrum: 2048
>>>>>Begin Spectral Data<<<<<
341.393	-7.68
341.776	-7.68
342.16	-7.68
342.543	-71.86
342.927	-68.92
343.31	-79.32
343.693	-62.15
344.077	-72.31
344.46	-66.44
344.843	-49.94
345.226	-55.82
345.61	-44.52
345.993	-18.08
346.376	8.14
346.759	32.54
347.142	35.03
347.525	55.37
347.908	54.46
348.291	72.77
348.674	91.3
349.057	98.98
349.44	126.78
349.823	132.2
350.206	152.09
350.588	193.44
350.971	218.3
351.354	229.37
351.737	239.32
352.119	241.12
352.502	274.12
352.884	270.05
353.267	287.9
353.65	283.61
354.032	283.16
354.414	298.98
354.797	299.88
355.179	320.67
355.562	315.7
355.944	302.59
356.326	323.83
356.709	337.84
357.091	337.39
357.473	337.84
357.855	320.22
358.238	327
358.62	338.75
359.002	323.83
359.384	331.06
359.766	350.73
360.148	372.19
360.53	319.77
360.912	331.74
361.294	328.58
361.676	333.78
362.057	331.74
362.439	342.59
362.821	338.75
363.203	324.51
363.584	343.04
363.966	336.26
364.348	315.02
364.729	339.43
365.111	334.45
365.493	338.07
365.874	330.84
366.256	311.86
366.637	315.92
367.019	307.34
367.4	311.4
367.781	307.79
368.163	315.7
368.544	321.8
368.925	316.83
369.306	315.47
369.688	318.41
370.069	313.66
370.45	299.65
370.831	332.19
371.212	308.24
371.593	310.05
371.974	315.02
372.355	316.6
372.736	302.82
373.117	314.12
373.498	340.33
373.879	321.8
374.26	323.16
374.641	335.81
375.021	313.66
375.402	324.51
375.783	308.69
376.163	321.35
376.544	338.75
376.925	319.09
377.305	338.07
377.686	305.75
378.066	320.22
378.447	311.4
378.827	326.77
379.208	340.1
379.588	324.96
379.968	346.66
380.349	360.22
380.729	325.64
381.109	339.88
381.489	338.52
381.87	349.14
382.25	334
382.63	340.78
383.01	346.66
383.39	334.91
383.77	328.13
384.15	348.01
384.53	343.49
384.91	349.6
385.29	352.99
385.67	320.44
386.049	343.49
386.429	376.71
386.809	335.81
387.189	360.44
387.568	352.08
387.948	366.09
388.328	356.15
388.707	341.01
389.087	335.58
389.466	355.7
389.846	358.86
390.225	357.05
390.605	352.53
390.984	367.45
391.363	352.31
391.743	359.31
392.122	378.75
392.501	383.72
392.881	388.24
393.26	367.67
393.639	350.27
394.018	348.01
394.397	363.15
394.776	385.75
395.155	362.02
395.534	355.02
395.913	383.49
396.292	379.65
396.671	382.14
397.05	370.84
397.429	373.1
397.808	392.76
398.186	386.2
398.565	398.86
398.944	391.85
399.323	374.23
399.701	401.12
400.08	388.69
400.458	393.21
400.837	411.97
401.215	374.23
401.594	389.37
401.972	369.26
402.351	401.35
402.729	408.58
403.107	410.61
403.486	401.35
403.864	404.96
404.242	399.99
404.62	392.31
404.999	399.54
405.377	414.45
405.755	416.94
406.133	427.79
406.511	413.55
406.889	398.63
407.267	430.72
407.645	437.28
408.023	419.42
408.401	412.64
408.779	417.16
409.156	446.54
409.534	432.08
409.912	411.51
410.29	447.67
410.667	454.23
411.045	431.4
411.422	423.72
411.8	452.87
412.178	448.8
412.555	474.34
412.933	457.84
413.31	460.1
413.687	438.86
414.065	431.4
414.442	472.98
414.819	482.25
415.197	480.67
415.574	463.94
415.951	466.65
416.328	454.23
416.705	479.08
417.082	484.28
417.46	515.24
417.837	484.96
418.214	492.87
418.591	508.69
418.967	493.55
419.344	495.81
419.721	514.34
420.098	488.57
420.475	511.4
420.852	514.34
421.228	506.2
421.605	530.16
421.982	517.73
422.358	524.51
422.735	518.63
423.111	516.6
423.488	512.08
423.864	528.8
424.241	550.27
424.617	530.83
424.994	557.5
425.37	570.83
425.746	548.69
426.123	549.59
426.499	549.14
426.875	552.98
427.251	567.67
427.627	556.14
428.003	607.22
428.379	567.67
428.756	580.1
429.132	582.58
429.507	580.32
429.883	580.55
430.259	596.82
430.635	614
431.011	579.65
431.387	599.08
431.763	613.09
432.138	643.37
432.514	625.29
432.89	599.53
433.265	627.55
433.641	636.59
434.016	651.51
434.392	677.72
434.767	661.68
435.143	656.48
435.518	669.36
435.894	652.41
436.269	666.2
436.644	695.12
437.02	680.66
437.395	692.19
437.77	701.9
438.145	711.39
438.52	700.32
438.895	719.3
439.271	725.4
439.646	726.31
440.021	731.73
440.395	731.73
440.77	761.56
441.145	748.91
441.52	735.35
441.895	741.68
442.27	717.27
442.645	740.77
443.019	754.56
443.394	761.11
443.769	744.61
444.143	774.89
444.518	788.45
444.892	770.6
445.267	774.89
445.641	778.96
446.016	794.56
446.39	792.75
446.764	784.16
447.139	791.17
447.513	790.49
447.887	817.38
448.262	821.9
448.636	822.58
449.01	806.31
449.384	841.11
449.758	856.47
450.132	842.01
450.506	842.01
450.88	861.45
451.254	847.21
451.628	851.05
452.002	867.1
452.376	890.37
452.75	906.87
453.123	905.51
453.497	888.56
453.871	910.71
454.244	895.34
454.618	905.06
454.992	904.16
455.365	910.94
455.739	924.72
456.112	956.59
456.486	955
456.859	960.43
457.232	973.31
457.606	999.07
457.979	992.06
458.352	983.93
458.725	1038.62
459.099	1002.01
459.472	1021.67
459.845	1034.55
460.218	1028.9
460.591	1036.58
460.964	1059.63
461.337	1096.02
461.71	1118.61
462.083	1123.36
462.456	1110.71
462.829	1130.59
463.201	1142.79
463.574	1170.36
463.947	1157.26
464.32	1177.82
464.692	1189.8
465.065	1189.12
465.438	1217.6
465.81	1220.98
466.183	1255.56
466.555	1260.31
466.928	1276.58
467.3	1285.84
467.672	1313.64
468.045	1329.23
468.417	1335.78
468.789	1342.34
469.161	1366.52
469.534	1387.31
469.906	1411.26
470.278	1431.83
470.65	1414.43
471.022	1446.52
471.394	1476.57
471.766	1487.42
472.138	1523.58
472.51	1569.9
472.882	1557.02
473.253	1598.38
473.625	1635.21
473.997	1621.65
474.369	1681.31
474.74	1678.83
475.112	1716.57
475.484	1744.59
475.855	1818.26
476.227	1821.65
476.598	1890.8
476.97	1903
477.341	1935.54
477.713	1984.13
478.084	1981.19
478.455	2082.88
478.827	2064.13
479.198	2133.28
479.569	2145.03
479.94	2228.87
480.311	2246.04
480.682	2292.6
481.053	2354.74
481.424	2410.56
481.795	2390.67
482.166	2492.59
482.537	2519.93
482.908	2622.53
483.279	2611
483.65	2691.45
484.021	2717.89
484.391	2770.77
484.762	2832.69
485.133	2845.35
485.503	2895.29
485.874	2996.31
486.244	3023.65
486.615	3103.2
486.985	3141.16
487.356	3185.23
487.726	3244.43
488.097	3331.66
488.467	3373.7
488.837	3415.28
489.207	3485.78
489.578	3581.37
489.948	3596.29
490.318	3705.67
490.688	3696.17
491.058	3759.9
491.428	3836.74
491.798	3915.15
492.168	3947.47
492.538	3981.59
492.908	4092.32
493.278	4089.84
493.648	4156.95
494.017	4207.35
494.387	4254.58
494.757	4348.81
495.126	4372.09
495.496	4414.57
495.866	4447.57
496.235	4496.38
496.605	4568.47
496.974	4567.56
497.344	4655.7
497.713	4646.88
498.082	4749.03
498.452	4785.18
498.821	4853.66
499.19	4839.19
499.559	4909.7
499.928	4937.95
500.298	5027.66
500.667	5041.9
501.036	5081.45
501.405	5099.07
501.774	5113.99
502.143	5177.94
502.512	5217.26
502.88	5205.06
503.249	5224.04
503.618	5284.83
503.987	5399.41
504.356	5373.42
504.724	5432.4
505.093	5480.76
505.462	5483.47
505.83	5508.33
506.199	5596.01
506.567	5672.85
506.936	5619.51
507.304	5761.43
507.672	5747.42
508.041	5757.36
508.409	5778.38
508.777	5850.02
509.145	5864.48
509.514	5852.95
509.882	5910.58
510.25	5971.14
510.618	6010.92
510.986	6017.24
511.354	6068.09
511.722	6126.62
512.09	6143.12
512.458	6124.36
512.826	6221.98
513.193	6253.39
513.561	6252.72
513.929	6329.33
514.297	6337.01
514.664	6345.6
515.032	6378.14
515.4	6430.57
515.767	6458.59
516.135	6495.65
516.502	6432.6
516.869	6613.61
517.237	6577.91
517.604	6551.69
517.972	6644.35
518.339	6639.83
518.706	6687.06
519.073	6708.98
519.44	6726.83
519.808	6794.85
520.175	6759.37
520.542	6843.89
520.909	6892.02
521.276	6861.29
521.643	6915.98
522.009	6933.83
522.376	7004.56
522.743	7077.55
523.11	7162.75
523.477	7136.99
523.843	7169.08
524.21	7232.35
524.577	7294.5
524.943	7305.12
525.31	7354.38
525.676	7360.48
526.043	7477.32
526.409	7475.96
526.776	7498.79
527.142	7552.34
527.508	7621.72
527.874	7557.99
528.241	7667.37
528.607	7692
528.973	7798.21
529.339	7771.77
529.705	7802.05
530.071	7916.4
530.437	7960.02
530.803	8021.71
531.169	8010.86
531.535	8032.33
531.901	8056.96
532.267	8111.88
532.632	8119.79
532.998	8156.62
533.364	8207.24
533.73	8277.3
534.095	8317.97
534.461	8316.62
534.826	8344.19
535.192	8421.93
535.557	8457.4
535.923	8439.55
536.288	8521.58
536.653	8543.73
537.019	8484.52
537.384	8556.61
537.749	8675.25
538.114	8633.22
538.479	8686.1
538.845	8680.45
539.21	8708.02
539.575	8799.32
539.94	8775.36
540.305	8860.56
540.67	8839.32
541.034	8919.77
541.399	8949.37
541.764	9012.42
542.129	8999.09
542.494	9046.09
542.858	9096.26
543.223	9058.74
543.587	9157.05
543.952	9171.74
544.316	9209.48
544.681	9244.05
545.045	9321.56
545.41	9331.05
545.774	9397.72
546.138	9360.66
546.503	9406.53
546.867	9390.71
547.231	9560.65
547.595	9504.16
547.959	9580.77
548.324	9588.22
548.688	9563.36
549.052	9674.1
549.416	9668.22
549.779	9754.32
550.143	9740.08
550.507	9752.96
550.871	9756.81
551.235	9780.53
551.599	9914.54
551.962	9845.62
552.326	9937.59
552.689	10009
553.053	9990.47
553.417	9931.94
553.78	10134.42
554.143	10051.49
554.507	10161.99
554.87	10062.33
555.234	10243.12
555.597	10206.74
555.96	10184.36
556.323	10226.17
556.686	10289
557.05	10381.87
557.413	10401.53
557.776	10479.95
558.139	10473.85
558.502	10428.88
558.865	10535.99
559.228	10568.54
559.59	10554.98
559.953	10628.2
560.316	10740.28
560.679	10658.25
561.041	10741.19
561.404	10843.78
561.767	10860.51
562.129	10815.99
562.492	10968.75
562.854	11003.33
563.217	10875.65
563.579	10968.75
563.941	11093.95
564.304	11122.65
564.666	11138.24
565.028	11121.06
565.39	11220.95
565.753	11238.35
566.115	11283.55
566.477	11343.2
566.839	11356.54
567.201	11452.13
567.563	11444.22
567.925	11495.29
568.287	11520.6
568.648	11529.41
569.01	11653.48
569.372	11634.95
569.734	11637.43
570.095	11758.56
570.457	11759.92
570.819	11800.37
571.18	11858.67
571.542	11916.52
571.903	11965.56
572.265	12079
572.626	12069.29
572.987	12144.77
573.349	12207.36
573.71	12257.98
574.071	12301.82
574.432	12418.88
574.794	12527.81
575.155	12598.54
575.516	12583.85
575.877	12639.22
576.238	12775.03
576.599	12889.38
576.96	12877.85
577.32	13012.09
577.681	13029.71
578.042	13247.34
578.403	13184.51
578.763	13351.74
579.124	13476.93
579.485	13533.43
579.845	13662.24
580.206	13784.72
580.566	13892.97
580.927	13942.46
581.287	14130.25
581.648	14312.17
582.008	14459.51
582.368	14676.68
582.728	14768.88
583.089	14910.12
583.449	15064.46
583.809	15194.85
584.169	15467.39
584.529	15585.58
584.889	15933.14
585.249	15964.55
585.609	16165.22
585.969	16339.68
586.329	16530.86
586.688	16775.83
587.048	16900.35
587.408	17117.74
587.768	17327.91
588.127	17502.82
588.487	17707.33
588.846	18090.82
589.206	18092.41
589.565	18440.42
589.925	18723.58
590.284	18879.5
590.643	19147.75
591.003	19471.13
591.362	19708.41
591.721	19973.03
592.08	20242.18
592.44	20418.9
592.799	20674.03
593.158	20924.2
593.517	21260.23
593.876	21439.21
594.235	21641.46
594.593	21885.07
594.952	22217.95
595.311	22416.36
595.67	22692.06
596.029	23034.42
596.387	23272.38
596.746	23688.42
597.104	23835.53
597.463	23960.05
597.822	24258.35
598.18	24488.17
598.538	24642.97
598.897	24995.05
599.255	25195.72
599.613	25699.21
599.972	25622.83
600.33	26017.85
600.688	26151.63
601.046	26508.68
601.404	26719.07
601.762	26748.68
602.12	27168.1
602.478	27292.62
602.836	27545.49
603.194	27667.3
603.552	27943.9
603.91	28025.25
604.268	28481.06
604.625	28433.38
604.983	28877.66
605.341	28857.32
605.698	29311.77
606.056	29494.82
606.413	29682.84
606.771	29996.5
607.128	30159.43
607.485	30255.93
607.843	30301.58
608.2	30655.47
608.557	31035.12
608.914	31014.78
609.272	31295.22
609.629	31469.46
609.986	31756.91
610.343	31634.42
610.7	32170.45
611.057	32195.09
611.414	32440.28
611.771	32493.38
612.127	32776.77
612.484	32953.71
612.841	33134.95
613.198	33095.4
613.554	33329.52
613.911	33579
614.267	33617.87
614.624	33857.64
614.98	33823.52
615.337	34192.1
615.693	34153.68
616.05	34173.79
616.406	34500.34
616.762	34566.77
617.118	34562.03
617.475	34741.23
617.831	34966.31
618.187	35070.94
618.543	35222.58
618.899	35413.98
619.255	35468.45
619.611	35560.42
619.967	35682.23
620.323	35880.19
620.678	35780.08
621.034	35764.03
621.39	35824.82
621.746	35978.94
622.101	36394.98
622.457	36124.02
622.812	36323.11
623.168	36539.83
623.523	36484.01
623.879	36676.55
624.234	36430.23
624.589	36655.76
624.945	36796.77
625.3	36841.97
625.655	36898.46
626.01	37037.22
626.365	37058.91
626.72	37100.72
627.075	37119.7
627.43	37068.63
627.785	37143.66
628.14	37143.43
628.495	37302.07
628.85	37269.53
629.205	37152.24
629.559	37364.44
629.914	37380.71
630.269	37457.09
630.623	37405.34
630.978	37307.72
631.332	37639.91
631.687	37579.58
632.041	37582.06
632.396	37611.21
632.75	37423.65
633.104	37645.11
633.459	37405.12
633.813	37535.74
634.167	37566.47
634.521	37555.4
634.875	37612.8
635.229	37333.93
635.583	37401.05
635.937	37413.03
636.291	37406.7
636.645	37506.58
636.999	37415.29
637.352	37540.71
637.706	37391.11
638.06	37479.47
638.413	37374.61
638.767	37394.5
639.121	37514.27
639.474	37307.72
639.828	37384.33
640.181	37432.91
640.534	37391.11
640.888	37380.03
641.241	37237.89
641.594	37307.04
641.947	37462.97
642.301	37390.43
642.654	37361.96
643.007	37228.63
643.36	37268.4
643.713	37182.3
644.066	37405.12
644.419	37142.75
644.771	36866.38
645.124	36663.67
645.477	36513.62
645.83	36354.3
646.182	36186.85
646.535	36227.52
646.888	36050.13
647.24	35837.7
647.593	36128.09
647.945	36083.57
648.298	35853.29
648.65	35915.67
649.002	35860.07
649.355	36113.85
649.707	36053.06
650.059	36079.28
650.411	36597.23
650.763	36590
651.115	36843.33
651.467	36840.84
651.819	36753.61
652.171	36761.07
652.523	36623.67
652.875	36735.98
653.227	36705.02
653.578	36860.5
653.93	36757
654.282	36624.12
654.633	36518.81
654.985	36501.87
655.337	36560.39
655.688	36675.65
656.039	36759.94
656.391	36370.12
656.742	36487.85
657.094	36542.54
657.445	36689.66
657.796	36522.43
658.147	36342.77
658.498	36520.17
658.849	36526.27
659.2	36441.08
659.551	36271.59
659.902	36527.85
660.253	36387.07
660.604	36560.39
660.955	36304.58
661.306	36395.43
661.656	36400.62
662.007	36482.2
662.358	36414.41
662.708	36350
663.059	36414.41
663.409	36194.75
663.76	36452.37
664.11	36319.95
664.461	36459.83
664.811	36465.48
665.161	36421.64
665.511	36276.33
665.862	36313.17
666.212	36405.37
666.562	36451.7
666.912	36385.71
667.262	36316.79
667.612	36310.68
667.962	36442.66
668.312	36187.52
668.662	36333.51
669.011	36295.32
669.361	36427.29
669.711	36182.1
670.06	36229.1
670.41	36034.76
670.76	36076.34
671.109	36198.37
671.459	36302.1
671.808	36141.87
672.157	36201.31
672.507	35934.87
672.856	36102.1
673.205	35924.48
673.554	36301.42
673.904	35972.84
674.253	36090.35
674.602	36042.22
674.951	35555.68
675.3	35452.18
675.649	35991.37
675.998	35972.39
676.346	36073.85
676.695	36056.91
677.044	35750.7
677.393	35930.81
677.741	35877.7
678.09	35734.88
678.438	35740.53
678.787	35865.72
679.135	35859.62
679.484	35661.44
679.832	35692.85
680.181	35500.76
680.529	35581.44
680.877	35422.57
681.225	35490.59
681.573	35646.07
681.922	35400.2
682.27	35247.21
682.618	35346.87
682.966	35383.02
683.314	35177.61
683.661	35289.02
684.009	35004.96
684.357	35045.86
684.705	34919.53
685.053	34984.16
685.4	34827.33
685.748	34732.65
686.095	34699.2
686.443	34601.8
686.79	34572.2
687.138	34669.82
687.485	34639.77
687.832	34488.13
688.18	34476.83
688.527	34257.63
688.874	34351.87
689.221	34255.82
689.568	34215.82
689.915	34072.55
690.262	34094.02
690.609	34016.28
690.956	33989.61
691.303	33946.23
691.65	33779.68
691.997	33660.81
692.344	33573.13
692.69	33564.32
693.037	33650.87
693.383	33370.2
693.73	33454.71
694.077	33152.57
694.423	33088.4
694.769	33112.35
695.116	32998
695.462	32890.43
695.808	32833.03
696.155	32945.35
696.501	32580.61
696.847	32757.56
697.193	32366.83
697.539	32459.71
697.885	32248.64
698.231	32209.55
698.577	32192.83
698.923	32231.02
699.269	32088.42
699.614	31945.15
699.96	31889.56
700.306	31794.64
700.651	31782.22
700.997	31505.16
701.342	31700.64
701.688	31545.61
702.033	31400.98
702.379	31449.79
702.724	31280.08
703.069	31356.92
703.415	31070.82
703.76	31016.81
704.105	31077.37
704.45	30944.27
704.795	30799.19
705.14	30764.61
705.485	30608.46
705.83	30476.03
706.175	30498.86
706.52	30424.06
706.865	30378.86
707.209	30398.3
707.554	30274.68
707.899	30294.34
708.243	30122.37
708.588	30140.45
708.932	29912.89
709.277	29930.74
709.621	30010.28
709.966	29659.79
710.31	29884.64
710.654	29540.24
710.998	29573.23
711.342	29539.34
711.687	29630.18
712.031	29318.1
712.375	29321.94
712.719	29264.32
713.063	29280.59
713.407	29407.59
713.75	29246.69
714.094	29103.42
714.438	29074.49
714.782	29079.69
715.125	28961.27
715.469	28996.3
715.812	28730.77
716.156	28616.65
716.499	28752.69
716.843	28729.64
717.186	28505.92
717.53	28682.64
717.873	28577.78
718.216	28569.64
718.559	28408.07
718.902	28193.16
719.246	28318.8
719.589	28152.71
719.932	28081.97
720.275	28088.08
720.617	28017.34
720.96	28018.02
721.303	28027.29
721.646	28050.34
721.989	27710.46
722.331	27913.16
722.674	27848.53
723.016	27838.36
723.359	27731.25
723.701	27867.97
724.044	27583.46
724.386	27532.16
724.729	27560.41
725.071	27424.82
725.413	27393.63
725.755	27366.96
726.097	27280.86
726.439	27270.7
726.782	27181.66
727.124	27375.55
727.465	27084.94
727.807	27086.52
728.149	27106.86
728.491	27017.37
728.833	27025.96
729.175	26965.17
729.516	26897.6
729.858	26798.62
730.199	26931.5
730.541	26814.21
730.882	26870.48
731.224	26771.27
731.565	26547.55
731.906	26708.22
732.248	26666.64
732.589	26625.74
732.93	26530.6
733.271	26531.73
733.612	26564.5
733.953	26540.32
734.294	26406.99
734.635	26410.38
734.976	26438.17
735.317	26205.64
735.658	26206.09
735.999	26273.43
736.339	26186.88
736.68	26311.85
737.021	26203.15
737.361	26060.33
737.702	26182.14
738.042	26010.84
738.383	25963.16
738.723	26055.59
739.063	25812.2
739.404	25796.84
739.744	25843.16
740.084	25618.76
740.424	25717.29
740.764	25633
741.104	25765.42
741.444	25618.99
741.784	25575.82
742.124	25644.07
742.464	25496.73
742.804	25563.85
743.143	25452.89
743.483	25506.45
743.823	25386.68
744.162	25320.92
744.502	25412.89
744.841	25351.2
745.181	25324.08
745.52	25174.25
745.86	25268.04
746.199	25220.58
746.538	25171.54
746.877	25247.25
747.216	25179.9
747.556	25156.4
747.895	25162.28
748.234	25005.9
748.573	24974.48
748.911	24914.37
749.25	24895.84
749.589	24745.34
749.928	24786.92
750.267	24845.22
750.605	24721.16
750.944	24626.47
751.283	24526.81
751.621	24593.25
751.96	24528.17
752.298	24484.55
752.636	24511.9
752.975	24403.88
753.313	24370.43
753.651	24468.96
753.989	24187.39
754.327	24262.86
754.666	24088.41
755.004	24167.73
755.342	24165.69
755.679	24136.77
756.017	24001.85
756.355	23918.24
756.693	23976.54
757.031	23934.74
757.368	23811.8
757.706	23805.93
758.044	23628.08
758.381	23810.45
758.719	23619.94
759.056	23736.78
759.394	23627.18
759.731	23506.95
760.068	23488.2
760.405	23397.8
760.743	23421.53
761.08	23426.73
761.417	23180.86
761.754	23020.41
762.091	23217.92
762.428	22901.32
762.765	22771.38
763.102	22988.32
763.438	22798.04
763.775	22631.95
764.112	22687.09
764.449	22756.24
764.785	22468.79
765.122	22448
765.458	22335.01
765.795	22341.56
766.131	22262.69
766.467	22224.73
766.804	22121.68
767.14	21972.3
767.476	22014.34
767.812	21868.58
768.148	21899.54
768.485	21849.82
768.821	21650.5
769.157	21658.87
769.492	21617.96
769.828	21528.25
770.164	21380.23
770.5	21274.92
770.836	21276.95
771.171	21163.06
771.507	21183.4
771.842	20943.4
772.178	20987.02
772.513	20881.71
772.849	20795.84
773.184	20730.98
773.519	20780.92
773.855	20676.52
774.19	20603.98
774.525	20530.76
774.86	20489.63
775.195	20473.59
775.53	20352.91
775.865	20256.64
776.2	20067.49
776.535	19963.09
776.87	19980.04
777.205	19891.68
777.539	19793.6
777.874	19865.69
778.209	19728.29
778.543	19706.37
778.878	19475.42
779.212	19681.74
779.547	19458.25
779.881	19459.6
780.215	19398.13
780.55	19350.68
780.884	19218.93
781.218	19137.12
781.552	19182.32
781.886	19014.87
782.22	18912.72
782.554	18831.82
782.888	18690.36
783.222	18650.13
783.556	18635.67
783.889	18608.1
784.223	18420.31
784.557	18329.46
784.89	18351.16
785.224	18245.85
785.557	18193.65
785.891	18091.73
786.224	18066.64
786.558	18105.74
786.891	18033.88
787.224	17793.88
787.557	17675.24
787.891	17735.58
788.224	17746.65
788.557	17654.9
788.89	17630.04
789.223	17602.02
789.556	17485.42
789.888	17390.96
790.221	17317.96
790.554	17243.39
790.887	17214.46
791.219	17177.85
791.552	17156.39
791.884	17038.87
792.217	16987.8
792.549	16952.32
792.882	16860.35
793.214	16719.11
793.546	16718.88
793.879	16681.82
794.211	16537.87
794.543	16602.28
794.875	16496.52
795.207	16498.55
795.539	16470.3
795.871	16382.39
796.203	16275.05
796.535	16236.86
796.867	16226.92
797.198	16081.84
797.53	16146.69
797.862	16049.07
798.193	16046.81
798.525	15901.05
798.856	15990.31
799.188	15806.82
799.519	15724.56
799.85	15643.2
800.182	15714.84
800.513	15759.81
800.844	15515.3
801.175	15591
801.506	15555.3
801.837	15464.9
802.168	15401.63
802.499	15389.43
802.83	15288.64
803.161	15293.84
803.491	15306.04
803.822	15221.52
804.153	15093.39
804.483	15031.7
804.814	15023.56
805.145	14903.79
805.475	14905.6
805.805	14910.12
806.136	14909.89
806.466	14903.11
806.796	14814.75
807.126	14660.86
807.457	14687.75
807.787	14633.29
808.117	14657.24
808.447	14528.88
808.777	14539.5
809.107	14472.16
809.436	14474.2
809.766	14400.07
810.096	14418.6
810.426	14365.05
810.755	14256.12
811.085	14304.93
811.414	14241.66
811.744	14150.59
812.073	14099.52
812.403	14059.97
812.732	14012.74
813.061	14065.17
813.39	13924.38
813.719	13942.01
814.049	14014.55
814.378	13941.78
814.707	13836.25
815.036	13867.43
815.365	13746.08
815.693	13689.81
816.022	13682.13
816.351	13565.07
816.68	13610.49
817.008	13590.83
817.337	13439.42
817.665	13442.58
817.994	13509.93
818.322	13381.57
818.651	13422.47
818.979	13325.07
819.307	13349.03
819.636	13332.98
819.964	13272.87
820.292	13286.88
820.62	13299.09
820.948	13244.17
821.276	13289.59
821.604	13223.83
821.932	13203.27
822.259	13254.11
822.587	13184.29
822.915	13154
823.243	13223.61
823.57	13170.95
823.898	13122.14
824.225	13177.96
824.553	13057.28
824.88	13166.43
825.207	13238.07
825.535	13125.53
825.862	13197.17
826.189	13112.88
826.516	13151.74
826.843	13195.13
827.17	13175.47
827.497	13205.3
827.824	13150.84
828.151	13224.74
828.478	13137.28
828.805	13201.23
829.131	13027.23
829.458	13099.09
829.785	13044.4
830.111	13102.03
830.438	13097.73
830.764	13038.53
831.09	13109.49
831.417	13064.52
831.743	13055.7
832.069	13017.06
832.395	13007.57
832.722	13064.52
833.048	12994.91
833.374	12996.27
833.7	12967.34
834.026	12980.22
834.351	12981.58
834.677	12991.07
835.003	12966.89
835.329	13011.18
835.654	12955.82
835.98	12890.73
836.306	12932.99
836.631	12807.12
836.956	12947.46
837.282	12853.22
837.607	12767.12
837.932	12827.23
838.258	12774.13
838.583	12729.83
838.908	12664.07
839.233	12721.25
839.558	12706.56
839.883	12704.98
840.208	12691.64
840.533	12609.84
840.858	12590.4
841.182	12603.74
841.507	12576.62
841.832	12479.45
842.156	12497.07
842.481	12461.82
842.805	12424.53
843.13	12422.5
843.454	12428.15
843.778	12269.51
844.103	12319.9
844.427	12274.71
844.751	12247.59
845.075	12274.03
845.399	12214.82
845.723	12146.8
846.047	12114.48
846.371	12049.4
846.695	12033.36
847.019	11941.15
847.343	11895.51
847.666	11840.14
847.99	11759.92
848.313	11801.5
848.637	11672.69
848.96	11680.37
849.284	11696.42
849.607	11526.48
849.931	11476.08
850.254	11480.38
850.577	11400.15
850.9	11321.74
851.223	11328.97
851.546	11221.63
851.869	11172.81
852.192	11280.38
852.515	11117.22
852.838	11080.39
853.161	11081.74
853.483	11045.13
853.806	10977.79
854.129	10985.25
854.451	10940.5
854.774	10820.73
855.096	10885.59
855.419	10839.04
855.741	10743.45
856.063	10670.91
856.385	10789.55
856.708	10646.73
857.03	10642.88
857.352	10624.81
857.674	10584.35
857.996	10595.65
858.318	10459.84
858.64	10527.18
858.961	10498.93
859.283	10427.52
859.605	10383
859.926	10405.83
860.248	10370.12
860.57	10288.32
860.891	10369.9
861.212	10253.52
861.534	10200.18
861.855	10230.01
862.176	10222.78
862.498	10178.94
862.819	10278.15
863.14	10144.82
863.461	10143.24
863.782	10045.39
864.103	10081.99
864.424	10005.39
864.745	10116.34
865.065	10004.93
865.386	9987.53
865.707	10009
866.027	9966.29
866.348	9974.2
866.668	9960.42
866.989	9935.56
867.309	9901.21
867.63	9850.36
867.95	9936.24
868.27	9821.66
868.59	9793.64
868.91	9776.24
869.23	9775.56
869.55	9815.79
869.87	9800.65
870.19	9760.42
870.51	9809.01
870.83	9705.96
871.15	9678.39
871.469	9669.8
871.789	9669.35
872.109	9714.32
872.428	9606.3
872.748	9644.72
873.067	9628.45
873.386	9666.41
873.706	9605.85
874.025	9550.48
874.344	9563.82
874.663	9551.16
874.982	9501.9
875.301	9536.02
875.62	9517.26
875.939	9436.14
876.258	9538.73
876.577	9432.07
876.896	9492.63
877.214	9425.51
877.533	9351.17
877.852	9344.16
878.17	9393.43
878.489	9314.11
878.807	9321.34
879.125	9311.17
879.444	9279.08
879.762	9245.18
880.08	9216.93
880.398	9288.8
880.716	9260.77
881.034	9212.64
881.352	9207.89
881.67	9142.36
881.988	9124.51
882.306	9136.26
882.624	9071.4
882.941	9032.3
883.259	9050.16
883.577	9032.3
883.894	8990.95
884.212	8960.44
884.529	8989.59
884.846	8916.6
885.164	8934.45
885.481	8912.31
885.798	8950.95
886.115	8864.4
886.432	8878.64
886.75	8853.33
887.067	8874.12
887.383	8781.92
887.7	8790.05
888.017	8703.73
888.334	8760
888.651	8697.62
888.967	8715.7
889.284	8668.02
889.6	8654.24
889.917	8661.47
890.233	8619.66
890.55	8564.97
890.866	8599.32
891.182	8580.34
891.498	8547.8
891.815	8456.05
892.131	8442.94
892.447	8426.45
892.763	8401.59
893.079	8374.02
893.395	8393.68
893.71	8322.04
894.026	8306
894.342	8276.84
894.657	8244.3
894.973	8263.29
895.289	8247.24
895.604	8222.83
895.92	8182.16
896.235	8122.05
896.55	8124.98
896.865	8066.23
897.181	8073.91
897.496	8085.89
897.811	8007.7
898.126	7974.03
898.441	7921.15
898.756	7842.96
899.071	7872.79
899.386	7868.49
899.7	7868.95
900.015	7812
900.33	7750.53
900.644	7703.3
900.959	7739.68
901.273	7694.49
901.588	7637.77
901.902	7604.09
902.216	7560.25
902.531	7575.17
902.845	7525.9
903.159	7502.18
903.473	7482.97
903.787	7482.06
904.101	7399.81
904.415	7424.21
904.729	7401.61
905.042	7328.62
905.356	7331.11
905.67	7333.82
905.984	7291.11
906.297	7280.94
906.611	7197.32
906.924	7157.55
907.237	7231.9
907.551	7141.28
907.864	7077.33
908.177	7080.04
908.491	7074.62
908.804	7026.26
909.117	6997.78
909.43	6937.9
909.743	6901.97
910.056	6963.21
910.368	6884.34
910.681	6804.79
910.994	6833.94
911.307	6816.54
911.619	6766.38
911.932	6791.46
912.244	6774.96
912.557	6734.29
912.869	6707.17
913.181	6620.84
913.494	6633.5
913.806	6527.96
914.118	6560.05
914.43	6548.53
914.742	6510.79
915.054	6466.27
915.366	6439.83
915.678	6419.27
915.99	6400.28
916.302	6325.03
916.613	6323.45
916.925	6311.47
917.236	6286.16
917.548	6274.64
917.859	6255.2
918.171	6254.3
918.482	6189.67
918.794	6148.99
919.105	6149.89
919.416	6106.96
919.727	6091.37
920.038	6009.79
920.349	6078.48
920.66	6021.76
920.971	6017.24
921.282	5956.45
921.593	5955.1
921.903	5891.6
922.214	5906.96
922.525	5842.78
922.835	5843.91
923.146	5819.06
923.456	5813.18
923.767	5751.94
924.077	5772.5
924.387	5756.68
924.697	5698.16
925.008	5723.47
925.318	5651.38
925.628	5675.78
925.938	5598.95
926.248	5574.09
926.558	5530.02
926.867	5539.74
927.177	5504.94
927.487	5495.9
927.796	5445.51
928.106	5453.87
928.416	5400.31
928.725	5367.99
929.034	5355.11
929.344	5403.02
929.653	5355.11
929.962	5284.15
930.271	5277.83
930.581	5233.99
930.89	5265.85
931.199	5207.09
931.508	5198.06
931.817	5197.83
932.125	5189.47
932.434	5184.27
932.743	5049.13
933.051	5070.15
933.36	5057.27
933.669	5021.79
933.977	5059.75
934.286	4994.44
934.594	4968.23
934.902	4948.57
935.21	4917.16
935.519	4926.65
935.827	4898.18
936.135	4850.04
936.443	4854.79
936.751	4841.91
937.059	4827.44
937.367	4771.85
937.674	4813.21
937.982	4754.45
938.29	4739.08
938.597	4744.96
938.905	4729.37
939.213	4660.44
939.52	4634.91
939.827	4655.24
940.135	4633.55
940.442	4589.48
940.749	4587.9
941.056	4561.24
941.363	4485.08
941.67	4539.09
941.977	4446.89
942.284	4426.55
942.591	4475.14
942.898	4420.9
943.205	4403.05
943.511	4395.59
943.818	4367.79
944.125	4353.11
944.431	4339.55
944.738	4320.11
945.044	4323.28
945.35	4236.27
945.657	4271.3
945.963	4250.74
946.269	4202.6
946.575	4221.81
946.881	4185.43
947.187	4194.92
947.493	4185.2
947.799	4140
948.105	4155.82
948.41	4051.42
948.716	4101.14
949.022	4060.23
949.327	4059.78
949.633	3994.25
949.938	4022.49
950.244	4030.63
950.549	3987.92
950.854	3975.71
951.16	3987.69
951.465	3926.45
951.77	3941.14
952.075	3877.64
952.38	3883.74
952.685	3866.79
952.99	3860.92
953.294	3846
953.599	3842.84
953.904	3820.46
954.209	3786.12
954.513	3767.36
954.818	3750.64
955.122	3716.96
955.426	3718.32
955.731	3657.98
956.035	3738.88
956.339	3707.7
956.643	3671.54
956.948	3633.58
957.252	3635.16
957.556	3639.45
957.86	3557.42
958.163	3593.58
958.467	3597.87
958.771	3532.79
959.075	3572.56
959.378	3541.38
959.682	3516.29
959.985	3488.5
960.289	3480.59
960.592	3418.89
960.896	3461.83
961.199	3425.9
961.502	3448.27
961.805	3368.05
962.108	3363.75
962.411	3386.58
962.714	3373.24
963.017	3328.5
963.32	3319.23
963.623	3306.58
963.926	3319.46
964.228	3282.17
964.531	3260.25
964.833	3257.77
965.136	3250.54
965.438	3243.08
965.741	3214.15
966.043	3203.98
966.345	3169.86
966.648	3128.05
966.95	3196.07
967.252	3095.29
967.554	3167.37
967.856	3138.9
968.158	3072.91
968.46	3049.19
968.761	3044.67
969.063	3059.58
969.365	3051.9
969.666	3031.78
969.968	3045.8
970.269	3016.64
970.571	3006.02
970.872	2952.24
971.174	2952.46
971.475	2966.48
971.776	2927.38
972.077	2931.45
972.378	2941.17
972.679	2913.82
972.98	2918.34
973.281	2855.74
973.582	2904.1
973.883	2851.45
974.183	2867.72
974.484	2839.47
974.785	2791.57
975.085	2815.52
975.386	2789.31
975.686	2744.56
975.986	2761.96
976.287	2780.72
976.587	2767.61
976.887	2745.24
977.187	2713.6
977.487	2741.62
977.787	2754.28
978.087	2666.82
978.387	2635.86
978.687	2686.26
978.987	2675.64
979.286	2654.85
979.586	2671.57
979.885	2639.03
980.185	2623.43
980.484	2575.3
980.784	2575.98
981.083	2584.79
981.382	2574.62
981.682	2541.63
981.981	2533.72
982.28	2538.69
982.579	2498.69
982.878	2530.55
983.177	2523.32
983.475	2504.34
983.774	2477.9
984.073	2467.96
984.372	2433.83
984.67	2429.99
984.969	2413.04
985.267	2429.54
985.566	2415.53
985.864	2409.88
986.162	2384.8
986.461	2377.34
986.759	2364.01
987.057	2328.53
987.355	2359.03
987.653	2331.01
987.951	2332.37
988.249	2315.42
988.547	2302.76
988.844	2311.13
989.142	2295.53
989.44	2281.97
989.737	2229.55
990.035	2275.42
990.332	2239.72
990.63	2233.84
990.927	2218.25
991.224	2215.99
991.521	2184.58
991.819	2192.26
992.116	2193.39
992.413	2159.94
992.71	2143.22
993.006	2182.77
993.303	2151.58
993.6	2168.3
993.897	2131.24
994.193	2148.64
994.49	2109.55
994.787	2117.68
995.083	2094.63
995.379	2097.57
995.676	2064.13
995.972	2077.69
996.268	2050.34
996.565	2046.27
996.861	2035.88
997.157	2059.83
997.453	2041.75
997.749	2019.61
998.044	1992.26
998.34	1986.61
998.636	1998.14
998.932	1972.6
999.227	1964.92
999.523	1964.47
999.818	1943.68
1000.114	1955.88
1000.409	1891.48
1000.704	1898.48
1001	1906.84
1001.295	1893.74
1001.59	1860.06
1001.885	1895.77
1002.18	1872.27
1002.475	1854.19
1002.77	1829.33
1003.065	1809.44
1003.359	1824.81
1003.654	1794.3
1003.949	1807.86
1004.243	1803.79
1004.538	1784.59
1004.832	1777.58
1005.127	1783.68
1005.421	1759.28
1005.715	1751.82
1006.009	1737.13
1006.304	1730.58
1006.598	1696.23
1006.892	1707.75
1007.186	1708.43
1007.48	1701.88
1007.773	1669.11
1008.067	1673.18
1008.361	1673.4
1008.655	1641.76
1008.948	1665.94
1009.242	1651.48
1009.535	1594.99
1009.829	1607.64
1010.122	1596.57
1010.415	1558.6
1010.708	1580.3
1011.001	1578.49
1011.295	1562.9
1011.588	1557.25
1011.881	1547.08
1012.173	1567.87
1012.466	1522.22
1012.759	1556.8
1013.052	1534.42
1013.344	1504.14
1013.637	1497.36
1013.93	1487.64
1014.222	1499.85
1014.514	1464.37
1014.807	1456.23
1015.099	1443.35
1015.391	1449
1015.683	1427.08
1015.976	1426.18
1016.268	1414.2
1016.56	1426.63
1016.851	1396.35
1017.143	1385.05
1017.435	1394.77
1017.727	1371.04
1018.018	1380.75
1018.31	1391.83
1018.602	1368.55
1018.893	1345.73
1019.185	1359.74
1019.476	1324.71
1019.767	1306.18
1020.058	1321.32
1020.35	1300.53
1020.641	1282.9
1020.932	1261.44
1021.223	1274.32
1021.514	1299.4
1021.804	1265.5
1022.095	1258.95
1022.386	1243.81
1022.677	1231.15
1022.967	1229.35
1023.258	1254.66
1023.548	1236.35
1023.839	1210.14
1024.129	1214.88
1024.419	1206.97
1024.709	1176.69
1025	1171.27
1025.29	1165.85
1025.58	1164.26
1025.87	1153.42
1026.16	1166.3
1026.449	1157.03
1026.739	1143.25
1027.029	1113.42
1027.319	1120.2
1027.608	1140.76
1027.898	1115.22
1028.187	1127.65
1028.477	1099.18
1028.766	1091.04
1029.055	1103.7
1029.344	1054.66
1029.634	1105.96
1029.923	1072.29
1030.212	1112.06
1030.501	1075.68
1030.79	1033.65
1031.078	1059.41
1031.367	1024.83
1031.656	1039.52
1031.945	1023.93
1032.233	1033.87
1032.522	1014.21
1032.81	994.78
1033.099	1013.08
1033.387	969.92
1033.675	970.6
1033.963	966.98
1034.251	963.14
1034.54	958.84
1034.828	942.8
1035.116	973.76
1035.403	929.69
1035.691	952.07
1035.979	963.59
1036.267	937.15
1036.554	930.15
1036.842	895.8
1037.129	933.99
1037.417	922.69
1037.704	889.69
1037.992	910.26
1038.279	875.23
1038.566	882.69
1038.853	882.69
1039.14	882.69
