Data from hue_60_FLMS001491_35.txt Node
Date: Mon Feb 06 15:17:17 GMT 2017
User: dcchb
Spectrometer: FLMS00149
Trigger mode: 0
Integration Time (sec): 2.000000E-2
Scans to average: 10
Electric dark correction enabled: true
Nonlinearity correction enabled: false
Boxcar width: 0
XAxis mode: Wavelengths
Number of Pixels in Spectrum: 2048
>>>>>Begin Spectral Data<<<<<
341.393	-1.85
341.776	-1.85
342.16	-1.85
342.543	-77.1
342.927	-62.41
343.31	-58.12
343.693	-63.54
344.077	-54.05
344.46	-72.81
344.843	-47.27
345.226	-37.78
345.61	-41.4
345.993	-26.48
346.376	-9.99
346.759	-0.72
347.142	27.98
347.525	38.83
347.908	41.54
348.291	77.24
348.674	99.39
349.057	127.19
349.44	112.05
349.823	145.49
350.206	197.01
350.588	193.62
350.971	200.4
351.354	220.74
351.737	241.53
352.119	245.37
352.502	276.33
352.884	266.39
353.267	281.08
353.65	321.76
354.032	305.26
354.414	312.27
354.797	321.53
355.179	306.39
355.562	317.46
355.944	326.28
356.326	315.2
356.709	322.66
357.091	346.62
357.473	352.26
357.855	352.04
358.238	352.49
358.62	354.52
359.002	333.73
359.384	341.42
359.766	329.21
360.148	329.89
360.53	346.84
360.912	348.42
361.294	332.15
361.676	340.29
362.057	330.12
362.439	348.42
362.821	333.51
363.203	356.78
363.584	323.34
363.966	317.01
364.348	317.46
364.729	296.67
365.111	317.92
365.493	323.11
365.874	326.73
366.256	327.63
366.637	295.54
367.019	306.84
367.4	328.76
367.781	312.49
368.163	323.11
368.544	292.15
368.925	319.95
369.306	316.56
369.688	296.9
370.069	326.5
370.45	294.41
370.831	301.42
371.212	322.21
371.593	312.27
371.974	311.59
372.355	301.64
372.736	323.11
373.117	304.13
373.498	341.19
373.879	307.97
374.26	321.53
374.641	322.89
375.021	316.33
375.402	335.32
375.783	317.46
376.163	319.72
376.544	321.76
376.925	344.81
377.305	319.72
377.686	319.27
378.066	321.08
378.447	310.23
378.827	337.12
379.208	311.36
379.588	304.81
379.968	332.83
380.349	321.98
380.729	328.31
381.109	343.9
381.489	351.81
381.87	345.49
382.25	320.18
382.63	327.41
383.01	351.81
383.39	333.28
383.77	352.26
384.15	330.8
384.53	331.93
384.91	350.23
385.29	342.32
385.67	334.86
386.049	349.55
386.429	334.19
386.809	348.42
387.189	326.05
387.568	337.8
387.948	343
388.328	344.13
388.707	341.42
389.087	365.15
389.466	350
389.846	386.84
390.225	346.16
390.605	373.96
390.984	349.33
391.363	349.33
391.743	361.08
392.122	381.42
392.501	333.73
392.881	380.96
393.26	381.64
393.639	362.21
394.018	356.78
394.397	371.25
394.776	357.91
395.155	381.87
395.534	354.3
395.913	358.82
396.292	390.91
396.671	377.8
397.05	366.5
397.429	372.38
397.808	363.34
398.186	386.61
398.565	360.17
398.944	393.62
399.323	367.86
399.701	392.72
400.08	378.48
400.458	389.55
400.837	388.42
401.215	386.39
401.594	370.34
401.972	399.5
402.351	408.31
402.729	390
403.107	385.26
403.486	420.96
403.864	398.82
404.242	387.74
404.62	400.4
404.999	397.69
405.377	396.78
405.755	397.69
406.133	410.79
406.511	392.49
406.889	413.51
407.267	396.33
407.645	421.42
408.023	423.45
408.401	415.54
408.779	412.15
409.156	422.32
409.534	414.64
409.912	420.96
410.29	414.64
410.667	421.42
411.045	426.39
411.422	416.44
411.8	438.36
412.178	449.89
412.555	438.59
412.933	425.94
413.31	461.19
413.687	452.83
414.065	450.12
414.442	452.38
414.819	456.67
415.197	443.79
415.574	450.12
415.951	463.22
416.328	493.96
416.705	453.96
417.082	455.31
417.46	492.37
417.837	500.28
418.214	484.69
418.591	499.83
418.967	487.63
419.344	474.97
419.721	494.41
420.098	471.58
420.475	484.46
420.852	486.72
421.228	481.98
421.605	502.54
421.982	494.63
422.358	494.63
422.735	514.52
423.111	512.26
423.488	524.69
423.864	529.66
424.241	510.45
424.617	516.55
424.994	511.81
425.37	542.09
425.746	528.53
426.123	522.2
426.499	523.79
426.875	558.81
427.251	544.12
427.627	570.56
428.003	552.26
428.379	580.51
428.756	572.6
429.132	568.53
429.507	587.96
429.883	565.82
430.259	569.21
430.635	586.16
431.011	588.64
431.387	580.73
431.763	573.28
432.138	601.75
432.514	574.41
432.89	606.04
433.265	619.38
433.641	620.96
434.016	610.34
434.392	609.21
434.767	628.42
435.143	638.58
435.518	607.63
435.894	639.26
436.269	644.23
436.644	648.75
437.02	644.69
437.395	644.01
437.77	646.04
438.145	666.15
438.52	673.16
438.895	690.11
439.271	659.15
439.646	698.47
440.021	673.61
440.395	691.92
440.77	679.71
441.145	702.54
441.52	690.56
441.895	707.28
442.27	706.61
442.645	694.4
443.019	724.68
443.394	712.48
443.769	726.49
444.143	729.43
444.518	737.79
444.892	737.11
445.267	771.46
445.641	716.55
446.016	739.83
446.39	754.51
446.764	750.45
447.139	769.43
447.513	764.01
447.887	752.48
448.262	749.54
448.636	758.58
449.01	765.36
449.384	780.05
449.758	784.12
450.132	810.78
450.506	808.52
450.88	777.56
451.254	791.12
451.628	793.61
452.002	813.95
452.376	837.22
452.75	813.5
453.123	825.92
453.497	832.48
453.871	840.61
454.244	866.38
454.618	870.22
454.992	867.28
455.365	874.74
455.739	867.28
456.112	886.04
456.486	900.27
456.859	937.33
457.232	933.04
457.606	920.84
457.979	934.4
458.352	952.93
458.725	968.97
459.099	932.59
459.472	985.02
459.845	966.26
460.218	998.12
460.591	1002.87
460.964	1015.07
461.337	1016.65
461.71	1067.27
462.083	1082.87
462.456	1068.18
462.829	1087.61
463.201	1075.64
463.574	1096.2
463.947	1111.57
464.32	1112.92
464.692	1134.62
465.065	1152.02
465.438	1140.72
465.81	1177.55
466.183	1188.85
466.555	1208.97
466.928	1194.73
467.3	1214.84
467.672	1257.78
468.045	1288.51
468.417	1315.18
468.789	1325.35
469.161	1331.9
469.534	1358.57
469.906	1395.4
470.278	1412.35
470.65	1431.78
471.022	1482.86
471.394	1493.25
471.766	1545.23
472.138	1552.46
472.51	1595.17
472.882	1599.01
473.253	1640.82
473.625	1727.6
473.997	1729.18
474.369	1720.36
474.74	1770.31
475.112	1839.46
475.484	1830.19
475.855	1925.33
476.227	1972.56
476.598	2003.52
476.97	2081.03
477.341	2112.9
477.713	2174.82
478.084	2198.77
478.455	2307.69
478.827	2365.09
479.198	2440.8
479.569	2449.16
479.94	2564.86
480.311	2628.14
480.682	2697.06
481.053	2782.71
481.424	2889.15
481.795	2933.67
482.166	3047.11
482.537	3085.98
482.908	3224.96
483.279	3290.72
483.65	3382.02
484.021	3482.35
484.391	3621.33
484.762	3691.39
485.133	3723.93
485.503	3889.8
485.874	4009.34
486.244	4127.98
486.615	4238.04
486.985	4387.19
487.356	4511.25
487.726	4576.11
488.097	4719.83
488.467	4826.27
488.837	5035.53
489.207	5112.14
489.578	5253.83
489.948	5373.6
490.318	5569.53
490.688	5621.73
491.058	5775.4
491.428	5922.06
491.798	6059.91
492.168	6290.19
492.538	6353.01
492.908	6508.49
493.278	6724.07
493.648	6809.72
494.017	7020.11
494.387	7112.99
494.757	7269.15
495.126	7423.04
495.496	7514.79
495.866	7672.98
496.235	7854.21
496.605	8001.1
496.974	8126.52
497.344	8295.78
497.713	8405.61
498.082	8588.21
498.452	8794.75
498.821	8892.83
499.19	8945.71
499.559	9140.96
499.928	9329.66
500.298	9426.15
500.667	9656.43
501.036	9718.8
501.405	9869.98
501.774	9963.31
502.143	10083.31
502.512	10222.74
502.88	10399.91
503.249	10461.38
503.618	10596.29
503.987	10702.28
504.356	10866.56
504.724	10953.34
505.093	11116.73
505.462	11222.71
505.83	11438.75
506.199	11632.87
506.567	11754.68
506.936	11810.27
507.304	12001.9
507.672	12129.81
508.041	12150.82
508.409	12361.21
508.777	12562.57
509.145	12656.8
509.514	12731.37
509.882	12845.72
510.25	12953.52
510.618	13185.83
510.986	13258.37
511.354	13455.2
511.722	13540.62
512.09	13740.61
512.458	13748.97
512.826	13953.04
513.193	14088.17
513.561	14148.74
513.929	14303.31
514.297	14513.02
514.664	14637.31
515.032	14688.84
515.4	14915.05
515.767	14932.45
516.135	15086.34
516.502	15062.16
516.869	15347.12
517.237	15472.77
517.604	15401.13
517.972	15624.18
518.339	15812.2
518.706	15939.65
519.073	16056.03
519.44	16134.22
519.808	16396.81
520.175	16363.37
520.542	16616.47
520.909	16715.68
521.276	16716.35
521.643	17039.74
522.009	17093.75
522.376	17277.7
522.743	17343.23
523.11	17607.18
523.477	17662.09
523.843	17727.85
524.21	18136.2
524.577	18195.41
524.943	18316.99
525.31	18410.32
525.676	18644.44
526.043	18681.5
526.409	18839.69
526.776	19013.47
527.142	19108.83
527.508	19290.07
527.874	19510.63
528.241	19484.64
528.607	19526.22
528.973	19837.85
529.339	19842.15
529.705	20010.05
530.071	20159.65
530.437	20266.09
530.803	20337.73
531.169	20474.9
531.535	20481.45
531.901	20662.01
532.267	20664.05
532.632	20930.93
532.998	20975.9
533.364	21134.09
533.73	21093.87
534.095	21330.7
534.461	21423.12
534.826	21502.44
535.192	21741.08
535.557	21829.67
535.923	21774.75
536.288	21927.74
536.653	21928.19
537.019	21868.31
537.384	22127.29
537.749	22207.51
538.114	22266.94
538.479	22300.39
538.845	22465.81
539.21	22541.06
539.575	22594.84
539.94	22596.2
540.305	22888.17
540.67	22735.86
541.034	22807.27
541.399	23035.74
541.764	23105.56
542.129	23148.28
542.494	23185.56
542.858	23274.83
543.223	23365.67
543.587	23526.34
543.952	23495.16
544.316	23548.72
544.681	23540.13
545.045	23722.72
545.41	23871.65
545.774	23901.25
546.138	23998.42
546.503	23925.2
546.867	24043.39
547.231	24250.85
547.595	24218.3
547.959	24206.55
548.324	24309.83
548.688	24355.93
549.052	24529.93
549.416	24558.63
549.779	24582.36
550.143	24718.63
550.507	24896.25
550.871	24993.42
551.235	24947.1
551.599	25163.14
551.962	25145.29
552.326	25336.24
552.689	25508.67
553.053	25256.02
553.417	25485.16
553.78	25756.12
554.143	25775.1
554.507	25837.7
554.87	25849.9
555.234	26225.93
555.597	26076.33
555.96	26014.64
556.323	26221.42
556.686	26267.52
557.05	26566.26
557.413	26687.84
557.776	26706.15
558.139	26873.15
558.502	26746.37
558.865	26948.63
559.228	27222.97
559.59	27248.28
559.953	27388.16
560.316	27625.45
560.679	27535.28
561.041	27740.25
561.404	27867.02
561.767	28050.07
562.129	28003.97
562.492	28280.8
562.854	28315.82
563.217	28344.75
563.579	28492.77
563.941	28681.01
564.304	28750.84
564.666	28965.07
565.028	28955.35
565.39	29058.63
565.753	29226.53
566.115	29345.17
566.477	29443.93
566.839	29564.15
567.201	29825.16
567.563	29734.09
567.925	30017.47
568.287	29980.41
568.648	30174.98
569.01	30128.88
569.372	30433.73
569.734	30323.23
570.095	30601.41
570.457	30663.33
570.819	30716.44
571.18	30800.05
571.542	30797.34
571.903	30982.65
572.265	31228.74
572.626	31363.2
572.987	31383.54
573.349	31365.01
573.71	31612.91
574.071	31583.99
574.432	31756.64
574.794	31999.12
575.155	31967.03
575.516	31856.75
575.877	32019.45
576.238	31992.56
576.599	32160.24
576.96	32136.29
577.32	32351.65
577.681	32386.9
578.042	32468.93
578.403	32513.9
578.763	32444.75
579.124	32605.88
579.485	32712.09
579.845	32822.6
580.206	32716.16
580.566	32739.44
580.927	32803.16
581.287	32943.5
581.648	32836.83
582.008	33061.01
582.368	32897.4
582.728	33051.07
583.089	32980.11
583.449	33020.33
583.809	32996.6
584.169	32965.19
584.529	33020.33
584.889	33230.5
585.249	33153.21
585.609	32999.99
585.969	33208.12
586.329	33136.71
586.688	33158.86
587.048	33278.63
587.408	33216.94
587.768	33154.34
588.127	33218.52
588.487	33227.78
588.846	33444.5
589.206	33308.46
589.565	33283.83
589.925	33571.73
590.284	33308.91
590.643	33413.32
591.003	33407.89
591.362	33526.76
591.721	33548.23
592.08	33500.09
592.44	33625.29
592.799	33644.95
593.158	33539.87
593.517	33581.9
593.876	33680.65
594.235	33640.88
594.593	33670.71
594.952	33685.85
595.311	33555.91
595.67	33787.54
596.029	33883.81
596.387	33924.04
596.746	34095.78
597.104	33770.37
597.463	33754.55
597.822	33990.25
598.18	33826.86
598.538	33868.67
598.897	34096.01
599.255	33864.38
599.613	34419.17
599.972	34113.86
600.33	34235.44
600.688	34078.61
601.046	34314.08
601.404	34427.53
601.762	34325.38
602.12	34604.47
602.478	34426.85
602.836	34502.33
603.194	34374.2
603.552	34459.84
603.91	34368.77
604.268	34579.16
604.625	34588.88
604.983	34728.99
605.341	34523.34
605.698	34806.05
606.056	34741.19
606.413	34618.93
606.771	34864.13
607.128	34902.09
607.485	34891.7
607.843	34893.73
608.2	35173.27
608.557	35178.92
608.914	35053.5
609.272	35265.02
609.629	35478.35
609.986	35488.97
610.343	35304.11
610.7	35739.36
611.057	35494.84
611.414	35636.99
611.771	35694.16
612.127	35824.33
612.484	35755.18
612.841	35894.16
613.198	35801.73
613.554	35973.93
613.911	36022.06
614.267	35962.63
614.624	36016.86
614.98	36141.38
615.337	36318.32
615.693	36180.48
616.05	36273.35
616.406	36486
616.762	36405.1
617.118	36301.38
617.475	36470.64
617.831	36448.04
618.187	36640.58
618.543	36475.61
618.899	36796.28
619.255	36696.62
619.611	36875.82
619.967	36913.79
620.323	36839.89
620.678	36805.09
621.034	36737.52
621.39	36815.26
621.746	36823.85
622.101	37307.9
622.457	36907.91
622.812	37102.26
623.168	37101.35
623.523	37175.93
623.879	37231.97
624.234	37003.28
624.589	37108.13
624.945	37335.93
625.3	37320.56
625.655	37337.28
626.01	37301.8
626.365	37235.14
626.72	37358.3
627.075	37354.91
627.43	37370.95
627.785	37306.1
628.14	37361.69
628.495	37484.85
628.85	37483.72
629.205	37338.41
629.559	37575.24
629.914	37273.1
630.269	37401.91
630.623	37250.5
630.978	37147.91
631.332	37401.91
631.687	37422.25
632.041	37405.98
632.396	37305.64
632.75	37114.91
633.104	37153.78
633.459	37063.39
633.813	37192.88
634.167	37058.87
634.521	37104.29
634.875	37168.92
635.229	37140.9
635.583	36936.16
635.937	36987.46
636.291	37069.27
636.645	36909.72
636.999	36921.7
637.352	37060.23
637.706	36856.39
638.06	36902.26
638.413	36890.97
638.767	36764.19
639.121	36906.56
639.474	36653.91
639.828	36685.09
640.181	36751.08
640.534	36802.61
640.888	36776.39
641.241	36444.2
641.594	36644.64
641.947	36678.77
642.301	36545.66
642.654	36640.35
643.007	36608.03
643.36	36594.25
643.713	36559.22
644.066	36781.59
644.419	36450.75
644.771	36218.89
645.124	35820.03
645.477	35821.84
645.83	35575.52
646.182	35457.33
646.535	35398.35
646.888	35440.61
647.24	35285.13
647.593	35421.85
647.945	35414.17
648.298	35240.16
648.65	35107.28
649.002	35133.5
649.355	35200.16
649.707	35174.63
650.059	35359.71
650.411	35844.66
650.763	35753.82
651.115	36126.69
651.467	35982.97
651.819	35868.85
652.171	35868.17
652.523	35768.06
652.875	35794.5
653.227	35764.21
653.578	35887.15
653.93	35852.35
654.282	35727.38
654.633	35584.78
654.985	35785.23
655.337	35736.87
655.688	35573.03
656.039	35850.54
656.391	35438.12
656.742	35530.32
657.094	35648.96
657.445	35733.71
657.796	35634.05
658.147	35616.65
658.498	35471.79
658.849	35616.2
659.2	35547.05
659.551	35477.67
659.902	35621.17
660.253	35504.79
660.604	35517.89
660.955	35337.79
661.306	35612.35
661.656	35347.28
662.007	35493.94
662.358	35397.9
662.708	35598.8
663.059	35513.15
663.409	35156.55
663.76	35379.14
664.11	35438.12
664.461	35517.89
664.811	35351.8
665.161	35394.28
665.511	35293.27
665.862	35319.03
666.212	35474.51
666.562	35376.88
666.912	35302.08
667.262	35220.27
667.612	35352.7
667.962	35335.3
668.312	35221.18
668.662	35399.7
669.011	35304.79
669.361	35208.3
669.711	35171.69
670.06	35120.62
670.41	35042.88
670.76	35018.47
671.109	35230.67
671.459	35120.39
671.808	35062.54
672.157	35078.58
672.507	34923.11
672.856	34948.64
673.205	35030
673.554	35046.04
673.904	35006.72
674.253	35147.06
674.602	34998.13
674.951	34480.18
675.3	34280.41
675.649	34885.14
675.998	34824.8
676.346	34986.16
676.695	35098.47
677.044	34734.64
677.393	34804.69
677.741	34833.62
678.09	34839.27
678.438	34665.26
678.787	34730.12
679.135	34724.24
679.484	34576.45
679.832	34646.05
680.181	34431.82
680.529	34552.27
680.877	34524.47
681.225	34417.13
681.573	34735.54
681.922	34399.05
682.27	34306.85
682.618	34200.19
682.966	34180.08
683.314	34277.93
683.661	34168.78
684.009	34020.53
684.357	33886.98
684.705	33832.06
685.053	33909.8
685.4	33776.24
685.748	33587.55
686.095	33735.79
686.443	33533.09
686.79	33471.85
687.138	33557.27
687.485	33584.61
687.832	33441.79
688.18	33480.43
688.527	33211.74
688.874	33268.91
689.221	33090.84
689.568	33074.57
689.915	33067.11
690.262	32956.61
690.609	32946.66
690.956	32873.67
691.303	32815.59
691.65	32737.18
691.997	32696.05
692.344	32563.17
692.69	32429.39
693.037	32453.79
693.383	32225.1
693.73	32368.37
694.077	32080.02
694.423	32035.73
694.769	32011.32
695.116	31974.71
695.462	31946.01
695.808	31828.73
696.155	31843.19
696.501	31711.44
696.847	31541.28
697.193	31547.83
697.539	31537.89
697.885	31431.9
698.231	31123.21
698.577	31078.46
698.923	30988.07
699.269	30893.83
699.614	30730
699.96	30819.26
700.306	30800.05
700.651	30817.23
700.997	30654.52
701.342	30619.27
701.688	30614.75
702.033	30308.77
702.379	30514.41
702.724	30234.64
703.069	30412.04
703.415	30022.67
703.76	29999.17
704.105	30088.66
704.45	30026.29
704.795	29915.78
705.14	29647.54
705.485	29761.43
705.83	29589.46
706.175	29683.92
706.52	29442.35
706.865	29411.39
707.209	29353.31
707.554	29285.29
707.899	29367.1
708.243	29247.1
708.588	29066.54
708.932	28995.81
709.277	28926.65
709.621	28810.05
709.966	28769.37
710.31	28684.4
710.654	28525.08
710.998	28659.09
711.342	28621.58
711.687	28536.83
712.031	28435.37
712.375	28413.9
712.719	28458.87
713.063	28308.37
713.407	28364.86
713.75	28104.3
714.094	28221.59
714.438	28087.35
714.782	28103.4
715.125	27951.54
715.469	27964.87
715.812	27758.78
716.156	27721.26
716.499	27730.53
716.843	27725.78
717.186	27503.19
717.53	27674.26
717.873	27516.07
718.216	27632.9
718.559	27478.11
718.902	27305
719.246	27359.24
719.589	27332.57
719.932	27141.62
720.275	27278.11
720.617	27104.33
720.96	27116.76
721.303	27126.25
721.646	26994.5
721.989	26924.45
722.331	26964.22
722.674	26813.49
723.016	26817.33
723.359	26812.13
723.701	26911.11
724.044	26657.56
724.386	26552.03
724.729	26648.97
725.071	26631.35
725.413	26515.87
725.755	26599.03
726.097	26525.81
726.439	26359.04
726.782	26313.62
727.124	26416.89
727.465	26394.07
727.807	26164.92
728.149	26239.27
728.491	26219.83
728.833	26263.22
729.175	25997.92
729.516	25933.96
729.858	25888.77
730.199	25955.66
730.541	26003.79
730.882	25960.63
731.224	25922.44
731.565	25724.7
731.906	25800.64
732.248	25716.8
732.589	25656.23
732.93	25719.51
733.271	25712.05
733.612	25660.53
733.953	25587.08
734.294	25493.3
734.635	25420.76
734.976	25511.38
735.317	25365.17
735.658	25339.4
735.999	25410.59
736.339	25179.18
736.68	25318.16
737.021	25207.66
737.361	25117.72
737.702	25288.56
738.042	25180.99
738.383	25078.62
738.723	25094.67
739.063	25108.22
739.404	25055.12
739.744	24991.39
740.084	24821.23
740.424	25052.18
740.764	24825.75
741.104	24874.11
741.444	24763.6
741.784	24631.63
742.124	24695.13
742.464	24774.22
742.804	24739.42
743.143	24504.17
743.483	24543.04
743.823	24397.73
744.162	24485.19
744.502	24473.89
744.841	24341.46
745.181	24466.88
745.52	24397.06
745.86	24316.38
746.199	24216.72
746.538	24150.28
746.877	24178.3
747.216	24232.31
747.556	24134.46
747.895	24093.11
748.234	24110.74
748.573	24068.03
748.911	24087.69
749.25	24015.82
749.589	23894.47
749.928	23938.54
750.267	23878.43
750.605	23920.91
750.944	23650.18
751.283	23730.41
751.621	23753.91
751.96	23579.9
752.298	23491.54
752.636	23585.55
752.975	23441.15
753.313	23286.8
753.651	23424.65
753.989	23264.88
754.327	23237.54
754.666	23099.24
755.004	23268.5
755.342	23248.39
755.679	23201.16
756.017	22880.71
756.355	23072.8
756.693	22961.61
757.031	22886.14
757.368	22815.18
757.706	22741.05
758.044	22607.05
758.381	22660.6
758.719	22594.39
759.056	22614.28
759.394	22555.52
759.731	22395.98
760.068	22406.83
760.405	22324.79
760.743	22265.59
761.08	22193.72
761.417	22111.01
761.754	22114.18
762.091	21984.46
762.428	21960.51
762.765	21740.4
763.102	21796.67
763.438	21785.15
763.775	21690.91
764.112	21697.47
764.449	21635.55
764.785	21495.44
765.122	21300.64
765.458	21319.85
765.795	21289.34
766.131	21246.63
766.467	21139.74
766.804	21050.93
767.14	20996.92
767.476	21030.37
767.812	20882.35
768.148	20941.1
768.485	20842.12
768.821	20627.21
769.157	20624.5
769.492	20653.88
769.828	20493.43
770.164	20327.56
770.5	20290.72
770.836	20351.51
771.171	20266.77
771.507	20170.95
771.842	20032.88
772.178	20027.68
772.513	19932.54
772.849	19925.99
773.184	19796.05
773.519	19818.42
773.855	19821.13
774.19	19603.74
774.525	19496.62
774.86	19586.79
775.195	19514.02
775.53	19405.32
775.865	19213.69
776.2	19066.8
776.535	19008.95
776.87	19068.16
777.205	18977.99
777.539	18876.75
777.874	18918.56
778.209	18723.99
778.543	18771.67
778.878	18620.03
779.212	18554.95
779.547	18506.14
779.881	18394.28
780.215	18462.07
780.55	18420.04
780.884	18238.8
781.218	18232.7
781.552	18235.18
781.886	18050.56
782.22	18004.68
782.554	17906.61
782.888	17815.53
783.222	17771.02
783.556	17623.22
783.889	17611.25
784.223	17552.49
784.557	17428.43
784.89	17511.14
785.224	17352.72
785.557	17226.62
785.891	17248.54
786.224	17206.51
786.558	17226.62
786.891	17057.81
787.224	17023.46
787.557	16896.01
787.891	16919.96
788.224	16924.26
788.557	16888.78
788.89	16816.69
789.223	16780.31
789.556	16647.88
789.888	16547.77
790.221	16404.95
790.554	16336.25
790.887	16419.86
791.219	16392.75
791.552	16350.94
791.884	16203.37
792.217	16191.85
792.549	16153.21
792.882	16019.2
793.214	15945.75
793.546	16048.58
793.879	15868.92
794.211	15892.42
794.543	15771.29
794.875	15731.3
795.207	15674.12
795.539	15663.95
795.871	15698.08
796.203	15475.48
796.535	15434.35
796.867	15393
797.198	15423.28
797.53	15338.09
797.862	15260.35
798.193	15258.31
798.525	15143.97
798.856	15223.29
799.188	14961.82
799.519	15058.77
799.85	14964.31
800.182	14870.75
800.513	14897.42
800.844	14779
801.175	14867.14
801.506	14783.3
801.837	14666.46
802.168	14712.57
802.499	14638.22
802.83	14555.73
803.161	14557.54
803.491	14498.79
803.822	14519.8
804.153	14415.4
804.483	14309.86
804.814	14254.5
805.145	14269.64
805.475	14299.24
805.805	14179.25
806.136	14192.58
806.466	14157.78
806.796	14104.67
807.126	14008.18
807.457	14021.96
807.787	13934.51
808.117	13908.29
808.447	13903.77
808.777	13934.28
809.107	13786.71
809.436	13789.43
809.766	13774.96
810.096	13711.69
810.426	13647.96
810.755	13642.76
811.085	13653.61
811.414	13619.71
811.744	13440.96
812.073	13388.98
812.403	13390.11
812.732	13448.87
813.061	13354.41
813.39	13322.32
813.719	13200.97
814.049	13293.17
814.378	13252.94
814.707	13166.84
815.036	13129.78
815.365	13037.81
815.693	13042.1
816.022	13046.17
816.351	12935.66
816.68	12892.27
817.008	12893.4
817.337	12870.13
817.665	12841.2
817.994	12828.77
818.322	12826.51
818.651	12666.97
818.979	12713.07
819.307	12774.09
819.636	12638.27
819.964	12596.46
820.292	12699.06
820.62	12634.2
820.948	12586.07
821.276	12712.17
821.604	12618.61
821.932	12539.06
822.259	12558.5
822.587	12575.9
822.915	12499.52
823.243	12604.82
823.57	12533.87
823.898	12560.31
824.225	12499.97
824.553	12527.99
824.88	12570.02
825.207	12512.62
825.535	12487.54
825.862	12513.75
826.189	12539.74
826.516	12532.51
826.843	12575.22
827.17	12616.58
827.497	12566.41
827.824	12525.73
828.151	12555.56
828.478	12451.16
828.805	12568.44
829.131	12462
829.458	12470.59
829.785	12328.9
830.111	12485.73
830.438	12443.25
830.764	12397.82
831.09	12424.26
831.417	12390.14
831.743	12361.67
832.069	12425.17
832.395	12395.56
832.722	12347.88
833.048	12405.73
833.374	12391.95
833.7	12307.66
834.026	12339.97
834.351	12353.08
834.677	12274.89
835.003	12360.54
835.329	12208.45
835.654	12273.08
835.98	12237.15
836.306	12274.89
836.631	12248.22
836.956	12191.28
837.282	12254.78
837.607	12175.23
837.932	12158.96
838.258	12186.3
838.583	12130.03
838.908	12110.83
839.233	12081
839.558	12103.14
839.883	11965.52
840.208	11947.21
840.533	11929.14
840.858	11987.89
841.182	11913.09
841.507	11945.41
841.832	11926.65
842.156	11812.75
842.481	11820.66
842.805	11776.37
843.13	11844.62
843.454	11751.51
843.778	11709.93
844.103	11741.34
844.427	11682.14
844.751	11694.34
845.075	11595.36
845.399	11578.18
845.723	11526.43
846.047	11575.47
846.371	11451.41
846.695	11436.72
847.019	11368.92
847.343	11336.16
847.666	11275.59
847.99	11243.73
848.313	11158.76
848.637	11193.34
848.96	11096.84
849.284	11081.25
849.607	11050.06
849.931	11014.13
850.254	10886.23
850.577	10857.07
850.9	10792.89
851.223	10806.68
851.546	10783.63
851.869	10649.4
852.192	10681.26
852.515	10581.83
852.838	10590.19
853.161	10509.96
853.483	10475.84
853.806	10498.44
854.129	10434.03
854.451	10368.5
854.774	10399.91
855.096	10260.03
855.419	10281.95
855.741	10323.3
856.063	10202.63
856.385	10178.45
856.708	10101.39
857.03	10131.67
857.352	10133.7
857.674	10114.49
857.996	10017.1
858.318	9949.53
858.64	10028.85
858.961	9969.19
859.283	9919.02
859.605	9878.34
859.926	9917.44
860.248	9840.6
860.57	9872.92
860.891	9785.01
861.212	9780.94
861.534	9777.55
861.855	9719.48
862.176	9708.63
862.498	9684
862.819	9773.49
863.14	9628.18
863.461	9678.35
863.782	9594.28
864.103	9638.57
864.424	9564.45
864.745	9556.77
865.065	9496.88
865.386	9531.23
865.707	9524.9
866.027	9554.51
866.348	9524.45
866.668	9516.54
866.989	9429.09
867.309	9353.16
867.63	9398.58
867.95	9390.9
868.27	9400.39
868.59	9376.43
868.91	9288.3
869.23	9379.15
869.55	9319.94
869.87	9354.06
870.19	9265.7
870.51	9281.3
870.83	9275.87
871.15	9157.23
871.469	9237.23
871.789	9246.72
872.109	9225.7
872.428	9177.8
872.748	9208.98
873.067	9145.25
873.386	9146.84
873.706	9224.8
874.025	9111.36
874.344	9112.03
874.663	9154.97
874.982	9046.73
875.301	9061.19
875.62	9041.98
875.939	8991.81
876.258	8984.58
876.577	8998.14
876.896	8967.18
877.214	8920.85
877.533	8979.83
877.852	8989.55
878.17	8912.72
878.489	8854.19
878.807	8898.03
879.125	8857.35
879.444	8811.25
879.762	8835.66
880.08	8847.63
880.398	8753.85
880.716	8783.91
881.034	8746.39
881.352	8782.55
881.67	8705.49
881.988	8687.64
882.306	8641.76
882.624	8673.18
882.941	8667.98
883.259	8634.98
883.577	8574.65
883.894	8529.22
884.212	8568.32
884.529	8537.81
884.846	8498.49
885.164	8558.83
885.481	8456.23
885.798	8537.36
886.115	8381.43
886.432	8470.7
886.75	8340.53
887.067	8367.42
887.383	8394.31
887.7	8383.69
888.017	8331.94
888.334	8343.92
888.651	8309.12
888.967	8287.2
889.284	8243.58
889.6	8195.22
889.917	8090.37
890.233	8182.79
890.55	8104.15
890.866	8113.19
891.182	8091.27
891.498	8060.99
891.815	8037.26
892.131	8045.85
892.447	7996.36
892.763	7970.82
893.079	7966.53
893.395	7923.37
893.71	7895.57
894.026	7843.37
894.342	7935.12
894.657	7822.35
894.973	7803.37
895.289	7815.12
895.604	7785.97
895.92	7708.23
896.235	7747.1
896.55	7644.05
896.865	7722.01
897.181	7683.6
897.496	7663.26
897.811	7603.15
898.126	7544.84
898.441	7486.54
898.756	7534.22
899.071	7459.42
899.386	7499.87
899.7	7343.95
900.015	7371.74
900.33	7345.98
900.644	7357.73
900.959	7327.45
901.273	7315.02
901.588	7254
901.902	7285.87
902.216	7250.61
902.531	7242.93
902.845	7151.63
903.159	7103.27
903.473	7085.87
903.787	7082.03
904.101	7017.85
904.415	7070.28
904.729	6994.58
905.042	6990.51
905.356	6962.03
905.67	6958.19
905.984	6931.3
906.297	6929.72
906.611	6853.56
906.924	6853.11
907.237	6856.5
907.551	6836.16
907.864	6754.13
908.177	6758.88
908.491	6713.23
908.804	6699.44
909.117	6660.8
909.43	6600.69
909.743	6599.11
910.056	6590.52
910.368	6547.36
910.681	6527.24
910.994	6478.43
911.307	6471.88
911.619	6407.7
911.932	6452.44
912.244	6373.35
912.557	6343.52
912.869	6335.16
913.181	6328.15
913.494	6299.68
913.806	6233.92
914.118	6219.46
914.43	6226.91
914.742	6194.15
915.054	6111.89
915.366	6128.16
915.678	6149.85
915.99	6095.16
916.302	6059.01
916.613	6019.69
916.925	6012.23
917.236	5984.43
917.548	5987.14
917.859	5960.03
918.171	5894.94
918.482	5909.63
918.794	5880.25
919.105	5838
919.416	5792.8
919.727	5822.4
920.038	5830.31
920.349	5758
920.66	5702.86
920.971	5704.89
921.282	5690.2
921.593	5623.31
921.903	5631.45
922.214	5601.84
922.525	5556.87
922.835	5509.87
923.146	5527.95
923.456	5515.29
923.767	5489.76
924.077	5462.86
924.387	5509.42
924.697	5429.65
925.008	5356.2
925.318	5402.98
925.628	5351.91
925.938	5326.37
926.248	5288.63
926.558	5323.21
926.867	5279.37
927.177	5232.36
927.487	5213.61
927.796	5120.5
928.106	5190.78
928.416	5179.03
928.725	5164.34
929.034	5115.53
929.344	5165.47
929.653	5080.95
929.962	5018.36
930.271	5024.46
930.581	5005.7
930.89	5039.37
931.199	4899.26
931.508	4967.51
931.817	4924.12
932.125	4890.45
932.434	4926.83
932.743	4858.13
933.051	4863.11
933.36	4801.87
933.669	4788.98
933.977	4782.88
934.286	4793.28
934.594	4749.89
934.902	4661.08
935.21	4695.2
935.519	4719.83
935.827	4665.37
936.135	4660.63
936.443	4604.36
936.751	4603.23
937.059	4626.28
937.367	4573.62
937.674	4584.92
937.982	4522.78
938.29	4489.56
938.597	4497.92
938.905	4483.68
939.213	4462.21
939.52	4447.3
939.827	4410.46
940.135	4389.67
940.442	4383.12
940.749	4346.28
941.056	4358.71
941.363	4326.4
941.67	4335.44
941.977	4248.89
942.284	4252.28
942.591	4248.66
942.898	4253.63
943.205	4177.25
943.511	4166.85
943.818	4143.13
944.125	4158.94
944.431	4123.47
944.738	4143.58
945.044	4157.14
945.35	4052.05
945.657	4077.82
945.963	4050.7
946.269	4013.41
946.575	4017.48
946.881	3977.03
947.187	3974.09
947.493	3954.2
947.799	3935
948.105	3900.19
948.41	3930.25
948.716	3889.57
949.022	3866.07
949.327	3874.66
949.633	3840.53
949.938	3831.27
950.244	3780.65
950.549	3767.77
950.854	3765.96
951.16	3760.31
951.465	3753.08
951.77	3717.37
952.075	3743.59
952.38	3697.26
952.685	3683.25
952.99	3641.67
953.294	3688.22
953.599	3672.63
953.904	3606.19
954.209	3606.64
954.513	3611.16
954.818	3555.34
955.122	3594.44
955.426	3561.67
955.731	3539.07
956.035	3546.98
956.339	3521.9
956.643	3494.56
956.948	3486.87
957.252	3427.66
957.556	3497.04
957.86	3419.53
958.163	3412.98
958.467	3395.35
958.771	3408.68
959.075	3359.64
959.378	3360.1
959.682	3365.52
959.985	3380.21
960.289	3293.2
960.592	3300.89
960.896	3300.44
961.199	3298.85
961.502	3274.22
961.805	3238.29
962.108	3252.53
962.411	3261.79
962.714	3203.49
963.017	3190.83
963.32	3159.87
963.623	3141.57
963.926	3139.54
964.228	3090.72
964.531	3108.58
964.833	3115.13
965.136	3087.79
965.438	3073.78
965.741	3046.21
966.043	3089.59
966.345	3042.36
966.648	3031.52
966.95	3046.66
967.252	3016.83
967.554	2982.7
967.856	2970.95
968.158	2980.22
968.46	2989.48
968.761	2980.44
969.063	2917.62
969.365	2908.81
969.666	2883.72
969.968	2861.58
970.269	2894.8
970.571	2874.68
970.872	2869.49
971.174	2829.71
971.475	2828.81
971.776	2812.31
972.077	2813.89
972.378	2802.37
972.679	2742.03
972.98	2796.04
973.281	2754.46
973.582	2733.45
973.883	2714.24
974.183	2725.31
974.484	2706.55
974.785	2689.6
975.085	2690.06
975.386	2704.07
975.686	2654.58
975.986	2635.14
976.287	2625.43
976.587	2635.82
976.887	2617.74
977.187	2649.38
977.487	2640.11
977.787	2575.71
978.087	2594.92
978.387	2574.58
978.687	2557.18
978.987	2554.69
979.286	2552.43
979.586	2518.54
979.885	2494.81
980.185	2506.56
980.484	2520.57
980.784	2467.92
981.083	2460.23
981.382	2461.59
981.682	2448.25
981.981	2443.96
982.28	2449.38
982.579	2407.35
982.878	2402.61
983.177	2401.93
983.475	2387.47
983.774	2361.03
984.073	2361.25
984.372	2340.24
984.67	2317.41
984.969	2331.2
985.267	2349.27
985.566	2316.73
985.864	2313.12
986.162	2281.25
986.461	2293
986.759	2257.3
987.057	2282.16
987.355	2224.76
987.653	2250.97
987.951	2237.86
988.249	2235.15
988.547	2201.93
988.844	2200.58
989.142	2206.23
989.44	2180.92
989.737	2163.06
990.035	2166.68
990.332	2153.57
990.63	2129.17
990.927	2142.5
991.224	2101.37
991.521	2076.06
991.819	2083.07
992.116	2091.88
992.413	2073.12
992.71	2066.57
993.006	2056.63
993.303	2049.4
993.6	2056.4
993.897	2041.49
994.193	2025.67
994.49	2009.4
994.787	1970.08
995.083	1974.82
995.379	1992.45
995.676	1985.44
995.972	2015.95
996.268	1939.34
996.565	1947.7
996.861	1951.77
997.157	1952.9
997.453	1933.24
997.749	1912
998.044	1922.84
998.34	1901.15
998.636	1893.69
998.932	1866.8
999.227	1874.03
999.523	1869.29
999.818	1854.15
1000.114	1843.3
1000.409	1850.08
1000.704	1817.99
1001	1820.02
1001.295	1804.66
1001.59	1757.88
1001.885	1781.83
1002.18	1739.12
1002.475	1750.87
1002.77	1768.27
1003.065	1751.55
1003.359	1740.93
1003.654	1730.99
1003.949	1716.97
1004.243	1706.13
1004.538	1704.55
1004.832	1712.45
1005.127	1694.6
1005.421	1673.13
1005.715	1641.95
1006.009	1683.08
1006.304	1643.76
1006.598	1643.3
1006.892	1624.55
1007.186	1620.71
1007.48	1611.44
1007.773	1614.6
1008.067	1617.54
1008.361	1580.71
1008.655	1583.64
1008.948	1560.37
1009.242	1568.28
1009.535	1573.02
1009.829	1540.71
1010.122	1554.04
1010.415	1550.43
1010.708	1497.32
1011.001	1541.84
1011.295	1520.37
1011.588	1513.36
1011.881	1481.27
1012.173	1488.73
1012.466	1450.54
1012.759	1469.75
1013.052	1443.08
1013.344	1436.08
1013.637	1469.75
1013.93	1436.53
1014.222	1433.14
1014.514	1403.76
1014.807	1414.61
1015.099	1390.43
1015.391	1395.85
1015.683	1376.87
1015.976	1355.18
1016.268	1354.72
1016.56	1346.59
1016.851	1354.5
1017.143	1335.52
1017.435	1362.18
1017.727	1351.56
1018.018	1332.58
1018.31	1335.06
1018.602	1319.7
1018.893	1302.52
1019.185	1309.53
1019.476	1269.08
1019.767	1306.14
1020.058	1246.93
1020.35	1266.14
1020.641	1253.03
1020.932	1232.02
1021.223	1268.85
1021.514	1220.04
1021.804	1216.87
1022.095	1223.2
1022.386	1197.67
1022.677	1195.86
1022.967	1192.24
1023.258	1164.45
1023.548	1169.42
1023.839	1182.53
1024.129	1161.28
1024.419	1161.28
1024.709	1192.69
1025	1126.93
1025.29	1153.6
1025.58	1135.97
1025.87	1113.6
1026.16	1113.15
1026.449	1105.24
1026.739	1083.09
1027.029	1107.05
1027.319	1071.12
1027.608	1084.67
1027.898	1078.8
1028.187	1042.42
1028.477	1044
1028.766	1057.33
1029.055	1049.2
1029.344	1032.47
1029.634	1023.89
1029.923	1019.82
1030.212	1014.39
1030.501	1019.59
1030.79	995.64
1031.078	1020.27
1031.367	1010.55
1031.656	992.93
1031.945	973.72
1032.233	997.67
1032.522	946.15
1032.81	950.89
1033.099	979.59
1033.387	966.94
1033.675	935.75
1033.963	959.25
1034.251	937.56
1034.54	955.19
1034.828	891.23
1035.116	941.18
1035.403	913.38
1035.691	913.15
1035.979	938.24
1036.267	906.6
1036.554	875.87
1036.842	907.28
1037.129	873.38
1037.417	879.48
1037.704	868.18
1037.992	852.36
1038.279	853.72
1038.566	844.91
1038.853	844.91
1039.14	844.91
