Data from hue_200_FLMS001491_00038.txt Node
Date: Tue Feb 07 16:43:12 GMT 2017
User: dcchb
Spectrometer: FLMS00149
Trigger mode: 0
Integration Time (sec): 2.000000E-2
Scans to average: 10
Electric dark correction enabled: true
Nonlinearity correction enabled: false
Boxcar width: 0
XAxis mode: Wavelengths
Number of Pixels in Spectrum: 2048
>>>>>Begin Spectral Data<<<<<
341.393	-11.58
341.776	-11.58
342.16	-11.58
342.543	-64.69
342.927	-62.65
343.31	-47.51
343.693	-59.49
344.077	-68.08
344.46	-71.92
344.843	-35.31
345.226	-52.03
345.61	-19.94
345.993	-36.21
346.376	-20.85
346.759	-0.96
347.142	25.48
347.525	50.56
347.908	82.65
348.291	83.11
348.674	70.9
349.057	99.6
349.44	135.76
349.823	168.53
350.206	181.18
350.588	188.19
350.971	229.09
351.354	234.74
351.737	253.95
352.119	261.18
352.502	264.57
352.884	255.98
353.267	288.75
353.65	299.14
354.032	316.55
354.414	307.05
354.797	342.31
355.179	310.67
355.562	323.1
355.944	343.21
356.326	333.72
356.709	330.33
357.091	343.21
357.473	335.75
357.855	331.69
358.238	356.32
358.62	339.82
359.002	350.44
359.384	346.38
359.766	357
360.148	344.79
360.53	355.87
360.912	349.09
361.294	334.4
361.676	324.23
362.057	334.4
362.439	321.52
362.821	350.22
363.203	325.36
363.584	341.86
363.966	345.25
364.348	338.69
364.729	341.86
365.111	315.64
365.493	311.57
365.874	352.93
366.256	325.58
366.637	326.04
367.019	325.58
367.4	322.19
367.781	322.87
368.163	331.01
368.544	317.22
368.925	333.27
369.306	318.13
369.688	322.42
370.069	331.46
370.45	320.39
370.831	341.63
371.212	313.61
371.593	313.83
371.974	320.16
372.355	326.04
372.736	303.21
373.117	325.58
373.498	325.36
373.879	319.26
374.26	322.19
374.641	322.42
375.021	325.58
375.402	338.92
375.783	349.76
376.163	339.6
376.544	342.31
376.925	353.61
377.305	342.31
377.686	345.7
378.066	317.68
378.447	364.91
378.827	346.38
379.208	331.69
379.588	363.32
379.968	344.79
380.349	317.68
380.729	363.78
381.109	354.74
381.489	347.28
381.87	341.18
382.25	341.63
382.63	346.6
383.01	347.96
383.39	347.28
383.77	331.46
384.15	369.2
384.53	352.25
384.91	352.93
385.29	355.19
385.67	370.78
386.049	367.84
386.429	385.92
386.809	369.43
387.189	364.68
387.568	373.94
387.948	379.14
388.328	371.01
388.707	375.3
389.087	379.82
389.466	368.07
389.846	356.54
390.225	376.66
390.605	390.67
390.984	371.91
391.363	403.77
391.743	400.38
392.122	397.67
392.501	386.15
392.881	394.74
393.26	430.67
393.639	404.23
394.018	396.54
394.397	396.54
394.776	404.23
395.155	410.1
395.534	392.02
395.913	410.33
396.292	416.66
396.671	397.45
397.05	393.83
397.429	421.63
397.808	414.85
398.186	417.11
398.565	420.05
398.944	445.81
399.323	444.45
399.701	436.77
400.08	444.23
400.458	444.9
400.837	453.94
401.215	457.33
401.594	459.37
401.972	457.56
402.351	473.38
402.729	457.33
403.107	472.02
403.486	489.65
403.864	473.83
404.242	461.4
404.62	471.34
404.999	486.48
405.377	483.09
405.755	491.46
406.133	506.14
406.511	501.63
406.889	513.83
407.267	520.61
407.645	517.9
408.023	512.7
408.401	531.45
408.779	521.74
409.156	544.34
409.534	575.07
409.912	571.45
410.29	573.26
410.667	584.33
411.045	561.74
411.422	613.49
411.8	621.62
412.178	617.78
412.555	620.04
412.933	655.75
413.31	656.42
413.687	651.45
414.065	676.54
414.442	695.52
414.819	689.42
415.197	704.56
415.574	708.4
415.951	718.34
416.328	724.9
416.705	734.61
417.082	714.5
417.46	742.75
417.837	795.85
418.214	774.39
418.591	807.38
418.967	802.18
419.344	797.66
419.721	833.59
420.098	856.42
420.475	840.37
420.852	869.53
421.228	863.65
421.605	877.21
421.982	886.7
422.358	917.21
422.735	950.88
423.111	946.59
423.488	975.06
423.864	1004.66
424.241	1032.91
424.617	1006.24
424.994	1060.03
425.37	1033.14
425.746	1068.84
426.123	1120.82
426.499	1097.77
426.875	1120.14
427.251	1122.85
427.627	1159.24
428.003	1166.24
428.379	1205.56
428.756	1206.69
429.132	1213.47
429.507	1225.9
429.883	1234.26
430.259	1265.67
430.635	1277.65
431.011	1249.4
431.387	1297.99
431.763	1325.78
432.138	1363.3
432.514	1374.6
432.89	1385.9
433.265	1454.37
433.641	1443.07
434.016	1479.23
434.392	1500.92
434.767	1545.44
435.143	1559.22
435.518	1570.98
435.894	1587.92
436.269	1630.86
436.644	1665.66
437.02	1699.11
437.395	1715.15
437.77	1780.46
438.145	1755.15
438.52	1803.29
438.895	1851.65
439.271	1853.91
439.646	1883.74
440.021	1945.2
440.395	1940.91
440.77	1971.42
441.145	2005.09
441.52	2014.35
441.895	2047.35
442.27	2084.86
442.645	2081.92
443.019	2129.15
443.394	2137.06
443.769	2148.36
444.143	2134.8
444.518	2193.33
444.892	2219.55
445.267	2255.48
445.641	2234.46
446.016	2252.77
446.39	2292.54
446.764	2313.78
447.139	2292.76
447.513	2356.04
447.887	2369.37
448.262	2354.46
448.636	2403.95
449.01	2401.01
449.384	2489.82
449.758	2502.48
450.132	2509.93
450.506	2506.09
450.88	2551.29
451.254	2534.79
451.628	2567.56
452.002	2599.42
452.376	2619.54
452.75	2670.16
453.123	2676.48
453.497	2765.29
453.871	2746.31
454.244	2821.11
454.618	2802.81
454.992	2841.45
455.365	2857.72
455.739	2926.42
456.112	2952.86
456.486	2941.79
456.859	3021.56
457.232	3073.99
457.606	3062.01
457.979	3084.38
458.352	3169.35
458.725	3185.62
459.099	3185.17
459.472	3277.82
459.845	3320.76
460.218	3311.49
460.591	3380.65
460.964	3396.24
461.337	3459.74
461.71	3498.16
462.083	3584.03
462.456	3572.05
462.829	3624.48
463.201	3674.88
463.574	3694.08
463.947	3749
464.32	3800.52
464.692	3811.14
465.065	3834.87
465.438	3903.34
465.81	3979.27
466.183	4003.23
466.555	4090.01
466.928	4103.79
467.3	4095.88
467.672	4210.68
468.045	4278.93
468.417	4305.82
468.789	4332.94
469.161	4413.16
469.534	4429.43
469.906	4495.87
470.278	4583.78
470.65	4670.56
471.022	4733.38
471.394	4783.77
471.766	4831.68
472.138	4873.04
472.51	4973.6
472.882	5065.8
473.253	5091.11
473.625	5210.65
473.997	5289.07
474.369	5319.58
474.74	5351.89
475.112	5432.12
475.484	5561.15
475.855	5593.24
476.227	5643.64
476.598	5790.53
476.97	5870.98
477.341	5993.23
477.713	6057.19
478.084	6069.84
478.455	6237.97
478.827	6245.65
479.198	6469.38
479.569	6523.16
479.94	6674.12
480.311	6656.27
480.682	6837.05
481.053	6940.1
481.424	7043.37
481.795	7106.65
482.166	7205.86
482.537	7336.7
482.908	7479.07
483.279	7507.09
483.65	7627.31
484.021	7845.39
484.391	7900.98
484.762	7982.11
485.133	7956.8
485.503	8099.17
485.874	8269.33
486.244	8310.46
486.615	8466.61
486.985	8602.88
487.356	8763.78
487.726	8752.48
488.097	8902.53
488.467	8932.14
488.837	9148.63
489.207	9259.36
489.578	9333.03
489.948	9374.16
490.318	9472.01
490.688	9545.68
491.058	9703.87
491.428	9805.34
491.798	9879.68
492.168	10059.34
492.538	10054.82
492.908	10180.69
493.278	10195.38
493.648	10240.13
494.017	10376.17
494.387	10410.52
494.757	10484.87
495.126	10575.26
495.496	10652.54
495.866	10702.94
496.235	10835.14
496.605	10888.7
496.974	10901.8
497.344	10984.51
497.713	11040.33
498.082	11127.11
498.452	11178.86
498.821	11199.2
499.19	11182.02
499.559	11278.29
499.928	11347.67
500.298	11368.23
500.667	11491.39
501.036	11519.87
501.405	11509.92
501.774	11502.24
502.143	11681.9
502.512	11740.43
502.88	11741.56
503.249	11691.39
503.618	11838.28
503.987	11783.59
504.356	11817.71
504.724	11897.94
505.093	11930.7
505.462	11942.68
505.83	12064.26
506.199	12041.66
506.567	12127.31
506.936	12055.67
507.304	12208.89
507.672	12228.1
508.041	12223.35
508.409	12303.57
508.777	12395.1
509.145	12460.86
509.514	12380.18
509.882	12518.71
510.25	12414.98
510.618	12525.49
510.986	12545.6
511.354	12636.22
511.722	12644.58
512.09	12719.84
512.458	12663.11
512.826	12751.02
513.193	12723.68
513.561	12737.24
513.929	12798.03
514.297	12890.9
514.664	12836.67
515.032	12854.52
515.4	13041.63
515.767	12954.86
516.135	12927.74
516.502	12800.06
516.869	13121.41
517.237	12982.65
517.604	12955.99
517.972	13090.67
518.339	13061.75
518.706	13082.09
519.073	13090.22
519.44	13142.65
519.808	13109.2
520.175	13148.98
520.542	13263.78
520.909	13228.07
521.276	13236.66
521.643	13206.15
522.009	13325.02
522.376	13310.55
522.743	13293.38
523.11	13304.23
523.477	13399.82
523.843	13451.79
524.21	13581.73
524.577	13473.04
524.943	13557.55
525.31	13577.44
525.676	13588.96
526.043	13525.24
526.409	13654.5
526.776	13615.18
527.142	13592.13
527.508	13679.81
527.874	13651.79
528.241	13678.91
528.607	13610.66
528.973	13663.99
529.339	13610.21
529.705	13659.25
530.071	13662.86
530.437	13689.53
530.803	13631.45
531.169	13696.98
531.535	13668.74
531.901	13597.78
532.267	13561.39
532.632	13553.26
532.998	13543.77
533.364	13548.51
533.73	13574.28
534.095	13585.57
534.461	13469.42
534.826	13466.93
535.192	13442.53
535.557	13523.88
535.923	13463.32
536.288	13429.42
536.653	13393.26
537.019	13270.33
537.384	13382.42
537.749	13314.4
538.114	13306.71
538.479	13194.17
538.845	13248.41
539.21	13130.45
539.575	13077.79
539.94	13106.49
540.305	13038.02
540.67	12967.29
541.034	13033.73
541.399	12978.59
541.764	12940.62
542.129	12879.15
542.494	12870.79
542.858	12835.76
543.223	12737.24
543.587	12786.5
543.952	12747.4
544.316	12661.53
544.681	12540.4
545.045	12609.1
545.41	12677.35
545.774	12550.57
546.138	12504.47
546.503	12392.39
546.867	12429.22
547.231	12370.47
547.595	12341.77
547.959	12242.11
548.324	12260.86
548.688	12153.75
549.052	12130.92
549.416	12110.81
549.779	12075.33
550.143	12057.25
550.507	12000.53
550.871	11938.84
551.235	11982.68
551.599	11864.04
551.962	11864.94
552.326	11772.29
552.689	11856.81
553.053	11771.61
553.417	11695.68
553.78	11857.71
554.143	11724.83
554.507	11728
554.87	11701.78
555.234	11708.11
555.597	11600.32
555.96	11599.41
556.323	11632.18
556.686	11551.05
557.05	11592.63
557.413	11554.67
557.776	11459.08
558.139	11532.97
558.502	11457.95
558.865	11495.01
559.228	11445.29
559.59	11426.76
559.953	11357.84
560.316	11535.01
560.679	11443.03
561.041	11425.63
561.404	11473.09
561.767	11429.02
562.129	11393.99
562.492	11436.48
562.854	11439.42
563.217	11399.64
563.579	11332.07
563.941	11393.99
564.304	11394.22
564.666	11436.25
565.028	11387.89
565.39	11412.52
565.753	11433.77
566.115	11513.54
566.477	11454.33
566.839	11516.48
567.201	11393.77
567.563	11498.62
567.925	11558.51
568.287	11483.03
568.648	11472.86
569.01	11479.19
569.372	11571.39
569.734	11483.26
570.095	11628.79
570.457	11552.86
570.819	11583.59
571.18	11467.21
571.542	11529.36
571.903	11602.35
572.265	11608.45
572.626	11615.91
572.987	11643.93
573.349	11530.94
573.71	11656.13
574.071	11596.25
574.432	11585.18
574.794	11699.75
575.155	11686.64
575.516	11698.39
575.877	11715.12
576.238	11717.15
576.599	11700.2
576.96	11695.46
577.32	11671.5
577.681	11732.29
578.042	11728.22
578.403	11680.77
578.763	11633.76
579.124	11666.53
579.485	11755.34
579.845	11789.01
580.206	11722.57
580.566	11743.36
580.927	11645.51
581.287	11793.98
581.648	11700.2
582.008	11760.09
582.368	11757.15
582.728	11764.61
583.089	11702.91
583.449	11726.64
583.809	11762.57
584.169	11711.27
584.529	11754.44
584.889	11716.7
585.249	11677.15
585.609	11627.43
585.969	11793.53
586.329	11590.6
586.688	11718.73
587.048	11620.88
587.408	11560.09
587.768	11644.84
588.127	11643.71
588.487	11572.52
588.846	11672.86
589.206	11544.72
589.565	11530.94
589.925	11656.13
590.284	11608.23
590.643	11602.35
591.003	11573.42
591.362	11652.07
591.721	11620.43
592.08	11595.57
592.44	11666.98
592.799	11603.71
593.158	11601.45
593.517	11541.56
593.876	11563.71
594.235	11525.52
594.593	11503.6
594.952	11488.68
595.311	11494.78
595.67	11531.39
596.029	11578.4
596.387	11583.82
596.746	11587.21
597.104	11523.93
597.463	11485.07
597.822	11522.13
598.18	11600.54
598.538	11501.34
598.897	11608
599.255	11447.1
599.613	11608
599.972	11480.09
600.33	11612.07
600.688	11528.45
601.046	11515.35
601.404	11548.57
601.762	11574.78
602.12	11577.27
602.478	11538.85
602.836	11529.36
603.194	11539.3
603.552	11501.56
603.91	11461.34
604.268	11515.35
604.625	11505.18
604.983	11436.48
605.341	11503.82
605.698	11447.55
606.056	11507.44
606.413	11469.25
606.771	11589.47
607.128	11567.1
607.485	11485.07
607.843	11526.65
608.2	11562.8
608.557	11558.74
608.914	11520.77
609.272	11630.82
609.629	11603.25
609.986	11642.8
610.343	11577.49
610.7	11638.96
611.057	11639.19
611.414	11643.48
611.771	11654.33
612.127	11725.51
612.484	11651.39
612.841	11595.34
613.198	11631.28
613.554	11657.04
613.911	11654.1
614.267	11743.82
614.624	11658.17
614.98	11698.39
615.337	11715.57
615.693	11722.8
616.05	11668.79
616.406	11793.31
616.762	11717.38
617.118	11730.26
617.475	11720.31
617.831	11764.83
618.187	11775.23
618.543	11795.11
618.899	11858.39
619.255	11806.41
619.611	11838.95
619.967	11863.36
620.323	11869.91
620.678	11789.46
621.034	11763.25
621.39	11746.98
621.746	11742.69
622.101	11940.65
622.457	11812.06
622.812	11763.93
623.168	11835.56
623.523	11789.69
623.879	11775
624.234	11719.18
624.589	11781.1
624.945	11772.06
625.3	11800.76
625.655	11775.23
626.01	11760.09
626.365	11827.88
626.72	11770.71
627.075	11699.75
627.43	11765.74
627.785	11663.14
628.14	11730.26
628.495	11709.92
628.85	11781.78
629.205	11721.44
629.559	11718.51
629.914	11682.35
630.269	11706.98
630.623	11677.15
630.978	11685.06
631.332	11710.37
631.687	11638.51
632.041	11682.8
632.396	11617.49
632.75	11593.31
633.104	11646.19
633.459	11604.84
633.813	11535.46
634.167	11564.61
634.521	11519.87
634.875	11515.12
635.229	11568.9
635.583	11440.32
635.937	11442.35
636.291	11422.92
636.645	11452.3
636.999	11424.73
637.352	11503.14
637.706	11384.28
638.06	11461.11
638.413	11380.89
638.767	11382.02
639.121	11365.97
639.474	11311.28
639.828	11340.44
640.181	11295.47
640.534	11326.43
640.888	11281.23
641.241	11237.39
641.594	11328.69
641.947	11266.54
642.301	11301.12
642.654	11207.11
643.007	11220.89
643.36	11275.81
643.713	11183.15
644.066	11211.63
644.419	11203.72
644.771	11101.8
645.124	11078.07
645.477	11001.69
645.83	10854.8
646.182	10926.66
646.535	10943.16
646.888	10906.32
647.24	10749.72
647.593	10862.26
647.945	10803.05
648.298	10741.36
648.65	10807.12
649.002	10789.26
649.355	10811.64
649.707	10814.12
650.059	10863.61
650.411	10951.75
650.763	11046.66
651.115	11117.17
651.467	11028.58
651.819	11048.69
652.171	11012.08
652.523	10987.9
652.875	10992.2
653.227	10996.94
653.578	10994
653.93	11087.79
654.282	11022.48
654.633	11016.38
654.985	11056.83
655.337	11038.98
655.688	11018.41
656.039	11040.56
656.391	10963.5
656.742	11007.56
657.094	10979.54
657.445	11104.28
657.796	11055.92
658.147	10988.81
658.498	10934.35
658.849	11005.08
659.2	10986.55
659.551	10981.8
659.902	11050.95
660.253	11015.02
660.604	11042.14
660.955	10931.18
661.306	11098.41
661.656	11030.61
662.007	11078.97
662.358	11058.18
662.708	11147.22
663.059	11107.9
663.409	11004.85
663.76	11081.01
664.11	11125.3
664.461	11077.84
664.811	11048.92
665.161	11111.06
665.511	11028.58
665.862	11069.48
666.212	11088.24
666.562	11033.78
666.912	11050.73
667.262	11090.5
667.612	11046.88
667.962	11083.27
668.312	11059.09
668.662	11077.84
669.011	11061.35
669.361	11055.47
669.711	11066.09
670.06	11034.46
670.41	10958.98
670.76	11008.69
671.109	10966.66
671.459	10984.51
671.808	10950.16
672.157	10956.49
672.507	10935.93
672.856	10960.11
673.205	11022.25
673.554	10987.23
673.904	10904.52
674.253	11027.9
674.602	10900.9
674.951	10780.45
675.3	10808.92
675.649	10912.42
675.998	10950.16
676.346	10890.96
676.695	10832.2
677.044	10898.87
677.393	10828.81
677.741	10896.38
678.09	10794.24
678.438	10781.35
678.787	10855.93
679.135	10780.23
679.484	10743.16
679.832	10789.26
680.181	10720.11
680.529	10746.55
680.877	10695.71
681.225	10633.79
681.573	10733.9
681.922	10645.09
682.27	10576.16
682.618	10610.29
682.966	10563.28
683.314	10607.12
683.661	10543.85
684.009	10510.4
684.357	10462.04
684.705	10489.16
685.053	10547.91
685.4	10430.63
685.748	10359.45
686.095	10355.6
686.443	10340.91
686.79	10341.59
687.138	10289.39
687.485	10360.35
687.832	10270.18
688.18	10237.87
688.527	10189.28
688.874	10185.66
689.221	10195.16
689.568	10123.75
689.915	10124.88
690.262	10001.04
690.609	10019.79
690.956	10008.27
691.303	10039.68
691.65	9978.66
691.997	10007.59
692.344	9876.07
692.69	9845.79
693.037	9817.99
693.383	9802.85
693.73	9762.4
694.077	9694.6
694.423	9728.05
694.769	9651.67
695.116	9624.32
695.462	9619.35
695.808	9571.9
696.155	9520.15
696.501	9448.96
696.847	9516.08
697.193	9395.63
697.539	9429.3
697.885	9285.12
698.231	9263.2
698.577	9311.56
698.923	9361.05
699.269	9166.03
699.614	9191.57
699.96	9142.53
700.306	9144.79
700.651	9093.04
700.997	9048.97
701.342	9078.12
701.688	9020.05
702.033	9010.78
702.379	8966.26
702.724	8895.08
703.069	8980.95
703.415	8834.97
703.76	8856.66
704.105	8843.78
704.45	8815.08
704.795	8772.14
705.14	8781.63
705.485	8740.28
705.83	8680.17
706.175	8661.41
706.52	8644.01
706.865	8586.61
707.209	8609.89
707.554	8588.19
707.899	8571.24
708.243	8510.23
708.588	8439.27
708.932	8482.43
709.277	8407.41
709.621	8427.74
709.966	8346.39
710.31	8366.28
710.654	8268.43
710.998	8285.38
711.342	8256.68
711.687	8271.82
712.031	8258.48
712.375	8231.82
712.719	8228.88
713.063	8189.11
713.407	8214.42
713.75	8153.18
714.094	8218.26
714.438	8145.94
714.782	8078.6
715.125	8111.82
715.469	8053.29
715.812	8038.15
716.156	8004.25
716.499	8038.15
716.843	8034.53
717.186	7985.27
717.53	7984.14
717.873	7967.87
718.216	7910.7
718.559	8003.12
718.902	7917.93
719.246	7898.49
719.589	7861.88
719.932	7906.4
720.275	7867.08
720.617	7827.08
720.96	7856.46
721.303	7826.63
721.646	7813.98
721.989	7776.01
722.331	7896.01
722.674	7797.25
723.016	7811.04
723.359	7770.13
723.701	7761.77
724.044	7756.12
724.386	7727.88
724.729	7808.33
725.071	7724.49
725.413	7729.46
725.755	7777.59
726.097	7744.6
726.439	7658.5
726.782	7741.89
727.124	7724.94
727.465	7710.93
727.807	7688.33
728.149	7692.62
728.491	7690.59
728.833	7654.43
729.175	7603.13
729.516	7676.35
729.858	7670.7
730.199	7658.73
730.541	7660.76
730.882	7677.48
731.224	7702.34
731.565	7653.98
731.906	7626.41
732.248	7641.1
732.589	7629.35
732.93	7658.05
733.271	7637.48
733.612	7641.32
733.953	7595
734.294	7658.27
734.635	7588.44
734.976	7621.21
735.317	7638.61
735.658	7631.83
735.999	7670.02
736.339	7643.81
736.68	7677.71
737.021	7609.69
737.361	7601.78
737.702	7690.36
738.042	7600.65
738.383	7651.49
738.723	7694.2
739.063	7665.5
739.404	7680.87
739.744	7674.77
740.084	7647.65
740.424	7715.67
740.764	7719.74
741.104	7681.1
741.444	7700.98
741.784	7684.49
742.124	7826.4
742.464	7717.93
742.804	7765.16
743.143	7807.87
743.483	7799.29
743.823	7854.2
744.162	7835.67
744.502	7885.39
744.841	7854.43
745.181	7954.76
745.52	7998.6
745.86	8027.53
746.199	8054.42
746.538	8068.88
746.877	8131.03
747.216	8197.02
747.556	8152.95
747.895	8263.46
748.234	8268.2
748.573	8324.02
748.911	8398.82
749.25	8509.32
749.589	8485.14
749.928	8564.69
750.267	8641.98
750.605	8711.35
750.944	8739.83
751.283	8833.84
751.621	8988.18
751.96	9042.42
752.298	9102.53
752.636	9207.39
752.975	9309.53
753.313	9387.49
753.651	9540.48
753.989	9577.54
754.327	9720.59
754.666	9813.02
755.004	9959.23
755.342	10089.85
755.679	10169.62
756.017	10275.83
756.355	10543.4
756.693	10617.07
757.031	10788.36
757.368	10881.69
757.706	11101.12
758.044	11202.36
758.381	11394.45
758.719	11542.69
759.056	11690.48
759.394	11876.24
759.731	11986.52
760.068	12116.91
760.405	12347.42
760.743	12472.84
761.08	12717.58
761.417	12859.04
761.754	13104.91
762.091	13286.6
762.428	13424.22
762.765	13513.49
763.102	13740.37
763.438	13925.45
763.775	14184.43
764.112	14271.88
764.449	14554.36
764.785	14718.2
765.122	14858.54
765.458	14935.37
765.795	15227.57
766.131	15326.77
766.467	15550.04
766.804	15588.46
767.14	15815.8
767.476	15917.27
767.812	16168.56
768.148	16291.72
768.485	16457.14
768.821	16564.25
769.157	16747.53
769.492	16870.23
769.828	16972.6
770.164	16966.96
770.5	17202.88
770.836	17430.22
771.171	17430.9
771.507	17569.43
771.842	17570.1
772.178	17754.28
772.513	17858.23
772.849	17969.41
773.184	17990.2
773.519	18163.31
773.855	18313.81
774.19	18367.82
774.525	18443.98
774.86	18499.8
775.195	18664.76
775.53	18668.15
775.865	18698.66
776.2	18751.54
776.535	18738.43
776.87	18805.55
777.205	18874.93
777.539	18968.94
777.874	19076.28
778.209	18902.95
778.543	19109.95
778.878	18986.79
779.212	19129.84
779.547	19053
779.881	19273.34
780.215	19133.9
780.55	19295.48
780.884	19243.96
781.218	19285.09
781.552	19328.25
781.886	19330.28
782.22	19369.38
782.554	19376.84
782.888	19284.63
783.222	19229.95
783.556	19282.37
783.889	19233.79
784.223	19152.89
784.557	19172.09
784.89	19295.93
785.224	19180.23
785.557	19231.3
785.891	19163.96
786.224	19222.71
786.558	19147.24
786.891	19173
787.224	19056.84
787.557	19065.88
787.891	19136.16
788.224	19133.23
788.557	19130.29
788.89	19128.93
789.223	19159.44
789.556	18970.74
789.888	19000.57
790.221	18995.38
790.554	18797.19
790.887	18887.36
791.219	18821.14
791.552	18857.75
791.884	18759.45
792.217	18765.55
792.549	18789.05
792.882	18649.62
793.214	18639.23
793.546	18721.94
793.879	18577.76
794.211	18483.75
794.543	18694.82
794.875	18452.57
795.207	18558.55
795.539	18513.58
795.871	18529.63
796.203	18325.11
796.535	18176.87
796.867	18272.23
797.198	18250.09
797.53	18227.49
797.862	18138
798.193	18260.71
798.525	18049.19
798.856	18161.95
799.188	17973.48
799.519	17981.17
799.85	17849.64
800.182	17890.32
800.513	17905.91
800.844	17744.11
801.175	17856.88
801.506	17812.58
801.837	17773.71
802.168	17737.1
802.499	17670.44
802.83	17588.86
803.161	17529.88
803.491	17557
803.822	17588.41
804.153	17427.28
804.483	17362.88
804.814	17412.14
805.145	17330.34
805.475	17326.04
805.805	17307.06
806.136	17316.32
806.466	17247.4
806.796	17139.83
807.126	17027.52
807.457	17106.61
807.787	17112.71
808.117	17020.96
808.447	16967.86
808.777	17025.48
809.107	16905.71
809.436	16826.39
809.766	16838.82
810.096	16720.63
810.426	16779.62
810.755	16816.9
811.085	16762.67
811.414	16738.71
811.744	16517.48
812.073	16608.55
812.403	16528.77
812.732	16443.35
813.061	16500.75
813.39	16439.51
813.719	16305.73
814.049	16390.7
814.378	16289.46
814.707	16291.04
815.036	16319.29
815.365	16182.57
815.693	16124.49
816.022	16197.71
816.351	16131.27
816.68	15999.75
817.008	16021.9
817.337	15990.03
817.665	15947.55
817.994	15979.18
818.322	15928.79
818.651	15864.39
818.979	15821.9
819.307	15914.33
819.636	15845.4
819.964	15720.43
820.292	15783.03
820.62	15862.58
820.948	15768.12
821.276	15802.47
821.604	15808.12
821.932	15761.34
822.259	15790.94
822.587	15766.76
822.915	15743.71
823.243	15749.36
823.57	15622.58
823.898	15787.78
824.225	15671.17
824.553	15676.37
824.88	15734.22
825.207	15666.88
825.535	15724.73
825.862	15875.46
826.189	15667.55
826.516	15726.31
826.843	15764.73
827.17	15829.58
827.497	15858.06
827.824	15760.66
828.151	15835.01
828.478	15739.87
828.805	15918.62
829.131	15719.98
829.458	15680.44
829.785	15654.67
830.111	15708.23
830.438	15793.2
830.764	15803.14
831.09	15772.18
831.417	15715.91
831.743	15790.49
832.069	15766.31
832.395	15748.23
832.722	15801.34
833.048	15739.19
833.374	15666.42
833.7	15561.57
834.026	15689.7
834.351	15778.51
834.677	15693.09
835.003	15710.94
835.329	15635.01
835.654	15578.29
835.98	15539.87
836.306	15579.19
836.631	15632.07
836.956	15603.38
837.282	15549.14
837.607	15464.4
837.932	15472.98
838.258	15482.47
838.583	15506.2
838.908	15353.89
839.233	15365.64
839.558	15288.13
839.883	15315.02
840.208	15249.49
840.533	15350.27
840.858	15235.25
841.182	15261.46
841.507	15294.68
841.832	15185.76
842.156	15159.09
842.481	15082.03
842.805	15113.44
843.13	14965.43
843.454	14985.31
843.778	15046.1
844.103	14838.42
844.427	14936.5
844.751	14907.8
845.075	14825.32
845.399	14823.06
845.723	14750.29
846.047	14752.1
846.371	14620.12
846.695	14692.44
847.019	14595.49
847.343	14451.77
847.666	14456.51
847.99	14333.13
848.313	14351.2
848.637	14206.35
848.96	14262.17
849.284	14158.22
849.607	14067.82
849.931	14035.05
850.254	13983.3
850.577	13896.75
850.9	13821.28
851.223	13803.65
851.546	13745.8
851.869	13698.79
852.192	13706.93
852.515	13540.15
852.838	13440.04
853.161	13532.92
853.483	13522.98
853.806	13423.09
854.129	13351.91
854.451	13303.55
854.774	13282.08
855.096	13243.89
855.419	13175.19
855.741	13145.81
856.063	13089.99
856.385	13066.04
856.708	12977.23
857.03	13021.07
857.352	12993.73
857.674	12864.69
857.996	12837.35
858.318	12798.7
858.64	12815.65
858.961	12762.77
859.283	12668.76
859.605	12741.98
859.926	12711.02
860.248	12637.13
860.57	12606.84
860.891	12567.3
861.212	12571.82
861.534	12430.35
861.855	12451.37
862.176	12520.52
862.498	12469.9
862.819	12424.93
863.14	12319.17
863.461	12348.09
863.782	12327.53
864.103	12370.69
864.424	12299.51
864.745	12318.04
865.065	12336.34
865.386	12215.67
865.707	12177.7
866.027	12182.45
866.348	12122.11
866.668	12123.69
866.989	12134.31
867.309	12030.59
867.63	12063.13
867.95	12056.35
868.27	11979.29
868.59	11948.56
868.91	11921.89
869.23	11950.82
869.55	11866.3
869.87	11931.83
870.19	11879.86
870.51	11930.48
870.83	11909.69
871.15	11775.68
871.469	11853.64
871.789	11829.46
872.109	11840.31
872.428	11685.96
872.748	11758.28
873.067	11718.51
873.386	11863.36
873.706	11666.08
874.025	11609.13
874.344	11684.61
874.663	11618.85
874.982	11660.65
875.301	11638.51
875.62	11585.18
875.939	11543.14
876.258	11519.41
876.577	11530.71
876.896	11515.35
877.214	11517.61
877.533	11514.44
877.852	11437.61
878.17	11481.22
878.489	11457.04
878.807	11425.63
879.125	11353.09
879.444	11336.37
879.762	11290.49
880.08	11276.48
880.398	11327.56
880.716	11285.75
881.034	11206.65
881.352	11252.53
881.67	11220.44
881.988	11217.5
882.306	11136.6
882.624	11168.01
882.941	11056.6
883.259	11022.93
883.577	11027.45
883.894	10982.71
884.212	10968.92
884.529	11043.49
884.846	10969.82
885.164	10904.52
885.481	10835.14
885.798	10862.03
886.115	10817.74
886.432	10795.37
886.75	10771.41
887.067	10750.85
887.383	10728.25
887.7	10711.07
888.017	10700.23
888.334	10691.87
888.651	10643.73
888.967	10647.57
889.284	10625.65
889.6	10542.27
889.917	10471.31
890.233	10542.49
890.55	10446.45
890.866	10493.68
891.182	10377.98
891.498	10397.86
891.815	10390.63
892.131	10269.96
892.447	10261.59
892.763	10232.89
893.079	10215.04
893.395	10205.55
893.71	10142.95
894.026	10189.73
894.342	10177.75
894.657	10010.53
894.973	10034.71
895.289	10044.88
895.604	9964.2
895.92	9950.42
896.235	9821.15
896.55	9828.39
896.865	9827.71
897.181	9837.65
897.496	9780.25
897.811	9752
898.126	9734.6
898.441	9641.27
898.756	9616.19
899.071	9589.07
899.386	9586.13
899.7	9512.69
900.015	9459.58
900.33	9417.32
900.644	9431.79
900.959	9417.32
901.273	9300.49
901.588	9359.92
901.902	9263.2
902.216	9251.9
902.531	9140.04
902.845	9163.09
903.159	9078.35
903.473	9160.38
903.787	9079.03
904.101	8967.39
904.415	9002.64
904.729	8933.04
905.042	8900.73
905.356	8900.05
905.67	8853.5
905.984	8822.99
906.297	8808.07
906.611	8705.03
906.924	8663.67
907.237	8685.36
907.551	8656.21
907.864	8599.04
908.177	8641.52
908.491	8561.3
908.804	8433.39
909.117	8460.74
909.43	8376.67
909.743	8345.94
910.056	8342.55
910.368	8319.05
910.681	8383.68
910.994	8322.44
911.307	8262.1
911.619	8143.23
911.932	8187.75
912.244	8178.94
912.557	8150.92
912.869	8084.48
913.181	8053.52
913.494	8025.95
913.806	7974.42
914.118	7971.26
914.43	7922.67
914.742	7904.14
915.054	7833.18
915.366	7826.86
915.678	7771.49
915.99	7717.48
916.302	7701.89
916.613	7624.15
916.925	7627.77
917.236	7631.38
917.548	7519.75
917.859	7597.03
918.171	7573.76
918.482	7456.7
918.794	7454.44
919.105	7438.62
919.416	7371.73
919.727	7404.04
920.038	7398.17
920.349	7348.45
920.66	7234.1
920.971	7297.15
921.282	7208.34
921.593	7235.01
921.903	7113.43
922.214	7152.52
922.525	7108.01
922.835	7058.51
923.146	7038.85
923.456	7029.14
923.767	6987.78
924.077	7028.69
924.387	6903.94
924.697	6888.58
925.008	6877.95
925.318	6881.12
925.628	6875.24
925.938	6831.63
926.248	6778.75
926.558	6730.16
926.867	6748.24
927.177	6705.3
927.487	6695.59
927.796	6606.78
928.106	6541.01
928.416	6572.65
928.725	6522.71
929.034	6473.9
929.344	6499.43
929.653	6450.85
929.962	6436.38
930.271	6442.26
930.581	6421.92
930.89	6364.97
931.199	6238.65
931.508	6325.2
931.817	6350.06
932.125	6284.07
932.434	6294.47
932.743	6166.11
933.051	6124.98
933.36	6166.34
933.669	6137.64
933.977	6145.77
934.286	6116.39
934.594	6086.79
934.902	6032.33
935.21	6049.73
935.519	5984.64
935.827	5967.7
936.135	5927.7
936.443	5892.9
936.751	5848.6
937.059	5868.72
937.367	5831.43
937.674	5828.26
937.982	5751.66
938.29	5781.26
938.597	5785.33
938.905	5682.51
939.213	5651.09
939.52	5651.09
939.827	5669.62
940.135	5569.51
940.442	5598.21
940.749	5565.67
941.056	5536.97
941.363	5480.48
941.67	5469.86
941.977	5499.01
942.284	5454.49
942.591	5422.85
942.898	5388.95
943.205	5412.91
943.511	5398.67
943.818	5354.38
944.125	5325.23
944.431	5271.44
944.738	5273.25
945.044	5229.86
945.35	5217.21
945.657	5200.94
945.963	5159.81
946.269	5155.29
946.575	5124.78
946.881	5074.61
947.187	5062.64
947.493	5103.76
947.799	5034.16
948.105	5034.39
948.41	4986.25
948.716	4976.76
949.022	4984.22
949.327	4969.08
949.633	4917.78
949.938	4852.47
950.244	4849.99
950.549	4794.85
950.854	4806.82
951.16	4812.92
951.465	4768.63
951.77	4750.78
952.075	4722.76
952.38	4655.87
952.685	4724.11
952.99	4684.79
953.294	4676.43
953.599	4632.59
953.904	4651.8
954.209	4569.31
954.513	4610.9
954.818	4545.81
955.122	4534.29
955.426	4513.05
955.731	4482.31
956.035	4492.25
956.339	4479.83
956.643	4424.69
956.948	4414.29
957.252	4388.3
957.556	4420.84
957.86	4365.25
958.163	4332.26
958.467	4311.02
958.771	4287.74
959.075	4294.07
959.378	4309.21
959.682	4271.7
959.985	4266.5
960.289	4199.16
960.592	4197.57
960.896	4141.98
961.199	4169.55
961.502	4174.3
961.805	4143.56
962.108	4096.56
962.411	4092.49
962.714	4077.35
963.017	4064.92
963.32	4058.14
963.623	4005.26
963.926	4022.44
964.228	3975.88
964.531	4013.4
964.833	3959.39
965.136	3873.97
965.438	3925.26
965.741	3916.22
966.043	3907.86
966.345	3850.24
966.648	3816.11
966.95	3853.4
967.252	3814.31
967.554	3767.53
967.856	3810.92
968.158	3741.77
968.46	3742.67
968.761	3761.2
969.063	3740.18
969.365	3724.14
969.666	3680.98
969.968	3675.1
970.269	3646.85
970.571	3631.26
970.872	3655.21
971.174	3582.9
971.475	3574.99
971.776	3584.48
972.077	3553.97
972.378	3565.5
972.679	3534.99
972.98	3511.94
973.281	3494.99
973.582	3494.99
973.883	3471.49
974.183	3426.29
974.484	3422.45
974.785	3404.15
975.085	3436.46
975.386	3419.74
975.686	3395.11
975.986	3389.01
976.287	3385.17
976.587	3369.57
976.887	3321.66
977.187	3315.79
977.487	3292.74
977.787	3273.08
978.087	3255.45
978.387	3228.33
978.687	3248.9
978.987	3220.88
979.286	3170.93
979.586	3196.92
979.885	3211.84
980.185	3143.36
980.484	3152.85
980.784	3133.65
981.083	3113.08
981.382	3102.01
981.682	3101.78
981.981	3079.41
982.28	3053.65
982.579	3054.1
982.878	3037.6
983.177	3019.98
983.475	3031.95
983.774	2977.49
984.073	2991.73
984.372	2973.88
984.67	2940.88
984.969	2949.02
985.267	2967.1
985.566	2929.13
985.864	2901.34
986.162	2908.57
986.461	2912.18
986.759	2883.26
987.057	2849.59
987.355	2840.32
987.653	2807.78
987.951	2789.02
988.249	2831.06
988.547	2790.38
988.844	2779.76
989.142	2759.19
989.44	2749.7
989.737	2732.08
990.035	2700.21
990.332	2711.96
990.63	2710.38
990.927	2714.9
991.224	2695.69
991.521	2657.5
991.819	2631.06
992.116	2636.48
992.413	2638.52
992.71	2589.25
993.006	2581.12
993.303	2593.55
993.6	2559.88
993.897	2568.24
994.193	2526.66
994.49	2505.87
994.787	2493.44
995.083	2502.93
995.379	2490.27
995.676	2462.48
995.972	2494.57
996.268	2463.61
996.565	2413.89
996.861	2427.9
997.157	2432.2
997.453	2418.41
997.749	2410.5
998.044	2377.06
998.34	2392.65
998.636	2389.71
998.932	2361.24
999.227	2326.21
999.523	2343.38
999.818	2319.43
1000.114	2291.18
1000.409	2288.24
1000.704	2267.23
1001	2293.22
1001.295	2228.13
1001.59	2224.97
1001.885	2247.57
1002.18	2224.07
1002.475	2201.02
1002.77	2206.21
1003.065	2223.16
1003.359	2177.51
1003.654	2158.53
1003.949	2165.08
1004.243	2129.15
1004.538	2159.21
1004.832	2112.2
1005.127	2116.27
1005.421	2060.68
1005.715	2057.06
1006.009	2059.1
1006.304	2078.08
1006.598	2033.34
1006.892	2038.99
1007.186	1980
1007.48	2008.93
1007.773	1983.39
1008.067	1943.4
1008.361	1953.56
1008.655	1926.45
1008.948	1932.32
1009.242	1937.52
1009.535	1886.22
1009.829	1914.7
1010.122	1916.28
1010.415	1898.2
1010.708	1882.61
1011.001	1879.22
1011.295	1850.52
1011.588	1858.43
1011.881	1817.07
1012.173	1802.61
1012.466	1818.2
1012.759	1804.64
1013.052	1798.77
1013.344	1782.5
1013.637	1784.08
1013.93	1758.32
1014.222	1752.44
1014.514	1745.66
1014.807	1732.33
1015.099	1716.28
1015.391	1719.67
1015.683	1705.66
1015.976	1668.83
1016.268	1678.32
1016.56	1647.13
1016.851	1642.84
1017.143	1646.23
1017.435	1638.54
1017.727	1611.2
1018.018	1622.95
1018.31	1615.72
1018.602	1619.56
1018.893	1589.28
1019.185	1567.36
1019.476	1575.95
1019.767	1558.55
1020.058	1544.31
1020.35	1530.3
1020.641	1523.52
1020.932	1516.97
1021.223	1506.8
1021.514	1493.46
1021.804	1494.14
1022.095	1494.37
1022.386	1469.51
1022.677	1424.54
1022.967	1423.18
1023.258	1452.56
1023.548	1420.25
1023.839	1421.15
1024.129	1404.43
1024.419	1378.89
1024.709	1401.04
1025	1360.36
1025.29	1375.27
1025.58	1351.09
1025.87	1345.9
1026.16	1341.15
1026.449	1375.5
1026.739	1342.51
1027.029	1290.31
1027.319	1317.42
1027.608	1292.34
1027.898	1316.07
1028.187	1276.29
1028.477	1270.87
1028.766	1284.66
1029.055	1253.02
1029.344	1261.83
1029.634	1248.27
1029.923	1219.35
1030.212	1248.72
1030.501	1228.39
1030.79	1217.09
1031.078	1209.4
1031.367	1201.72
1031.656	1207.82
1031.945	1175.96
1032.233	1173.92
1032.522	1191.32
1032.81	1144.09
1033.099	1163.3
1033.387	1122.63
1033.675	1149.29
1033.963	1110.65
1034.251	1135.05
1034.54	1107.49
1034.828	1130.76
1035.116	1101.38
1035.403	1081.5
1035.691	1081.27
1035.979	1051.22
1036.267	1060.71
1036.554	1057.77
1036.842	1039.69
1037.129	1019.8
1037.417	1016.19
1037.704	1032.91
1037.992	1042.18
1038.279	1015.74
1038.566	1039.92
1038.853	1039.92
1039.14	1039.92
