Data from hue_180_FLMS001491_00073.txt Node
Date: Tue Feb 07 16:47:27 GMT 2017
User: dcchb
Spectrometer: FLMS00149
Trigger mode: 0
Integration Time (sec): 2.000000E-2
Scans to average: 10
Electric dark correction enabled: true
Nonlinearity correction enabled: false
Boxcar width: 0
XAxis mode: Wavelengths
Number of Pixels in Spectrum: 2048
>>>>>Begin Spectral Data<<<<<
341.393	-12.73
341.776	-12.73
342.16	-12.73
342.543	-86.85
342.927	-56.11
343.31	-64.93
343.693	-74.42
344.077	-57.7
344.46	-68.32
344.843	-53.85
345.226	-44.36
345.61	-31.71
345.993	-2.56
346.376	-3.91
346.759	17.1
347.142	9.65
347.525	43.09
347.908	57.55
348.291	87.38
348.674	81.06
349.057	105.92
349.44	118.8
349.823	138.23
350.206	163.77
350.588	190.88
350.971	201.05
351.354	219.81
351.737	225.91
352.119	244.67
352.502	258.23
352.884	256.87
353.267	292.13
353.65	274.05
354.032	297.77
354.414	298.9
354.797	308.85
355.179	330.77
355.562	300.03
355.944	323.99
356.326	328.28
356.709	319.02
357.091	337.55
357.473	339.36
357.855	320.6
358.238	343.2
358.62	341.62
359.002	341.84
359.384	339.36
359.766	347.94
360.148	323.76
360.53	337.32
360.912	310.43
361.294	336.87
361.676	325.8
362.057	333.48
362.439	341.84
362.821	332.12
363.203	295.51
363.584	310.88
363.966	303.42
364.348	321.95
364.729	315.63
365.111	314.05
365.493	315.85
365.874	316.98
366.256	321.05
366.637	297.55
367.019	328.06
367.4	324.89
367.781	315.18
368.163	319.02
368.544	305.91
368.925	305.23
369.306	305.91
369.688	296.42
370.069	319.24
370.45	305.01
370.831	301.39
371.212	316.76
371.593	298.68
371.974	289.87
372.355	288.06
372.736	322.41
373.117	292.58
373.498	307.94
373.879	318.34
374.26	305.46
374.641	296.19
375.021	314.72
375.402	321.5
375.783	313.82
376.163	312.24
376.544	328.51
376.925	322.18
377.305	328.06
377.686	314.5
378.066	327.15
378.447	305.91
378.827	352.01
379.208	317.21
379.588	331.9
379.968	320.37
380.349	341.84
380.729	329.64
381.109	338.68
381.489	324.89
381.87	329.86
382.25	324.44
382.63	346.81
383.01	356.98
383.39	340.26
383.77	353.59
384.15	338.45
384.53	329.19
384.91	327.83
385.29	334.61
385.67	342.07
386.049	330.77
386.429	342.52
386.809	337.1
387.189	350.2
387.568	350.2
387.948	355.4
388.328	352.01
388.707	348.17
389.087	344.33
389.466	360.82
389.846	329.19
390.225	354.04
390.605	351.78
390.984	372.12
391.363	338.45
391.743	358.34
392.122	341.62
392.501	361.05
392.881	378
393.26	368.28
393.639	371.67
394.018	386.59
394.397	390.2
394.776	382.97
395.155	367.83
395.534	383.65
395.913	364.21
396.292	380.71
396.671	388.17
397.05	380.71
397.429	389.3
397.808	371.22
398.186	400.37
398.565	398.79
398.944	399.47
399.323	370.99
399.701	403.76
400.08	403.76
400.458	407.38
400.837	414.83
401.215	403.76
401.594	417.55
401.972	425.45
402.351	384.1
402.729	413.25
403.107	402.63
403.486	416.42
403.864	420.03
404.242	404.66
404.62	431.33
404.999	412.57
405.377	440.37
405.755	437.43
406.133	448.96
406.511	470.65
406.889	470.88
407.267	452.57
407.645	467.71
408.023	449.64
408.401	478.79
408.779	483.31
409.156	467.49
409.534	471.33
409.912	500.93
410.29	498.67
410.667	504.55
411.045	492.35
411.422	501.84
411.8	520.82
412.178	551.78
412.555	563.76
412.933	549.52
413.31	568.28
413.687	558.56
414.065	569.63
414.442	568.28
414.819	545.45
415.197	583.87
415.574	562.17
415.951	584.55
416.328	594.26
416.705	596.52
417.082	609.4
417.46	603.98
417.837	604.89
418.214	633.59
418.591	642.62
418.967	644.66
419.344	648.95
419.721	655.28
420.098	664.32
420.475	670.42
420.852	700.02
421.228	702.06
421.605	694.83
421.982	710.65
422.358	723.75
422.735	724.43
423.111	715.84
423.488	748.16
423.864	776.63
424.241	739.12
424.617	785.45
424.994	772.34
425.37	794.94
425.746	817.76
426.123	832.68
426.499	837.65
426.875	854.37
427.251	847.36
427.627	859.57
428.003	896.18
428.379	871.09
428.756	905.44
429.132	908.38
429.507	929.85
429.883	929.62
430.259	923.52
430.635	936.4
431.011	926.23
431.387	954.71
431.763	990.64
432.138	968.72
432.514	1012.11
432.89	1003.97
433.265	1032.9
433.641	1055.49
434.016	1069.05
434.392	1074.48
434.767	1097.08
435.143	1066.57
435.518	1133.68
435.894	1143.18
436.269	1154.02
436.644	1182.95
437.02	1195.6
437.395	1221.59
437.77	1249.16
438.145	1225.43
438.52	1253
438.895	1276.96
439.271	1286
439.646	1328.71
440.021	1347.69
440.395	1373.9
440.77	1338.65
441.145	1372.77
441.52	1399.21
441.895	1369.38
442.27	1422.26
442.645	1379.33
443.019	1415.03
443.394	1446.9
443.769	1470.63
444.143	1484.64
444.518	1486.22
444.892	1518.53
445.267	1522.6
445.641	1566.67
446.016	1544.52
446.39	1571.41
446.764	1555.82
447.139	1569.38
447.513	1576.39
447.887	1574.35
448.262	1607.34
448.636	1605.99
449.01	1643.73
449.384	1637.63
449.758	1695.7
450.132	1663.61
450.506	1674.69
450.88	1713.33
451.254	1709.71
451.628	1721.69
452.002	1746.78
452.376	1785.19
452.75	1817.28
453.123	1815.93
453.497	1816.83
453.871	1865.64
454.244	1883.95
454.618	1880.11
454.992	1911.29
455.365	1923.49
455.739	1977.28
456.112	2025.64
456.486	1985.87
456.859	2033.1
457.232	2077.84
457.606	2103.38
457.979	2131.17
458.352	2147.22
458.725	2178.4
459.099	2181.57
459.472	2228.57
459.845	2247.1
460.218	2281.9
460.591	2290.49
460.964	2309.25
461.337	2350.15
461.71	2385.86
462.083	2412.07
462.456	2425.4
462.829	2456.81
463.201	2486.19
463.574	2521.22
463.947	2550.37
464.32	2593.76
464.692	2626.75
465.065	2671.27
465.438	2702.91
465.81	2720.76
466.183	2776.81
466.555	2834.88
466.928	2859.97
467.3	2860.65
467.672	2909.23
468.045	3049.34
468.417	2986.97
468.789	3033.52
469.161	3076.23
469.534	3109.45
469.906	3197.13
470.278	3193.29
470.65	3262.44
471.022	3306.06
471.394	3394.19
471.766	3506.73
472.138	3485.04
472.51	3623.79
472.882	3637.12
473.253	3703.56
473.625	3728.87
473.997	3813.61
474.369	3882.99
474.74	3934.74
475.112	3990.33
475.484	4048.41
475.855	4144.23
476.227	4209.08
476.598	4315.97
476.97	4365.92
477.341	4516.19
477.713	4572.46
478.084	4583.76
478.455	4779.46
478.827	4784.66
479.198	4945.79
479.569	4939.23
479.94	5071.66
480.311	5164.99
480.682	5282.95
481.053	5435.94
481.424	5482.95
481.795	5559.33
482.166	5666
482.537	5802.71
482.908	5878.42
483.279	6011.97
483.65	6091.07
484.021	6212.87
484.391	6336.49
484.762	6394.79
485.133	6506.65
485.503	6613.77
485.874	6783.25
486.244	6839.52
486.615	6964.04
486.985	7025.96
487.356	7215.11
487.726	7227.54
488.097	7401.32
488.467	7463.24
488.837	7655.1
489.207	7766.5
489.578	7856.67
489.948	7952.94
490.318	8103.67
490.688	8121.07
491.058	8285.36
491.428	8333.5
491.798	8464.79
492.168	8648.74
492.538	8728.29
492.908	8823.65
493.278	8928.06
493.648	8999.69
494.017	9100.93
494.387	9123.98
494.757	9258.44
495.126	9383.19
495.496	9372.79
495.866	9532.79
496.235	9597.19
496.605	9611.88
496.974	9752.44
497.344	9798.09
497.713	9820.01
498.082	9881.7
498.452	9968.03
498.821	10026.33
499.19	10094.35
499.559	10207.8
499.928	10191.53
500.298	10245.99
500.667	10382.26
501.036	10330.51
501.405	10420.9
501.774	10509.71
502.143	10518.75
502.512	10562.59
502.88	10657.95
503.249	10652.53
503.618	10737.05
503.987	10683.94
504.356	10798.97
504.724	10790.61
505.093	10845.29
505.462	10845.97
505.83	10958.96
506.199	11009.36
506.567	11158.05
506.936	11040.32
507.304	11212.97
507.672	11255.9
508.041	11273.98
508.409	11326.41
508.777	11353.76
509.145	11410.02
509.514	11331.16
509.882	11495.22
510.25	11469.23
510.618	11410.02
510.986	11508.78
511.354	11576.12
511.722	11680.07
512.09	11665.84
512.458	11622.22
512.826	11719.62
513.193	11761.43
513.561	11751.94
513.929	11819.05
514.297	11860.86
514.664	11851.14
515.032	11958.03
515.4	11936.56
515.767	11902.67
516.135	11973.85
516.502	11869.45
516.869	12097.92
517.237	11976.56
517.604	12018.37
517.972	12083.68
518.339	12097.69
518.706	12057.24
519.073	12071.48
519.44	12107.41
519.808	12149.44
520.175	12138.59
520.542	12330.9
520.909	12242.09
521.276	12264.24
521.643	12326.84
522.009	12291.13
522.376	12300.17
522.743	12298.59
523.11	12388.53
523.477	12487.96
523.843	12512.14
524.21	12474.18
524.577	12521.86
524.943	12573.61
525.31	12563.21
525.676	12587.4
526.043	12591.01
526.409	12559.15
526.776	12608.41
527.142	12559.6
527.508	12635.3
527.874	12564.12
528.241	12609.09
528.607	12652.93
528.973	12662.2
529.339	12542.42
529.705	12664
530.071	12686.38
530.437	12643.89
530.803	12711.23
531.169	12671.91
531.535	12615.87
531.901	12495.19
532.267	12541.29
532.632	12588.52
532.998	12565.02
533.364	12488.64
533.73	12498.13
534.095	12588.75
534.461	12530.67
534.826	12509.2
535.192	12458.58
535.557	12410.22
535.923	12328.64
536.288	12288.19
536.653	12362.99
537.019	12133.85
537.384	12299.04
537.749	12224.92
538.114	12190.12
538.479	12095.2
538.845	12199.61
539.21	12119.84
539.575	12027.18
539.94	11944.47
540.305	11962.55
540.67	11921.2
541.034	11970.01
541.399	11899.05
541.764	11823.35
542.129	11797.36
542.494	11799.39
542.858	11772.95
543.223	11713.97
543.587	11622.9
543.952	11525.28
544.316	11527.76
544.681	11500.42
545.045	11562.56
545.41	11460.42
545.774	11366.18
546.138	11344.94
546.503	11369.12
546.867	11286.41
547.231	11281.21
547.595	11262.68
547.959	11250.93
548.324	11150.82
548.688	11059.75
549.052	11077.83
549.416	11006.87
549.779	11001.9
550.143	10931.62
550.507	10918.74
550.871	10875.35
551.235	10831.96
551.599	10781.79
551.962	10803.71
552.326	10746.31
552.689	10741.79
553.053	10649.37
553.417	10619.31
553.78	10641.01
554.143	10655.69
554.507	10503.61
554.87	10550.84
555.234	10573.66
555.597	10394.46
555.96	10555.36
556.323	10475.81
556.686	10363.95
557.05	10349.49
557.413	10408.02
557.776	10341.8
558.139	10360.11
558.502	10301.13
558.865	10280.34
559.228	10286.89
559.59	10280.79
559.953	10270.62
560.316	10372.76
560.679	10259.32
561.041	10235.37
561.404	10244.18
561.767	10229.26
562.129	10251.86
562.492	10232.88
562.854	10144.97
563.217	10144.52
563.579	10213.22
563.941	10240.56
564.304	10262.94
564.666	10187.91
565.028	10242.6
565.39	10274.91
565.753	10226.1
566.115	10181.58
566.477	10214.12
566.839	10231.52
567.201	10263.61
567.563	10214.8
567.925	10252.99
568.287	10200.79
568.648	10168.02
569.01	10246.89
569.372	10267.46
569.734	10170.74
570.095	10200.57
570.457	10253.67
570.819	10224.52
571.18	10143.62
571.542	10326.21
571.903	10271.07
572.265	10249.15
572.626	10204.86
572.987	10247.57
573.349	10281.92
573.71	10275.59
574.071	10192.2
574.432	10271.98
574.794	10295.25
575.155	10258.42
575.516	10197.4
575.877	10334.35
576.238	10295.7
576.599	10285.08
576.96	10240.34
577.32	10299.09
577.681	10260.45
578.042	10317.17
578.403	10256.61
578.763	10299.32
579.124	10298.42
579.485	10281.47
579.845	10288.02
580.206	10246.67
580.566	10246.21
580.927	10257.29
581.287	10316.72
581.648	10166.67
582.008	10247.57
582.368	10194.46
582.728	10275.59
583.089	10183.39
583.449	10199.44
583.809	10153.11
584.169	10187.46
584.529	10150.17
584.889	10242.37
585.249	10135.48
585.609	10116.05
585.969	10139.78
586.329	10170.96
586.688	10136.16
587.048	10078.53
587.408	10067.46
587.768	10076.05
588.127	10076.27
588.487	10066.56
588.846	10113.11
589.206	10043.51
589.565	9996.95
589.925	10070.4
590.284	9953.34
590.643	10054.35
591.003	10033.56
591.362	10024.52
591.721	10004.19
592.08	9982.49
592.44	10005.99
592.799	10022.04
593.158	9911.53
593.517	10004.41
593.876	9950.4
594.235	9909.95
594.593	9892.78
594.952	9887.8
595.311	9944.98
595.67	9896.62
596.029	9953.57
596.387	9893.91
596.746	9948.59
597.104	9797.41
597.463	9870.4
597.822	9851.65
598.18	9820.91
598.538	9826.56
598.897	9802.84
599.255	9812.33
599.613	9896.62
599.972	9864.53
600.33	9897.97
600.688	9773.01
601.046	9792.21
601.404	9839.9
601.762	9853.46
602.12	9902.72
602.478	9896.17
602.836	9843.06
603.194	9829.95
603.552	9856.17
603.91	9717.87
604.268	9847.81
604.625	9769.62
604.983	9787.92
605.341	9740.24
605.698	9782.5
606.056	9803.51
606.413	9859.56
606.771	9846
607.128	9798.99
607.485	9778.66
607.843	9779.33
608.2	9872.44
608.557	9802.38
608.914	9865.88
609.272	9925.32
609.629	9799.45
609.986	9847.13
610.343	9845.32
610.7	9924.19
611.057	9895.26
611.414	9853.46
611.771	9880.35
612.127	9849.39
612.484	9945.66
612.841	9939.56
613.198	9864.08
613.554	9862.04
613.911	10021.13
614.267	9915.15
614.624	9918.99
614.98	9862.72
615.337	9995.15
615.693	10032.89
616.05	9985.43
616.406	10023.85
616.762	9900.46
617.118	9930.06
617.475	9953.34
617.831	9952.44
618.187	9997.41
618.543	9997.41
618.899	10015.26
619.255	10076.5
619.611	10036.73
619.967	10065.88
620.323	10002.83
620.678	10033.56
621.034	10010.74
621.39	10005.54
621.746	9931.19
622.101	10102.71
622.457	9982.49
622.812	9993.56
623.168	10036.73
623.523	10041.7
623.879	10035.15
624.234	9960.12
624.589	10034.02
624.945	10019.78
625.3	9974.81
625.655	9980.68
626.01	10007.8
626.365	10000.34
626.72	10044.41
627.075	10013.68
627.43	9984.75
627.785	9960.8
628.14	9953.11
628.495	10021.36
628.85	9926
629.205	9958.99
629.559	10004.41
629.914	10005.77
630.269	10017.29
630.623	9950.4
630.978	9924.64
631.332	9988.37
631.687	9954.92
632.041	9879.67
632.396	9876.28
632.75	9912.44
633.104	9904.98
633.459	9789.95
633.813	9860.24
634.167	9810.52
634.521	9794.47
634.875	9822.95
635.229	9805.55
635.583	9732.1
635.937	9758.77
636.291	9751.54
636.645	9751.99
636.999	9748.37
637.352	9713.8
637.706	9648.26
638.06	9737.98
638.413	9706.11
638.767	9667.25
639.121	9648.49
639.474	9547.25
639.828	9654.14
640.181	9624.08
640.534	9624.08
640.888	9621.82
641.241	9519.68
641.594	9590.41
641.947	9606.46
642.301	9547.7
642.654	9542.5
643.007	9563.52
643.36	9615.5
643.713	9544.99
644.066	9568.72
644.419	9557.64
644.771	9424.31
645.124	9410.98
645.477	9343.64
645.83	9374.15
646.182	9239.91
646.535	9256.64
646.888	9292.34
647.24	9217.99
647.593	9258.44
647.945	9214.15
648.298	9195.62
648.65	9178.22
649.002	9152.68
649.355	9210.76
649.707	9251.21
650.059	9264.32
650.411	9352.45
650.763	9360.59
651.115	9414.82
651.467	9434.03
651.819	9417.76
652.171	9370.53
652.523	9422.51
652.875	9404.43
653.227	9402.39
653.578	9412.56
653.93	9485.1
654.282	9428.61
654.633	9401.72
654.985	9440.36
655.337	9447.36
655.688	9373.24
656.039	9466.57
656.391	9361.72
656.742	9394.48
657.094	9363.98
657.445	9430.87
657.796	9450.53
658.147	9437.65
658.498	9455.5
658.849	9420.25
659.2	9434.48
659.551	9434.94
659.902	9423.86
660.253	9455.27
660.604	9416.4
660.955	9412.34
661.306	9513.8
661.656	9424.09
662.007	9471.77
662.358	9458.66
662.708	9480.81
663.059	9474.71
663.409	9446.01
663.76	9554.93
664.11	9531.66
664.461	9485.33
664.811	9549.06
665.161	9491.66
665.511	9447.82
665.862	9466.35
666.212	9506.35
666.562	9499.79
666.912	9472.67
667.262	9465.22
667.612	9480.36
667.962	9496.18
668.312	9496.63
668.662	9560.13
669.011	9532.11
669.361	9482.17
669.711	9503.18
670.06	9521.03
670.41	9452.11
670.76	9463.41
671.109	9492.11
671.459	9471.32
671.808	9422.96
672.157	9455.05
672.507	9367.37
672.856	9403.3
673.205	9436.07
673.554	9431.55
673.904	9373.92
674.253	9502.5
674.602	9467.7
674.951	9237.65
675.3	9216.41
675.649	9402.62
675.998	9340.93
676.346	9376.63
676.695	9401.49
677.044	9310.42
677.393	9296.86
677.741	9330.98
678.09	9274.94
678.438	9341.15
678.787	9304.54
679.135	9278.1
679.484	9218.44
679.832	9196.98
680.181	9221.38
680.529	9237.88
680.877	9173.93
681.225	9198.78
681.573	9241.27
681.922	9205.56
682.27	9109.29
682.618	9087.37
682.966	9013.93
683.314	9055.06
683.661	8995.63
684.009	8980.71
684.357	9022.29
684.705	9013.7
685.053	8945.46
685.4	8945.68
685.748	8915.63
686.095	8935.74
686.443	8801.28
686.79	8888.28
687.138	8887.15
687.485	8851.22
687.832	8799.92
688.18	8825.01
688.527	8777.55
688.874	8732.81
689.221	8708.17
689.568	8695.75
689.915	8636.99
690.262	8637.22
690.609	8637.44
690.956	8602.64
691.303	8604
691.65	8526.94
691.997	8514.73
692.344	8477.9
692.69	8486.03
693.037	8425.7
693.383	8400.16
693.73	8394.96
694.077	8308.64
694.423	8348.41
694.769	8279.26
695.116	8258.02
695.462	8238.13
695.808	8196.55
696.155	8268.64
696.501	8163.56
696.847	8129.66
697.193	8054.86
697.539	8110.45
697.885	8029.1
698.231	7964.47
698.577	7976.22
698.923	7990.45
699.269	7931.25
699.614	7834.07
699.96	7810.8
700.306	7829.1
700.651	7794.98
700.997	7672.95
701.342	7721.99
701.688	7730.8
702.033	7623.46
702.379	7697.35
702.724	7601.99
703.069	7617.36
703.415	7559.5
703.76	7547.08
704.105	7551.82
704.45	7492.16
704.795	7459.17
705.14	7443.58
705.485	7458.04
705.83	7384.59
706.175	7376.46
706.52	7393.41
706.865	7326.52
707.209	7316.12
707.554	7286.29
707.899	7301.43
708.243	7279.51
708.588	7233.19
708.932	7174.88
709.277	7173.07
709.621	7176.46
709.966	7124.49
710.31	7151.38
710.654	7071.61
710.998	7093.08
711.342	7074.32
711.687	7061.89
712.031	6954.32
712.375	7040.87
712.719	7034.09
713.063	7015.11
713.407	6994.55
713.75	6929.24
714.094	6886.98
714.438	6888.56
714.782	6944.61
715.125	6861.22
715.469	6932.85
715.812	6838.62
716.156	6802.24
716.499	6827.77
716.843	6848.34
717.186	6839.3
717.53	6908.9
717.873	6806.98
718.216	6824.16
718.559	6762.92
718.902	6754.78
719.246	6777.38
719.589	6708.45
719.932	6714.78
720.275	6651.28
720.617	6735.8
720.96	6698.74
721.303	6680.88
721.646	6658.06
721.989	6613.31
722.331	6718.85
722.674	6646.53
723.016	6618.06
723.359	6637.72
723.701	6617.38
724.044	6592.07
724.386	6603.82
724.729	6683.14
725.071	6600.21
725.413	6585.74
725.755	6603.82
726.097	6517.27
726.439	6557.27
726.782	6565.86
727.124	6602.02
727.465	6595.24
727.807	6615.8
728.149	6586.65
728.491	6545.97
728.833	6552.3
729.175	6575.12
729.516	6500.1
729.858	6542.58
730.199	6547.33
730.541	6526.54
730.882	6526.54
731.224	6552.3
731.565	6540.1
731.906	6526.76
732.248	6539.19
732.589	6552.07
732.93	6498.74
733.271	6530.61
733.612	6505.75
733.953	6457.61
734.294	6522.24
734.635	6562.69
734.976	6527.22
735.317	6514.33
735.658	6524.96
735.999	6508.68
736.339	6531.96
736.68	6587.1
737.021	6553.2
737.361	6582.58
737.702	6599.76
738.042	6580.77
738.383	6567.21
738.723	6636.59
739.063	6567.89
739.404	6663.03
739.744	6649.25
740.084	6611.96
740.424	6646.53
740.764	6642.92
741.104	6681.56
741.444	6680.43
741.784	6691.5
742.124	6677.27
742.464	6680.88
742.804	6705.97
743.143	6719.98
743.483	6797.04
743.823	6748.68
744.162	6758.85
744.502	6826.64
744.841	6898.28
745.181	6920.88
745.52	6888.34
745.86	6965.17
746.199	6935.11
746.538	6936.92
746.877	7113.41
747.216	7155.9
747.556	7142.57
747.895	7252.39
748.234	7243.58
748.573	7278.38
748.911	7324.93
749.25	7384.37
749.589	7460.3
749.928	7563.12
750.267	7629.11
750.605	7726.51
750.944	7660.29
751.283	7781.65
751.621	7856.9
751.96	8012.6
752.298	8057.57
752.636	8159.49
752.975	8197.45
753.313	8317.45
753.651	8425.7
753.989	8549.99
754.327	8610.78
754.666	8746.14
755.004	8826.82
755.342	8946.36
755.679	9128.73
756.017	9212.12
756.355	9386.12
756.693	9495.5
757.031	9607.59
757.368	9725.78
757.706	9891.42
758.044	10020.46
758.381	10246.44
758.719	10339.77
759.056	10476.26
759.394	10638.07
759.731	10796.26
760.068	10945.4
760.405	11025.63
760.743	11232.63
761.08	11403.92
761.417	11525.5
761.754	11796.23
762.091	11865.83
762.428	12163.45
762.765	12171.13
763.102	12342.43
763.438	12484.8
763.775	12631.01
764.112	12892.92
764.449	13088.4
764.785	13136.53
765.122	13280.03
765.458	13522.06
765.795	13620.81
766.131	13705.33
766.467	13849.28
766.804	14043.63
767.14	14036.17
767.476	14348.93
767.812	14275.94
768.148	14560.68
768.485	14653.78
768.821	14656.72
769.157	14893.55
769.492	15122.24
769.828	15180.32
770.164	15173.99
770.5	15449.24
770.836	15487.88
771.171	15533.76
771.507	15647.43
771.842	15677.94
772.178	15895.78
772.513	15852.85
772.849	15984.82
773.184	16020.07
773.519	16156.34
773.855	16205.6
774.19	16265.94
774.525	16352.49
774.86	16422.32
775.195	16448.31
775.53	16605.82
775.865	16493.73
776.2	16554.75
776.535	16585.03
776.87	16603.11
777.205	16743.22
777.539	16747.74
777.874	16882.88
778.209	16788.87
778.543	16883.55
778.878	16895.08
779.212	16867.96
779.547	16858.7
779.881	17050.55
780.215	16955.42
780.55	17049.42
780.884	16992.7
781.218	17016.66
781.552	17077.9
781.886	16949.09
782.22	16979.14
782.554	16938.47
782.888	16851.69
783.222	16873.61
783.556	16913.61
783.889	16916.09
784.223	16882.65
784.557	16865.47
784.89	16932.37
785.224	16884.01
785.557	16869.09
785.891	16899.6
786.224	16914.29
786.558	16937.79
786.891	16771.47
787.224	16846.49
787.557	16820.5
787.891	16807.17
788.224	16809.43
788.557	16814.63
788.89	16818.92
789.223	16813.27
789.556	16734.4
789.888	16722.43
790.221	16725.59
790.554	16582.77
790.887	16687.4
791.219	16617.12
791.552	16452.38
791.884	16568.31
792.217	16500.29
792.549	16387.75
792.882	16354.75
793.214	16391.14
793.546	16428.88
793.879	16324.02
794.211	16246.06
794.543	16311.82
794.875	16207.19
795.207	16305.94
795.539	16169
795.871	16282.44
796.203	16077.7
796.535	16086.06
796.867	16016.46
797.198	15997.93
797.53	16105.27
797.862	15929.68
798.193	15935.56
798.525	15908.66
798.856	15835.67
799.188	15756.13
799.519	15757.93
799.85	15609.91
800.182	15715.9
800.513	15695.56
800.844	15610.37
801.175	15684.94
801.506	15592.29
801.837	15589.12
802.168	15495.79
802.499	15548.22
802.83	15472.52
803.161	15410.37
803.491	15358.62
803.822	15401.33
804.153	15303.71
804.483	15224.16
804.814	15160.89
805.145	15167.44
805.475	15192.75
805.805	15052.19
806.136	15092.41
806.466	15104.62
806.796	15046.09
807.126	14901.01
807.457	14936.94
807.787	14902.14
808.117	14845.64
808.447	14833.21
808.777	14866.21
809.107	14773.33
809.436	14730.16
809.766	14773.55
810.096	14667.57
810.426	14630.05
810.755	14699.43
811.085	14581.47
811.414	14588.92
811.744	14520.9
812.073	14516.61
812.403	14520.45
812.732	14395.71
813.061	14398.87
813.39	14358.87
813.719	14354.35
814.049	14413.34
814.378	14332.43
814.707	14224.64
815.036	14250.18
815.365	14331.08
815.693	14118.2
816.022	14124.08
816.351	14076.85
816.68	14049.73
817.008	14107.13
817.337	13962.5
817.665	13909.39
817.994	14091.31
818.322	14001.14
818.651	13880.24
818.979	13776.74
819.307	13973.57
819.636	13880.47
819.964	13811.54
820.292	13856.06
820.62	13990.75
820.948	13926.12
821.276	13850.86
821.604	13800.02
821.932	13832.33
822.259	13897.87
822.587	13852.22
822.915	13818.55
823.243	13791.21
823.57	13764.77
823.898	13740.81
824.225	13673.92
824.553	13653.81
824.88	13784.65
825.207	13818.78
825.535	13803.18
825.862	13809.51
826.189	13860.36
826.516	13863.97
826.843	13737.2
827.17	13880.24
827.497	13851.32
827.824	13799.34
828.151	13902.16
828.478	13852.9
828.805	13932.67
829.131	13794.59
829.458	13805.67
829.785	13739
830.111	13826.68
830.438	13854.48
830.764	13833.01
831.09	13830.53
831.417	13714.6
831.743	13855.16
832.069	13776.74
832.395	13718.21
832.722	13776.52
833.048	13719.34
833.374	13767.7
833.7	13660.36
834.026	13681.38
834.351	13685.9
834.677	13689.06
835.003	13675.28
835.329	13737.65
835.654	13687.48
835.98	13625.33
836.306	13635.73
836.631	13583.98
836.956	13698.78
837.282	13657.88
837.607	13495.62
837.932	13570.19
838.258	13482.29
838.583	13529.29
838.908	13356.41
839.233	13373.59
839.558	13464.89
839.883	13370.88
840.208	13379.01
840.533	13309.18
840.858	13296.75
841.182	13355.06
841.507	13259.69
841.832	13197.55
842.156	13238.68
842.481	13237.32
842.805	13138.79
843.13	13151.9
843.454	13148.74
843.778	13064.9
844.103	13062.86
844.427	13005.24
844.751	12992.81
845.075	12963.88
845.399	13028.97
845.723	12835.52
846.047	12841.17
846.371	12849.54
846.695	12857.22
847.019	12748.07
847.343	12603.89
847.666	12545.81
847.99	12554.63
848.313	12516.66
848.637	12492.48
848.96	12451.81
849.284	12476.66
849.607	12293.17
849.931	12290.68
850.254	12253.62
850.577	12202.09
850.9	12073.06
851.223	12123
851.546	11978.6
851.869	11961.42
852.192	12045.71
852.515	11814.53
852.838	11848.66
853.161	11860.18
853.483	11759.62
853.806	11696.8
854.129	11663.8
854.451	11622.9
854.774	11642.56
855.096	11556.69
855.419	11484.83
855.741	11484.83
856.063	11428.1
856.385	11382
856.708	11414.77
857.03	11331.83
857.352	11357.14
857.674	11268.11
857.996	11217.94
858.318	11090.71
858.64	11148.34
858.961	11154.44
859.283	11182.91
859.605	11135
859.926	11092.29
860.248	11071.95
860.57	10989.7
860.891	10982.24
861.212	10970.26
861.534	10934.56
861.855	10881.9
862.176	10918.96
862.498	10874.9
862.819	10878.29
863.14	10819.31
863.461	10810.72
863.782	10762.58
864.103	10803.26
864.424	10725.52
864.745	10742.02
865.065	10684.39
865.386	10703.6
865.707	10670.38
866.027	10656.15
866.348	10616.15
866.668	10644.4
866.989	10556.71
867.309	10557.17
867.63	10576.6
867.95	10536.83
868.27	10522.59
868.59	10512.65
868.91	10516.72
869.23	10425.64
869.55	10416.83
869.87	10435.81
870.19	10399.88
870.51	10428.13
870.83	10385.65
871.15	10393.1
871.469	10289.6
871.789	10357.4
872.109	10340.45
872.428	10224.52
872.748	10243.05
873.067	10264.74
873.386	10287.79
873.706	10215.93
874.025	10184.97
874.344	10159.44
874.663	10224.75
874.982	10133.45
875.301	10076.73
875.62	10051.42
875.939	10046.44
876.258	10098.87
876.577	10097.74
876.896	10061.59
877.214	10008.25
877.533	10046.67
877.852	10018.2
878.17	10057.07
878.489	10035.6
878.807	9990.85
879.125	9925.77
879.444	9914.24
879.762	9927.35
880.08	9904.53
880.398	9851.42
880.716	9813.46
881.034	9836.28
881.352	9848.71
881.67	9720.58
881.988	9784.53
882.306	9695.95
882.624	9712.44
882.941	9728.26
883.259	9666.12
883.577	9691.2
883.894	9617.08
884.212	9636.96
884.529	9616.85
884.846	9652.56
885.164	9576.17
885.481	9509.96
885.798	9566.46
886.115	9502.28
886.432	9457.53
886.75	9414.6
887.067	9434.71
887.383	9417.99
887.7	9468.61
888.017	9366.91
888.334	9352
888.651	9379.8
888.967	9349.97
889.284	9314.03
889.6	9242.62
889.917	9203.08
890.233	9217.77
890.55	9176.19
890.866	9153.14
891.182	9091.89
891.498	9096.41
891.815	9055.74
892.131	9017.77
892.447	8948.17
892.763	8985.68
893.079	8894.84
893.395	8939.81
893.71	8918.11
894.026	8914.72
894.342	8873.59
894.657	8689.64
894.973	8830.88
895.289	8745.01
895.604	8732.13
895.92	8613.26
896.235	8632.47
896.55	8657.1
896.865	8662.75
897.181	8659.14
897.496	8595.41
897.811	8562.64
898.126	8505.24
898.441	8519.25
898.756	8451.01
899.071	8411.91
899.386	8465.24
899.7	8331.46
900.015	8336.89
900.33	8182.99
900.644	8226.38
900.959	8343.21
901.273	8256.66
901.588	8172.14
901.902	8156.78
902.216	8037.01
902.531	8087.85
902.845	7982.32
903.159	7973.51
903.473	8020.06
903.787	7958.82
904.101	7898.48
904.415	7952.94
904.729	7903.22
905.042	7801.08
905.356	7786.62
905.67	7790.01
905.984	7746.39
906.297	7674.98
906.611	7670.01
906.924	7653.06
907.237	7634.76
907.551	7635.21
907.864	7587.98
908.177	7501.2
908.491	7523.35
908.804	7484.25
909.117	7412.16
909.43	7351.37
909.743	7391.37
910.056	7296.23
910.368	7302.79
910.681	7288.78
910.994	7216.91
911.307	7226.18
911.619	7130.59
911.932	7148.44
912.244	7097.6
912.557	7083.81
912.869	7020.76
913.181	6993.64
913.494	6997.49
913.806	6957.71
914.118	6980.99
914.43	6939.86
914.742	6938.96
915.054	6795.91
915.366	6793.2
915.678	6795.46
915.99	6783.03
916.302	6748
916.613	6717.72
916.925	6718.62
917.236	6664.84
917.548	6644.73
917.859	6647.21
918.171	6578.97
918.482	6499.65
918.794	6542.36
919.105	6509.36
919.416	6431.17
919.727	6395.47
920.038	6463.49
920.349	6427.33
920.66	6415.81
920.971	6404.73
921.282	6364.28
921.593	6298.29
921.903	6278.41
922.214	6204.29
922.525	6243.16
922.835	6275.7
923.146	6210.39
923.456	6173.78
923.767	6101.24
924.077	6112.76
924.387	6112.09
924.697	6001.13
925.008	5988.92
925.318	5987.57
925.628	5983.5
925.938	5974.91
926.248	5928.14
926.558	5898.53
926.867	5877.06
927.177	5855.37
927.487	5901.7
927.796	5826.22
928.106	5774.01
928.416	5812.66
928.725	5778.53
929.034	5662.15
929.344	5721.36
929.653	5668.48
929.962	5637.97
930.271	5632.1
930.581	5607.01
930.89	5558.2
931.199	5578.31
931.508	5568.37
931.817	5559.11
932.125	5518.2
932.434	5510.29
932.743	5452.89
933.051	5397.53
933.36	5362.5
933.669	5365.44
933.977	5340.35
934.286	5363.86
934.594	5285.44
934.902	5314.14
935.21	5288.38
935.519	5209.96
935.827	5196.4
936.135	5222.84
936.443	5174.26
936.751	5121.83
937.059	5109.17
937.367	5091.77
937.674	5114.6
937.982	5077.76
938.29	5082.06
938.597	5030.31
938.905	4990.53
939.213	4994.37
939.52	4962.06
939.827	4947.14
940.135	4920.03
940.442	4879.58
940.749	4880.93
941.056	4889.74
941.363	4816.98
941.67	4803.87
941.977	4773.14
942.284	4761.84
942.591	4749.86
942.898	4761.39
943.205	4742.4
943.511	4692.69
943.818	4679.35
944.125	4642.75
944.431	4646.13
944.738	4593.93
945.044	4556.87
945.35	4593.03
945.657	4530.43
945.963	4573.82
946.269	4522.75
946.575	4487.95
946.881	4465.57
947.187	4457.44
947.493	4459.25
947.799	4449.53
948.105	4432.58
948.41	4395.97
948.716	4393.49
949.022	4333.83
949.327	4391.45
949.633	4314.84
949.938	4301.29
950.244	4287.95
950.549	4261.29
950.854	4250.89
951.16	4182.42
951.465	4222.19
951.77	4245.69
952.075	4142.87
952.38	4180.38
952.685	4154.62
952.99	4122.08
953.294	4126.37
953.599	4114.85
953.904	4050.67
954.209	4050.67
954.513	4052.93
954.818	4011.58
955.122	4012.93
955.426	3995.3
955.731	3985.14
956.035	3930.22
956.339	3946.49
956.643	3944.68
956.948	3880.96
957.252	3917.79
957.556	3845.03
957.86	3827.85
958.163	3766.84
958.467	3841.86
958.771	3799.38
959.075	3777.68
959.378	3761.41
959.682	3762.54
959.985	3737.46
960.289	3701.53
960.592	3688.87
960.896	3699.49
961.199	3644.58
961.502	3642.55
961.805	3661.08
962.108	3616.33
962.411	3597.35
962.714	3589.44
963.017	3519.38
963.32	3613.17
963.623	3570.01
963.926	3519.61
964.228	3516.9
964.531	3502.44
964.833	3492.27
965.136	3485.94
965.438	3432.61
965.741	3474.19
966.043	3421.31
966.345	3374.98
966.648	3397.81
966.95	3374.53
967.252	3373.4
967.554	3357.58
967.856	3340.86
968.158	3313.51
968.46	3295.66
968.761	3290.92
969.063	3261.76
969.365	3262.44
969.666	3282.33
969.968	3218.38
970.269	3205.27
970.571	3217.7
970.872	3232.39
971.174	3178.83
971.475	3155.33
971.776	3146.74
972.077	3155.33
972.378	3151.94
972.679	3125.27
972.98	3124.59
973.281	3088.21
973.582	3107.87
973.883	3031.94
974.183	3050.24
974.484	3003.47
974.785	3030.13
975.085	3009.57
975.386	3015.22
975.686	2977.25
975.986	2954.2
976.287	2987.42
976.587	2899.74
976.887	2926.63
977.187	2916.46
977.487	2880.76
977.787	2886.86
978.087	2874.88
978.387	2843.47
978.687	2845.5
978.987	2851.61
979.286	2846.18
979.586	2811.61
979.885	2803.02
980.185	2824.49
980.484	2771.83
980.784	2794.43
981.083	2742.46
981.382	2753.3
981.682	2712.63
981.981	2735.68
982.28	2698.16
982.579	2657.71
982.878	2713.3
983.177	2687.54
983.475	2666.07
983.774	2690.03
984.073	2660.65
984.372	2643.48
984.67	2623.59
984.969	2617.94
985.267	2570.48
985.566	2603.02
985.864	2600.09
986.162	2581.1
986.461	2518.96
986.759	2525.51
987.057	2489.36
987.355	2523.7
987.653	2491.39
987.951	2469.02
988.249	2482.58
988.547	2492.07
988.844	2468.11
989.142	2422.69
989.44	2452.07
989.737	2434.44
990.035	2422.24
990.332	2387.44
990.63	2389.25
990.927	2381.34
991.224	2383.14
991.521	2362.13
991.819	2333.2
992.116	2318.29
992.413	2309.7
992.71	2316.93
993.006	2304.95
993.303	2290.94
993.6	2295.91
993.897	2271.28
994.193	2261.34
994.49	2264.28
994.787	2250.72
995.083	2220.66
995.379	2234.9
995.676	2184.5
995.972	2189.93
996.268	2184.05
996.565	2196.93
996.861	2148.57
997.157	2150.38
997.453	2150.16
997.749	2127.56
998.044	2095.69
998.34	2110.38
998.636	2118.07
998.932	2100.67
999.227	2074.9
999.523	2072.42
999.818	2060.67
1000.114	2029.03
1000.409	2058.86
1000.704	2016.83
1001	2014.34
1001.295	2014.11
1001.59	1993.1
1001.885	2032.42
1002.18	1952.19
1002.475	1947
1002.77	1961.69
1003.065	1916.49
1003.359	1924.17
1003.654	1908.81
1003.949	1915.59
1004.243	1886.66
1004.538	1870.61
1004.832	1875.59
1005.127	1857.96
1005.421	1839.88
1005.715	1875.36
1006.009	1833.1
1006.304	1817.96
1006.598	1844.63
1006.892	1840.78
1007.186	1805.98
1007.48	1789.49
1007.773	1778.87
1008.067	1782.26
1008.361	1763.95
1008.655	1735.93
1008.948	1713.78
1009.242	1734.35
1009.535	1675.37
1009.829	1704.52
1010.122	1665.42
1010.415	1677.63
1010.708	1704.74
1011.001	1645.76
1011.295	1632.2
1011.588	1677.4
1011.881	1645.54
1012.173	1652.09
1012.466	1620.23
1012.759	1620.45
1013.052	1597.63
1013.344	1585.42
1013.637	1615.93
1013.93	1558.76
1014.222	1543.39
1014.514	1543.17
1014.807	1537.29
1015.099	1533.9
1015.391	1547.23
1015.683	1540.45
1015.976	1535.71
1016.268	1476.27
1016.56	1492.09
1016.851	1511.75
1017.143	1498.42
1017.435	1464.98
1017.727	1473.56
1018.018	1466.78
1018.31	1418.88
1018.602	1447.57
1018.893	1436.05
1019.185	1403.51
1019.476	1422.04
1019.767	1387.92
1020.058	1412.77
1020.35	1382.49
1020.641	1373.45
1020.932	1370.29
1021.223	1349.27
1021.514	1345.43
1021.804	1335.04
1022.095	1326.9
1022.386	1310.63
1022.677	1300.23
1022.967	1326.45
1023.258	1301.14
1023.548	1289.84
1023.839	1285.77
1024.129	1270.63
1024.419	1249.61
1024.709	1254.13
1025	1234.93
1025.29	1272.21
1025.58	1215.72
1025.87	1221.37
1026.16	1198.77
1026.449	1187.47
1026.739	1201.03
1027.029	1184.08
1027.319	1159.67
1027.608	1201.03
1027.898	1150.63
1028.187	1129.39
1028.477	1154.48
1028.766	1173.23
1029.055	1130.75
1029.344	1133.91
1029.634	1127.13
1029.923	1120.8
1030.212	1096.85
1030.501	1082.61
1030.79	1071.99
1031.078	1070.64
1031.367	1077.42
1031.656	1064.31
1031.945	1067.92
1032.233	1051.65
1032.522	1051.88
1032.81	1046
1033.099	1004.65
1033.387	1028.38
1033.675	1017.98
1033.963	1037.19
1034.251	1024.54
1034.54	1031.31
1034.828	977.53
1035.116	993.35
1035.403	979.79
1035.691	988.15
1035.979	964.88
1036.267	954.03
1036.554	985.21
1036.842	975.04
1037.129	950.86
1037.417	938.66
1037.704	969.62
1037.992	939.57
1038.279	919.68
1038.566	935.05
1038.853	935.05
1039.14	935.05
