Data from hue_50_FLMS001491_31.txt Node
Date: Mon Feb 06 15:10:01 GMT 2017
User: dcchb
Spectrometer: FLMS00149
Trigger mode: 0
Integration Time (sec): 2.000000E-2
Scans to average: 10
Electric dark correction enabled: true
Nonlinearity correction enabled: false
Boxcar width: 0
XAxis mode: Wavelengths
Number of Pixels in Spectrum: 2048
>>>>>Begin Spectral Data<<<<<
341.393	-15.37
341.776	-15.37
342.16	-15.37
342.543	-70.05
342.927	-58.3
343.31	-64.18
343.693	-58.76
344.077	-77.74
344.46	-47
344.843	-52.43
345.226	-28.93
345.61	-50.17
345.993	-17.17
346.376	1.36
346.759	16.5
347.142	6.55
347.525	51.07
347.908	62.82
348.291	71.64
348.674	94.23
349.057	92.2
349.44	154.57
349.823	152.31
350.206	170.62
350.588	185.53
350.971	208.36
351.354	233.21
351.737	250.84
352.119	254
352.502	263.5
352.884	260.78
353.267	291.07
353.65	291.52
354.032	287.45
354.414	331.74
354.797	299.2
355.179	323.83
355.562	325.64
355.944	324.51
356.326	311.18
356.709	322.7
357.091	335.13
357.473	324.06
357.855	368.13
358.238	340.56
358.62	314.34
359.002	347.79
359.384	359.31
359.766	336.04
360.148	336.94
360.53	366.09
360.912	330.84
361.294	323.61
361.676	342.14
362.057	334
362.439	342.59
362.821	329.48
363.203	357.5
363.584	318.86
363.966	311.18
364.348	312.76
364.729	330.39
365.111	304.4
365.493	317.05
365.874	335.13
366.256	331.97
366.637	319.99
367.019	322.03
367.4	310.05
367.781	330.61
368.163	315.02
368.544	336.26
368.925	330.84
369.306	324.74
369.688	317.51
370.069	329.93
370.45	326.77
370.831	329.03
371.212	314.12
371.593	314.12
371.974	310.27
372.355	311.63
372.736	314.12
373.117	312.08
373.498	312.31
373.879	340.56
374.26	312.53
374.641	317.28
375.021	325.64
375.402	308.69
375.783	313.44
376.163	323.38
376.544	320.22
376.925	333.1
377.305	350.5
377.686	323.83
378.066	330.16
378.447	332.19
378.827	328.8
379.208	325.64
379.588	340.78
379.968	329.48
380.349	329.71
380.729	319.77
381.109	329.93
381.489	348.92
381.87	330.16
382.25	333.32
382.63	338.07
383.01	339.43
383.39	345.3
383.77	332.42
384.15	332.42
384.53	343.04
384.91	351.4
385.29	350.95
385.67	337.62
386.049	349.37
386.429	334.68
386.809	358.18
387.189	347.56
387.568	346.66
387.948	357.5
388.328	363.15
388.707	371.97
389.087	359.99
389.466	350.27
389.846	343.27
390.225	352.53
390.605	351.86
390.984	371.97
391.363	364.51
391.743	343.27
392.122	361.35
392.501	383.94
392.881	360.22
393.26	376.49
393.639	373.78
394.018	384.62
394.397	367.22
394.776	380.55
395.155	357.73
395.534	361.12
395.913	358.63
396.292	380.78
396.671	372.19
397.05	378.3
397.429	393.44
397.808	369.03
398.186	372.65
398.565	386.2
398.944	363.15
399.323	389.37
399.701	367.22
400.08	385.07
400.458	372.19
400.837	376.04
401.215	387.56
401.594	394.34
401.972	397.96
402.351	381.46
402.729	390.27
403.107	391.4
403.486	391.18
403.864	387.11
404.242	390.27
404.62	409.93
404.999	394.79
405.377	391.18
405.755	399.54
406.133	386.88
406.511	415.58
406.889	388.69
407.267	405.41
407.645	430.27
408.023	414.9
408.401	416.49
408.779	414.9
409.156	432.31
409.534	419.65
409.912	425.3
410.29	423.72
410.667	435.92
411.045	427.56
411.422	432.76
411.8	416.03
412.178	427.56
412.555	440.89
412.933	452.64
413.31	423.49
413.687	445.64
414.065	441.57
414.442	448.12
414.819	446.99
415.197	426.2
415.574	464.62
415.951	469.82
416.328	474.11
416.705	463.94
417.082	481.34
417.46	474.34
417.837	493.55
418.214	471.4
418.591	457.39
418.967	477.73
419.344	504.85
419.721	497.61
420.098	496.71
420.475	489.48
420.852	474.56
421.228	480.44
421.605	477.73
421.982	511.4
422.358	488.35
422.735	493.32
423.111	484.06
423.488	514.79
423.864	503.72
424.241	503.26
424.617	514.79
424.994	528.12
425.37	526.77
425.746	504.17
426.123	537.61
426.499	532.87
426.875	527.67
427.251	531.96
427.627	544.17
428.003	536.48
428.379	545.07
428.756	548.69
429.132	530.16
429.507	538.74
429.883	570.38
430.259	552.53
430.635	562.02
431.011	553.88
431.387	557.05
431.763	558.86
432.138	592.53
432.514	577.39
432.89	600.21
433.265	595.69
433.641	597.5
434.016	593.2
434.392	614.22
434.767	615.35
435.143	606.99
435.518	614.45
435.894	624.16
436.269	641.57
436.644	639.53
437.02	633.66
437.395	629.14
437.77	650.38
438.145	658.06
438.52	665.97
438.895	646.08
439.271	644.73
439.646	649.02
440.021	658.06
440.395	641.11
440.77	660.32
441.145	676.82
441.52	684.73
441.895	676.82
442.27	690.38
442.645	673.43
443.019	669.13
443.394	670.04
443.769	704.39
444.143	686.31
444.518	703.94
444.892	728.79
445.267	715.01
445.641	694.45
446.016	728.57
446.39	729.47
446.764	728.34
447.139	725.63
447.513	748.23
447.887	748.23
448.262	723.82
448.636	734.44
449.01	755.69
449.384	726.53
449.758	741
450.132	750.49
450.506	754.78
450.88	765.63
451.254	764.27
451.628	775.12
452.002	778.96
452.376	788.23
452.75	764.73
453.123	797.27
453.497	793.43
453.871	831.16
454.244	812.41
454.618	812.63
454.992	840.66
455.365	834.55
455.739	861.22
456.112	878.62
456.486	854.67
456.859	863.93
457.232	876.59
457.606	866.87
457.979	904.61
458.352	898.28
458.725	922.24
459.099	928.11
459.472	941.22
459.845	946.87
460.218	929.92
460.591	951.39
460.964	978.51
461.337	977.38
461.71	1004.49
462.083	1003.82
462.456	996.36
462.829	1032.06
463.201	1013.31
463.574	1033.19
463.947	1062.8
464.32	1053.98
464.692	1082.23
465.065	1074.77
465.438	1116.58
465.81	1095.11
466.183	1165.17
466.555	1159.74
466.928	1159.52
467.3	1148.9
467.672	1169.69
468.045	1223.7
468.417	1244.26
468.789	1232.28
469.161	1266.41
469.534	1267.76
469.906	1302.79
470.278	1304.37
470.65	1338.27
471.022	1370.81
471.394	1385.27
471.766	1387.76
472.138	1402
472.51	1475.67
472.882	1512.5
473.253	1530.58
473.625	1579.85
473.997	1601.99
474.369	1618.04
474.74	1661.65
475.112	1703.23
475.484	1728.77
475.855	1811.93
476.227	1805.6
476.598	1896
476.97	1904.36
477.341	1943.23
477.713	1971.47
478.084	2033.39
478.455	2117.46
478.827	2153.16
479.198	2219.83
479.569	2266.61
479.94	2407.39
480.311	2436.09
480.682	2499.82
481.053	2579.82
481.424	2652.81
481.795	2718.8
482.166	2809.87
482.537	2837.67
482.908	2936.87
483.279	3026.81
483.65	3147.94
484.021	3248.5
484.391	3313.13
484.762	3378.44
485.133	3485.33
485.503	3589.28
485.874	3705.67
486.244	3779.11
486.615	3893.46
486.985	4024.3
487.356	4122.6
487.726	4228.14
488.097	4352.65
488.467	4398.75
488.837	4601.01
489.207	4692.98
489.578	4838.52
489.948	4906.31
490.318	5128.9
490.688	5154.21
491.058	5336.13
491.428	5445.28
491.798	5520.08
492.168	5752.39
492.538	5876.23
492.908	5963.68
493.278	6080.29
493.648	6235.32
494.017	6354.18
494.387	6514.18
494.757	6588.3
495.126	6718.92
495.496	6838.24
495.866	6963.21
496.235	7134.5
496.605	7227.83
496.974	7341.73
497.344	7507.15
497.713	7638.67
498.082	7675.96
498.452	7912.79
498.821	7988.26
499.19	8059
499.559	8241.14
499.928	8327.24
500.298	8471.19
500.667	8651.3
501.036	8605.65
501.405	8842.48
501.774	8863.72
502.143	9057.84
502.512	9100.78
502.88	9303.71
503.249	9305.97
503.618	9460.09
503.987	9540.31
504.356	9672.29
504.724	9761.1
505.093	9866.63
505.462	9967.42
505.83	10027.76
506.199	10184.82
506.567	10377.35
506.936	10389.56
507.304	10561.76
507.672	10639.04
508.041	10731.47
508.409	10905.02
508.777	10926.49
509.145	11133.27
509.514	11168.29
509.882	11300.04
510.25	11310.66
510.618	11504.1
510.986	11462.98
511.354	11638.56
511.722	11781.84
512.09	11911.78
512.458	11922.17
512.826	12137.53
513.193	12156.97
513.561	12272.22
513.929	12377.53
514.297	12472.44
514.664	12648.26
515.032	12698.65
515.4	12798.76
515.767	12929.38
516.135	13029.94
516.502	12989.71
516.869	13223.16
517.237	13230.84
517.604	13321.01
517.972	13490.04
518.339	13495.01
518.706	13566.2
519.073	13731.39
519.44	13782.91
519.808	13899.07
520.175	13918.28
520.542	14136.35
520.909	14260.87
521.276	14328.89
521.643	14421.99
522.009	14573.63
522.376	14584.02
522.743	14771.14
523.11	14887.52
523.477	14990.34
523.843	15114.63
524.21	15281.86
524.577	15330.44
524.943	15479.82
525.31	15599.36
525.676	15716.65
526.043	15818.57
526.409	15845.23
526.776	16035.51
527.142	16054.72
527.508	16177.2
527.874	16373.58
528.241	16454.03
528.607	16461.04
528.973	16694.48
529.339	16665.55
529.705	16838.88
530.071	17002.49
530.437	17002.72
530.803	17142.37
531.169	17304.63
531.535	17250.62
531.901	17289.94
532.267	17370.16
532.632	17573.55
532.998	17585.07
533.364	17760.66
533.73	17778.74
534.095	17994.78
534.461	17991.39
534.826	18008.34
535.192	18099.19
535.557	18298.95
535.923	18339.86
536.288	18354.09
536.653	18516.58
537.019	18370.59
537.384	18565.84
537.749	18692.84
538.114	18700.75
538.479	18714.54
538.845	18935.77
539.21	18890.58
539.575	19000.4
539.94	19039.27
540.305	19154.3
540.67	19173.51
541.034	19194.52
541.399	19327.4
541.764	19351.36
542.129	19401.75
542.494	19569.43
542.858	19575.98
543.223	19594.51
543.587	19724.91
543.952	19718.13
544.316	19815.98
544.681	19816.2
545.045	19995.41
545.41	20007.38
545.774	20105.23
546.138	20111.34
546.503	20177.55
546.867	20206.7
547.231	20387.71
547.595	20326.92
547.959	20488.5
548.324	20558.78
548.688	20621.38
549.052	20703.86
549.416	20705.44
549.779	20794.71
550.143	20856.63
550.507	20966.91
550.871	21030.86
551.235	21050.52
551.599	21208.93
551.962	21261.14
552.326	21390.62
552.689	21425.43
553.053	21334.35
553.417	21416.61
553.78	21795.36
554.143	21592.43
554.507	21737.51
554.87	21848.69
555.234	22021.79
555.597	21935.02
555.96	22001.46
556.323	22146.54
556.686	22109.48
557.05	22387.89
557.413	22460.65
557.776	22436.7
558.139	22595.11
558.502	22673.08
558.865	22652.74
559.228	22892.51
559.59	22922.11
559.953	22930.24
560.316	23160.75
560.679	23105.38
561.041	23356.67
561.404	23431.47
561.767	23593.28
562.129	23543.34
562.492	23743.1
562.854	23719.6
563.217	23815.42
563.579	23948.75
563.941	23973.15
564.304	24125.47
564.666	24272.81
565.028	24397.1
565.39	24318
565.753	24486.59
566.115	24642.29
566.477	24804.32
566.839	24835.96
567.201	24988.72
567.563	24969.29
567.925	25120.24
568.287	25241.14
568.648	25230.75
569.01	25318.43
569.372	25564.53
569.734	25551.19
570.095	25673.45
570.457	25824.63
570.819	25779.44
571.18	25862.37
571.542	26043.61
571.903	26098.3
572.265	26255.13
572.626	26287.67
572.987	26435.46
573.349	26421.9
573.71	26521.34
574.071	26735.34
574.432	26727.43
574.794	26967.88
575.155	26927.43
575.516	26863.47
575.877	27169
576.238	27256.91
576.599	27272.28
576.96	27361.77
577.32	27365.83
577.681	27532.38
578.042	27691.7
578.403	27795.2
578.763	27852.38
579.124	27937.34
579.485	27934.41
579.845	28071.8
580.206	28197.68
580.566	28263.66
580.927	28277.22
581.287	28509.98
581.648	28411
582.008	28641.28
582.368	28683.99
582.728	28804.67
583.089	28826.36
583.449	28921.27
583.809	29089.86
584.169	29142.74
584.529	29147.48
584.889	29537.53
585.249	29300.47
585.609	29406.46
585.969	29685.55
586.329	29591.99
586.688	29876.73
587.048	30056.38
587.408	30021.81
587.768	30031.07
588.127	30165.99
588.487	30181.13
588.846	30521.46
589.206	30335.02
589.565	30518.97
589.925	30571.63
590.284	30730.94
590.643	30844.39
591.003	30966.19
591.362	31151.27
591.721	31183.81
592.08	31265.62
592.44	31362.11
592.799	31521.21
593.158	31461.32
593.517	31599.17
593.876	31869.22
594.235	31684.59
594.593	31889.56
594.952	31979.05
595.311	31963.45
595.67	32173.84
596.029	32450.45
596.387	32461.29
596.746	32480.05
597.104	32510.33
597.463	32667.84
597.822	32830.78
598.18	32793.71
598.538	32790.1
598.897	33106.47
599.255	32854.73
599.613	33381.27
599.972	33221.95
600.33	33588.95
600.688	33276.19
601.046	33601.83
601.404	33775.61
601.762	33667.36
602.12	33944.87
602.478	34041.36
602.836	34061.93
603.194	33977.86
603.552	34078.2
603.91	34180.34
604.268	34268.7
604.625	34195.03
604.983	34394.35
605.341	34276.16
605.698	34575.81
606.056	34696.94
606.413	34673.66
606.771	34788.24
607.128	34924.73
607.485	34732.19
607.843	34847.22
608.2	35177.61
608.557	35296.47
608.914	35171.28
609.272	35356.81
609.629	35400.43
609.986	35597.71
610.343	35486.07
610.7	35778.04
611.057	35760.87
611.414	35826.18
611.771	35789.34
612.127	35963.57
612.484	36030.01
612.841	36148.88
613.198	36073.4
613.554	36247.86
613.911	36490.11
614.267	36382.55
614.624	36437.46
614.98	36548.19
615.337	36826.38
615.693	36731.46
616.05	36654.18
616.406	36976.88
616.762	36886.26
617.118	36781.18
617.475	36939.14
617.831	37041.51
618.187	37025.92
618.543	37103.88
618.899	37370.77
619.255	37276.08
619.611	37245.12
619.967	37531.89
620.323	37529.41
620.678	37420.26
621.034	37446.25
621.39	37523.99
621.746	37424.1
622.101	37936.63
622.457	37551.33
622.812	37652.57
623.168	37780.25
623.523	37842.39
623.879	38001.94
624.234	37840.36
624.589	37991.09
624.945	37875.16
625.3	37954.93
625.655	37908.83
626.01	37855.95
626.365	38141.14
626.72	37982.05
627.075	38053.01
627.43	38010.07
627.785	37955.84
628.14	38119.45
628.495	38058.43
628.85	38102.73
629.205	37965.56
629.559	38187.7
629.914	37993.58
630.269	38125.78
630.623	37975.27
630.978	37948.83
631.332	38068.15
631.687	38253.46
632.041	38020.24
632.396	38166.68
632.75	37936.4
633.104	38001.49
633.459	37907.25
633.813	37965.78
634.167	37983.63
634.521	38090.3
634.875	38053.24
635.229	38002.16
635.583	37831.77
635.937	37820.93
636.291	37800.59
636.645	37824.09
636.999	37773.24
637.352	37906.8
637.706	37768.72
638.06	37852.79
638.413	37841.72
638.767	37744.09
639.121	37774.6
639.474	37559.92
639.828	37686.24
640.181	37662.74
640.534	37814.82
640.888	37474.04
641.241	37390.66
641.594	37538.9
641.947	37672.46
642.301	37532.12
642.654	37526.02
643.007	37513.59
643.36	37355.4
643.713	37498.68
644.066	37462.97
644.419	37322.41
644.771	37046.03
645.124	36624.12
645.477	36680.39
645.83	36389.55
646.182	36387.29
646.535	36256.9
646.888	36319.5
647.24	36058.03
647.593	36320.4
647.945	36226.62
648.298	36084.47
648.65	36024.59
649.002	36060.97
649.355	36144.36
649.707	36031.59
650.059	36237.69
650.411	36509.1
650.763	36447.63
651.115	36899.37
651.467	36846.71
651.819	36859.6
652.171	36695.08
652.523	36794.74
652.875	36684.69
653.227	36615.76
653.578	36943.44
653.93	36719.03
654.282	36516.55
654.633	36540.06
654.985	36618.92
655.337	36637.45
655.688	36497.8
656.039	36806.04
656.391	36385.71
656.742	36499.15
657.094	36522.66
657.445	36542.09
657.796	36428.42
658.147	36411.7
658.498	36370.34
658.849	36491.7
659.2	36344.36
659.551	36412.83
659.902	36486.72
660.253	36354.3
660.604	36479.04
660.955	36392.49
661.306	36394.98
661.656	36299.61
662.007	36346.84
662.358	36231.59
662.708	36237.92
663.059	36325.15
663.409	36124.93
663.76	36277.46
664.11	36269.33
664.461	36236.34
664.811	36237.69
665.161	36291.02
665.511	36185.94
665.862	36203.12
666.212	36444.69
666.562	36342.55
666.912	36194.3
667.262	36193.4
667.612	36152.27
667.962	36194.3
668.312	36122.67
668.662	36255.54
669.011	36264.81
669.361	36155.89
669.711	36134.64
670.06	36117.69
670.41	36000.18
670.76	36072.72
671.109	36139.61
671.459	36038.15
671.808	35983.46
672.157	36212.61
672.507	35837.25
672.856	35850.81
673.205	35907.98
673.554	35991.14
673.904	35775.33
674.253	36050.8
674.602	35859.62
674.951	35488.33
675.3	35308.45
675.649	35899.62
675.998	35804.03
676.346	35762.45
676.695	35869.79
677.044	35572.62
677.393	35834.76
677.741	35709.57
678.09	35605.17
678.438	35625.73
678.787	35534.21
679.135	35640.19
679.484	35446.98
679.832	35498.05
680.181	35333.53
680.529	35414.44
680.877	35397.94
681.225	35302.35
681.573	35461.67
681.922	35269.13
682.27	35093.77
682.618	35172.41
682.966	35138.29
683.314	35123.37
683.661	35038.4
684.009	34826.88
684.357	34858.74
684.705	34781.46
685.053	34733.55
685.4	34798.41
685.748	34582.14
686.095	34687.22
686.443	34586.66
686.79	34501.47
687.138	34574.23
687.485	34448.81
687.832	34391.19
688.18	34404.07
688.527	34204.07
688.874	34241.36
689.221	34147.12
689.568	34088.14
689.915	33966.79
690.262	33980.58
690.609	33878.66
690.956	33907.58
691.303	33812.67
691.65	33642.51
691.997	33555.95
692.344	33349.86
692.69	33341.27
693.037	33426.24
693.383	33073.48
693.73	33270.76
694.077	33093.59
694.423	32987.38
694.769	32940.15
695.116	32863.32
695.462	32832.13
695.808	32734.28
696.155	32760.04
696.501	32613.15
696.847	32561.18
697.193	32256.1
697.539	32420.62
697.885	32160.28
698.231	32158.02
698.577	32082.77
698.923	32151.7
699.269	31996.67
699.614	31808.43
699.96	31653.86
700.306	31768.43
700.651	31703.57
700.997	31583.12
701.342	31338.39
701.688	31422.45
702.033	31283.92
702.379	31294.32
702.724	31199.86
703.069	31193.98
703.415	30800.77
703.76	30917.83
704.105	30958.51
704.45	30799.64
704.795	30654.56
705.14	30587.67
705.485	30654.56
705.83	30324.63
706.175	30374.12
706.52	30360.78
706.865	30325.08
707.209	30349.03
707.554	30180.22
707.899	30273.1
708.243	29953.56
708.588	30022.94
708.932	29811.42
709.277	29742.95
709.621	29865.43
709.966	29536.62
710.31	29679.45
710.654	29422.5
710.998	29543.63
711.342	29519.68
711.687	29455.5
712.031	29410.07
712.375	29205.33
712.719	29246.46
713.063	29191.55
713.407	29178.89
713.75	29048.95
714.094	29090.31
714.438	28946.13
714.782	28942.74
715.125	28834.72
715.469	28885.57
715.812	28739.13
716.156	28621.17
716.499	28607.38
716.843	28540.72
717.186	28521.96
717.53	28565.58
717.873	28542.75
718.216	28447.61
718.559	28229.09
718.902	28107.06
719.246	28265.92
719.589	28151.8
719.932	27886.95
720.275	27939.38
720.617	27847.63
720.96	27927.18
721.303	28026.83
721.646	27926.5
721.989	27765.15
722.331	27797.69
722.674	27661.87
723.016	27654.87
723.359	27816.9
723.701	27688.09
724.044	27449.9
724.386	27286.97
724.729	27516.79
725.071	27440.86
725.413	27412.39
725.755	27287.64
726.097	27282.67
726.439	27126.97
726.782	27086.29
727.124	27213.3
727.465	27037.48
727.807	27072.96
728.149	26903.25
728.491	26947.99
728.833	26950.03
729.175	26889.91
729.516	26873.64
729.858	26745.96
730.199	26695.12
730.541	26727.88
730.882	26607.89
731.224	26746.87
731.565	26507.1
731.906	26574.44
732.248	26472.07
732.589	26465.74
732.93	26362.02
733.271	26321.57
733.612	26330.16
733.953	26356.14
734.294	26272.98
734.635	26249.48
734.976	26262.36
735.317	26218.29
735.658	26077.05
735.999	26093.78
736.339	25965.42
736.68	26141.91
737.021	25957.06
737.361	25869.38
737.702	25927.91
738.042	25834.57
738.383	25835.03
738.723	25936.27
739.063	25667.8
739.404	25712.77
739.744	25684.3
740.084	25435.94
740.424	25622.38
740.764	25606.56
741.104	25662.6
741.444	25445.66
741.784	25365.89
742.124	25499.22
742.464	25407.02
742.804	25352.1
743.143	25312.1
743.483	25295.15
743.823	25199.56
744.162	25214.93
744.502	25298.54
744.841	25069.4
745.181	25151.2
745.52	25072.34
745.86	25104.88
746.199	25059
746.538	24924.99
746.877	25114.59
747.216	24927.93
747.556	24898.33
747.895	24866.69
748.234	24715.28
748.573	24657.2
748.911	24691.33
749.25	24624.21
749.589	24512.12
749.928	24554.16
750.267	24578.11
750.605	24454.05
750.944	24459.7
751.283	24386.48
751.621	24422.86
751.96	24265.35
752.298	24243.43
752.636	24315.29
752.975	24174.51
753.313	24041.18
753.651	24139.03
753.989	24008.41
754.327	24014.06
754.666	23877.34
755.004	23920.28
755.342	23840.96
755.679	23867.62
756.017	23725.25
756.355	23743.1
756.693	23619.49
757.031	23675.31
757.368	23437.35
757.706	23516.22
758.044	23361.87
758.381	23357.13
758.719	23277.58
759.056	23210.69
759.394	23206.62
759.731	23077.59
760.068	23033.07
760.405	22986.06
760.743	22849.79
761.08	22777.25
761.417	22745.84
761.754	22741.1
762.091	22681.89
762.428	22661.1
762.765	22441.9
763.102	22531.61
763.438	22409.58
763.775	22253.2
764.112	22229.47
764.449	22388.79
764.785	22213.43
765.122	22012.3
765.458	21979.31
765.795	22003.72
766.131	22015.24
766.467	21779.99
766.804	21736.83
767.14	21633.1
767.476	21598.53
767.812	21624.29
768.148	21538.87
768.485	21303.39
768.821	21226.79
769.157	21347.46
769.492	21201.25
769.828	21248.48
770.164	20989.73
770.5	20954.7
770.836	20969.17
771.171	20833.12
771.507	20808.27
771.842	20530.08
772.178	20603.75
772.513	20570.08
772.849	20369.63
773.184	20355.17
773.519	20381.61
773.855	20208.28
774.19	20149.75
774.525	20152.46
774.86	20081.51
775.195	20044.22
775.53	19970.32
775.865	19720.61
776.2	19725.36
776.535	19666.6
776.87	19594.06
777.205	19605.36
777.539	19473.61
777.874	19566.72
778.209	19272.71
778.543	19234.52
778.878	19168.76
779.212	19253.05
779.547	19067.3
779.881	19022.32
780.215	18880.86
780.55	19039.5
780.884	18801.31
781.218	18783.69
781.552	18831.37
781.886	18651.26
782.22	18567.42
782.554	18433.64
782.888	18260.76
783.222	18344.15
783.556	18306.64
783.889	18205.62
784.223	18015.8
784.557	18071.62
784.89	18081.33
785.224	17910.26
785.557	17834.11
785.891	17738.74
786.224	17774.22
786.558	17746.65
786.891	17519.99
787.224	17413.78
787.557	17405.87
787.891	17385.08
788.224	17451.74
788.557	17360.45
788.89	17338.98
789.223	17249.72
789.556	17060.57
789.888	17062.15
790.221	17077.52
790.554	16937.86
790.887	16943.28
791.219	16823.96
791.552	16777.19
791.884	16715.94
792.217	16592.56
792.549	16594.59
792.882	16462.62
793.214	16359.34
793.546	16447.03
793.879	16315.73
794.211	16213.36
794.543	16300.81
794.875	16217.43
795.207	16274.6
795.539	16094.04
795.871	16148.95
796.203	16020.82
796.535	15859.92
796.867	15953.7
797.198	15815.86
797.53	15802.97
797.862	15665.35
798.193	15751.9
798.525	15566.6
798.856	15654.05
799.188	15413.38
799.519	15499.25
799.85	15398.92
800.182	15309.65
800.513	15323.89
800.844	15195.31
801.175	15304.46
801.506	15247.06
801.837	15159.6
802.168	15213.84
802.499	15057.01
802.83	14930.91
803.161	14909.21
803.491	14924.13
803.822	14971.81
804.153	14820.4
804.483	14747.86
804.814	14734.08
805.145	14706.96
805.475	14635.32
805.805	14593.97
806.136	14538.83
806.466	14588.99
806.796	14563.68
807.126	14329.79
807.457	14387.19
807.787	14378.38
808.117	14256.57
808.447	14224.94
808.777	14283.01
809.107	14134.32
809.436	14109.69
809.766	14138.16
810.096	14134.77
810.426	14038.95
810.755	14017.71
811.085	13956.02
811.414	13993.98
811.744	13886.19
812.073	13831.5
812.403	13841.9
812.732	13748.79
813.061	13738.4
813.39	13654.33
813.719	13665.86
814.049	13669.25
814.378	13648.23
814.707	13570.04
815.036	13629.92
815.365	13603.71
815.693	13415.69
816.022	13400.78
816.351	13346.77
816.68	13284.62
817.008	13366.2
817.337	13196.04
817.665	13251.4
817.994	13229.71
818.322	13263.15
818.651	13135.7
818.979	13072.65
819.307	13121.24
819.636	13076.94
819.964	12979.09
820.292	13001.24
820.62	13016.15
820.948	12973.44
821.276	13021.58
821.604	12931.41
821.932	13074.01
822.259	12950.17
822.587	12927.34
822.915	12957.63
823.243	12962.37
823.57	12873.11
823.898	12942.48
824.225	12898.87
824.553	12879.89
824.88	12855.48
825.207	12893.22
825.535	12879.89
825.862	12915.82
826.189	12897.97
826.516	12886.89
826.843	13011.64
827.17	12970.51
827.497	12928.25
827.824	12944.52
828.151	12968.92
828.478	12852.54
828.805	12953.11
829.131	12858.64
829.458	12794.24
829.785	12784.75
830.111	12897.06
830.438	12873.33
830.764	12918.53
831.09	12869.49
831.417	12790.85
831.743	12795.14
832.069	12799.89
832.395	12763.28
832.722	12801.02
833.048	12789.95
833.374	12735.71
833.7	12700.01
834.026	12661.36
834.351	12728.93
834.677	12739.33
835.003	12722.6
835.329	12645.32
835.654	12679.21
835.98	12630.63
836.306	12668.14
836.631	12479.67
836.956	12637.18
837.282	12603.51
837.607	12514.93
837.932	12541.59
838.258	12559.67
838.583	12526.9
838.908	12462.95
839.233	12433.57
839.558	12433.57
839.883	12381.14
840.208	12309.28
840.533	12360.8
840.858	12324.87
841.182	12355.16
841.507	12260.47
841.832	12246.01
842.156	12184.31
842.481	12211.66
842.805	12183.63
843.13	12097.08
843.454	12109.29
843.778	12142.28
844.103	12049.17
844.427	12026.35
844.751	12093.69
845.075	12019.8
845.399	11954.49
845.723	11988.61
846.047	11908.39
846.371	11781.84
846.695	11842.63
847.019	11727.15
847.343	11641.73
847.666	11617.32
847.99	11570.09
848.313	11543.88
848.637	11447.83
848.96	11377.55
849.284	11434.73
849.607	11339.36
849.931	11241.29
850.254	11243.55
850.577	11136.2
850.9	11122.65
851.223	11095.75
851.546	11044
851.869	10998.81
852.192	11067.28
852.515	10880.17
852.838	10798.59
853.161	10834.29
853.483	10837.23
853.806	10713.84
854.129	10747.29
854.451	10692.6
854.774	10611.92
855.096	10630.91
855.419	10626.84
855.741	10555.65
856.063	10575.09
856.385	10510.68
856.708	10485.15
857.03	10404.47
857.352	10360.86
857.674	10392.72
857.996	10398.6
858.318	10275.44
858.64	10262.78
858.961	10268.2
859.283	10180.07
859.605	10202.44
859.926	10174.65
860.248	10086.29
860.57	10117.7
860.891	10143.24
861.212	10099.4
861.534	9995.67
861.855	10051.04
862.176	10045.61
862.498	10049.68
862.819	10076.35
863.14	9950.25
863.461	9933.75
863.782	9897.59
864.103	9934.43
864.424	9924.94
864.745	9894.66
865.065	9799.97
865.386	9801.78
865.707	9819.18
866.027	9779.4
866.348	9756.13
866.668	9746.86
866.989	9667.54
867.309	9688.11
867.63	9673.64
867.95	9635.68
868.27	9611.05
868.59	9701.44
868.91	9614.21
869.23	9634.55
869.55	9523.59
869.87	9656.24
870.19	9500.77
870.51	9586.41
870.83	9535.34
871.15	9464.61
871.469	9484.27
871.789	9482.91
872.109	9523.14
872.428	9448.11
872.748	9460.99
873.067	9360.88
873.386	9492.63
873.706	9394.1
874.025	9381.67
874.344	9365.4
874.663	9354.33
874.982	9281.34
875.301	9270.94
875.62	9295.8
875.939	9242.92
876.258	9230.94
876.577	9181.91
876.896	9281.11
877.214	9153.21
877.533	9159.53
877.852	9192.75
878.17	9193.43
878.489	9141.45
878.807	9182.13
879.125	9116.37
879.444	9111.62
879.762	9102.36
880.08	9085.41
880.398	9002.02
880.716	9028.46
881.034	9032.53
881.352	9004.73
881.67	9006.32
881.988	8985.98
882.306	8863.95
882.624	8977.17
882.941	8860.78
883.259	8782.37
883.577	8789.83
883.894	8845.64
884.212	8798.41
884.529	8799.09
884.846	8762.48
885.164	8731.07
885.481	8737.85
885.798	8727.68
886.115	8654.91
886.432	8648.81
886.75	8711.86
887.067	8617.4
887.383	8630.96
887.7	8594.35
888.017	8606.78
888.334	8524.97
888.651	8569.72
888.967	8524.52
889.284	8514.35
889.6	8452.43
889.917	8379.89
890.233	8406.33
890.55	8366.11
890.866	8332.66
891.182	8353.9
891.498	8329.95
891.815	8269.16
892.131	8277.3
892.447	8227.35
892.763	8251.08
893.079	8198.43
893.395	8273.68
893.71	8240.24
894.026	8164.31
894.342	8108.04
894.657	8128.6
894.973	8043.4
895.289	8055.16
895.604	8028.49
895.92	7974.93
896.235	7929.51
896.55	7979.23
896.865	7907.14
897.181	7899
897.496	7907.59
897.811	7817.87
898.126	7800.92
898.441	7791.89
898.756	7761.38
899.071	7753.24
899.386	7690.65
899.7	7680.7
900.015	7685
900.33	7567.48
900.644	7576.75
900.959	7517.77
901.273	7574.26
901.588	7560.93
901.902	7456.75
902.216	7379.24
902.531	7431.44
902.845	7327.94
903.159	7313.71
903.473	7296.53
903.787	7307.38
904.101	7244.33
904.415	7289.53
904.729	7181.51
905.042	7166.37
905.356	7192.58
905.67	7124.78
905.984	7165.24
906.297	7112.58
906.611	7043.2
906.924	7003.66
907.237	7002.53
907.551	6980.16
907.864	7025.35
908.177	6960.72
908.491	6885.24
908.804	6880.27
909.117	6866.03
909.43	6772.93
909.743	6799.37
910.056	6774.06
910.368	6748.52
910.681	6716.43
910.994	6701.07
911.307	6638.7
911.619	6549.66
911.932	6642.76
912.244	6514.4
912.557	6595.31
912.869	6553.73
913.181	6461.75
913.494	6510.79
913.806	6407.74
914.118	6419.04
914.43	6349.89
914.742	6370
915.054	6385.14
915.366	6314.86
915.678	6313.05
915.99	6249.55
916.302	6221.98
916.613	6233.51
916.925	6170.01
917.236	6169.33
917.548	6105.83
917.859	6144.25
918.171	6080.29
918.482	6073.96
918.794	6045.94
919.105	6017.47
919.416	5919.84
919.727	5995.77
920.038	5956.23
920.349	5864.25
920.66	5888.21
920.971	5822.9
921.282	5852.5
921.593	5841.43
921.903	5752.17
922.214	5770.02
922.525	5756.23
922.835	5721.43
923.146	5675.11
923.456	5712.39
923.767	5660.87
924.077	5610.93
924.387	5631.26
924.697	5584.94
925.008	5570.93
925.318	5538.16
925.628	5498.39
925.938	5520.31
926.248	5451.16
926.558	5433.08
926.867	5407.99
927.177	5395.11
927.487	5392.85
927.796	5321.44
928.106	5317.37
928.416	5324.38
928.725	5348.79
929.034	5271.95
929.344	5280.09
929.653	5235.57
929.962	5169.58
930.271	5178.62
930.581	5182.69
930.89	5118.06
931.199	5111.05
931.508	5107.66
931.817	5089.81
932.125	5048.45
932.434	5043.26
932.743	4979.76
933.051	5004.84
933.36	5014.78
933.669	4922.58
933.977	4910.15
934.286	4894.79
934.594	4833.09
934.902	4868.57
935.21	4813.66
935.519	4828.12
935.827	4796.48
936.135	4799.42
936.443	4743.6
936.751	4729.59
937.059	4651.4
937.367	4671.06
937.674	4681.01
937.982	4642.82
938.29	4579.77
938.597	4636.49
938.905	4605.3
939.213	4515.81
939.52	4539.77
939.827	4576.38
940.135	4513.33
940.442	4540.67
940.749	4482.37
941.056	4493.22
941.363	4427
941.67	4400.79
941.977	4398.3
942.284	4411.18
942.591	4363.5
942.898	4342.26
943.205	4334.8
943.511	4325.31
943.818	4323.28
944.125	4290.28
944.431	4245.09
944.738	4208.7
945.044	4206.9
945.35	4222.49
945.657	4168.48
945.963	4146.11
946.269	4147.69
946.575	4158.99
946.881	4133
947.187	4111.53
947.493	4032.44
947.799	4053.45
948.105	4011.42
948.41	4061.14
948.716	3987.69
949.022	4027.46
949.327	3966.68
949.633	3941.59
949.938	3962.38
950.244	3888.49
950.549	3911.31
950.854	3867.24
951.16	3874.02
951.465	3897.07
951.77	3848.71
952.075	3846.23
952.38	3805.55
952.685	3820.69
952.99	3768.26
953.294	3801.03
953.599	3775.72
953.904	3727.36
954.209	3715.61
954.513	3688.49
954.818	3686.46
955.122	3655.72
955.426	3667.02
955.731	3603.75
956.035	3594.93
956.339	3593.13
956.643	3551.55
956.948	3547.03
957.252	3556.06
957.556	3505.67
957.86	3516.74
958.163	3506.57
958.467	3477.87
958.771	3506.12
959.075	3463.64
959.378	3483.3
959.682	3444.66
959.985	3447.14
960.289	3441.04
960.592	3389.06
960.896	3377.54
961.199	3362.62
961.502	3341.16
961.805	3333.47
962.108	3302.74
962.411	3296.64
962.714	3309.97
963.017	3259.35
963.32	3238.56
963.623	3229.29
963.926	3234.72
964.228	3177.09
964.531	3158.34
964.833	3170.76
965.136	3163.08
965.438	3170.31
965.741	3139.8
966.043	3106.81
966.345	3156.53
966.648	3101.61
966.95	3097.55
967.252	3100.48
967.554	3034.5
967.856	3055.96
968.158	3046.7
968.46	3075.85
968.761	2982.75
969.063	2981.39
969.365	2996.08
969.666	3010.99
969.968	2965.12
970.269	2944.78
970.571	2938
970.872	2940.94
971.174	2890.32
971.475	2891.9
971.776	2932.8
972.077	2858.91
972.378	2884.67
972.679	2906.36
972.98	2850.32
973.281	2825.46
973.582	2813.26
973.883	2784.11
974.183	2797.44
974.484	2805.8
974.785	2764.22
975.085	2776.65
975.386	2743.88
975.686	2732.81
975.986	2724.67
976.287	2706.14
976.587	2642.19
976.887	2692.58
977.187	2703.88
977.487	2676.77
977.787	2668.63
978.087	2639.48
978.387	2641.29
978.687	2631.12
978.987	2589.31
979.286	2579.14
979.586	2588.86
979.885	2575.3
980.185	2547.28
980.484	2561.06
980.784	2515.64
981.083	2538.46
981.382	2521.52
981.682	2530.1
981.981	2519.26
982.28	2480.61
982.579	2467.28
982.878	2487.84
983.177	2458.92
983.475	2473.61
983.774	2437
984.073	2462.08
984.372	2416.66
984.67	2402.42
984.969	2382.54
985.267	2405.81
985.566	2382.31
985.864	2347.73
986.162	2364.01
986.461	2324.91
986.759	2328.3
987.057	2321.52
987.355	2298.24
987.653	2272.71
987.951	2270.9
988.249	2277
988.547	2298.02
988.844	2247.4
989.142	2273.39
989.44	2253.27
989.737	2218.7
990.035	2193.84
990.332	2210.79
990.63	2239.94
990.927	2168.98
991.224	2165.59
991.521	2175.31
991.819	2163.56
992.116	2157.46
992.413	2138.7
992.71	2126.27
993.006	2119.27
993.303	2116.1
993.6	2119.27
993.897	2100.28
994.193	2098.02
994.49	2077.69
994.787	2066.39
995.083	2028.42
995.379	2042.88
995.676	2060.96
995.972	2007.63
996.268	1997.01
996.565	1996.33
996.861	1993.62
997.157	1964.24
997.453	1970.12
997.749	1956.56
998.044	1953.85
998.34	1927.18
998.636	1905.03
998.932	1906.39
999.227	1932.38
999.523	1891.7
999.818	1910.46
1000.114	1882.66
1000.409	1869.33
1000.704	1883.79
1001	1861.19
1001.295	1872.04
1001.59	1838.14
1001.885	1807.41
1002.18	1826.39
1002.475	1828.65
1002.77	1815.77
1003.065	1778.94
1003.359	1749.56
1003.654	1771.48
1003.949	1750.46
1004.243	1773.51
1004.538	1759.5
1004.832	1721.99
1005.127	1713.85
1005.421	1720.63
1005.715	1711.82
1006.009	1713.18
1006.304	1686.28
1006.598	1671.82
1006.892	1703.68
1007.186	1684.02
1007.48	1658.49
1007.773	1660.52
1008.067	1628.43
1008.361	1609.45
1008.655	1609.45
1008.948	1616.68
1009.242	1595.21
1009.535	1603.57
1009.829	1572.39
1010.122	1560.64
1010.415	1567.42
1010.708	1538.04
1011.001	1532.39
1011.295	1552.5
1011.588	1542.11
1011.881	1522.22
1012.173	1532.84
1012.466	1502.56
1012.759	1509.11
1013.052	1504.82
1013.344	1465.72
1013.637	1500.53
1013.93	1445.16
1014.222	1448.32
1014.514	1445.84
1014.807	1418.04
1015.099	1429.11
1015.391	1408.32
1015.683	1419.85
1015.976	1426.4
1016.268	1407.87
1016.56	1384.6
1016.851	1411.04
1017.143	1372.62
1017.435	1349.8
1017.727	1347.76
1018.018	1361.77
1018.31	1323.58
1018.602	1343.92
1018.893	1372.85
1019.185	1331.94
1019.476	1314.32
1019.767	1318.61
1020.058	1292.17
1020.35	1267.76
1020.641	1294.2
1020.932	1271.83
1021.223	1257.37
1021.514	1253.53
1021.804	1237.93
1022.095	1246.07
1022.386	1236.58
1022.677	1227.09
1022.967	1209.91
1023.258	1189.57
1023.548	1181.89
1023.839	1206.3
1024.129	1195
1024.419	1188.67
1024.709	1162.91
1025	1161.33
1025.29	1131.5
1025.58	1153.64
1025.87	1137.37
1026.16	1168.33
1026.449	1140.31
1026.739	1122.68
1027.029	1124.94
1027.319	1112.74
1027.608	1112.29
1027.898	1110.93
1028.187	1087.43
1028.477	1081.55
1028.766	1075.45
1029.055	1077.49
1029.344	1070.71
1029.634	1052.18
1029.923	1041.78
1030.212	1054.44
1030.501	1040.88
1030.79	1041.78
1031.078	1018.28
1031.367	1008.56
1031.656	1001.78
1031.945	975.57
1032.233	1006.08
1032.522	1004.95
1032.81	977.83
1033.099	968.79
1033.387	1007.88
1033.675	978.96
1033.963	978.05
1034.251	967.21
1034.54	923.82
1034.828	958.17
1035.116	935.34
1035.403	941.9
1035.691	938.28
1035.979	905.51
1036.267	911.61
1036.554	937.83
1036.842	914.33
1037.129	912.97
1037.417	918.39
1037.704	879.75
1037.992	889.69
1038.279	902.8
1038.566	900.54
1038.853	900.54
1039.14	900.54
