Data from hue_150_FLMS001491_00005.txt Node
Date: Tue Feb 07 16:53:33 GMT 2017
User: dcchb
Spectrometer: FLMS00149
Trigger mode: 0
Integration Time (sec): 2.000000E-2
Scans to average: 10
Electric dark correction enabled: true
Nonlinearity correction enabled: false
Boxcar width: 0
XAxis mode: Wavelengths
Number of Pixels in Spectrum: 2048
>>>>>Begin Spectral Data<<<<<
341.393	-15.69
341.776	-15.69
342.16	-15.69
342.543	-77.38
342.927	-88.23
343.31	-76.48
343.693	-74.22
344.077	-68.57
344.46	-62.47
344.843	-34.67
345.226	-56.82
345.61	-43.49
345.993	-10.72
346.376	-5.52
346.759	10.52
347.142	14.82
347.525	58.88
347.908	72.89
348.291	70.86
348.674	96.4
349.057	108.6
349.44	134.13
349.823	146.34
350.206	162.16
350.588	187.47
350.971	199.44
351.354	255.26
351.737	241.93
352.119	247.58
352.502	258.65
352.884	266.56
353.267	247.35
353.65	304.07
354.032	309.5
354.414	307.24
354.797	313.34
355.179	316.95
355.562	313.79
355.944	307.46
356.326	324.86
356.709	324.41
357.091	342.94
357.473	332.55
357.855	334.36
358.238	359.89
358.62	335.03
359.002	337.07
359.384	347.69
359.766	334.81
360.148	330.51
360.53	328.25
360.912	343.62
361.294	335.94
361.676	329.16
362.057	313.34
362.439	323.06
362.821	332.77
363.203	329.16
363.584	315.15
363.966	328.25
364.348	312.21
364.729	371.19
365.111	331.87
365.493	314.24
365.874	316.28
366.256	332.1
366.637	307.01
367.019	316.95
367.4	323.06
367.781	333.45
368.163	316.5
368.544	314.7
368.925	316.73
369.306	319.67
369.688	318.99
370.069	300.91
370.45	304.53
370.831	319.21
371.212	294.58
371.593	326.22
371.974	322.83
372.355	331.64
372.736	321.93
373.117	317.63
373.498	312.66
373.879	331.42
374.26	304.3
374.641	315.15
375.021	307.69
375.402	308.82
375.783	324.86
376.163	302.49
376.544	351.08
376.925	337.29
377.305	320.34
377.686	337.07
378.066	326.9
378.447	307.24
378.827	335.94
379.208	316.95
379.588	331.19
379.968	325.77
380.349	351.53
380.729	326.67
381.109	326.45
381.489	358.54
381.87	338.42
382.25	329.84
382.63	328.71
383.01	321.93
383.39	323.73
383.77	345.2
384.15	346.78
384.53	363.06
384.91	342.72
385.29	360.8
385.67	351.76
386.049	349.72
386.429	346.56
386.809	333.9
387.189	358.08
387.568	346.11
387.948	374.13
388.328	345.88
388.707	342.27
389.087	344.3
389.466	358.54
389.846	357.63
390.225	352.43
390.605	387.01
390.984	385.43
391.363	384.75
391.743	367.12
392.122	358.08
392.501	369.16
392.881	360.57
393.26	379.33
393.639	360.57
394.018	387.69
394.397	379.78
394.776	375.71
395.155	366.67
395.534	389.72
395.913	381.36
396.292	372.77
396.671	405.77
397.05	409.61
397.429	380.46
397.808	393.56
398.186	385.88
398.565	411.19
398.944	408.93
399.323	401.92
399.701	401.92
400.08	377.74
400.458	415.48
400.837	410.51
401.215	421.36
401.594	402.15
401.972	406.67
402.351	421.13
402.729	427.01
403.107	420
403.486	432.66
403.864	412.09
404.242	433.11
404.62	416.39
404.999	432.66
405.377	435.37
405.755	401.7
406.133	413
406.511	421.36
406.889	421.58
407.267	419.33
407.645	431.75
408.023	450.28
408.401	467.69
408.779	450.51
409.156	447.8
409.534	440.34
409.912	454.35
410.29	463.39
410.667	474.69
411.045	466.78
411.422	477.4
411.8	470.17
412.178	493.45
412.555	502.49
412.933	456.39
413.31	476.5
413.687	491.19
414.065	491.87
414.442	490.96
414.819	510.62
415.197	526.89
415.574	502.49
415.951	512.88
416.328	514.46
416.705	497.97
417.082	517.18
417.46	519.89
417.837	534.35
418.214	526.67
418.591	535.71
418.967	545.42
419.344	530.73
419.721	542.26
420.098	546.78
420.475	561.69
420.852	547.91
421.228	548.81
421.605	552.43
421.982	551.75
422.358	572.77
422.735	591.98
423.111	565.76
423.488	568.25
423.864	590.85
424.241	581.58
424.617	595.82
424.994	597.85
425.37	599.43
425.746	609.15
426.123	612.09
426.499	601.92
426.875	616.83
427.251	604.41
427.627	616.38
428.003	621.13
428.379	623.16
428.756	608.47
429.132	641.01
429.507	657.74
429.883	650.96
430.259	655.93
430.635	692.76
431.011	683.5
431.387	718.98
431.763	713.55
432.138	709.71
432.514	694.12
432.89	720.79
433.265	717.85
433.641	718.75
434.016	739.99
434.392	734.57
434.767	753.1
435.143	740.67
435.518	766.89
435.894	756.49
436.269	781.12
436.644	776.6
437.02	754.01
437.395	782.25
437.77	777.51
438.145	789.48
438.52	811.18
438.895	832.2
439.271	828.35
439.646	830.39
440.021	817.96
440.395	843.27
440.77	821.12
441.145	833.78
441.52	864.51
441.895	868.35
442.27	893.21
442.645	860.9
443.019	902.02
443.394	871.97
443.769	884.62
444.143	902.25
444.518	896.37
444.892	892.76
445.267	890.05
445.641	913.1
446.016	913.32
446.39	942.48
446.764	918.75
447.139	913.78
447.513	929.59
447.887	931.18
448.262	957.39
448.636	951.29
449.01	986.32
449.384	976.15
449.758	983.38
450.132	1003.94
450.506	1013.89
450.88	992.42
451.254	1012.08
451.628	1039.42
452.002	1015.69
452.376	1035.58
452.75	1015.92
453.123	1081.45
453.497	1076.03
453.871	1063.38
454.244	1081.68
454.618	1106.31
454.992	1093.88
455.365	1121.23
455.739	1155.35
456.112	1135.01
456.486	1131.4
456.859	1178.18
457.232	1164.62
457.606	1144.96
457.979	1200.32
458.352	1245.52
458.725	1233.54
459.099	1250.04
459.472	1265.86
459.845	1297.72
460.218	1300.43
460.591	1313.31
460.964	1325.52
461.337	1327.55
461.71	1372.75
462.083	1384.72
462.456	1378.17
462.829	1372.52
463.201	1448.68
463.574	1436.02
463.947	1436.93
464.32	1485.96
464.692	1521.9
465.065	1495.23
465.438	1553.98
465.81	1570.93
466.183	1565.06
466.555	1625.17
466.928	1627.88
467.3	1643.7
467.672	1662.23
468.045	1713.75
468.417	1715.34
468.789	1747.65
469.161	1761.44
469.534	1804.6
469.906	1813.41
470.278	1892.73
470.65	1883.24
471.022	1936.35
471.394	1961.66
471.766	2003.92
472.138	2010.47
472.51	2076.91
472.882	2156.68
473.253	2153.97
473.625	2176.34
473.997	2264.02
474.369	2265.83
474.74	2370.23
475.112	2378.14
475.484	2441.42
475.855	2478.93
476.227	2497.01
476.598	2622.88
476.97	2672.83
477.341	2715.08
477.713	2766.16
478.084	2818.13
478.455	2931.58
478.827	2984.23
479.198	3104.9
479.569	3111.46
479.94	3234.62
480.311	3281.62
480.682	3358
481.053	3525.68
481.424	3568.85
481.795	3636.87
482.166	3752.34
482.537	3848.61
482.908	3946.01
483.279	3999.12
483.65	4121.6
484.021	4250.86
484.391	4319.79
484.762	4405.44
485.133	4467.58
485.503	4595.26
485.874	4729.72
486.244	4814.92
486.615	4985.98
486.985	5121.8
487.356	5200.44
487.726	5361.57
488.097	5550.94
488.467	5578.06
488.837	5749.13
489.207	5881.33
489.578	6028.44
489.948	6099.63
490.318	6258.95
490.688	6355.89
491.058	6467.53
491.428	6608.99
491.798	6793.39
492.168	6923.33
492.538	7005.14
492.908	7096.21
493.278	7329.2
493.648	7394.73
494.017	7546.6
494.387	7768.51
494.757	7827.27
495.126	7855.74
495.496	7984.78
495.866	8119.01
496.235	8256.63
496.605	8355.16
496.974	8539.56
497.344	8650.52
497.713	8718.54
498.082	8785.88
498.452	8833.79
498.821	9055.71
499.19	9173.9
499.559	9281.24
499.928	9394.91
500.298	9469.26
500.667	9502.25
501.036	9593.32
501.405	9758.74
501.774	9779.98
502.143	9907.66
502.512	10029.02
502.88	10195.34
503.249	10186.3
503.618	10218.62
503.987	10391.72
504.356	10432.17
504.724	10502
505.093	10633.97
505.462	10561.66
505.83	10732.27
506.199	10767.53
506.567	10930.46
506.936	10963.23
507.304	11133.85
507.672	11112.38
508.041	11233.28
508.409	11299.72
508.777	11445.48
509.145	11509.65
509.514	11517.11
509.882	11587.62
510.25	11581.74
510.618	11690.44
510.986	11692.25
511.354	11833.49
511.722	11861.96
512.09	12002.98
512.458	11908.29
512.826	12092.24
513.193	12124.33
513.561	12178.79
513.929	12242.97
514.297	12271.44
514.664	12363.87
515.032	12241.39
515.4	12454.94
515.767	12520.48
516.135	12512.79
516.502	12457.43
516.869	12736.74
517.237	12564.32
517.604	12670.3
517.972	12714.37
518.339	12746.46
518.706	12717.98
519.073	12773.58
519.44	12819.45
519.808	12963.85
520.175	12845.44
520.542	13078.65
520.909	13072.78
521.276	12988.26
521.643	13174.47
522.009	13130.63
522.376	13181.25
522.743	13212.44
523.11	13307.8
523.477	13353.22
523.843	13361.13
524.21	13467.8
524.577	13488.59
524.943	13545.99
525.31	13555.7
525.676	13588.7
526.043	13568.13
526.409	13672.31
526.776	13760.67
527.142	13754.12
527.508	13685.64
527.874	13686.32
528.241	13782.14
528.607	13724.96
528.973	13826.88
529.339	13753.66
529.705	13863.49
530.071	13821.91
530.437	13918.63
530.803	13893.77
531.169	13986.88
531.535	13833.44
531.901	13903.72
532.267	13916.82
532.632	13884.96
532.998	13898.74
533.364	13882.25
533.73	13827.11
534.095	13978.29
534.461	13949.36
534.826	13910.27
535.192	13959.99
535.557	14016.93
535.923	13929.25
536.288	13854
536.653	13873.89
537.019	13764.96
537.384	13876.6
537.749	13778.3
538.114	13828.24
538.479	13741.01
538.845	13707.56
539.21	13644.29
539.575	13646.77
539.94	13694
540.305	13694.46
540.67	13605.42
541.034	13606.77
541.399	13556.38
541.764	13527.23
542.129	13495.14
542.494	13531.52
542.858	13491.07
543.223	13468.25
543.587	13475.48
543.952	13363.62
544.316	13447.01
544.681	13258.99
545.045	13331.3
545.41	13459.43
545.774	13267.57
546.138	13258.31
546.503	13285.88
546.867	13205.2
547.231	13303.96
547.595	13216.95
547.959	13186
548.324	13150.29
548.688	13083.17
549.052	13103.29
549.416	13086.34
549.779	12988.49
550.143	12943.74
550.507	12980.8
550.871	12917.53
551.235	12921.37
551.599	12941.03
551.962	12881.37
552.326	12840.69
552.689	12853.35
553.053	12871.2
553.417	12806.12
553.78	12895.83
554.143	12810.64
554.507	12750.75
554.87	12787.36
555.234	12848.38
555.597	12768.15
555.96	12792.56
556.323	12835.27
556.686	12779.23
557.05	12790.53
557.413	12710.3
557.776	12652
558.139	12774.71
558.502	12759.11
558.865	12742.16
559.228	12717.53
559.59	12691.09
559.953	12739
560.316	12840.47
560.679	12814.93
561.041	12782.62
561.404	12764.99
561.767	12856.06
562.129	12779.23
562.492	12873.91
562.854	12856.06
563.217	12837.76
563.579	12901.93
563.941	12916.85
564.304	12913.01
564.666	12948.94
565.028	12919.56
565.39	12988.71
565.753	12941.71
566.115	12979.9
566.477	12989.84
566.839	12970.18
567.201	12977.41
567.563	13094.92
567.925	13130.4
568.287	13011.08
568.648	13039.11
569.01	13142.83
569.372	13123.17
569.734	13049.05
570.095	13134.25
570.457	13167.46
570.819	13192.32
571.18	13185.77
571.542	13180.57
571.903	13164.53
572.265	13207.46
572.626	13288.14
572.987	13359.1
573.349	13297.4
573.71	13256.5
574.071	13292.43
574.432	13348.02
574.794	13416.5
575.155	13368.36
575.516	13262.6
575.877	13330.85
576.238	13317.29
576.599	13325.43
576.96	13306.9
577.32	13381.24
577.681	13382.6
578.042	13386.67
578.403	13323.39
578.763	13378.08
579.124	13290.4
579.485	13423.73
579.845	13476.83
580.206	13337.4
580.566	13425.99
580.927	13402.26
581.287	13491.07
581.648	13457.17
582.008	13452.88
582.368	13467.57
582.728	13477.51
583.089	13454.01
583.449	13429.15
583.809	13448.81
584.169	13350.06
584.529	13370.85
584.889	13407.91
585.249	13374.69
585.609	13373.79
585.969	13364.3
586.329	13373.11
586.688	13378.98
587.048	13328.36
587.408	13282.72
587.768	13291.53
588.127	13348.25
588.487	13281.36
588.846	13350.51
589.206	13267.8
589.565	13308.93
589.925	13323.39
590.284	13312.09
590.643	13307.57
591.003	13279.33
591.362	13335.6
591.721	13345.31
592.08	13271.42
592.44	13291.76
592.799	13237.75
593.158	13280.23
593.517	13246.33
593.876	13304.64
594.235	13240.91
594.593	13302.83
594.952	13263.96
595.311	13195.94
595.67	13217.86
596.029	13250.63
596.387	13219.44
596.746	13346.22
597.104	13193.68
597.463	13210.4
597.822	13331.53
598.18	13102.38
598.538	13227.58
598.897	13240
599.255	13229.84
599.613	13280.68
599.972	13265.32
600.33	13238.88
600.688	13173.34
601.046	13176.28
601.404	13251.76
601.762	13205.43
602.12	13211.76
602.478	13296.73
602.836	13200.01
603.194	13147.35
603.552	13265.09
603.91	13185.32
604.268	13237.07
604.625	13212.21
604.983	13266.9
605.341	13128.6
605.698	13179.44
606.056	13246.11
606.413	13185.54
606.771	13282.94
607.128	13334.69
607.485	13262.6
607.843	13317.07
608.2	13401.13
608.557	13302.83
608.914	13269.16
609.272	13347.57
609.629	13408.81
609.986	13382.37
610.343	13300.57
610.7	13435.93
611.057	13357.52
611.414	13398.42
611.771	13390.51
612.127	13368.36
612.484	13449.49
612.841	13440.68
613.198	13444.52
613.554	13438.42
613.911	13453.56
614.267	13529.49
614.624	13456.72
614.98	13450.39
615.337	13489.04
615.693	13480
616.05	13506.89
616.406	13551.18
616.762	13535.82
617.118	13549.6
617.475	13526.55
617.831	13579.88
618.187	13508.7
618.543	13535.36
618.899	13637.51
619.255	13602.03
619.611	13653.55
619.967	13597.28
620.323	13700.33
620.678	13594.57
621.034	13708.69
621.39	13671.18
621.746	13606.55
622.101	13750.05
622.457	13692.87
622.812	13661.46
623.168	13691.07
623.523	13707.79
623.879	13718.41
624.234	13630.96
624.589	13675.7
624.945	13636.83
625.3	13614.68
625.655	13652.65
626.01	13574.01
626.365	13660.33
626.72	13622.82
627.075	13631.86
627.43	13620.56
627.785	13589.6
628.14	13614.68
628.495	13518.87
628.85	13538.3
629.205	13533.78
629.559	13604.29
629.914	13594.8
630.269	13637.51
630.623	13497.17
630.978	13554.12
631.332	13501.02
631.687	13587.34
632.041	13468.47
632.396	13598.64
632.75	13469.15
633.104	13462.6
633.459	13358.19
633.813	13395.26
634.167	13410.17
634.521	13468.02
634.875	13356.39
635.229	13351.87
635.583	13305.54
635.937	13318.87
636.291	13256.5
636.645	13320.91
636.999	13354.13
637.352	13327.46
637.706	13277.74
638.06	13303.28
638.413	13225.77
638.767	13208.14
639.121	13160.69
639.474	13146.45
639.828	13178.54
640.181	13219.44
640.534	13160.01
640.888	13113.23
641.241	13061.7
641.594	13187.58
641.947	13144.87
642.301	13055.38
642.654	13049.05
643.007	13094.7
643.36	13061.93
643.713	13013.34
644.066	13086.56
644.419	13011.08
644.771	12957.75
645.124	12745.33
645.477	12748.72
645.83	12645.22
646.182	12628.72
646.535	12577.65
646.888	12669.17
647.24	12589.63
647.593	12576.52
647.945	12589.85
648.298	12527.93
648.65	12537.65
649.002	12499.91
649.355	12578.55
649.707	12590.3
650.059	12636.86
650.411	12886.12
650.763	12817.64
651.115	12875.72
651.467	12903.52
651.819	12882.27
652.171	12824.65
652.523	12820.81
652.875	12764.76
653.227	12806.12
653.578	12923.63
653.93	12926.11
654.282	12761.37
654.633	12846.57
654.985	12856.29
655.337	12743.75
655.688	12824.2
656.039	12769.51
656.391	12762.5
656.742	12755.72
657.094	12800.02
657.445	12797.98
657.796	12807.7
658.147	12819.68
658.498	12792.79
658.849	12815.61
659.2	12790.3
659.551	12766.57
659.902	12785.55
660.253	12783.75
660.604	12842.95
660.955	12798.21
661.306	12830.98
661.656	12854.25
662.007	12886.79
662.358	12832.33
662.708	12797.53
663.059	12819.9
663.409	12771.32
663.76	12898.09
664.11	12850.41
664.461	12830.98
664.811	12885.21
665.161	12897.87
665.511	12915.72
665.862	12822.39
666.212	12896.06
666.562	12896.96
666.912	12837.53
667.262	12852.9
667.612	12763.18
667.962	12826.91
668.312	12847.47
668.662	12843.41
669.011	12792.56
669.361	12806.34
669.711	12788.27
670.06	12804.99
670.41	12750.07
670.76	12808.6
671.109	12716.85
671.459	12771.77
671.808	12871.2
672.157	12849.73
672.507	12756.4
672.856	12792.79
673.205	12695.84
673.554	12756.63
673.904	12696.06
674.253	12811.99
674.602	12742.84
674.951	12543.98
675.3	12461.04
675.649	12720.24
675.998	12634.6
676.346	12686.8
676.695	12669.4
677.044	12583.53
677.393	12579.91
677.741	12575.62
678.09	12590.53
678.438	12597.99
678.787	12605.67
679.135	12538.33
679.484	12485.22
679.832	12575.84
680.181	12427.14
680.529	12453.58
680.877	12429.63
681.225	12479.35
681.573	12471.44
681.922	12386.92
682.27	12398.9
682.618	12331.55
682.966	12395.28
683.314	12343.98
683.661	12308.05
684.009	12304.89
684.357	12264.21
684.705	12252.23
685.053	12231.22
685.4	12204.1
685.748	12168.39
686.095	12223.76
686.443	12028.29
686.79	12062.18
687.138	12164.33
687.485	12094.5
687.832	12053.37
688.18	12067.38
688.527	12019.7
688.874	11904.9
689.221	11899.48
689.568	11894.96
689.915	11813.83
690.262	11823.55
690.609	11756.2
690.956	11726.82
691.303	11762.3
691.65	11651.57
691.997	11704.23
692.344	11563.66
692.69	11496.1
693.037	11400.28
693.383	11434.85
693.73	11458.81
694.077	11374.97
694.423	11317.57
694.769	11316.89
695.116	11255.88
695.462	11299.72
695.808	11278.93
696.155	11286.61
696.501	11098.14
696.847	11158.7
697.193	11052.27
697.539	11131.13
697.885	11064.92
698.231	11015.2
698.577	11006.84
698.923	10979.27
699.269	10901.08
699.614	10840.29
699.96	10785.83
700.306	10780.18
700.651	10676.46
700.997	10654.54
701.342	10700.41
701.688	10608.89
702.033	10569.34
702.379	10542.9
702.724	10514.2
703.069	10452.73
703.415	10334.54
703.76	10416.8
704.105	10428.55
704.45	10401.89
704.795	10347.43
705.14	10221.55
705.485	10269.69
705.83	10135.68
706.175	10175
706.52	10166.64
706.865	10037.38
707.209	10132.29
707.554	10055.68
707.899	10113.76
708.243	9977.27
708.588	10017.04
708.932	9987.66
709.277	9874.67
709.621	9929.36
709.966	9876.48
710.31	9853.88
710.654	9808.91
710.998	9843.71
711.342	9786.08
711.687	9810.94
712.031	9750.15
712.375	9720.1
712.719	9740.21
713.063	9670.38
713.407	9720.55
713.75	9565.3
714.094	9623.15
714.438	9570.95
714.782	9612.53
715.125	9500.44
715.469	9523.72
715.812	9527.79
716.156	9508.58
716.499	9455.47
716.843	9449.14
717.186	9408.92
717.53	9418.86
717.873	9489.82
718.216	9438.07
718.559	9396.04
718.902	9307.68
719.246	9391.52
719.589	9308.58
719.932	9285.53
720.275	9279.43
720.617	9246.89
720.96	9300
721.303	9306.78
721.646	9237.4
721.989	9220.9
722.331	9218.87
722.674	9246.89
723.016	9252.77
723.359	9157.4
723.701	9236.72
724.044	9112.43
724.386	9158.53
724.729	9143.39
725.071	9090.28
725.413	9167.57
725.755	9152.43
726.097	9053.9
726.439	9041.02
726.782	9062.71
727.124	9108.14
727.465	9024.3
727.807	9017.07
728.149	9092.32
728.491	9052.32
728.833	9074.24
729.175	8951.98
729.516	9024.75
729.858	8993.34
730.199	8980.91
730.541	8949.04
730.882	8980
731.224	8991.98
731.565	8982.49
731.906	9040.34
732.248	9002.83
732.589	8956.05
732.93	8915.37
733.271	8904.53
733.612	8955.82
733.953	8984.98
734.294	8883.06
734.635	8933.45
734.976	8893.23
735.317	8862.49
735.658	8865.66
735.999	8904.98
736.339	8898.88
736.68	9038.08
737.021	8983.62
737.361	8899.55
737.702	8997.63
738.042	8931.42
738.383	8941.81
738.723	9027.23
739.063	8992.66
739.404	9010.51
739.744	9003.96
740.084	8962.15
740.424	8981.13
740.764	9014.58
741.104	9045.31
741.444	9017.97
741.784	9012.77
742.124	9030.85
742.464	9069.04
742.804	9043.96
743.143	9064.52
743.483	9067.69
743.823	9104.52
744.162	9134.8
744.502	9193.33
744.841	9164.63
745.181	9153.33
745.52	9195.82
745.86	9291.63
746.199	9290.73
746.538	9325.08
746.877	9387.68
747.216	9455.7
747.556	9418.18
747.895	9504.74
748.234	9496.37
748.573	9502.02
748.911	9591.74
749.25	9662.02
749.589	9734.79
749.928	9761.45
750.267	9908.79
750.605	9890.94
750.944	9958.06
751.283	9982.92
751.621	10037.38
751.96	10207.09
752.298	10222.01
752.636	10321.44
752.975	10357.82
753.313	10465.61
753.651	10553.3
753.989	10640.53
754.327	10744.7
754.666	10750.8
755.004	10918.03
755.342	11106.05
755.679	11212.26
756.017	11207.52
756.355	11396.44
756.693	11481.41
757.031	11678.69
757.368	11729.08
757.706	11776.77
758.044	11983.99
758.381	12167.26
758.719	12246.81
759.056	12465.11
759.394	12562.73
759.731	12733.58
760.068	12807.47
760.405	13009.05
760.743	13223.51
761.08	13257.41
761.417	13424.86
761.754	13578.98
762.091	13712.99
762.428	13925.86
762.765	14020.55
763.102	14275.68
763.438	14353.65
763.775	14462.12
764.112	14634.77
764.449	14767.65
764.785	14960.41
765.122	14980.52
765.458	15130.12
765.795	15326.73
766.131	15486.5
766.467	15540.51
766.804	15758.58
767.14	15867.05
767.476	15917.9
767.812	16117.67
768.148	16230.43
768.485	16278.57
768.821	16379.13
769.157	16500.48
769.492	16657.09
769.828	16914.48
770.164	16845.56
770.5	17070.19
770.836	17055.95
771.171	17182.73
771.507	17278.32
771.842	17294.81
772.178	17517.86
772.513	17553.79
772.849	17592.66
773.184	17697.74
773.519	17672.43
773.855	17707.01
774.19	17803.5
774.525	17870.17
774.86	17864.29
775.195	18084.62
775.53	18100.22
775.865	18066.77
776.2	17984.74
776.535	18013.66
776.87	18095.92
777.205	18231.51
777.539	18157.39
777.874	18337.95
778.209	18226.31
778.543	18361
778.878	18257.27
779.212	18272.64
779.547	18330.49
779.881	18436.7
780.215	18323.04
780.55	18524.61
780.884	18458.4
781.218	18482.13
781.552	18512.41
781.886	18468.79
782.22	18497.49
782.554	18440.09
782.888	18364.16
783.222	18394.45
783.556	18352.41
783.889	18363.94
784.223	18387.44
784.557	18272.87
784.89	18433.77
785.224	18358.06
785.557	18220.66
785.891	18294.79
786.224	18296.6
786.558	18296.6
786.891	18206.65
787.224	18109.71
787.557	18122.59
787.891	18120.33
788.224	18144.96
788.557	18154
788.89	18116.03
789.223	18257.05
789.556	18113.32
789.888	18002.14
790.221	18113.55
790.554	17868.81
790.887	17956.94
791.219	17817.51
791.552	17791.75
791.884	17829.49
792.217	17793.11
792.549	17785.2
792.882	17648.02
793.214	17563.06
793.546	17661.36
793.879	17514.02
794.211	17518.99
794.543	17587.91
794.875	17542.49
795.207	17587.24
795.539	17435.83
795.871	17512.89
796.203	17341.14
796.535	17268.6
796.867	17227.92
797.198	17320.58
797.53	17227.24
797.862	17085.55
798.193	17194.93
798.525	17113.58
798.856	17219.11
799.188	16950.42
799.519	16899.8
799.85	16903.64
800.182	16878.33
800.513	16796.75
800.844	16676.52
801.175	16832.23
801.506	16747.26
801.837	16764.43
802.168	16650.76
802.499	16609.18
802.83	16655.96
803.161	16548.84
803.491	16521.27
803.822	16508.39
804.153	16488.28
804.483	16373.03
804.814	16312.01
805.145	16230.89
805.475	16317.21
805.805	16288.06
806.136	16206.71
806.466	16246.71
806.796	16163.09
807.126	16009.88
807.457	16012.81
807.787	16080.38
808.117	16039.48
808.447	15969.65
808.777	15973.04
809.107	15894.85
809.436	15850.56
809.766	15777.79
810.096	15773.95
810.426	15688.3
810.755	15856.89
811.085	15691.01
811.414	15716.55
811.744	15453.05
812.073	15581.19
812.403	15504.35
812.732	15508.87
813.061	15482.88
813.39	15427.97
813.719	15404.69
814.049	15497.12
814.378	15439.72
814.707	15344.36
815.036	15243.79
815.365	15188.88
815.693	15178.49
816.022	15131.48
816.351	15151.59
816.68	15073.18
817.008	15140.75
817.337	15093.52
817.665	15019.62
817.994	14985.27
818.322	14967.42
818.651	14929
818.979	14838.61
819.307	14995.67
819.636	14827.31
819.964	14786.18
820.292	14858.04
820.62	14846.52
820.948	14816.91
821.276	14828.21
821.604	14802.22
821.932	14749.12
822.259	14782.11
822.587	14931.94
822.915	14784.15
823.243	14732.4
823.57	14759.06
823.898	14744.37
824.225	14743.24
824.553	14764.03
824.88	14799.74
825.207	14790.92
825.535	14834.31
825.862	14811.04
826.189	14780.3
826.516	14803.35
826.843	14839.28
827.17	14842
827.497	14891.04
827.824	14840.87
828.151	14874.54
828.478	14866.4
828.805	14835.22
829.131	14849.23
829.458	14817.59
829.785	14706.41
830.111	14787.53
830.438	14779.17
830.764	14727.88
831.09	14777.37
831.417	14725.84
831.743	14801.32
832.069	14795.67
832.395	14723.36
832.722	14773.98
833.048	14671.61
833.374	14797.93
833.7	14646.07
834.026	14698.5
834.351	14706.18
834.677	14681.55
835.003	14707.99
835.329	14645.39
835.654	14581.44
835.98	14602.68
836.306	14660.31
836.631	14543.25
836.956	14635.9
837.282	14610.36
837.607	14515.68
837.932	14514.1
838.258	14475.68
838.583	14508.45
838.908	14367.21
839.233	14436.81
839.558	14374.44
839.883	14322.46
840.208	14319.75
840.533	14305.06
840.858	14200.21
841.182	14258.74
841.507	14271.16
841.832	14185.06
842.156	14170.38
842.481	14124.05
842.805	14152.98
843.13	14142.81
843.454	14042.92
843.778	14002.47
844.103	13945.52
844.427	13889.93
844.751	13911.4
845.075	13890.84
845.399	13800.67
845.723	13792.53
846.047	13814.23
846.371	13703.04
846.695	13772.87
847.019	13525.87
847.343	13513.22
847.666	13502.14
847.99	13388.7
848.313	13420.11
848.637	13266.44
848.96	13339.89
849.284	13214.69
849.607	13143.28
849.931	13146.22
850.254	13049.05
850.577	13024.87
850.9	12930.18
851.223	12902.84
851.546	12878.43
851.869	12798.43
852.192	12851.09
852.515	12710.75
852.838	12629.17
853.161	12633.02
853.483	12514.37
853.806	12527.71
854.129	12571.77
854.451	12412.68
854.774	12364.32
855.096	12407.48
855.419	12294.27
855.741	12300.37
856.063	12252.69
856.385	12289.52
856.708	12167.04
857.03	12061.73
857.352	12082.52
857.674	12149.64
857.996	12040.71
858.318	11948.29
858.64	12020.83
858.961	11950.1
859.283	11846.6
859.605	11852.24
859.926	11925.69
860.248	11815.41
860.57	11783.77
860.891	11723.21
861.212	11697.9
861.534	11754.62
861.855	11679.37
862.176	11634.17
862.498	11588.3
862.819	11620.61
863.14	11640.5
863.461	11533.38
863.782	11490.67
864.103	11520.28
864.424	11483.44
864.745	11543.78
865.065	11381.07
865.386	11409.32
865.707	11377.68
866.027	11372.48
866.348	11367.74
866.668	11408.87
866.989	11274.63
867.309	11243.45
867.63	11311.47
867.95	11289.1
868.27	11163.45
868.59	11254.97
868.91	11133.62
869.23	11162.55
869.55	11155.31
869.87	11157.57
870.19	11097.91
870.51	11169.55
870.83	11175.88
871.15	11054.98
871.469	11123.9
871.789	11138.37
872.109	11001.19
872.428	10975.88
872.748	10973.85
873.067	11016.56
873.386	10941.99
873.706	10933.85
874.025	10925.94
874.344	10853.85
874.663	10908.31
874.982	10882.78
875.301	10880.07
875.62	10810.46
875.939	10809.11
876.258	10781.99
876.577	10812.05
876.896	10736.79
877.214	10727.3
877.533	10689.56
877.852	10723.01
878.17	10713.74
878.489	10666.29
878.807	10609.34
879.125	10613.86
879.444	10657.02
879.762	10641.43
880.08	10575.44
880.398	10591.26
880.716	10540.41
881.034	10528.21
881.352	10565.95
881.67	10469.46
881.988	10484.82
882.306	10496.35
882.624	10460.42
882.941	10410.93
883.259	10353.98
883.577	10322.12
883.894	10280.76
884.212	10335
884.529	10315.11
884.846	10259.74
885.164	10207.54
885.481	10165.74
885.798	10150.37
886.115	10158.73
886.432	10104.72
886.75	10083.25
887.067	10156.92
887.383	10001.67
887.7	10081.22
888.017	10011.62
888.334	10007.32
888.651	10038.06
888.967	9966.64
889.284	9891.62
889.6	9847.78
889.917	9786.54
890.233	9814.33
890.55	9809.36
890.866	9817.04
891.182	9739.31
891.498	9726.43
891.815	9647.33
892.131	9619.54
892.447	9546.99
892.763	9589.25
893.079	9582.47
893.395	9505.19
893.71	9538.86
894.026	9482.14
894.342	9445.08
894.657	9417.28
894.973	9384.29
895.289	9370.28
895.604	9376.15
895.92	9294.8
896.235	9304.06
896.55	9260.67
896.865	9226.1
897.181	9135.03
897.496	9157.63
897.811	9105.88
898.126	9095.26
898.441	8987.91
898.756	9017.74
899.071	8967.35
899.386	8955.15
899.7	8849.61
900.015	8845.32
900.33	8763.29
900.644	8776.39
900.959	8797.41
901.273	8697.07
901.588	8714.7
901.902	8637.64
902.216	8648.49
902.531	8591.31
902.845	8588.15
903.159	8542.73
903.473	8467.7
903.787	8416.85
904.101	8438.1
904.415	8400.58
904.729	8422.73
905.042	8335.05
905.356	8336.18
905.67	8329.17
905.984	8196.3
906.297	8272.9
906.611	8194.94
906.924	8195.39
907.237	8188.39
907.551	8127.15
907.864	8148.84
908.177	8079.91
908.491	8046.02
908.804	8005.34
909.117	7953.82
909.43	7911.56
909.743	7809.64
910.056	7855.06
910.368	7787.04
910.681	7767.83
910.994	7737.78
911.307	7718.79
911.619	7692.35
911.932	7623.66
912.244	7632.92
912.557	7591.11
912.869	7543.21
913.181	7476.77
913.494	7517.9
913.806	7446.94
914.118	7429.76
914.43	7398.12
914.742	7344.34
915.054	7331.23
915.366	7313.38
915.678	7306.15
915.99	7258.02
916.302	7250.11
916.613	7190.22
916.925	7144.35
917.236	7178.7
917.548	7141.63
917.859	7104.57
918.171	7055.53
918.482	6994.97
918.794	6982.99
919.105	6946.16
919.416	6965.59
919.727	6910.45
920.038	6898.93
920.349	6826.39
920.66	6839.04
920.971	6848.53
921.282	6797.91
921.593	6740.97
921.903	6646.96
922.214	6665.26
922.525	6663
922.835	6623
923.146	6590.46
923.456	6555.43
923.767	6526.51
924.077	6466.62
924.387	6448.32
924.697	6410.13
925.008	6449.22
925.318	6470.01
925.628	6448.55
925.938	6345.5
926.248	6297.59
926.558	6277.93
926.867	6315.44
927.177	6251.94
927.487	6245.61
927.796	6166.74
928.106	6166.07
928.416	6138.5
928.725	6138.95
929.034	6120.64
929.344	6077.71
929.653	6067.54
929.962	5986.41
930.271	5989.8
930.581	5971.04
930.89	5916.13
931.199	5915.23
931.508	5936.24
931.817	5905.51
932.125	5842.91
932.434	5839.3
932.743	5777.15
933.051	5756.36
933.36	5720.65
933.669	5747.32
933.977	5704.16
934.286	5744.61
934.594	5655.35
934.902	5653.54
935.21	5627.78
935.519	5625.74
935.827	5593.65
936.135	5523.15
936.443	5510.26
936.751	5505.75
937.059	5514.56
937.367	5428.68
937.674	5415.58
937.982	5461.9
938.29	5398.63
938.597	5447.22
938.905	5392.75
939.213	5286.77
939.52	5334.45
939.827	5242.48
940.135	5259.2
940.442	5245.86
940.749	5237.5
941.056	5192.53
941.363	5204.96
941.67	5151.4
941.977	5118.64
942.284	5104.17
942.591	5085.19
942.898	5035.02
943.205	5059.88
943.511	5003.84
943.818	5009.94
944.125	4984.4
944.431	4979.88
944.738	4941.92
945.044	4915.25
945.35	4887.91
945.657	4849.49
945.963	4868.7
946.269	4778.76
946.575	4804.07
946.881	4752.32
947.187	4732.88
947.493	4734.24
947.799	4702.83
948.105	4710.96
948.41	4663.06
948.716	4706.9
949.022	4680.91
949.327	4625.09
949.633	4590.97
949.938	4608.59
950.244	4553
950.549	4498.09
950.854	4481.14
951.16	4516.39
951.465	4481.82
951.77	4491.08
952.075	4433.46
952.38	4346.23
952.685	4414.7
952.99	4381.48
953.294	4358.88
953.599	4337.19
953.904	4288.38
954.209	4301.48
954.513	4282.5
954.818	4295.16
955.122	4277.98
955.426	4242.5
955.731	4202.5
956.035	4179.68
956.339	4179.9
956.643	4161.15
956.948	4131.54
957.252	4097.65
957.556	4092.45
957.86	4128.15
958.163	4122.73
958.467	4050.42
958.771	4081.83
959.075	4048.16
959.378	4019.68
959.682	3976.29
959.985	3993.47
960.289	3960.25
960.592	3951.89
960.896	3884.09
961.199	3882.28
961.502	3893.13
961.805	3885
962.108	3863.08
962.411	3816.3
962.714	3816.07
963.017	3797.09
963.32	3794.83
963.623	3765
963.926	3738.56
964.228	3672.12
964.531	3717.54
964.833	3725.23
965.136	3696.98
965.438	3667.38
965.741	3674.83
966.043	3649.97
966.345	3657.43
966.648	3607.04
966.95	3611.78
967.252	3584.44
967.554	3579.47
967.856	3537.66
968.158	3508.06
968.46	3519.36
968.761	3514.61
969.063	3506.25
969.365	3469.41
969.666	3464.22
969.968	3423.77
970.269	3421.73
970.571	3399.81
970.872	3424.22
971.174	3404.56
971.475	3370.89
971.776	3352.58
972.077	3354.39
972.378	3319.36
972.679	3326.82
972.98	3298.8
973.281	3275.75
973.582	3263.32
973.883	3276.43
974.183	3231.91
974.484	3207.05
974.785	3195.75
975.085	3212.02
975.386	3235.97
975.686	3185.35
975.986	3142.19
976.287	3159.37
976.587	3125.47
976.887	3118.24
977.187	3098.8
977.487	3108.07
977.787	3067.39
978.087	3020.84
978.387	3070.78
978.687	3029.43
978.987	3062.42
979.286	3004.57
979.586	3001.4
979.885	3002.99
980.185	2931.58
980.484	2971.8
980.784	2910.56
981.083	2920.73
981.382	2930.22
981.682	2874.85
981.981	2882.09
982.28	2886.6
982.579	2817.23
982.878	2835.31
983.177	2834.4
983.475	2841.86
983.774	2824.69
984.073	2790.11
984.372	2770.22
984.67	2795.08
984.969	2745.82
985.267	2730.68
985.566	2745.59
985.864	2684.8
986.162	2721.64
986.461	2713.28
986.759	2681.19
987.057	2640.51
987.355	2634.63
987.653	2689.55
987.951	2673.73
988.249	2618.14
988.547	2617.91
988.844	2612.04
989.142	2620.17
989.44	2584.47
989.737	2584.92
990.035	2541.98
990.332	2552.38
990.63	2511.93
990.927	2534.3
991.224	2507.18
991.521	2481.19
991.819	2489.55
992.116	2466.05
992.413	2513.28
992.71	2483.9
993.006	2452.94
993.303	2417.46
993.6	2443.9
993.897	2403.91
994.193	2410.46
994.49	2390.12
994.787	2347.18
995.083	2358.48
995.379	2339.95
995.676	2350.8
995.972	2346.05
996.268	2321.2
996.565	2290.01
996.861	2279.62
997.157	2304.7
997.453	2254.31
997.749	2257.92
998.044	2254.76
998.34	2249.33
998.636	2226.28
998.932	2154.42
999.227	2228.77
999.523	2173.4
999.818	2186.96
1000.114	2207.98
1000.409	2176.34
1000.704	2137.92
1001	2157.58
1001.295	2116.68
1001.59	2103.35
1001.885	2059.96
1002.18	2081.2
1002.475	2095.44
1002.77	2075.55
1003.065	2077.36
1003.359	2032.39
1003.654	2057.02
1003.949	2027.87
1004.243	1996.23
1004.538	1979.28
1004.832	1972.73
1005.127	1949.23
1005.421	1952.39
1005.715	1945.84
1006.009	1982.22
1006.304	1931.15
1006.598	1931.6
1006.892	1926.4
1007.186	1884.37
1007.48	1878.5
1007.773	1878.72
1008.067	1856.35
1008.361	1867.42
1008.655	1834.2
1008.948	1832.85
1009.242	1820.64
1009.535	1810.7
1009.829	1808.44
1010.122	1770.25
1010.415	1789.91
1010.708	1771.15
1011.001	1789.68
1011.295	1755.34
1011.588	1720.08
1011.881	1724.38
1012.173	1698.61
1012.466	1698.39
1012.759	1668.56
1013.052	1717.6
1013.344	1667.88
1013.637	1662.91
1013.93	1646.19
1014.222	1622.68
1014.514	1645.51
1014.807	1622.23
1015.099	1604.6
1015.391	1614.77
1015.683	1615
1015.976	1598.5
1016.268	1591.27
1016.56	1572.06
1016.851	1581.33
1017.143	1577.94
1017.435	1544.27
1017.727	1557.6
1018.018	1499.07
1018.31	1483.48
1018.602	1543.14
1018.893	1493.2
1019.185	1502.46
1019.476	1485.06
1019.767	1504.72
1020.058	1471.73
1020.35	1437.15
1020.641	1444.38
1020.932	1429.24
1021.223	1418.17
1021.514	1395.12
1021.804	1386.98
1022.095	1391.95
1022.386	1376.36
1022.677	1383.37
1022.967	1366.64
1023.258	1338.17
1023.548	1352.86
1023.839	1340.2
1024.129	1348.79
1024.419	1332.97
1024.709	1323.03
1025	1306.53
1025.29	1319.64
1025.58	1301.56
1025.87	1281.9
1026.16	1278.29
1026.449	1267.66
1026.739	1243.71
1027.029	1247.55
1027.319	1254.56
1027.608	1228.8
1027.898	1225.63
1028.187	1200.55
1028.477	1208.46
1028.766	1216.37
1029.055	1238.74
1029.344	1200.77
1029.634	1182.47
1029.923	1168.91
1030.212	1159.87
1030.501	1167.55
1030.79	1125.3
1031.078	1144.73
1031.367	1124.17
1031.656	1140.89
1031.945	1113.77
1032.233	1118.29
1032.522	1103.37
1032.81	1095.47
1033.099	1094.79
1033.387	1097.27
1033.675	1088.69
1033.963	1077.39
1034.251	1053.21
1034.54	1060.44
1034.828	1044.39
1035.116	1049.14
1035.403	1035.13
1035.691	984.73
1035.979	1041.23
1036.267	1015.24
1036.554	1003.94
1036.842	999.2
1037.129	981.8
1037.417	1009.37
1037.704	996.03
1037.992	982.25
1038.279	947.9
1038.566	972.53
1038.853	972.53
1039.14	972.53
