Data from hue_190_FLMS001491_00093.txt Node
Date: Tue Feb 07 16:46:02 GMT 2017
User: dcchb
Spectrometer: FLMS00149
Trigger mode: 0
Integration Time (sec): 2.000000E-2
Scans to average: 10
Electric dark correction enabled: true
Nonlinearity correction enabled: false
Boxcar width: 0
XAxis mode: Wavelengths
Number of Pixels in Spectrum: 2048
>>>>>Begin Spectral Data<<<<<
341.393	-7.49
341.776	-7.49
342.16	-7.49
342.543	-68.28
342.927	-69.4
343.31	-63.98
343.693	-64.66
344.077	-73.02
344.46	-61.27
344.843	-50.2
345.226	-52.68
345.61	-44.55
345.993	-22.63
346.376	-3.87
346.759	31.38
347.142	19.18
347.525	45.62
347.908	83.36
348.291	54.66
348.674	84.04
349.057	118.61
349.44	138.95
349.823	151.38
350.206	152.96
350.588	190.25
350.971	205.84
351.354	220.76
351.737	226.63
352.119	250.81
352.502	258.5
352.884	262.56
353.267	261.66
353.65	287.42
354.032	282
354.414	284.26
354.797	314.54
355.179	283.35
355.562	321.55
355.944	328.32
356.326	321.32
356.709	328.32
357.091	338.95
357.473	327.19
357.855	331.49
358.238	315.44
358.62	349.34
359.002	327.87
359.384	339.62
359.766	340.75
360.148	331.49
360.53	317.93
360.912	315.67
361.294	332.39
361.676	334.88
362.057	310.47
362.439	346.18
362.821	332.17
363.203	318.61
363.584	330.36
363.966	312.96
364.348	314.31
364.729	321.77
365.111	320.42
365.493	317.48
365.874	318.16
366.256	300.08
366.637	313.18
367.019	303.24
367.4	286.52
367.781	303.47
368.163	313.64
368.544	299.62
368.925	307.31
369.306	306.63
369.688	295.56
370.069	304.37
370.45	314.31
370.831	290.81
371.212	312.28
371.593	313.64
371.974	315.9
372.355	313.41
372.736	308.44
373.117	318.61
373.498	325.16
373.879	312.73
374.26	296.01
374.641	301.43
375.021	301.21
375.402	325.39
375.783	311.83
376.163	328.32
376.544	314.99
376.925	323.13
377.305	323.35
377.686	331.49
378.066	320.42
378.447	307.53
378.827	326.29
379.208	345.95
379.588	339.17
379.968	311.15
380.349	336.01
380.729	335.1
381.109	324.71
381.489	328.55
381.87	338.95
382.25	311.6
382.63	339.4
383.01	339.17
383.39	349.12
383.77	337.59
384.15	333.97
384.53	349.79
384.91	334.88
385.29	331.71
385.67	333.07
386.049	349.57
386.429	344.82
386.809	340.75
387.189	353.63
387.568	337.82
387.948	321.32
388.328	342.34
388.707	362.45
389.087	370.58
389.466	350.7
389.846	364.93
390.225	374.88
390.605	343.01
390.984	372.84
391.363	344.6
391.743	353.41
392.122	376.91
392.501	355.89
392.881	357.7
393.26	385.5
393.639	369.68
394.018	385.05
394.397	355.89
394.776	390.92
395.155	380.98
395.534	351.6
395.913	377.14
396.292	399.96
396.671	390.92
397.05	377.59
397.429	391.83
397.808	378.49
398.186	374.88
398.565	383.46
398.944	380.53
399.323	386.63
399.701	404.03
400.08	399.96
400.458	404.03
400.837	406.74
401.215	401.09
401.594	401.32
401.972	394.31
402.351	411.49
402.729	415.55
403.107	406.74
403.486	432.95
403.864	430.92
404.242	424.14
404.62	428.89
404.999	426.18
405.377	438.83
405.755	433.86
406.133	438.15
406.511	444.25
406.889	449.45
407.267	452.16
407.645	464.59
408.023	471.6
408.401	463.69
408.779	462.56
409.156	471.37
409.534	480.64
409.912	492.16
410.29	479.73
410.667	513.86
411.045	518.6
411.422	546.62
411.8	533.07
412.178	525.16
412.555	542.1
412.933	546.85
413.31	568.77
413.687	570.58
414.065	580.75
414.442	561.54
414.819	590.69
415.197	580.97
415.574	579.84
415.951	604.7
416.328	618.71
416.705	629.79
417.082	646.06
417.46	655.55
417.837	651.03
418.214	670.46
418.591	668.65
418.967	683.12
419.344	663.68
419.721	671.59
420.098	687.64
420.475	716.56
420.852	711.37
421.228	713.4
421.605	770.35
421.982	787.75
422.358	770.57
422.735	778.26
423.111	777.13
423.488	808.76
423.864	793.85
424.241	812.61
424.617	858.93
424.994	859.84
425.37	874.3
425.746	872.49
426.123	867.75
426.499	876.33
426.875	916.56
427.251	926.05
427.627	943.68
428.003	941.64
428.379	995.65
428.756	968.53
429.132	983
429.507	993.39
429.883	999.72
430.259	989.78
430.635	997.23
431.011	1041.07
431.387	1045.59
431.763	1104.35
432.138	1069.1
432.514	1109.32
432.89	1112.26
433.265	1119.94
433.641	1162.2
434.016	1144.35
434.392	1168.53
434.767	1206.04
435.143	1213.73
435.518	1251.46
435.894	1289.88
436.269	1291.92
436.644	1326.04
437.02	1358.58
437.395	1347.96
437.77	1391.57
438.145	1394.74
438.52	1430.44
438.895	1428.41
439.271	1452.81
439.646	1506.15
440.021	1521.29
440.395	1546.15
440.77	1569.65
441.145	1576.65
441.52	1573.94
441.895	1592.25
442.27	1625.24
442.645	1624.56
443.019	1662.75
443.394	1682.41
443.769	1709.98
444.143	1699.14
444.518	1731.45
444.892	1736.42
445.267	1720.15
445.641	1778.46
446.016	1782.07
446.39	1810.55
446.764	1793.6
447.139	1814.84
447.513	1839.25
447.887	1843.77
448.262	1873.59
448.636	1870.88
449.01	1898.45
449.384	1922.41
449.758	1917.89
450.132	1939.36
450.506	1958.11
450.88	2012.12
451.254	1967.83
451.628	2038.56
452.002	2026.13
452.376	2039.92
452.75	2095.96
453.123	2102.29
453.497	2170.99
453.871	2147.26
454.244	2170.31
454.618	2196.98
454.992	2269.97
455.365	2241.49
455.739	2300.7
456.112	2288.73
456.486	2338.89
456.859	2383.64
457.232	2425.22
457.606	2404.43
457.979	2458.66
458.352	2493.24
458.725	2494.37
459.099	2527.59
459.472	2606.46
459.845	2634.03
460.218	2647.59
460.591	2664.99
460.964	2652.56
461.337	2746.79
461.71	2801.25
462.083	2798.77
462.456	2810.52
462.829	2824.08
463.201	2888.26
463.574	2933
463.947	2949.72
464.32	3005.77
464.692	3003.06
465.065	3056.39
465.438	3123.05
465.81	3157.85
466.183	3163.73
466.555	3229.49
466.928	3246.89
467.3	3286.89
467.672	3360.11
468.045	3404.18
468.417	3443.27
468.789	3461.8
469.161	3565.53
469.534	3585.19
469.906	3630.84
470.278	3640.78
470.65	3721.46
471.022	3810.27
471.394	3881.45
471.766	3915.8
472.138	3972.3
472.51	3984.95
472.882	4074.44
473.253	4078.51
473.625	4192.18
473.997	4265.4
474.369	4339.07
474.74	4356.24
475.112	4429.23
475.484	4522.11
475.855	4556.69
476.227	4623.13
476.598	4767.76
476.97	4792.16
477.341	4915.1
477.713	5023.57
478.084	5000.97
478.455	5095.21
478.827	5211.36
479.198	5328.19
479.569	5325.26
479.94	5505.36
480.311	5562.99
480.682	5677.11
481.053	5821.29
481.424	5879.59
481.795	5911
482.166	6011.34
482.537	6114.39
482.908	6266.02
483.279	6317.77
483.65	6399.35
484.021	6521.16
484.391	6648.84
484.762	6715.5
485.133	6738.78
485.503	6887.93
485.874	7024.87
486.244	7054.25
486.615	7179.22
486.985	7362.72
487.356	7421.25
487.726	7498.08
488.097	7612.65
488.467	7619.88
488.837	7818.75
489.207	7913.89
489.578	8013.55
489.948	8095.8
490.318	8162.69
490.688	8253.09
491.058	8363.82
491.428	8447.21
491.798	8574.89
492.168	8640.87
492.538	8688.78
492.908	8795.9
493.278	8941.43
493.648	8896.91
494.017	9039.96
494.387	9048.77
494.757	9136.23
495.126	9230.24
495.496	9260.29
495.866	9347.75
496.235	9403.11
496.605	9457.58
496.974	9475.2
497.344	9528.53
497.713	9588.42
498.082	9730.34
498.452	9805.14
498.821	9796.78
499.19	9833.39
499.559	9887.4
499.928	9854.63
500.298	9989.31
500.667	10114.73
501.036	10059.82
501.405	10085.13
501.774	10106.15
502.143	10218.91
502.512	10237.22
502.88	10296.42
503.249	10230.21
503.618	10317.44
503.987	10335.97
504.356	10379.13
504.724	10436.53
505.093	10424.56
505.462	10499.36
505.83	10474.05
506.199	10521.05
506.567	10588.62
506.936	10547.49
507.304	10730.54
507.672	10683.53
508.041	10759.46
508.409	10792
508.777	10890.08
509.145	10779.35
509.514	10793.81
509.882	10832.23
510.25	10857.99
510.618	10918.78
510.986	10858.9
511.354	10934.37
511.722	11001.94
512.09	11014.15
512.458	10987.03
512.826	11028.16
513.193	11116.06
513.561	11076.74
513.929	11134.59
514.297	11224.76
514.664	11170.98
515.032	11206.23
515.4	11143.86
515.767	11205.55
516.135	11250.75
516.502	11131.43
516.869	11255.72
517.237	11303.63
517.604	11264.76
517.972	11234.93
518.339	11316.74
518.706	11287.13
519.073	11224.08
519.44	11297.3
519.808	11385.89
520.175	11375.72
520.542	11379.79
520.909	11344.76
521.276	11320.58
521.643	11365.32
522.009	11404.64
522.376	11446.68
522.743	11388.37
523.11	11468.37
523.477	11511.99
523.843	11491.42
524.21	11491.42
524.577	11532.55
524.943	11511.08
525.31	11467.69
525.676	11609.61
526.043	11507.92
526.409	11561.25
526.776	11545.2
527.142	11550.85
527.508	11501.14
527.874	11612.55
528.241	11504.98
528.607	11501.82
528.973	11563.06
529.339	11524.19
529.705	11500.69
530.071	11536.17
530.437	11496.17
530.803	11414.36
531.169	11441.48
531.535	11379.33
531.901	11362.38
532.267	11367.36
532.632	11358.54
532.998	11285.32
533.364	11319.67
533.73	11274.48
534.095	11314.48
534.461	11220.47
534.826	11231.09
535.192	11159
535.557	11147.25
535.923	11095.27
536.288	11034.48
536.653	11106.8
537.019	10905.67
537.384	10883.08
537.749	10884.88
538.114	10821.61
538.479	10743.19
538.845	10744.55
539.21	10735.28
539.575	10620.03
539.94	10619.35
540.305	10617.09
540.67	10504.1
541.034	10441.51
541.399	10464.56
541.764	10340.04
542.129	10350.21
542.494	10237.67
542.858	10297.1
543.223	10166.03
543.587	10186.82
543.952	10096.66
544.316	10118.35
544.681	9936.66
545.045	9975.08
545.41	9957.22
545.774	9866.83
546.138	9831.58
546.503	9797.45
546.867	9696.67
547.231	9683.33
547.595	9614.86
547.959	9606.95
548.324	9561.08
548.688	9434.07
549.052	9417.35
549.416	9430.46
549.779	9368.76
550.143	9295.55
550.507	9334.87
550.871	9259.39
551.235	9141.2
551.599	9205.38
551.962	9126.74
552.326	9052.62
552.689	9053.07
553.053	8936.69
553.417	8931.04
553.78	8976.23
554.143	8857.82
554.507	8851.49
554.87	8791.83
555.234	8762.68
555.597	8730.59
555.96	8735.79
556.323	8719.06
556.686	8652.4
557.05	8666.64
557.413	8614.43
557.776	8603.36
558.139	8583.02
558.502	8545.51
558.865	8541.67
559.228	8524.72
559.59	8480.43
559.953	8427.09
560.316	8486.08
560.679	8425.51
561.041	8426.64
561.404	8330.15
561.767	8423.71
562.129	8309.13
562.492	8351.84
562.854	8305.29
563.217	8296.48
563.579	8300.09
563.941	8273.65
564.304	8298.28
564.666	8241.11
565.028	8256.03
565.39	8277.49
565.753	8309.13
566.115	8259.19
566.477	8181.68
566.839	8242.69
567.201	8258.74
567.563	8235.24
567.925	8263.03
568.287	8289.7
568.648	8213.32
569.01	8218.06
569.372	8274.56
569.734	8256.48
570.095	8193.2
570.457	8226.2
570.819	8212.19
571.18	8293.09
571.542	8198.85
571.903	8224.84
572.265	8210.83
572.626	8245.86
572.987	8236.59
573.349	8195.01
573.71	8190.72
574.071	8201.79
574.432	8229.81
574.794	8253.31
575.155	8242.01
575.516	8150.04
575.877	8221.22
576.238	8154.56
576.599	8173.09
576.96	8179.87
577.32	8164.95
577.681	8209.25
578.042	8135.35
578.403	8183.71
578.763	8188.68
579.124	8136.71
579.485	8260.32
579.845	8226.65
580.206	8153.43
580.566	8134.9
580.927	8115.01
581.287	8138.51
581.648	8113.2
582.008	8190.94
582.368	8122.7
582.728	8134.67
583.089	8115.92
583.449	8110.27
583.809	8068.01
584.169	8078.63
584.529	8057.16
584.889	8096.26
585.249	8037.73
585.609	8020.1
585.969	8029.82
586.329	8016.26
586.688	8060.1
587.048	7995.24
587.408	7987.78
587.768	8001.12
588.127	7952.31
588.487	7977.84
588.846	8002.93
589.206	7871.86
589.565	7915.24
589.925	7970.84
590.284	7937.84
590.643	7974.23
591.003	7889.03
591.362	7959.76
591.721	7963.38
592.08	7874.34
592.44	7927.22
592.799	7911.4
593.158	7855.36
593.517	7843.83
593.876	7873.66
594.235	7836.38
594.593	7893.78
594.952	7824.17
595.311	7835.7
595.67	7833.66
596.029	7855.58
596.387	7896.71
596.746	7828.47
597.104	7806.32
597.463	7769.94
597.822	7816.26
598.18	7798.64
598.538	7767.23
598.897	7806.77
599.255	7668.7
599.613	7837.96
599.972	7785.76
600.33	7737.17
600.688	7715.02
601.046	7793.21
601.404	7770.84
601.762	7718.41
602.12	7759.77
602.478	7769.03
602.836	7723.84
603.194	7708.92
603.552	7725.87
603.91	7706.21
604.268	7721.8
604.625	7700.79
604.983	7681.13
605.341	7741.01
605.698	7736.27
606.056	7699.66
606.413	7745.3
606.771	7735.81
607.128	7738.75
607.485	7698.53
607.843	7689.49
608.2	7703.95
608.557	7768.81
608.914	7670.05
609.272	7772.2
609.629	7746.89
609.986	7764.29
610.343	7756.15
610.7	7764.29
611.057	7808.81
611.414	7783.5
611.771	7809.48
612.127	7814.23
612.484	7745.53
612.841	7799.77
613.198	7759.99
613.554	7811.07
613.911	7842.03
614.267	7811.07
614.624	7751.18
614.98	7819.2
615.337	7839.99
615.693	7774
616.05	7780.11
616.406	7869.37
616.762	7822.59
617.118	7787.34
617.475	7825.98
617.831	7871.18
618.187	7834.57
618.543	7830.5
618.899	7894.68
619.255	7844.96
619.611	7868.24
619.967	7876.37
620.323	7911.18
620.678	7844.96
621.034	7852.87
621.39	7922.02
621.746	7821.01
622.101	7931.51
622.457	7877.5
622.812	7869.82
623.168	7928.35
623.523	7924.51
623.879	7907.33
624.234	7836.6
624.589	7883.83
624.945	7833.44
625.3	7807.68
625.655	7809.71
626.01	7829.6
626.365	7844.74
626.72	7778.75
627.075	7797.73
627.43	7845.42
627.785	7809.26
628.14	7839.09
628.495	7818.3
628.85	7846.55
629.205	7774.23
629.559	7799.99
629.914	7789.6
630.269	7748.69
630.623	7727.68
630.978	7710.05
631.332	7751.63
631.687	7787.34
632.041	7762.03
632.396	7729.03
632.75	7685.87
633.104	7749.37
633.459	7689.71
633.813	7727
634.167	7667.57
634.521	7700.33
634.875	7666.44
635.229	7682.26
635.583	7619.88
635.937	7631.18
636.291	7613.33
636.645	7657.4
636.999	7568.81
637.352	7586.89
637.706	7596.61
638.06	7531.75
638.413	7579.89
638.767	7506.67
639.121	7549.83
639.474	7484.07
639.828	7492.2
640.181	7525.2
640.534	7485.65
640.888	7500.34
641.241	7452.43
641.594	7491.75
641.947	7475.48
642.301	7425.99
642.654	7495.37
643.007	7496.95
643.36	7429.83
643.713	7519.77
644.066	7424.18
644.419	7411.75
644.771	7395.94
645.124	7360.91
645.477	7336.5
645.83	7254.92
646.182	7242.95
646.535	7273.45
646.888	7247.69
647.24	7204.75
647.593	7205.66
647.945	7230.74
648.298	7200.01
648.65	7192.55
649.002	7132.89
649.355	7185.09
649.707	7206.11
650.059	7237.07
650.411	7303.73
650.763	7287.69
651.115	7380.34
651.467	7389.61
651.819	7374.69
652.171	7348.48
652.523	7361.59
652.875	7394.13
653.227	7314.36
653.578	7377.86
653.93	7373.34
654.282	7314.81
654.633	7283.85
654.985	7364.52
655.337	7371.98
655.688	7339.21
656.039	7420.57
656.391	7367.01
656.742	7374.47
657.094	7379.21
657.445	7441.13
657.796	7386.22
658.147	7345.99
658.498	7421.02
658.849	7426.67
659.2	7382.38
659.551	7429.15
659.902	7447.23
660.253	7456.95
660.604	7421.7
660.955	7384.86
661.306	7436.16
661.656	7380.57
662.007	7402.26
662.358	7429.83
662.708	7476.16
663.059	7418.76
663.409	7393.45
663.76	7480.9
664.11	7444.75
664.461	7523.84
664.811	7432.32
665.161	7415.82
665.511	7471.41
665.862	7408.82
666.212	7447.69
666.562	7408.36
666.912	7463.5
667.262	7398.65
667.612	7402.04
667.962	7421.25
668.312	7412.88
668.662	7419.44
669.011	7473.22
669.361	7394.13
669.711	7413.79
670.06	7509.83
670.41	7468.02
670.76	7386.22
671.109	7416.5
671.459	7434.58
671.808	7442.26
672.157	7374.02
672.507	7382.15
672.856	7385.54
673.205	7393.68
673.554	7414.92
673.904	7366.33
674.253	7380.79
674.602	7390.06
674.951	7266.9
675.3	7304.19
675.649	7372.21
675.998	7337.86
676.346	7385.31
676.695	7420.34
677.044	7290.85
677.393	7317.07
677.741	7337.18
678.09	7273.23
678.438	7288.82
678.787	7324.75
679.135	7323.62
679.484	7230.06
679.832	7216.51
680.181	7245.43
680.529	7191.87
680.877	7249.27
681.225	7146.68
681.573	7236.62
681.922	7157.07
682.27	7149.16
682.618	7152.78
682.966	7091.08
683.314	7151.2
683.661	7099.45
684.009	7076.17
684.357	7011.09
684.705	7061.03
685.053	7056.06
685.4	7018.54
685.748	7048.37
686.095	7030.07
686.443	6983.97
686.79	6981.26
687.138	7012.22
687.485	6980.35
687.832	6991.43
688.18	6919.34
688.527	6969.96
688.874	6860.58
689.221	6869.85
689.568	6824.65
689.915	6795.95
690.262	6787.82
690.609	6812
690.956	6748.49
691.303	6760.02
691.65	6694.03
691.997	6705.33
692.344	6634.37
692.69	6661.72
693.037	6636.86
693.383	6598.22
693.73	6605.22
694.077	6523.42
694.423	6583.98
694.769	6481.84
695.116	6489.74
695.462	6499.91
695.808	6411.33
696.155	6431.89
696.501	6437.54
696.847	6431.22
697.193	6348.96
697.539	6357.77
697.885	6315.96
698.231	6277.77
698.577	6270.54
698.923	6287.94
699.269	6278.68
699.614	6147.83
699.96	6125.01
700.306	6183.99
700.651	6151.9
700.997	6153.93
701.342	6092.92
701.688	6046.37
702.033	6027.61
702.379	6059.93
702.724	6005.01
703.069	6040.49
703.415	5954.17
703.76	5974.5
704.105	5960.49
704.45	5952.36
704.795	5875.75
705.14	5901.51
705.485	5860.16
705.83	5841.85
706.175	5801.4
706.52	5809.08
706.865	5736.32
707.209	5782.19
707.554	5736.09
707.899	5752.36
708.243	5713.72
708.588	5685.25
708.932	5704.91
709.277	5666.04
709.621	5648.41
709.966	5617.45
710.31	5678.24
710.654	5642.99
710.998	5598.92
711.342	5572.03
711.687	5588.53
712.031	5554.63
712.375	5535.87
712.719	5492.93
713.063	5495.87
713.407	5534.29
713.75	5458.13
714.094	5471.01
714.438	5462.65
714.782	5501.52
715.125	5404.35
715.469	5454.97
715.812	5405.25
716.156	5395.76
716.499	5385.59
716.843	5418.81
717.186	5393.05
717.53	5413.39
717.873	5410.9
718.216	5362.99
718.559	5367.06
718.902	5297.46
719.246	5338.81
719.589	5310.57
719.932	5333.16
720.275	5309.44
720.617	5309.21
720.96	5316.67
721.303	5296.1
721.646	5327.74
721.989	5310.79
722.331	5288.42
722.674	5310.79
723.016	5292.94
723.359	5255.43
723.701	5286.16
724.044	5282.32
724.386	5217.91
724.729	5210.68
725.071	5236.22
725.413	5206.39
725.755	5235.77
726.097	5191.47
726.439	5250.46
726.782	5191.02
727.124	5264.92
727.465	5205.26
727.807	5231.47
728.149	5174.52
728.491	5206.39
728.833	5200.51
729.175	5209.78
729.516	5200.29
729.858	5177.69
730.199	5187.41
730.541	5173.85
730.882	5203.45
731.224	5193.28
731.565	5198.25
731.906	5186.28
732.248	5214.75
732.589	5218.82
732.93	5195.54
733.271	5151.7
733.612	5182.21
733.953	5195.54
734.294	5208.42
734.635	5223.11
734.976	5220.17
735.317	5164.81
735.658	5226.05
735.999	5226.28
736.339	5192.83
736.68	5248.2
737.021	5264.69
737.361	5233.96
737.702	5252.94
738.042	5276.9
738.383	5293.84
738.723	5269.44
739.063	5268.08
739.404	5308.31
739.744	5275.99
740.084	5304.47
740.424	5323
740.764	5333.39
741.104	5381.98
741.444	5321.87
741.784	5375.88
742.124	5390.34
742.464	5363.67
742.804	5434.18
743.143	5377.23
743.483	5451.35
743.823	5415.42
744.162	5528.41
744.502	5533.84
744.841	5505.36
745.181	5581.97
745.52	5564.12
745.86	5553.05
746.199	5643.89
746.538	5688.64
746.877	5753.94
747.216	5747.84
747.556	5827.84
747.895	5853.6
748.234	5875.98
748.573	5900.16
748.911	5961.62
749.25	6011.57
749.589	6095.86
749.928	6143.31
750.267	6205.01
750.605	6249.75
750.944	6339.69
751.283	6376.53
751.621	6495.39
751.96	6579.01
752.298	6681.83
752.636	6729.51
752.975	6794.37
753.313	6922.5
753.651	7103.97
753.989	7102.84
754.327	7173.79
754.666	7259.44
755.004	7509.38
755.342	7582.82
755.679	7735.14
756.017	7750.73
756.355	8000.21
756.693	8070.27
757.031	8220.77
757.368	8317.04
757.706	8540.76
758.044	8620.08
758.381	8831.6
758.719	8895.33
759.056	9150.69
759.394	9242.89
759.731	9415.09
760.068	9591.13
760.405	9701.64
760.743	9837.68
761.08	10015.75
761.417	10233.6
761.754	10368.96
762.091	10658.22
762.428	10735.28
762.765	10850.31
763.102	11100.02
763.438	11212.78
763.775	11393.34
764.112	11628.37
764.449	11759.21
764.785	11915.14
765.122	11979.32
765.458	12122.82
765.795	12387.67
766.131	12561.22
766.467	12637.83
766.804	12812.74
767.14	12898.16
767.476	13104.03
767.812	13272.84
768.148	13353.74
768.485	13483.23
768.821	13656.11
769.157	13746.73
769.492	13957.34
769.828	14068.75
770.164	14114.4
770.5	14271.91
770.836	14463.09
771.171	14385.81
771.507	14611.56
771.842	14664.44
772.178	14731.11
772.513	14991.44
772.849	14970.65
773.184	15073.25
773.519	15235.96
773.855	15260.36
774.19	15346.69
774.525	15416.74
774.86	15481.37
775.195	15627.58
775.53	15630.75
775.865	15724.3
776.2	15656.96
776.535	15661.71
776.87	15784.87
777.205	15807.92
777.539	15849.72
777.874	15938.99
778.209	16021.02
778.543	16060.79
778.878	16025.54
779.212	16074.8
779.547	16145.99
779.881	16310.73
780.215	16218.08
780.55	16260.34
780.884	16228.25
781.218	16281.13
781.552	16258.53
781.886	16297.85
782.22	16329.94
782.554	16278.64
782.888	16203.61
783.222	16270.05
783.556	16291.07
783.889	16242.48
784.223	16186.21
784.557	16266.66
784.89	16314.57
785.224	16310.05
785.557	16190.96
785.891	16241.8
786.224	16212.2
786.558	16289.71
786.891	16236.61
787.224	16289.26
787.557	16216.95
787.891	16174.46
788.224	16274.12
788.557	16268.24
788.89	16204.74
789.223	16160.45
789.556	16221.92
789.888	16157.96
790.221	16059.89
790.554	16005.65
790.887	15996.61
791.219	16103.96
791.552	15977.18
791.884	15919.1
792.217	15985.31
792.549	15947.58
792.882	15837.07
793.214	15858.09
793.546	15858.31
793.879	15894.47
794.211	15824.87
794.543	15774.25
794.875	15794.81
795.207	15811.31
795.539	15755.72
795.871	15756.62
796.203	15598.66
796.535	15612.44
796.867	15534.7
797.198	15576.29
797.53	15524.31
797.862	15436.18
798.193	15556.62
798.525	15488.15
798.856	15430.53
799.188	15386.91
799.519	15314.6
799.85	15241.83
800.182	15303.3
800.513	15277.99
800.844	15191.21
801.175	15212.23
801.506	15267.14
801.837	15101.5
802.168	15133.36
802.499	15091.55
802.83	14972.23
803.161	15000.93
803.491	15036.64
803.822	15043.64
804.153	14959.13
804.483	14836.42
804.814	14807.72
805.145	14821.28
805.475	14921.84
805.805	14586.25
806.136	14849.52
806.466	14728.85
806.796	14809.53
807.126	14590.55
807.457	14625.58
807.787	14576.31
808.117	14568.18
808.447	14502.87
808.777	14532.02
809.107	14436.43
809.436	14376.32
809.766	14413.38
810.096	14324.57
810.426	14330.89
810.755	14371.8
811.085	14325.92
811.414	14281.4
811.744	14179.94
812.073	14115.31
812.403	14249.99
812.732	14031.69
813.061	14134.29
813.39	14040.96
813.719	13971.13
814.049	14088.19
814.378	13981.53
814.707	13958.7
815.036	14002.77
815.365	13849.33
815.693	13753.96
816.022	13886.61
816.351	13831.25
816.68	13770.46
817.008	13848.87
817.337	13621.99
817.665	13668.99
817.994	13647.07
818.322	13630.35
818.651	13574.98
818.979	13637.35
819.307	13666.96
819.636	13614.76
819.964	13463.57
820.292	13598.26
820.62	13583.57
820.948	13526.85
821.276	13481.65
821.604	13506.74
821.932	13471.93
822.259	13579.28
822.587	13527.98
822.915	13520.52
823.243	13545.38
823.57	13539.5
823.898	13473.29
824.225	13461.09
824.553	13450.47
824.88	13500.41
825.207	13496.34
825.535	13455.66
825.862	13488.88
826.189	13415.89
826.516	13586.06
826.843	13550.35
827.17	13579.95
827.497	13530.01
827.824	13626.28
828.151	13580.63
828.478	13554.87
828.805	13568.43
829.131	13483.69
829.458	13519.62
829.785	13412.95
830.111	13609.33
830.438	13562.55
830.764	13494.53
831.09	13546.51
831.417	13456.57
831.743	13577.02
832.069	13508.77
832.395	13531.37
832.722	13528.43
833.048	13551.03
833.374	13497.92
833.7	13514.42
834.026	13464.02
834.351	13558.94
834.677	13457.7
835.003	13469
835.329	13387.42
835.654	13393.97
835.98	13404.37
836.306	13426.74
836.631	13370.92
836.956	13405.72
837.282	13362.33
837.607	13305.84
837.932	13289.79
838.258	13352.39
838.583	13298.38
838.908	13207.99
839.233	13233.75
839.558	13190.81
839.883	13205.27
840.208	13071.49
840.533	13142.68
840.858	13128.21
841.182	13113.98
841.507	13002.57
841.832	13041.66
842.156	13002.12
842.481	13019.06
842.805	13015.67
843.13	12908.11
843.454	12901.78
843.778	12846.19
844.103	12918.05
844.427	12826.98
844.751	12737.72
845.075	12743.37
845.399	12764.83
845.723	12646.19
846.047	12670.83
846.371	12566.65
846.695	12611.17
847.019	12491.85
847.343	12477.84
847.666	12273.32
847.99	12337.5
848.313	12315.13
848.637	12193.55
848.96	12167.56
849.284	12206.88
849.607	12098.41
849.931	12065.87
850.254	11977.96
850.577	11966.44
850.9	11836.5
851.223	11849.6
851.546	11765.76
851.869	11670.63
852.192	11814.12
852.515	11663.62
852.838	11629.72
853.161	11636.05
853.483	11530.29
853.806	11484.19
854.129	11395.83
854.451	11423.63
854.774	11389.28
855.096	11335.04
855.419	11356.96
855.741	11353.12
856.063	11271.54
856.385	11252.78
856.708	11111.32
857.03	11158.1
857.352	11142.05
857.674	11095.27
857.996	11084.2
858.318	11065.44
858.64	11001.72
858.961	11004.88
859.283	10971.66
859.605	10865.67
859.926	10991.55
860.248	10872
860.57	10826.81
860.891	10864.32
861.212	10737.09
861.534	10712.91
861.855	10723.76
862.176	10669.75
862.498	10733.02
862.819	10651.44
863.14	10696.87
863.461	10607.38
863.782	10575.06
864.103	10616.64
864.424	10569.19
864.745	10580.26
865.065	10500.71
865.386	10507.04
865.707	10526.25
866.027	10505.68
866.348	10381.85
866.668	10446.7
866.989	10432.01
867.309	10381.85
867.63	10411.9
867.95	10357.89
868.27	10304.11
868.59	10304.79
868.91	10250.55
869.23	10284
869.55	10213.71
869.87	10293.03
870.19	10182.3
870.51	10207.16
870.83	10275.41
871.15	10149.08
871.469	10198.8
871.789	10215.07
872.109	10215.52
872.428	10157.22
872.748	10145.47
873.067	10089.2
873.386	10097.79
873.706	10117.22
874.025	10077.9
874.344	10077.9
874.663	10017.34
874.982	10044.45
875.301	10063.89
875.62	10026.37
875.939	9940.28
876.258	10001.74
876.577	9960.16
876.896	9929.2
877.214	9921.07
877.533	9816.89
877.852	9864.12
878.17	9837.68
878.489	9848.07
878.807	9837.68
879.125	9752.03
879.444	9809.88
879.762	9690.56
880.08	9753.61
880.398	9735.99
880.716	9791.58
881.034	9665.25
881.352	9657.12
881.67	9621.41
881.988	9636.33
882.306	9640.4
882.624	9555.43
882.941	9524.02
883.259	9596.33
883.577	9481.98
883.894	9461.64
884.212	9491.02
884.529	9526.5
884.846	9422.1
885.164	9419.16
885.481	9347.52
885.798	9413.28
886.115	9308.88
886.432	9317.92
886.75	9292.61
887.067	9284.93
887.383	9279.05
887.7	9285.38
888.017	9274.98
888.334	9208.09
888.651	9143.91
888.967	9230.01
889.284	9121.99
889.6	9050.58
889.917	9084.7
890.233	9075.21
890.55	9053.07
890.866	9057.81
891.182	8994.54
891.498	8983.46
891.815	8912.51
892.131	8917.25
892.447	8870.7
892.763	8847.87
893.079	8860.76
893.395	8766.52
893.71	8801.1
894.026	8744.6
894.342	8717.48
894.657	8660.99
894.973	8699.4
895.289	8585.06
895.604	8642.46
895.92	8561.78
896.235	8535.11
896.55	8513.42
896.865	8500.31
897.181	8394.55
897.496	8455.57
897.811	8422.12
898.126	8343.03
898.441	8314.78
898.756	8316.82
899.071	8320.66
899.386	8321.79
899.7	8213.99
900.015	8143.03
900.33	8128.35
900.644	8052.42
900.959	8140.32
901.273	8018.97
901.588	8037.73
901.902	8035.47
902.216	7946.43
902.531	7938.29
902.845	7911.85
903.159	7815.59
903.473	7885.64
903.787	7851.97
904.101	7797.73
904.415	7743.04
904.729	7704.63
905.042	7693.33
905.356	7617.62
905.67	7637.29
905.984	7691.75
906.297	7591.86
906.611	7535.37
906.924	7479.1
907.237	7482.26
907.551	7493.79
907.864	7368.37
908.177	7472.32
908.491	7455.82
908.804	7344.41
909.117	7287.69
909.43	7269.39
909.743	7275.03
910.056	7183.29
910.368	7188.26
910.681	7176.05
910.994	7181.93
911.307	7149.84
911.619	7048.37
911.932	7061.03
912.244	7013.8
912.557	6988.71
912.869	6908.04
913.181	6944.42
913.494	6892.22
913.806	6856.51
914.118	6878.66
914.43	6814.71
914.742	6828.27
915.054	6742.39
915.366	6734.71
915.678	6711.66
915.99	6665.79
916.302	6700.59
916.613	6606.13
916.925	6625.33
917.236	6603.87
917.548	6554.83
917.859	6532.68
918.171	6519.12
918.482	6477.77
918.794	6419.92
919.105	6466.24
919.416	6385.79
919.727	6389.18
920.038	6371.56
920.349	6304.21
920.66	6309.86
920.971	6235.06
921.282	6266.7
921.593	6231.9
921.903	6180.37
922.214	6163.88
922.525	6135.4
922.835	6136.08
923.146	6085.91
923.456	6058.34
923.767	6056.54
924.077	6020.6
924.387	5965.69
924.697	5954.62
925.008	5950.32
925.318	5883.43
925.628	5933.6
925.938	5857.44
926.248	5823.77
926.558	5855.19
926.867	5783.1
927.177	5798.46
927.487	5751.91
927.796	5702.42
928.106	5702.42
928.416	5672.36
928.725	5692.48
929.034	5630.78
929.344	5652.48
929.653	5646.38
929.962	5601.41
930.271	5575.19
930.581	5567.73
930.89	5500.17
931.199	5504.91
931.508	5431.47
931.817	5499.71
932.125	5404.58
932.434	5394.86
932.743	5370.9
933.051	5339.49
933.36	5356.89
933.669	5280.96
933.977	5332.26
934.286	5290.45
934.594	5255.65
934.902	5214.07
935.21	5168.2
935.519	5217.46
935.827	5219.5
936.135	5111.7
936.443	5064.7
936.751	5113.96
937.059	5092.72
937.367	5027.64
937.674	5075.54
937.982	5037.81
938.29	5007.98
938.597	5029.44
938.905	4925.04
939.213	4917.36
939.52	4890.69
939.827	4849.11
940.135	4868.09
940.442	4839.17
940.749	4836
941.056	4821.54
941.363	4748.32
941.67	4770.24
941.977	4765.27
942.284	4696.57
942.591	4724.37
942.898	4671.94
943.205	4694.99
943.511	4679.4
943.818	4639.85
944.125	4664.26
944.431	4607.31
944.738	4615.22
945.044	4519.85
945.35	4534.54
945.657	4516.24
945.963	4477.82
946.269	4527.31
946.575	4457.71
946.881	4461.78
947.187	4446.41
947.493	4381.78
947.799	4364.6
948.105	4377.71
948.41	4369.8
948.716	4298.39
949.022	4334.55
949.327	4288.45
949.633	4270.82
949.938	4242.35
950.244	4281.22
950.549	4216.81
950.854	4215
951.16	4167.77
951.465	4182.69
951.77	4163.7
952.075	4125.06
952.38	4109.69
952.685	4090.26
952.99	4060.43
953.294	4079.64
953.599	4009.13
953.904	4017.95
954.209	4017.04
954.513	3975.46
954.818	3969.58
955.122	3962.13
955.426	3920.55
955.731	3893.88
956.035	3897.27
956.339	3882.81
956.643	3891.85
956.948	3873.32
957.252	3834.67
957.556	3808.46
957.86	3750.83
958.163	3807.56
958.467	3753.32
958.771	3745.18
959.075	3732.98
959.378	3704.96
959.682	3734.56
959.985	3674.23
960.289	3697.73
960.592	3672.19
960.896	3655.69
961.199	3657.95
961.502	3627
961.805	3587
962.108	3604.17
962.411	3546.77
962.714	3516.49
963.017	3527.79
963.32	3552.19
963.623	3502.25
963.926	3505.64
964.228	3461.8
964.531	3441.69
964.833	3421.35
965.136	3444.85
965.438	3427.9
965.741	3377.06
966.043	3404.18
966.345	3377.74
966.648	3329.6
966.95	3379.77
967.252	3320.11
967.554	3336.38
967.856	3353.56
968.158	3266.33
968.46	3276.72
968.761	3255.48
969.063	3260.68
969.365	3236.04
969.666	3229.27
969.968	3192.2
970.269	3201.47
970.571	3197.63
970.872	3181.81
971.174	3147.01
971.475	3142.26
971.776	3140.91
972.077	3130.96
972.378	3128.03
972.679	3095.94
972.98	3101.81
973.281	3030.85
973.582	3078.76
973.883	3062.72
974.183	3004.19
974.484	2982.49
974.785	2952.66
975.085	2986.56
975.386	2960.8
975.686	2931.65
975.986	2958.54
976.287	2946.33
976.587	2928.48
976.887	2891.42
977.187	2891.2
977.487	2886.22
977.787	2875.6
978.087	2873.79
978.387	2845.77
978.687	2858.88
978.987	2804.64
979.286	2822.27
979.586	2784.76
979.885	2774.14
980.185	2751.99
980.484	2729.62
980.784	2741.59
981.083	2747.92
981.382	2747.24
981.682	2694.14
981.981	2686.91
982.28	2695.72
982.579	2682.84
982.878	2653.01
983.177	2638.55
983.475	2657.75
983.774	2635.38
984.073	2603.97
984.372	2630.41
984.67	2636.51
984.969	2561.03
985.267	2574.37
985.566	2557.19
985.864	2505.67
986.162	2546.8
986.461	2519.91
986.759	2537.08
987.057	2500.7
987.355	2459.57
987.653	2496.18
987.951	2428.38
988.249	2418.89
988.547	2469.51
988.844	2416.18
989.142	2431.55
989.44	2413.92
989.737	2421.38
990.035	2350.87
990.332	2379.57
990.63	2325.11
990.927	2346.8
991.224	2355.84
991.521	2336.63
991.819	2278.33
992.116	2323.75
992.413	2302.06
992.71	2289.18
993.006	2305.67
993.303	2273.58
993.6	2247.6
993.897	2268.16
994.193	2238.33
994.49	2205.11
994.787	2232.23
995.083	2210.54
995.379	2196.07
995.676	2198.78
995.972	2207.37
996.268	2127.15
996.565	2128.96
996.861	2147.71
997.157	2145.45
997.453	2140.93
997.749	2140.25
998.044	2086.92
998.34	2081.5
998.636	2084.44
998.932	2081.95
999.227	2097.54
999.523	2071.33
999.818	2020.26
1000.114	1996.76
1000.409	1981.84
1000.704	2005.79
1001	1999.47
1001.295	1952.69
1001.59	1982.07
1001.885	1973.25
1002.18	1978.22
1002.475	1990.43
1002.77	1925.57
1003.065	1911.56
1003.359	1928.06
1003.654	1917.89
1003.949	1895.29
1004.243	1890.32
1004.538	1836.08
1004.832	1841.05
1005.127	1866.36
1005.421	1856.65
1005.715	1822.52
1006.009	1819.58
1006.304	1808.51
1006.598	1814.61
1006.892	1775.74
1007.186	1763.09
1007.48	1772.58
1007.773	1758.34
1008.067	1745.69
1008.361	1730.1
1008.655	1714.95
1008.948	1700.04
1009.242	1677.44
1009.535	1695.07
1009.829	1678.12
1010.122	1692.58
1010.415	1712.47
1010.708	1666.59
1011.001	1648.29
1011.295	1622.98
1011.588	1628.4
1011.881	1625.47
1012.173	1611.68
1012.466	1600.16
1012.759	1590.66
1013.052	1565.35
1013.344	1593.15
1013.637	1561.29
1013.93	1558.8
1014.222	1552.25
1014.514	1535.07
1014.807	1542.98
1015.099	1519.48
1015.391	1543.43
1015.683	1498.92
1015.976	1528.07
1016.268	1484.9
1016.56	1476.32
1016.851	1441.97
1017.143	1467.28
1017.435	1458.01
1017.727	1454.4
1018.018	1399.93
1018.31	1441.06
1018.602	1425.47
1018.893	1388.18
1019.185	1380.73
1019.476	1403.1
1019.767	1381.86
1020.058	1389.31
1020.35	1342.99
1020.641	1370.11
1020.932	1373.04
1021.223	1364
1021.514	1331.69
1021.804	1335.3
1022.095	1310.45
1022.386	1321.07
1022.677	1305.93
1022.967	1299.37
1023.258	1275.64
1023.548	1275.87
1023.839	1236.78
1024.129	1251.69
1024.419	1262.76
1024.709	1249.43
1025	1211.24
1025.29	1213.05
1025.58	1207.4
1025.87	1230.45
1026.16	1186.38
1026.449	1196.78
1026.739	1204.46
1027.029	1165.14
1027.319	1165.59
1027.608	1168.53
1027.898	1174.18
1028.187	1156.78
1028.477	1140.96
1028.766	1140.05
1029.055	1124.91
1029.344	1147.74
1029.634	1092.6
1029.923	1082.66
1030.212	1131.47
1030.501	1080.62
1030.79	1076.1
1031.078	1082.43
1031.367	1068.19
1031.656	1071.13
1031.945	1067.06
1032.233	1046.95
1032.522	1056.67
1032.81	1026.61
1033.099	1024.35
1033.387	1012.83
1033.675	1020.51
1033.963	981.41
1034.251	1020.06
1034.54	1015.31
1034.828	1009.66
1035.116	1006.72
1035.403	1013.05
1035.691	964.92
1035.979	965.82
1036.267	970.57
1036.554	934.18
1036.842	948.87
1037.129	943
1037.417	932.15
1037.704	914.52
1037.992	926.5
1038.279	943.22
1038.566	907.07
1038.853	907.07
1039.14	907.07
