Data from hue_20_FLMS001491_25.txt Node
Date: Mon Feb 06 15:33:49 GMT 2017
User: dcchb
Spectrometer: FLMS00149
Trigger mode: 0
Integration Time (sec): 2.000000E-2
Scans to average: 10
Electric dark correction enabled: true
Nonlinearity correction enabled: false
Boxcar width: 0
XAxis mode: Wavelengths
Number of Pixels in Spectrum: 2048
>>>>>Begin Spectral Data<<<<<
341.393	9.29
341.776	9.29
342.16	9.29
342.543	-57.6
342.927	-68.9
343.31	-77.71
343.693	-54.21
344.077	-75.22
344.46	-57.15
344.843	-41.55
345.226	-50.37
345.61	-38.61
345.993	-12.63
346.376	-1.1
346.759	18.11
347.142	35.28
347.525	20.59
347.908	46.58
348.291	94.26
348.674	98.78
349.057	94.94
349.44	128.61
349.823	142.62
350.206	162.51
350.588	197.31
350.971	201.38
351.354	240.7
351.737	242.96
352.119	244.54
352.502	254.71
352.884	300.59
353.267	291.32
353.65	293.58
354.032	304.88
354.414	323.86
354.797	325.22
355.179	325.44
355.562	333.8
355.944	319.34
356.326	321.6
356.709	353.01
357.091	331.54
357.473	350.53
357.855	342.84
358.238	354.6
358.62	337.19
359.002	326.12
359.384	322.96
359.766	338.32
360.148	329.74
360.53	332.22
360.912	349.17
361.294	334.93
361.676	342.62
362.057	331.09
362.439	350.75
362.821	313.47
363.203	339.68
363.584	338.1
363.966	336.97
364.348	312.56
364.729	337.65
365.111	325.9
365.493	320.25
365.874	330.19
366.256	339
366.637	337.87
367.019	306.91
367.4	335.61
367.781	310.3
368.163	340.36
368.544	309.85
368.925	315.95
369.306	331.09
369.688	318.21
370.069	310.3
370.45	307.14
370.831	327.48
371.212	320.02
371.593	308.49
371.974	332
372.355	316.18
372.736	312.11
373.117	329.74
373.498	338.1
373.879	324.77
374.26	303.75
374.641	341.49
375.021	326.12
375.402	317.76
375.783	320.47
376.163	325.67
376.544	338.78
376.925	335.61
377.305	315.05
377.686	315.5
378.066	336.74
378.447	335.39
378.827	343.75
379.208	344.43
379.588	337.19
379.968	313.47
380.349	340.13
380.729	329.06
381.109	336.52
381.489	340.58
381.87	341.71
382.25	341.49
382.63	338.1
383.01	328.61
383.39	338.78
383.77	347.82
384.15	341.26
384.53	346.46
384.91	336.74
385.29	340.81
385.67	337.65
386.049	358.89
386.429	353.47
386.809	344.2
387.189	333.58
387.568	359.57
387.948	365.44
388.328	348.27
388.707	340.36
389.087	364.09
389.466	349.17
389.846	341.94
390.225	374.93
390.605	347.82
390.984	365.67
391.363	355.05
391.743	369.51
392.122	378.78
392.501	365.89
392.881	374.48
393.26	373.35
393.639	365.89
394.018	372
394.397	371.32
394.776	389.4
395.155	397.76
395.534	402.96
395.913	374.71
396.292	381.26
396.671	403.18
397.05	398.21
397.429	373.58
397.808	374.03
398.186	368.83
398.565	370.87
398.944	405.22
399.323	394.59
399.701	395.72
400.08	408.38
400.458	389.4
400.837	403.41
401.215	387.14
401.594	396.63
401.972	379
402.351	388.72
402.729	405.44
403.107	409.28
403.486	412.45
403.864	427.81
404.242	408.61
404.62	385.1
404.999	413.58
405.377	395.72
405.755	432.33
406.133	408.15
406.511	413.35
406.889	409.28
407.267	416.51
407.645	418.77
408.023	420.13
408.401	429.17
408.779	441.15
409.156	438.21
409.534	455.84
409.912	435.95
410.29	439.56
410.667	455.16
411.045	430.75
411.422	451.32
411.8	459.68
412.178	454.71
412.555	463.29
412.933	462.84
413.31	466.91
413.687	466.91
414.065	479.56
414.442	464.87
414.819	476.63
415.197	467.59
415.574	475.95
415.951	482.5
416.328	480.24
416.705	473.91
417.082	489.96
417.46	487.02
417.837	499.22
418.214	475.5
418.591	510.07
418.967	502.16
419.344	485.44
419.721	505.55
420.098	490.64
420.475	488.38
420.852	502.61
421.228	503.29
421.605	508.26
421.982	520.47
422.358	522.27
422.735	514.37
423.111	523.86
423.488	517.53
423.864	538.32
424.241	514.59
424.617	529.05
424.994	538.32
425.37	529.28
425.746	520.92
426.123	549.39
426.499	534.48
426.875	562.95
427.251	536.06
427.627	567.92
428.003	543.97
428.379	548.71
428.756	565.89
429.132	587.13
429.507	579.22
429.883	590.97
430.259	582.61
430.635	599.11
431.011	610.18
431.387	597.98
431.763	602.5
432.138	610.41
432.514	609.73
432.89	625.1
433.265	619.9
433.641	623.29
434.016	643.4
434.392	623.29
434.767	656.73
435.143	661.03
435.518	666.68
435.894	646.11
436.269	655.15
436.644	682.27
437.02	658.09
437.395	668.49
437.77	673
438.145	667.58
438.52	696.28
438.895	701.7
439.271	697.86
439.646	716.62
440.021	663.97
440.395	677.07
440.77	680.46
441.145	687.69
441.52	699.44
441.895	716.62
442.27	695.6
442.645	686.11
443.019	721.14
443.394	702.61
443.769	731.53
444.143	740.8
444.518	758.2
444.892	737.18
445.267	763.4
445.641	757.97
446.016	747.58
446.39	738.77
446.764	739.44
447.139	737.18
447.513	764.08
447.887	764.98
448.262	762.49
448.636	778.54
449.01	797.97
449.384	796.39
449.758	798.2
450.132	802.49
450.506	781.48
450.88	788.26
451.254	801.14
451.628	802.72
452.002	831.19
452.376	829.38
452.75	832.32
453.123	833
453.497	852.21
453.871	856.05
454.244	873.9
454.618	839.33
454.992	882.94
455.365	869.38
455.739	908.25
456.112	885.43
456.486	924.07
456.859	920.46
457.232	932.66
457.606	946.22
457.979	926.11
458.352	945.77
458.725	961.58
459.099	964.3
459.472	984.64
459.845	945.77
460.218	968.36
460.591	999.32
460.964	1010.17
461.337	1022.15
461.71	1035.03
462.083	1042.26
462.456	1054.92
462.829	1044.97
463.201	1041.36
463.574	1035.26
463.947	1085.2
464.32	1088.81
464.692	1111.19
465.065	1132.43
465.438	1129.04
465.81	1162.26
466.183	1148.47
466.555	1171.75
466.928	1210.62
467.3	1187.79
467.672	1202.03
468.045	1228.24
468.417	1240.9
468.789	1262.37
469.161	1232.99
469.534	1290.16
469.906	1302.82
470.278	1309.6
470.65	1334.68
471.022	1361.57
471.394	1367.45
471.766	1387.56
472.138	1414.45
472.51	1439.76
472.882	1463.27
473.253	1442.7
473.625	1499.88
473.997	1522.02
474.369	1559.76
474.74	1531.74
475.112	1577.61
475.484	1630.95
475.855	1637.27
476.227	1690.61
476.598	1723.37
476.97	1720.66
477.341	1766.31
477.713	1799.53
478.084	1787.1
478.455	1844.5
478.827	1838.62
479.198	1941.45
479.569	1936.47
479.94	1992.97
480.311	2027.77
480.682	2068.9
481.053	2089.01
481.424	2174.43
481.795	2176.92
482.166	2223.02
482.537	2227.99
482.908	2311.38
483.279	2326.97
483.65	2404.03
484.021	2442
484.391	2472.05
484.762	2511.15
485.133	2513.41
485.503	2545.5
485.874	2668.43
486.244	2672.27
486.615	2714.76
486.985	2771.93
487.356	2821.65
487.726	2839.73
488.097	2945.49
488.467	2902.78
488.837	3011.7
489.207	3081.08
489.578	3082.43
489.948	3126.95
490.318	3188.19
490.688	3208.98
491.058	3246.95
491.428	3307.29
491.798	3382.09
492.168	3442.42
492.538	3438.81
492.908	3472.25
493.278	3572.14
493.648	3542.08
494.017	3635.41
494.387	3619.82
494.757	3661.85
495.126	3700.5
495.496	3736.88
495.866	3761.74
496.235	3848.74
496.605	3827.27
496.974	3890.1
497.344	3920.15
497.713	3962.86
498.082	3964.44
498.452	4001.05
498.821	4073.82
499.19	4068.17
499.559	4117.43
499.928	4174.61
500.298	4140.03
500.667	4189.52
501.036	4172.12
501.405	4243.31
501.774	4243.08
502.143	4316.07
502.512	4347.94
502.88	4365.79
503.249	4340.03
503.618	4362.63
503.987	4410.99
504.356	4443.98
504.724	4474.71
505.093	4503.64
505.462	4542.06
505.83	4517.2
506.199	4559.91
506.567	4582.73
506.936	4594.71
507.304	4631.77
507.672	4656.63
508.041	4669.51
508.409	4702.96
508.777	4661.6
509.145	4757.42
509.514	4776.4
509.882	4803.52
510.25	4780.02
510.618	4839.22
510.986	4831.54
511.354	4835.83
511.722	4910.18
512.09	4930.75
512.458	4909.05
512.826	4980.01
513.193	4970.07
513.561	4959.22
513.929	5010.29
514.297	5049.84
514.664	5072.21
515.032	5106.33
515.4	5061.82
515.767	5132.1
516.135	5087.35
516.502	5106.79
516.869	5161.25
517.237	5167.35
517.604	5160.12
517.972	5205.54
518.339	5220.91
518.706	5229.95
519.073	5236.27
519.44	5224.3
519.808	5358.76
520.175	5301.13
520.542	5313.56
520.909	5374.8
521.276	5373.22
521.643	5390.39
522.009	5431.07
522.376	5426.33
522.743	5443.73
523.11	5515.36
523.477	5532.09
523.843	5533.44
524.21	5624.97
524.577	5573.67
524.943	5660.9
525.31	5667.45
525.676	5676.49
526.043	5771.85
526.409	5754.45
526.776	5830.38
527.142	5812.08
527.508	5865.64
527.874	5889.82
528.241	5860.21
528.607	5891.85
528.973	5901.79
529.339	5907.67
529.705	5982.92
530.071	6044.62
530.437	6049.13
530.803	6146.08
531.169	6081.22
531.535	6108.57
531.901	6173.88
532.267	6166.65
532.632	6218.4
532.998	6226.53
533.364	6255.91
533.73	6258.39
534.095	6321.67
534.461	6339.75
534.826	6396.7
535.192	6413.64
535.557	6489.58
535.923	6451.84
536.288	6422.01
536.653	6509.01
537.019	6501.55
537.384	6524.38
537.749	6540.87
538.114	6611.15
538.479	6641.44
538.845	6634.66
539.21	6652.28
539.575	6687.31
539.94	6751.04
540.305	6791.94
540.67	6738.16
541.034	6809.34
541.399	6807.53
541.764	6836.91
542.129	6867.64
542.494	6908.32
542.858	6965.04
543.223	6916
543.587	7027.64
543.952	6995.32
544.316	7032.61
544.681	7049.56
545.045	7068.99
545.41	7134.3
545.774	7132.04
546.138	7156.45
546.503	7220.86
546.867	7219.27
547.231	7222.21
547.595	7287.97
547.959	7313.73
548.324	7293.62
548.688	7351.7
549.052	7357.35
549.416	7406.39
549.779	7465.59
550.143	7490.23
550.507	7474.41
550.871	7500.4
551.235	7476.22
551.599	7557.12
551.962	7626.27
552.326	7624.91
552.689	7591.24
553.053	7671.46
553.417	7688.19
553.78	7743.1
554.143	7721.41
554.507	7809.99
554.87	7817.45
555.234	7871.01
555.597	7801.41
555.96	7857.22
556.323	7884.34
556.686	7871.69
557.05	7899.93
557.413	7896.77
557.776	7980.16
558.139	8048.4
558.502	8056.31
558.865	8075.07
559.228	8105.8
559.59	8105.35
559.953	8098.8
560.316	8154.62
560.679	8169.3
561.041	8240.94
561.404	8287.95
561.767	8269.87
562.129	8250.66
562.492	8361.84
562.854	8348.28
563.217	8367.94
563.579	8375.63
563.941	8486.81
564.304	8472.12
564.666	8484.32
565.028	8578.33
565.39	8584.21
565.753	8611.1
566.115	8589.18
566.477	8656.75
566.839	8686.13
567.201	8682.51
567.563	8801.6
567.925	8734.71
568.287	8743.98
568.648	8849.97
569.01	8861.72
569.372	8894.48
569.734	8929.96
570.095	8993.69
570.457	9026.68
570.819	8953.01
571.18	9070.52
571.542	9175.83
571.903	9160.47
572.265	9221.48
572.626	9217.86
572.987	9250.41
573.349	9380.8
573.71	9403.62
574.071	9456.28
574.432	9540.12
574.794	9678.19
575.155	9657.63
575.516	9684.75
575.877	9808.13
576.238	9826.89
576.599	9893.33
576.96	10013.55
577.32	10028.92
577.681	10225.07
578.042	10200.21
578.403	10300.77
578.763	10346.65
579.124	10489.47
579.485	10682.01
579.845	10813.98
580.206	10858.73
580.566	10972.17
580.927	11137.59
581.287	11280.18
581.648	11387.07
582.008	11649.44
582.368	11671.59
582.728	11893.5
583.089	12050.78
583.449	12280.61
583.809	12500.49
584.169	12671.79
584.529	12792.46
584.889	13186.57
585.249	13254.14
585.609	13489.62
585.969	13825.43
586.329	13857.74
586.688	14250.73
587.048	14465.41
587.408	14732.75
587.768	14940.88
588.127	15287.54
588.487	15541.54
588.846	15918.03
589.206	16097.68
589.565	16444.12
589.925	16792.81
590.284	17145.57
590.643	17294.94
591.003	17657.19
591.362	18116.16
591.721	18392.09
592.08	18709.37
592.44	19101.45
592.799	19412.63
593.158	19796.12
593.517	20108.88
593.876	20516.55
594.235	20739.82
594.593	21203.76
594.952	21602.4
595.311	21940.92
595.67	22308.37
596.029	22780.67
596.387	23097.27
596.746	23527.77
597.104	23731.83
597.463	24090.92
597.822	24584.69
598.18	24929.54
598.538	25160.04
598.897	25641.84
599.255	25725.45
599.613	26475.26
599.972	26702.38
600.33	27102.82
600.688	27349.59
601.046	27851.5
601.404	28220.53
601.762	28478.38
602.12	28978.02
602.478	29371.91
602.836	29661.17
603.194	29812.13
603.552	30211.89
603.91	30459.11
604.268	30976.84
604.625	31085.09
604.983	31593.77
605.341	31830.6
605.698	32259.07
606.056	32523.24
606.413	32843.91
606.771	33250.45
607.128	33424.46
607.485	33620.61
607.843	33988.29
608.2	34280.26
608.557	34745.33
608.914	34804.08
609.272	35258.54
609.629	35524.97
609.986	35934.9
610.343	36024.39
610.7	36532.63
611.057	36569.91
611.414	36852.84
611.771	37118.15
612.127	37573.5
612.484	37601.07
612.841	37865.7
613.198	37991.57
613.554	38189.76
613.911	38650.31
614.267	38904.09
614.624	38973.47
614.98	39317.19
615.337	39650.96
615.693	39649.16
616.05	39855.25
616.406	40105.19
616.762	40240.1
617.118	40370.04
617.475	40627.43
617.831	40752.63
618.187	41022.68
618.543	41214.76
618.899	41494.3
619.255	41630.35
619.611	41790.57
619.967	41904.92
620.323	42287.28
620.678	42198.01
621.034	42270.33
621.39	42404.79
621.746	42355.75
622.101	42984.43
622.457	42750.77
622.812	43025.79
623.168	43155.96
623.523	43285.9
623.879	43480.92
624.234	43364.54
624.589	43407.7
624.945	43632.55
625.3	43641.37
625.655	43773.57
626.01	43905.99
626.365	43959.55
626.72	43962.49
627.075	44064.41
627.43	44236.38
627.785	44248.36
628.14	44378.52
628.495	44398.86
628.85	44433.66
629.205	44518.41
629.559	44763.37
629.914	44573.55
630.269	44709.36
630.623	44600.89
630.978	44522.7
631.332	44875.91
631.687	44874.55
632.041	44880.66
632.396	45000.43
632.75	44749.59
633.104	44953.87
633.459	44703.49
633.813	44822.58
634.167	44843.82
634.521	44813.54
634.875	45075
635.229	44992.74
635.583	44869.36
635.937	44976.7
636.291	44859.87
636.645	44822.58
636.999	44816.48
637.352	44975.57
637.706	44838.17
638.06	45068.22
638.413	44811.96
638.767	44784.39
639.121	44934.89
639.474	44739.64
639.828	44779.19
640.181	44801.11
640.534	44910.03
640.888	44732.64
641.241	44730.38
641.594	44719.76
641.947	44943.93
642.301	44834.56
642.654	44694.9
643.007	44851.28
643.36	44835.01
643.713	44638.85
644.066	44906.64
644.419	44694.9
644.771	44371.29
645.124	44051.98
645.477	44028.7
645.83	43788.48
646.182	43720.23
646.535	43567.92
646.888	43704.87
647.24	43351.88
647.593	43718.65
647.945	43594.14
648.298	43326.57
648.65	43300.81
649.002	43318.21
649.355	43545.32
649.707	43444.76
650.059	43428.04
650.411	43931.3
650.763	44090.85
651.115	44438.41
651.467	44463.27
651.819	44436.37
652.171	44277.96
652.523	44153.67
652.875	44243.61
653.227	44044.75
653.578	44326.55
653.93	44212.43
654.282	43956.84
654.633	44036.16
654.985	44077.29
655.337	44122.26
655.688	44194.35
656.039	44212.88
656.391	43895.37
656.742	43927.46
657.094	43988.25
657.445	44261.92
657.796	44046.1
658.147	44010.4
658.498	43970.85
658.849	43921.13
659.2	44148.25
659.551	43794.13
659.902	43998.65
660.253	43903.73
660.604	43963.62
660.955	43718.43
661.306	44038.19
661.656	43852.66
662.007	43798.2
662.358	43862.38
662.708	43796.16
663.059	43774.92
663.409	43520.47
663.76	43881.13
664.11	43811.98
664.461	43979.89
664.811	43843.62
665.161	43844.53
665.511	43733.12
665.862	43779.44
666.212	43995.48
666.562	43947.35
666.912	43738.31
667.262	43757.3
667.612	43866.45
667.962	43804.3
668.312	43672.78
668.662	43790.29
669.011	43784.19
669.361	43652.21
669.711	43722.27
670.06	43602.72
670.41	43631.65
670.76	43538.32
671.109	43715.94
671.459	43544.87
671.808	43604.53
672.157	43606.57
672.507	43272.34
672.856	43438.21
673.205	43454.03
673.554	43647.47
673.904	43531.76
674.253	43527.25
674.602	43371.32
674.951	42875.51
675.3	42745.34
675.649	43371.32
675.998	43406.57
676.346	43329.06
676.695	43473.24
677.044	43130.65
677.393	43342.17
677.741	43218.33
678.09	43247.25
678.438	43106.47
678.787	43158.22
679.135	43143.53
679.484	43034.38
679.832	43111.44
680.181	42776.53
680.529	42950.09
680.877	42885.23
681.225	42780.6
681.573	43027.37
681.922	42671.22
682.27	42682.07
682.618	42569.08
682.966	42422.19
683.314	42625.12
683.661	42395.07
684.009	42355.07
684.357	42146.26
684.705	42274.17
685.053	42341.29
685.4	42269.43
685.748	41951.24
686.095	42003.44
686.443	41948.53
686.79	41814.07
687.138	41880.96
687.485	41881.41
687.832	41713.06
688.18	41726.84
688.527	41538.82
688.874	41512.84
689.221	41263.35
689.568	41325.95
689.915	41238.04
690.262	41172.96
690.609	41172.5
690.956	40863.81
691.303	40937.93
691.65	40737.94
691.997	40944.49
692.344	40573.42
692.69	40438.29
693.037	40508.79
693.383	40205.52
693.73	40318.52
694.077	40119.43
694.423	40118.3
694.769	39972.54
695.116	39857.06
695.462	39680.79
695.808	39589.72
696.155	39730.28
696.501	39587.46
696.847	39475.15
697.193	39150.86
697.539	39342.04
697.885	38994.94
698.231	38930.53
698.577	38934.82
698.923	38880.59
699.269	38777.77
699.614	38647.6
699.96	38461.84
700.306	38491.45
700.651	38344.1
700.997	38146.14
701.342	38139.36
701.688	38195.63
702.033	38015.07
702.379	38037.45
702.724	37882.87
703.069	37885.36
703.415	37528.76
703.76	37486.5
704.105	37531.24
704.45	37526.27
704.795	37281.99
705.14	37289.22
705.485	37120.41
705.83	36977.14
706.175	37169.9
706.52	36837.25
706.865	36898.27
707.209	36690.59
707.554	36550.93
707.899	36665.28
708.243	36544.6
708.588	36442.46
708.932	36282.24
709.277	36218.74
709.621	36372.63
709.966	36045.63
710.31	36049.48
710.654	35847
710.998	35860.78
711.342	35726.77
711.687	35807.9
712.031	35725.64
712.375	35440.9
712.719	35666.89
713.063	35423.96
713.407	35636.15
713.75	35354.35
714.094	35284.07
714.438	35233.45
714.782	35282.26
715.125	34988.49
715.469	35039.56
715.812	34828.72
716.156	34806.12
716.499	34707.82
716.843	34873.01
717.186	34447.94
717.53	34734.93
717.873	34579.01
718.216	34600.93
718.559	34426.92
718.902	34301.27
719.246	34333.14
719.589	34167.04
719.932	34141.5
720.275	34035.52
720.617	33989.64
720.96	33995.29
721.303	34050.66
721.646	33978.8
721.989	33642.76
722.331	33826.48
722.674	33693.83
723.016	33805.47
723.359	33619.94
723.701	33736.99
724.044	33386.04
724.386	33269.89
724.729	33329.77
725.071	33359.38
725.413	33445.48
725.755	33349.21
726.097	33136.78
726.439	32976.34
726.782	33012.04
727.124	33127.07
727.465	32836.23
727.807	32866.51
728.149	32819.05
728.491	32816.79
728.833	32819.5
729.175	32666.06
729.516	32526.86
729.858	32540.87
730.199	32458.38
730.541	32398.05
730.882	32402.57
731.224	32554.65
731.565	32336.13
731.906	32248.22
732.248	32386.3
732.589	32141.33
732.93	32166.87
733.271	32185.62
733.612	32153.76
733.953	32209.58
734.294	32011.62
734.635	31920.54
734.976	32080.31
735.317	31813.2
735.658	31893.43
735.999	31947.89
736.339	31729.14
736.68	31837.38
737.021	31750.61
737.361	31658.86
737.702	31803.03
738.042	31547
738.383	31527.56
738.723	31621.12
739.063	31490.5
739.404	31477.62
739.744	31387.68
740.084	31310.62
740.424	31333.67
740.764	31219.32
741.104	31201.92
741.444	31082.6
741.784	30982.49
742.124	31013.68
742.464	31034.47
742.804	30968.03
743.143	30958.99
743.483	30917.41
743.823	30792.66
744.162	30708.6
744.502	30731.88
744.841	30558.32
745.181	30747.47
745.52	30545.21
745.86	30665.89
746.199	30517.19
746.538	30456.85
746.877	30607.59
747.216	30548.83
747.556	30343.41
747.895	30357.2
748.234	30265.9
748.573	30076.98
748.911	30208.95
749.25	30208.73
749.589	29949.98
749.928	30104.1
750.267	30201.95
750.605	29923.54
750.944	29980.48
751.283	29807.83
751.621	29924.44
751.96	29825.23
752.298	29808.51
752.636	29825.46
752.975	29646.93
753.313	29502.3
753.651	29616.88
753.989	29613.71
754.327	29500.04
754.666	29351.35
755.004	29408.29
755.342	29380.27
755.679	29324.68
756.017	29173.5
756.355	29246.49
756.693	29005.37
757.031	29077.91
757.368	29006.05
757.706	29023.67
758.044	28708.43
758.381	28811.02
758.719	28748.42
759.056	28658.94
759.394	28601.76
759.731	28458.49
760.068	28391.82
760.405	28456.23
760.743	28163.36
761.08	28344.14
761.417	28085.62
761.754	28028.44
762.091	28023.7
762.428	27886.3
762.765	27838.62
763.102	27907.77
763.438	27641.34
763.775	27519.53
764.112	27655.8
764.449	27451.96
764.785	27492.86
765.122	27325.41
765.458	27088.58
765.795	27118.41
766.131	27143.04
766.467	27004.52
766.804	27091.52
767.14	26784.41
767.476	26807.68
767.812	26692.89
768.148	26654.92
768.485	26517.3
768.821	26465.55
769.157	26444.53
769.492	26244.08
769.828	26231.43
770.164	26042.96
770.5	26041.38
770.836	25935.84
771.171	25813.36
771.507	25700.6
771.842	25634.38
772.178	25688.17
772.513	25487.95
772.849	25461.28
773.184	25283.88
773.519	25338.12
773.855	25195.07
774.19	25078.24
774.525	25015.42
774.86	25099.03
775.195	24915.76
775.53	24923.67
775.865	24652.04
776.2	24583.11
776.535	24411.14
776.87	24446.39
777.205	24413.62
777.539	24304.47
777.874	24316.68
778.209	24032.16
778.543	23932.28
778.878	23853.64
779.212	23836.46
779.547	23696.35
779.881	23709.24
780.215	23465.85
780.55	23515.34
780.884	23352.63
781.218	23389.47
781.552	23416.14
781.886	23230.83
782.22	22999.2
782.554	23006.43
782.888	22727.79
783.222	22801.91
783.556	22554.69
783.889	22568.25
784.223	22415.03
784.557	22456.16
784.89	22546.1
785.224	22246.45
785.557	22112.22
785.891	22131.88
786.224	22048.71
786.558	21971.65
786.891	21822.96
787.224	21792.9
787.557	21636.75
787.891	21657.76
788.224	21563.53
788.557	21543.19
788.89	21442.18
789.223	21390.65
789.556	21377.09
789.888	21214.39
790.221	21181.17
790.554	20909.31
790.887	21099.13
791.219	20892.81
791.552	20972.81
791.884	20739.6
792.217	20789.76
792.549	20665.02
792.882	20495.08
793.214	20404.46
793.546	20549.54
793.879	20371.7
794.211	20250.8
794.543	20324.69
794.875	20184.58
795.207	20161.31
795.539	20087.18
795.871	20171.48
796.203	19912.5
796.535	19783.91
796.867	19785.72
797.198	19644.94
797.53	19661.43
797.862	19522.45
798.193	19611.94
798.525	19381.89
798.856	19413.3
799.188	19308
799.519	19128.79
799.85	19162.69
800.182	19150.94
800.513	19115.91
800.844	18912.07
801.175	19081.79
801.506	18915.46
801.837	18803.15
802.168	18789.36
802.499	18744.17
802.83	18639.54
803.161	18634.34
803.491	18562.7
803.822	18602.7
804.153	18531.97
804.483	18289.49
804.814	18271.86
805.145	18348.92
805.475	18259.21
805.805	18178.99
806.136	18221.47
806.466	18189.38
806.796	18051.76
807.126	17948.93
807.457	17864.87
807.787	17838.66
808.117	17765.44
808.447	17784.19
808.777	17749.62
809.107	17666.68
809.436	17731.77
809.766	17591.66
810.096	17596.18
810.426	17471.43
810.755	17519.57
811.085	17471.66
811.414	17356.41
811.744	17243.42
812.073	17182.63
812.403	17221.5
812.732	17185.34
813.061	17083.42
813.39	16955.29
813.719	17021.95
814.049	17049.98
814.378	16951.22
814.707	16939.02
815.036	16787.84
815.365	16774.95
815.693	16639.59
816.022	16573.38
816.351	16465.13
816.68	16482.08
817.008	16651.34
817.337	16463.1
817.665	16395.76
817.994	16480.95
818.322	16450.67
818.651	16263.1
818.979	16292.71
819.307	16334.06
819.636	16283.89
819.964	16120.28
820.292	16256.78
820.62	16230.79
820.948	16186.72
821.276	16186.95
821.604	16085.71
821.932	16091.81
822.259	16118.25
822.587	16079.83
822.915	15983.34
823.243	16118.47
823.57	16053.84
823.898	16040.74
824.225	15976.11
824.553	15963
824.88	16015.65
825.207	16008.87
825.535	15997.35
825.862	16053.39
826.189	16008.65
826.516	16009.78
826.843	16151.24
827.17	16034.86
827.497	16068.98
827.824	15968.87
828.151	16046.84
828.478	16135.2
828.805	16116.44
829.131	15979.95
829.458	15994.41
829.785	15955.99
830.111	15863.34
830.438	16060.62
830.764	15975.65
831.09	16003.45
831.417	15953.28
831.743	15957.8
832.069	15908.76
832.395	15941.3
832.722	15999.83
833.048	15885.26
833.374	15911.47
833.7	15731.59
834.026	15892.94
834.351	15874.64
834.677	15829.44
835.003	15870.8
835.329	15841.42
835.654	15778.6
835.98	15693.63
836.306	15766.17
836.631	15644.36
836.956	15755.32
837.282	15679.84
837.607	15597.81
837.932	15504.71
838.258	15554.65
838.583	15534.08
838.908	15518.72
839.233	15527.3
839.558	15363.24
839.883	15374.77
840.208	15456.12
840.533	15337.7
840.858	15392.17
841.182	15369.79
841.507	15330.7
841.832	15254.32
842.156	15144.71
842.481	15219.06
842.805	15166.64
843.13	15174.09
843.454	15123.25
843.778	15074.66
844.103	15049.58
844.427	14985.17
844.751	15072.4
845.075	14895.91
845.399	14842.8
845.723	14788.11
846.047	14836.02
846.371	14719.19
846.695	14713.99
847.019	14514.45
847.343	14495.47
847.666	14380.67
847.99	14335.92
848.313	14384.96
848.637	14250.95
848.96	14214.57
849.284	14248.02
849.607	14046.89
849.931	14074.46
850.254	13975.48
850.577	13886.44
850.9	13813
851.223	13855.48
851.546	13724.87
851.869	13615.26
852.192	13707.46
852.515	13518.54
852.838	13541.59
853.161	13556.28
853.483	13471.31
853.806	13355.84
854.129	13383.63
854.451	13316.97
854.774	13178.89
855.096	13203.07
855.419	13197.87
855.741	13192.68
856.063	13179.34
856.385	13046.69
856.708	13033.81
857.03	13035.39
857.352	13001.49
857.674	13001.04
857.996	12883.31
858.318	12778.45
858.64	12905.9
858.961	12779.35
859.283	12722.41
859.605	12689.41
859.926	12689.64
860.248	12566.93
860.57	12609.87
860.891	12596.08
861.212	12483.99
861.534	12503.65
861.855	12487.38
862.176	12456.2
862.498	12341.4
862.819	12479.25
863.14	12363.54
863.461	12322.42
863.782	12235.19
864.103	12248.29
864.424	12300.5
864.745	12308.86
865.065	12207.16
865.386	12196.32
865.707	12147.05
866.027	12111.12
866.348	12101.63
866.668	12144.12
866.989	12042.2
867.309	12087.62
867.63	12051.46
867.95	11983.22
868.27	12005.14
868.59	11953.84
868.91	11905.7
869.23	11893.5
869.55	11765.37
869.87	11884.69
870.19	11879.26
870.51	11876.55
870.83	11867.06
871.15	11827.74
871.469	11752.04
871.789	11775.76
872.109	11726.05
872.428	11739.83
872.748	11750.91
873.067	11745.71
873.386	11686.05
873.706	11652.6
874.025	11630
874.344	11677.24
874.663	11635.65
874.982	11554.53
875.301	11570.8
875.62	11514.98
875.939	11423.91
876.258	11528.54
876.577	11411.03
876.896	11410.8
877.214	11361.54
877.533	11338.26
877.852	11385.27
878.17	11406.51
878.489	11388.66
878.807	11376.68
879.125	11256.91
879.444	11284.48
879.762	11197.25
880.08	11244.48
880.398	11228.89
880.716	11238.15
881.034	11238.38
881.352	11199.28
881.67	11123.8
881.988	11124.48
882.306	11164.48
882.624	11085.16
882.941	11049.91
883.259	10984.6
883.577	10960.42
883.894	10929.23
884.212	10965.62
884.529	10932.85
884.846	10837.26
885.164	10885.17
885.481	10825.05
885.798	10802.23
886.115	10820.31
886.432	10764.49
886.75	10725.85
887.067	10721.55
887.383	10661.22
887.7	10694.89
888.017	10652.86
888.334	10652.86
888.651	10561.33
888.967	10587.55
889.284	10506.19
889.6	10515.01
889.917	10420.77
890.233	10377.38
890.55	10345.29
890.866	10405.86
891.182	10371.96
891.498	10333.09
891.815	10240.66
892.131	10228.23
892.447	10198.63
892.763	10201.34
893.079	10113.21
893.395	10136.03
893.71	10096.26
894.026	10055.81
894.342	10059.88
894.657	10009.71
894.973	9946.66
895.289	9985.3
895.604	9940.56
895.92	9825.76
896.235	9822.14
896.55	9827.57
896.865	9796.15
897.181	9760.45
897.496	9780.11
897.811	9681.81
898.126	9618.08
898.441	9686.78
898.756	9578.08
899.071	9533.11
899.386	9619.66
899.7	9471.64
900.015	9415.83
900.33	9408.59
900.644	9347.13
900.959	9436.84
901.273	9347.58
901.588	9291.08
901.902	9257.64
902.216	9159.79
902.531	9175.15
902.845	9180.8
903.159	9142.61
903.473	9190.97
903.787	8997.31
904.101	8967.02
904.415	8992.11
904.729	8975.84
905.042	8904.88
905.356	8891.09
905.67	8882.51
905.984	8870.08
906.297	8859.91
906.611	8710.31
906.924	8793.47
907.237	8756.63
907.551	8675.51
907.864	8615.39
908.177	8582.63
908.491	8529.75
908.804	8527.26
909.117	8452.69
909.43	8439.13
909.743	8409.52
910.056	8364.78
910.368	8407.72
910.681	8278
910.994	8323.43
911.307	8301.05
911.619	8214.5
911.932	8263.31
912.244	8143.54
912.557	8133.6
912.869	8146.93
913.181	8123.88
913.494	8058.35
913.806	8012.02
914.118	7927.96
914.43	7911.46
914.742	7881.63
915.054	7814.29
915.366	7766.15
915.678	7804.79
915.99	7768.86
916.302	7680.73
916.613	7632.82
916.925	7657.23
917.236	7649.54
917.548	7578.36
917.859	7591.69
918.171	7518.7
918.482	7461.08
918.794	7459.04
919.105	7477.8
919.416	7359.16
919.727	7374.75
920.038	7421.3
920.349	7305.6
920.66	7306.5
920.971	7242.32
921.282	7159.84
921.593	7170.01
921.903	7164.13
922.214	7176.79
922.525	7132.72
922.835	7107.19
923.146	7025.61
923.456	7016.34
923.767	6970.92
924.077	7016.57
924.387	6907.42
924.697	6882.79
925.008	6842.33
925.318	6825.61
925.628	6796.69
925.938	6738.83
926.248	6712.17
926.558	6719.4
926.867	6653.64
927.177	6671.94
927.487	6633.75
927.796	6547.88
928.106	6555.34
928.416	6505.39
928.725	6556.92
929.034	6490.25
929.344	6496.58
929.653	6452.97
929.962	6387.2
930.271	6343.36
930.581	6313.08
930.89	6220.66
931.199	6262.69
931.508	6258.62
931.817	6209.13
932.125	6224.72
932.434	6172.52
932.743	6116.25
933.051	6115.35
933.36	6064.28
933.669	6027.44
933.977	6033.09
934.286	6011.17
934.594	5944.05
934.902	5931.85
935.21	5934.56
935.519	5959.42
935.827	5892.98
936.135	5844.85
936.443	5829.71
936.751	5758.29
937.059	5756.49
937.367	5794.68
937.674	5819.99
937.982	5708.35
938.29	5659.99
938.597	5670.39
938.905	5620.9
939.213	5649.6
939.52	5557.85
939.827	5543.16
940.135	5532.09
940.442	5542.93
940.749	5519.66
941.056	5444.4
941.363	5466.1
941.67	5427
941.977	5368.93
942.284	5394.46
942.591	5375.03
942.898	5343.62
943.205	5321.7
943.511	5307.69
943.818	5259.1
944.125	5261.36
944.431	5250.51
944.738	5168.25
945.044	5221.81
945.35	5176.62
945.657	5130.74
945.963	5087.58
946.269	5088.93
946.575	5070.86
946.881	4963.74
947.187	5050.97
947.493	4972.78
947.799	4955.6
948.105	4942.05
948.41	4959.22
948.716	4909.05
949.022	4855.49
949.327	4891.43
949.633	4820.92
949.938	4810.07
950.244	4818.66
950.549	4798.32
950.854	4752.45
951.16	4729.85
951.465	4708.83
951.77	4673.35
952.075	4646.69
952.38	4638.78
952.685	4672.22
952.99	4577.31
953.294	4635.84
953.599	4566.91
953.904	4505.9
954.209	4529.4
954.513	4551.1
954.818	4466.58
955.122	4486.46
955.426	4488.27
955.731	4380.93
956.035	4462.96
956.339	4406.92
956.643	4386.35
956.948	4368.5
957.252	4359.91
957.556	4361.95
957.86	4296.86
958.163	4287.6
958.467	4279.01
958.771	4232.91
959.075	4229.75
959.378	4234.04
959.682	4209.64
959.985	4187.04
960.289	4171.44
960.592	4103.65
960.896	4093.03
961.199	4085.12
961.502	4079.24
961.805	4067.94
962.108	4053.03
962.411	4046.02
962.714	4040.37
963.017	4011
963.32	3998.34
963.623	4017.78
963.926	3989.75
964.228	3944.11
964.531	3850.32
964.833	3919.7
965.136	3835.86
965.438	3866.14
965.741	3850.55
966.043	3869.76
966.345	3773.49
966.648	3796.99
966.95	3800.15
967.252	3748.18
967.554	3718.12
967.856	3718.12
968.158	3670.21
968.46	3687.61
968.761	3692.81
969.063	3689.87
969.365	3662.53
969.666	3619.14
969.968	3594.06
970.269	3596.54
970.571	3575.75
970.872	3585.7
971.174	3588.63
971.475	3530.56
971.776	3550.67
972.077	3507.51
972.378	3494.4
972.679	3464.12
972.98	3461.41
973.281	3412.37
973.582	3420.28
973.883	3408.98
974.183	3375.76
974.484	3400.62
974.785	3372.59
975.085	3368.98
975.386	3349.32
975.686	3317
975.986	3275.87
976.287	3332.6
976.587	3221.86
976.887	3272.48
977.187	3241.75
977.487	3244.69
977.787	3195.88
978.087	3207.85
978.387	3178.25
978.687	3222.99
978.987	3141.41
979.286	3148.42
979.586	3142.32
979.885	3116.78
980.185	3104.81
980.484	3086.27
980.784	3065.03
981.083	3049.44
981.382	3055.32
981.682	3073.62
981.981	3023.68
982.28	2983.23
982.579	2973.28
982.878	2964.7
983.177	2960.85
983.475	2964.02
983.774	2939.39
984.073	2879.05
984.372	2887.18
984.67	2885.6
984.969	2877.47
985.267	2872.5
985.566	2848.99
985.864	2844.02
986.162	2840.18
986.461	2821.65
986.759	2825.72
987.057	2811.03
987.355	2779.62
987.653	2784.14
987.951	2740.3
988.249	2754.08
988.547	2763.12
988.844	2726.74
989.142	2729.67
989.44	2677.92
989.737	2673.86
990.035	2686.06
990.332	2695.78
990.63	2649.68
990.927	2627.98
991.224	2637.92
991.521	2567.19
991.819	2618.26
992.116	2558.38
992.413	2578.72
992.71	2573.07
993.006	2555.44
993.303	2545.05
993.6	2533.29
993.897	2544.82
994.193	2514.99
994.49	2492.17
994.787	2490.36
995.083	2465.95
995.379	2448.55
995.676	2426.86
995.972	2460.98
996.268	2419.63
996.565	2402.22
996.861	2403.58
997.157	2365.62
997.453	2374.66
997.749	2359.06
998.044	2316.35
998.34	2348.44
998.636	2349.57
998.932	2305.5
999.227	2332.85
999.523	2300.08
999.818	2290.59
1000.114	2286.3
1000.409	2237.71
1000.704	2247.65
1001	2270.48
1001.295	2181.67
1001.59	2226.86
1001.885	2196.13
1002.18	2219.63
1002.475	2178.28
1002.77	2179.18
1003.065	2138.73
1003.359	2141.67
1003.654	2104.38
1003.949	2103.7
1004.243	2091.72
1004.538	2089.69
1004.832	2065.74
1005.127	2080.65
1005.421	2065.74
1005.715	2062.35
1006.009	2046.53
1006.304	2015.12
1006.598	2024.61
1006.892	2001.56
1007.186	1983.48
1007.48	1952.29
1007.773	1952.75
1008.067	1932.86
1008.361	1969.24
1008.655	1931.05
1008.948	1917.27
1009.242	1894.67
1009.535	1896.7
1009.829	1893.09
1010.122	1903.71
1010.415	1831.39
1010.708	1863.48
1011.001	1848.57
1011.295	1804.95
1011.588	1826.87
1011.881	1822.58
1012.173	1835.46
1012.466	1780.32
1012.759	1772.41
1013.052	1794.78
1013.344	1786.2
1013.637	1740.32
1013.93	1718.63
1014.222	1738.97
1014.514	1713.2
1014.807	1702.13
1015.099	1710.94
1015.391	1657.39
1015.683	1670.27
1015.976	1694.67
1016.268	1643.83
1016.56	1636.37
1016.851	1623.04
1017.143	1620.78
1017.435	1606.09
1017.727	1649.7
1018.018	1588.91
1018.31	1608.57
1018.602	1604.51
1018.893	1568.57
1019.185	1562.25
1019.476	1549.59
1019.767	1551.85
1020.058	1554.11
1020.35	1542.59
1020.641	1513.66
1020.932	1509.82
1021.223	1497.84
1021.514	1468.69
1021.804	1472.98
1022.095	1459.88
1022.386	1444.74
1022.677	1437.5
1022.967	1422.59
1023.258	1408.35
1023.548	1399.09
1023.839	1419.43
1024.129	1391.4
1024.419	1403.38
1024.709	1374.46
1025	1376.49
1025.29	1334
1025.58	1359.99
1025.87	1344.63
1026.16	1314.57
1026.449	1338.07
1026.739	1307.11
1027.029	1324.74
1027.319	1285.64
1027.608	1288.36
1027.898	1299.43
1028.187	1272.76
1028.477	1257.62
1028.766	1235.48
1029.055	1230.73
1029.344	1248.36
1029.634	1211.75
1029.923	1213.33
1030.212	1220.11
1030.501	1218.08
1030.79	1209.49
1031.078	1164.29
1031.367	1164.07
1031.656	1193.22
1031.945	1168.59
1032.233	1125.87
1032.522	1157.74
1032.81	1165.65
1033.099	1131.52
1033.387	1118.19
1033.675	1136.5
1033.963	1122.26
1034.251	1112.09
1034.54	1084.75
1034.828	1074.12
1035.116	1092.88
1035.403	1061.47
1035.691	1077.06
1035.979	1066.67
1036.267	1052.2
1036.554	1045.88
1036.842	1055.59
1037.129	1034.58
1037.417	1001.58
1037.704	1027.8
1037.992	1020.34
1038.279	1012.88
1038.566	997.52
1038.853	997.52
1039.14	997.52
