Data from hue_230_FLMS001491_00008.txt Node
Date: Tue Feb 07 16:36:44 GMT 2017
User: dcchb
Spectrometer: FLMS00149
Trigger mode: 0
Integration Time (sec): 2.000000E-2
Scans to average: 10
Electric dark correction enabled: true
Nonlinearity correction enabled: false
Boxcar width: 0
XAxis mode: Wavelengths
Number of Pixels in Spectrum: 2048
>>>>>Begin Spectral Data<<<<<
341.393	-33.94
341.776	-33.94
342.16	-33.94
342.543	-63.54
342.927	-67.39
343.31	-54.73
343.693	-73.94
344.077	-73.71
344.46	-59.02
344.843	-46.59
345.226	-38.23
345.61	-41.85
345.993	-29.65
346.376	-14.51
346.759	30.01
347.142	27.3
347.525	51.03
347.908	48.77
348.291	60.07
348.674	96.23
349.057	118.82
349.44	133.51
349.823	168.99
350.206	152.27
350.588	178.48
350.971	211.93
351.354	205.83
351.737	239.5
352.119	234.3
352.502	256
352.884	273.4
353.267	291.93
353.65	300.97
354.032	297.12
354.414	316.79
354.797	307.29
355.179	309.78
355.562	337.35
355.944	330.12
356.326	334.86
356.709	323.11
357.091	364.92
357.473	333.73
357.855	326.28
358.238	331.93
358.62	322.44
359.002	324.47
359.384	335.54
359.766	327.18
360.148	349.55
360.53	338.93
360.912	341.42
361.294	326.5
361.676	334.41
362.057	336.22
362.439	336.22
362.821	321.53
363.203	314.3
363.584	324.24
363.966	317.69
364.348	316.79
364.729	333.06
365.111	297.35
365.493	324.69
365.874	308.65
366.256	317.01
366.637	311.59
367.019	307.52
367.4	314.3
367.781	300.29
368.163	330.8
368.544	324.47
368.925	297.35
369.306	324.47
369.688	321.53
370.069	288.99
370.45	304.13
370.831	304.13
371.212	305.49
371.593	322.66
371.974	335.77
372.355	303.23
372.736	313.17
373.117	293.74
373.498	310.68
373.879	307.75
374.26	322.89
374.641	305.49
375.021	304.36
375.402	328.54
375.783	312.94
376.163	333.28
376.544	339.84
376.925	310.91
377.305	323.11
377.686	350.91
378.066	333.06
378.447	342.1
378.827	326.5
379.208	318.59
379.588	334.86
379.968	331.93
380.349	336.45
380.729	333.73
381.109	341.87
381.489	344.58
381.87	316.33
382.25	328.76
382.63	335.32
383.01	347.52
383.39	333.06
383.77	335.77
384.15	343
384.53	336.9
384.91	361.76
385.29	341.19
385.67	350.68
386.049	375.09
386.429	336.9
386.809	345.03
387.189	366.73
387.568	362.21
387.948	364.02
388.328	345.94
388.707	356.56
389.087	357.46
389.466	356.33
389.846	356.33
390.225	356.56
390.605	364.02
390.984	359.27
391.363	393.85
391.743	356.56
392.122	365.37
392.501	388.42
392.881	378.7
393.26	386.84
393.639	365.37
394.018	370.57
394.397	380.96
394.776	386.39
395.155	380.06
395.534	391.36
395.913	379.38
396.292	393.85
396.671	385.71
397.05	387.29
397.429	414.41
397.808	399.27
398.186	407.63
398.565	414.18
398.944	422.77
399.323	412.15
399.701	429.32
400.08	401.75
400.458	415.31
400.837	423.22
401.215	415.09
401.594	437.01
401.972	432.26
402.351	435.88
402.729	420.96
403.107	429.32
403.486	429.55
403.864	435.88
404.242	451.02
404.62	432.49
404.999	457.35
405.377	450.12
405.755	470.91
406.133	439.49
406.511	453.05
406.889	464.13
407.267	471.58
407.645	473.39
408.023	458.7
408.401	453.28
408.779	478.36
409.156	500.74
409.534	521.98
409.912	484.24
410.29	481.98
410.667	527.18
411.045	525.14
411.422	508.42
411.8	528.98
412.178	539.83
412.555	561.52
412.933	552.26
413.31	564.46
413.687	566.5
414.065	585.93
414.442	574.41
414.819	605.14
415.197	601.3
415.574	588.19
415.951	601.3
416.328	628.87
416.705	621.86
417.082	609.89
417.46	626.16
417.837	647.4
418.214	647.85
418.591	656.66
418.967	643.56
419.344	677.91
419.721	675.19
420.098	688.53
420.475	692.37
420.852	714.06
421.228	715.42
421.605	701.41
421.982	735.08
422.358	753.84
422.735	774.4
423.111	755.19
423.488	758.13
423.864	773.27
424.241	773.72
424.617	795.19
424.994	807.17
425.37	809.65
425.746	837.22
426.123	836.09
426.499	849.88
426.875	859.14
427.251	861.4
427.627	892.14
428.003	889.2
428.379	899.82
428.756	897.79
429.132	924.91
429.507	941.4
429.883	945.7
430.259	970.78
430.635	957.9
431.011	976.2
431.387	1006.94
431.763	1020.5
432.138	1009.2
432.514	1041.51
432.89	1063.21
433.265	1074.96
433.641	1074.73
434.016	1099.36
434.392	1121.51
434.767	1139.14
435.143	1162.41
435.518	1175.29
435.894	1152.02
436.269	1197.21
436.644	1212.36
437.02	1232.02
437.395	1233.6
437.77	1252.58
438.145	1289.19
438.52	1259.13
438.895	1299.36
439.271	1313.37
439.646	1375.06
440.021	1388.4
440.395	1407.6
440.77	1397.44
441.145	1385.23
441.52	1406.47
441.895	1420.49
442.27	1463.65
442.645	1465.91
443.019	1486.47
443.394	1498.68
443.769	1514.72
444.143	1499.13
444.518	1537.32
444.892	1555.4
445.267	1559.46
445.641	1597.66
446.016	1610.99
446.39	1590.88
446.764	1567.37
447.139	1589.07
447.513	1645.56
447.887	1625.68
448.262	1644.43
448.636	1623.87
449.01	1655.96
449.384	1689.18
449.758	1704.77
450.132	1699.12
450.506	1731.89
450.88	1715.17
451.254	1713.13
451.628	1735.96
452.002	1781.38
452.376	1808.5
452.75	1804.2
453.123	1812.11
453.497	1856.18
453.871	1870.64
454.244	1884.43
454.618	1888.27
454.992	1924.2
455.365	1919
455.739	1974.37
456.112	1965.33
456.486	1987.25
456.859	1994.71
457.232	2051.2
457.606	2063.86
457.979	2054.37
458.352	2117.87
458.725	2106.57
459.099	2143.86
459.472	2215.72
459.845	2190.41
460.218	2200.13
460.591	2197.64
460.964	2224.31
461.337	2283.97
461.71	2323.96
462.083	2318.31
462.456	2340.91
462.829	2356.28
463.201	2420.68
463.574	2405.32
463.947	2459.1
464.32	2471.08
464.692	2518.54
465.065	2543.85
465.438	2563.73
465.81	2618.19
466.183	2617.06
466.555	2648.02
466.928	2721.24
467.3	2694.35
467.672	2698.19
468.045	2810.28
468.417	2774.57
468.789	2767.12
469.161	2808.7
469.534	2898.86
469.906	2927.79
470.278	2963.27
470.65	2986.77
471.022	3015.47
471.394	3110.38
471.766	3104.06
472.138	3090.95
472.51	3157.39
472.882	3229.25
473.253	3216.6
473.625	3315.8
473.997	3370.72
474.369	3394.44
474.74	3392.41
475.112	3436.03
475.484	3524.16
475.855	3552.18
476.227	3577.04
476.598	3640.99
476.97	3669.01
477.341	3781.55
477.713	3818.39
478.084	3784.26
478.455	3915.56
478.827	3942
479.198	4026.74
479.569	4067.2
479.94	4200.07
480.311	4202.11
480.682	4262.67
481.053	4334.98
481.424	4341.76
481.795	4423.34
482.166	4502.21
482.537	4557.58
482.908	4603.68
483.279	4679.16
483.65	4716.44
484.021	4810.68
484.391	4844.8
484.762	4870.79
485.133	4889.32
485.503	4994.63
485.874	5071.01
486.244	5115.53
486.615	5188.52
486.985	5262.19
487.356	5348.52
487.726	5399.59
488.097	5422.87
488.467	5441.4
488.837	5521.17
489.207	5613.82
489.578	5669.64
489.948	5748.06
490.318	5795.29
490.688	5789.64
491.058	5902.4
491.428	5941.95
491.798	5999.8
492.168	6108.5
492.538	6132.68
492.908	6174.26
493.278	6254.48
493.648	6235.73
494.017	6271.66
494.387	6359.56
494.757	6386.91
495.126	6473.23
495.496	6483.4
495.866	6431.65
496.235	6539.9
496.605	6620.35
496.974	6615.15
497.344	6682.27
497.713	6680.69
498.082	6723.62
498.452	6776.28
498.821	6812.89
499.19	6815.6
499.559	6901.02
499.928	6901.7
500.298	6925.2
500.667	6980.79
501.036	6962.71
501.405	7027.34
501.774	7033.22
502.143	7072.31
502.512	7080
502.88	7195.25
503.249	7115.93
503.618	7163.39
503.987	7191.86
504.356	7188.02
504.724	7268.24
505.093	7328.35
505.462	7332.42
505.83	7284.74
506.199	7355.02
506.567	7462.59
506.936	7435.69
507.304	7461.91
507.672	7465.3
508.041	7507.1
508.409	7491.74
508.777	7540.55
509.145	7541.23
509.514	7590.04
509.882	7681.79
510.25	7656.71
510.618	7673.43
510.986	7696.93
511.354	7744.84
511.722	7823.48
512.09	7884.95
512.458	7817.15
512.826	7846.76
513.193	7924.04
513.561	7847.43
513.929	7950.94
514.297	7915.46
514.664	7966.08
515.032	7938.51
515.4	8041.33
515.767	7963.82
516.135	8037.49
516.502	7950.71
516.869	8101.89
517.237	8068.45
517.604	8033.64
517.972	8090.14
518.339	8195
518.706	8086.98
519.073	8087.43
519.44	8147.77
519.808	8192.06
520.175	8146.41
520.542	8296.46
520.909	8293.98
521.276	8195
521.643	8313.64
522.009	8298.5
522.376	8324.03
522.743	8330.13
523.11	8372.17
523.477	8454.88
523.843	8367.87
524.21	8457.81
524.577	8501.43
524.943	8492.84
525.31	8496.01
525.676	8561.54
526.043	8564.03
526.409	8554.08
526.776	8594.31
527.142	8649
527.508	8584.59
527.874	8665.49
528.241	8704.36
528.607	8715.89
528.973	8726.51
529.339	8730.12
529.705	8702.33
530.071	8807.18
530.437	8732.38
530.803	8787.52
531.169	8804.92
531.535	8752.27
531.901	8728.32
532.267	8765.38
532.632	8773.29
532.998	8746.39
533.364	8803.34
533.73	8825.71
534.095	8838.14
534.461	8795.66
534.826	8865.26
535.192	8775.55
535.557	8865.26
535.923	8858.48
536.288	8802.89
536.653	8848.09
537.019	8763.79
537.384	8804.02
537.749	8815.77
538.114	8736.45
538.479	8765.6
538.845	8768.09
539.21	8777.35
539.575	8746.62
539.94	8787.3
540.305	8807.41
540.67	8763.12
541.034	8761.54
541.399	8787.3
541.764	8720.41
542.129	8736.23
542.494	8775.09
542.858	8715.21
543.223	8723.34
543.587	8715.43
543.952	8661.2
544.316	8693.51
544.681	8686.96
545.045	8667.75
545.41	8763.57
545.774	8619.39
546.138	8707.53
546.503	8653.06
546.867	8621.65
547.231	8693.51
547.595	8631.37
547.959	8678.15
548.324	8604.93
548.688	8574.2
549.052	8594.31
549.416	8606.29
549.779	8679.05
550.143	8532.39
550.507	8586.62
550.871	8593.63
551.235	8583.69
551.599	8596.12
551.962	8624.36
552.326	8584.36
552.689	8630.01
553.053	8559.73
553.417	8510.69
553.78	8629.34
554.143	8600.18
554.507	8536.23
554.87	8631.82
555.234	8603.35
555.597	8577.59
555.96	8587.53
556.323	8548.66
556.686	8567.42
557.05	8549.34
557.413	8630.01
557.776	8534.2
558.139	8626.4
558.502	8609
558.865	8568.55
559.228	8619.39
559.59	8615.1
559.953	8668.43
560.316	8740.97
560.679	8687.41
561.041	8699.62
561.404	8772.83
561.767	8736.9
562.129	8731.93
562.492	8729.67
562.854	8806.96
563.217	8788.65
563.579	8764.47
563.941	8823.45
564.304	8790.01
564.666	8891.02
565.028	8832.27
565.39	8807.64
565.753	8892.83
566.115	8915.88
566.477	8956.11
566.839	8912.94
567.201	8957.91
567.563	8972.38
567.925	9011.92
568.287	9044.01
568.648	9032.26
569.01	9091.47
569.372	9150.45
569.734	9124.24
570.095	9174.41
570.457	9175.31
570.819	9205.82
571.18	9143.22
571.542	9189.55
571.903	9165.82
572.265	9234.29
572.626	9208.53
572.987	9312.71
573.349	9332.37
573.71	9321.97
574.071	9305.25
574.432	9328.98
574.794	9446.04
575.155	9407.39
575.516	9396.55
575.877	9406.94
576.238	9498.01
576.599	9494.4
576.96	9526.71
577.32	9469.99
577.681	9546.83
578.042	9568.97
578.403	9547.96
578.763	9545.02
579.124	9637.9
579.485	9590.21
579.845	9707.72
580.206	9583.89
580.566	9689.42
580.927	9701.17
581.287	9674.05
581.648	9726.93
582.008	9754.73
582.368	9737.1
582.728	9795.41
583.089	9833.15
583.449	9798.57
583.809	9823.88
584.169	9765.58
584.529	9773.26
584.889	9900.49
585.249	9776.65
585.609	9850.77
585.969	9831.56
586.329	9858.68
586.688	9894.16
587.048	9868.62
587.408	9877.66
587.768	9926.25
588.127	9939.58
588.487	9846.03
588.846	9940.04
589.206	9910.66
589.565	9921.28
589.925	10013.71
590.284	9955.85
590.643	10062.97
591.003	9985.68
591.362	10060.94
591.721	9964.22
592.08	10025.46
592.44	10056.42
592.799	10031.33
593.158	10057.55
593.517	10075.62
593.876	10033.59
594.235	10091.44
594.593	10081.73
594.952	10074.49
595.311	10035.63
595.67	10090.77
596.029	10156.3
596.387	10121.5
596.746	10168.73
597.104	10036.98
597.463	10123.53
597.822	10134.15
598.18	10078.56
598.538	10134.38
598.897	10179.35
599.255	10094.61
599.613	10297.09
599.972	10184.77
600.33	10238.11
600.688	10180.48
601.046	10237.65
601.404	10211.21
601.762	10214.15
602.12	10294.15
602.478	10230.65
602.836	10305.68
603.194	10215.73
603.552	10223.64
603.91	10220.93
604.268	10247.6
604.625	10224.77
604.983	10251.67
605.341	10207.6
605.698	10338.67
606.056	10237.65
606.413	10281.95
606.771	10320.36
607.128	10288.05
607.485	10273.36
607.843	10342.06
608.2	10354.04
608.557	10351.55
608.914	10298.22
609.272	10401.49
609.629	10409.63
609.986	10393.58
610.343	10378.22
610.7	10470.19
611.057	10436.29
611.414	10428.16
611.771	10412.34
612.127	10450.76
612.484	10523.97
612.841	10499.79
613.198	10424.99
613.554	10482.62
613.911	10576.18
614.267	10496.86
614.624	10500.47
614.98	10452.11
615.337	10586.12
615.693	10497.99
616.05	10491.21
616.406	10517.42
616.762	10581.6
617.118	10490.3
617.475	10566.01
617.831	10581.6
618.187	10578.21
618.543	10618.21
618.899	10604.42
619.255	10624.31
619.611	10655.27
619.967	10655.72
620.323	10704.08
620.678	10579.57
621.034	10588.38
621.39	10516.74
621.746	10577.08
622.101	10734.36
622.457	10660.02
622.812	10638.32
623.168	10665.44
623.523	10668.6
623.879	10662.28
624.234	10589.74
624.589	10668.38
624.945	10620.47
625.3	10580.47
625.655	10653.01
626.01	10622.5
626.365	10650.07
626.72	10565.1
627.075	10634.03
627.43	10627.25
627.785	10578.66
628.14	10663.18
628.495	10669.51
628.85	10620.47
629.205	10551.54
629.559	10616.63
629.914	10643.52
630.269	10586.12
630.623	10549.28
630.978	10492.34
631.332	10630.86
631.687	10558.55
632.041	10498.21
632.396	10590.87
632.75	10518.1
633.104	10547.02
633.459	10521.04
633.813	10506.35
634.167	10429.29
634.521	10408.72
634.875	10458.89
635.229	10406.01
635.583	10426.58
635.937	10410.53
636.291	10322.4
636.645	10387.48
636.999	10303.64
637.352	10345.67
637.706	10251.21
638.06	10391.55
638.413	10269.29
638.767	10384.77
639.121	10337.99
639.474	10250.08
639.828	10255.28
640.181	10321.49
640.534	10229.29
640.888	10088.05
641.241	10208.5
641.594	10203.76
641.947	10219.8
642.301	10131.67
642.654	10131.89
643.007	10156.53
643.36	10211.67
643.713	10128.28
644.066	10198.33
644.419	10081.5
644.771	10057.55
645.124	9969.41
645.477	9996.08
645.83	9841.51
646.182	9799.7
646.535	9810.77
646.888	9891.22
647.24	9763.77
647.593	9837.89
647.945	9737.55
648.298	9716.54
648.65	9709.76
649.002	9683.09
649.355	9728.06
649.707	9834.28
650.059	9842.18
650.411	9935.74
650.763	9935.74
651.115	9982.29
651.467	9999.02
651.819	9959.92
652.171	10017.1
652.523	9923.76
652.875	9929.19
653.227	9964.67
653.578	9990.88
653.93	10062.07
654.282	9928.51
654.633	9897.78
654.985	9972.58
655.337	9948.4
655.688	9879.7
656.039	9963.99
656.391	9926.93
656.742	9986.59
657.094	9963.54
657.445	10005.57
657.796	9889.64
658.147	9930.54
658.498	9916.53
658.849	9977.32
659.2	9973.25
659.551	9902.97
659.902	9971.9
660.253	9952.69
660.604	9938.91
660.955	9877.44
661.306	9832.02
661.656	9876.53
662.007	9985.01
662.358	9977.32
662.708	9951.56
663.059	10002.63
663.409	9853.48
663.76	10006.25
664.11	9973.93
664.461	9899.81
664.811	9956.98
665.161	9919.92
665.511	9914.27
665.862	9970.54
666.212	9929.87
666.562	9989.53
666.912	10028.62
667.262	10013.03
667.612	9911.34
667.962	9937.78
668.312	9973.48
668.662	10015.74
669.011	9901.84
669.361	9935.74
669.711	9895.52
670.06	9944.55
670.41	9945.23
670.76	9867.95
671.109	9903.2
671.459	9912.24
671.808	9897.1
672.157	9912.01
672.507	9802.86
672.856	9841.51
673.205	9871.56
673.554	9874.27
673.904	9853.03
674.253	9874.5
674.602	9869.98
674.951	9741.85
675.3	9681.74
675.649	9792.92
675.998	9811.23
676.346	9790.21
676.695	9852.35
677.044	9731.68
677.393	9774.84
677.741	9750.21
678.09	9736.42
678.438	9705.69
678.787	9788.17
679.135	9747.72
679.484	9636.31
679.832	9662.08
680.181	9625.69
680.529	9675.86
680.877	9599.71
681.225	9573.72
681.573	9599.25
681.922	9606.94
682.27	9540.05
682.618	9597.22
682.966	9491.23
683.314	9575.75
683.661	9552.25
684.009	9479.26
684.357	9452.82
684.705	9439.94
685.053	9419.14
685.4	9392.48
685.748	9399.48
686.095	9354.97
686.443	9283.56
686.79	9367.62
687.138	9353.84
687.485	9352.71
687.832	9211.24
688.18	9237.23
688.527	9230.68
688.874	9178.7
689.221	9195.65
689.568	9147.97
689.915	9102.09
690.262	9095.76
690.609	9094.63
690.956	9104.58
691.303	9050.57
691.65	8980.51
691.997	8982.09
692.344	8977.8
692.69	8935.99
693.037	8863
693.383	8816.45
693.73	8841.99
694.077	8813.51
694.423	8734.19
694.769	8762.67
695.116	8758.82
695.462	8731.25
695.808	8722.21
696.155	8684.25
696.501	8595.66
696.847	8592.05
697.193	8530.13
697.539	8570.13
697.885	8510.24
698.231	8440.19
698.577	8462.56
698.923	8466.4
699.269	8416.91
699.614	8327.65
699.96	8383.24
700.306	8292.17
700.651	8301.66
700.997	8245.84
701.342	8235.9
701.688	8225.73
702.033	8153.19
702.379	8185.51
702.724	8194.77
703.069	8095.56
703.415	8064.83
703.76	8076.36
704.105	8032.97
704.45	7994.55
704.795	7955.68
705.14	7935.57
705.485	7940.77
705.83	7878.85
706.175	7936.7
706.52	7898.73
706.865	7876.81
707.209	7855.12
707.554	7805.63
707.899	7807.89
708.243	7751.62
708.588	7731.05
708.932	7724.05
709.277	7683.15
709.621	7698.96
709.966	7639.98
710.31	7699.64
710.654	7645.86
710.998	7566.99
711.342	7612.19
711.687	7612.41
712.031	7555.01
712.375	7491.06
712.719	7507.1
713.063	7505.52
713.407	7533.09
713.75	7445.64
714.094	7463.94
714.438	7484.96
714.782	7421.68
715.125	7422.81
715.469	7376.49
715.812	7414.23
716.156	7334.23
716.499	7303.72
716.843	7371.52
717.186	7320.22
717.53	7357.28
717.873	7324.96
718.216	7332.65
718.559	7285.64
718.902	7221.01
719.246	7242.48
719.589	7204.74
719.932	7174.23
720.275	7200.9
720.617	7197.51
720.96	7146.21
721.303	7170.62
721.646	7201.8
721.989	7131.07
722.331	7140.33
722.674	7151.63
723.016	7168.36
723.359	7140.11
723.701	7139.88
724.044	7077.96
724.386	7118.87
724.729	7040.9
725.071	7092.65
725.413	7103.73
725.755	7077.29
726.097	7077.29
726.439	7040.45
726.782	7030.73
727.124	7022.37
727.465	7031.64
727.807	7012.43
728.149	7003.84
728.491	6996.16
728.833	7033.22
729.175	7034.8
729.516	6980.11
729.858	7030.51
730.199	6985.76
730.541	7013.11
730.882	6984.63
731.224	6998.87
731.565	6998.87
731.906	6963.62
732.248	6983.95
732.589	6951.64
732.93	6954.8
733.271	6938.53
733.612	6914.35
733.953	6978.98
734.294	6975.82
734.635	6959.77
734.976	6973.33
735.317	6940.34
735.658	6952.32
735.999	6961.13
736.339	6909.83
736.68	6986.89
737.021	6924.52
737.361	6941.47
737.702	6940.34
738.042	6971.3
738.383	6985.08
738.723	6991.64
739.063	6914.58
739.404	6975.59
739.744	7022.82
740.084	6997.74
740.424	7010.85
740.764	7008.59
741.104	6994.58
741.444	6989.6
741.784	6976.5
742.124	7090.84
742.464	7075.93
742.804	7079.55
743.143	7084.52
743.483	7104.18
743.823	7058.76
744.162	7069.15
744.502	7149.37
744.841	7118.19
745.181	7190.5
745.52	7180.79
745.86	7225.98
746.199	7186.66
746.538	7263.04
746.877	7280.44
747.216	7300.78
747.556	7310.73
747.895	7350.05
748.234	7371.06
748.573	7441.8
748.911	7451.29
749.25	7521.79
749.589	7514.11
749.928	7597.72
750.267	7630.72
750.605	7712.52
750.944	7704.61
751.283	7820.54
751.621	7845.4
751.96	7919.52
752.298	7953.19
752.636	8063.02
752.975	8076.58
753.313	8105.51
753.651	8242.45
753.989	8276.58
754.327	8350.02
754.666	8423.24
755.004	8558.38
755.342	8685.6
755.679	8778.94
756.017	8772.38
756.355	8955.43
756.693	8953.39
757.031	9114.97
757.368	9179.15
757.706	9229.77
758.044	9453.95
758.381	9517.9
758.719	9642.42
759.056	9754.5
759.394	9863.2
759.731	9928.28
760.068	10055.29
760.405	10138
760.743	10243.98
761.08	10423.86
761.417	10490.98
761.754	10709.51
762.091	10752.9
762.428	10924.42
762.765	11008.48
763.102	11148.37
763.438	11205.54
763.775	11297.06
764.112	11428.58
764.449	11602.59
764.785	11743.6
765.122	11772.76
765.458	11862.92
765.795	12024.5
766.131	12113.31
766.467	12283.7
766.804	12325.74
767.14	12479.63
767.476	12485.51
767.812	12604.6
768.148	12778.38
768.485	12751.71
768.821	12854.53
769.157	13004.59
769.492	13080.97
769.828	13142.89
770.164	13163.45
770.5	13204.81
770.836	13400.51
771.171	13304.47
771.507	13481.86
771.842	13536.78
772.178	13541.97
772.513	13628.53
772.849	13602.09
773.184	13735.64
773.519	13815.19
773.855	13796.43
774.19	13887.05
774.525	13884.34
774.86	13890.67
775.195	13960.49
775.53	14039.14
775.865	14066.71
776.2	14021.96
776.535	14061.06
776.87	14153.71
777.205	14142.18
777.539	14165.46
777.874	14191.45
778.209	14169.75
778.543	14093.37
778.878	14128.17
779.212	14204.33
779.547	14187.16
779.881	14306.47
780.215	14272.12
780.55	14333.14
780.884	14327.49
781.218	14325.23
781.552	14326.59
781.886	14242.97
782.22	14235.06
782.554	14221.96
782.888	14162.75
783.222	14192.58
783.556	14147.61
783.889	14148.74
784.223	14151.45
784.557	14039.14
784.89	14144.44
785.224	14216.08
785.557	14067.16
785.891	14127.5
786.224	14057.22
786.558	14075.07
786.891	13994.17
787.224	13973.83
787.557	14008.85
787.891	13963.21
788.224	13870.78
788.557	13988.29
788.89	14038.46
789.223	13934.28
789.556	13971.12
789.888	13923.66
790.221	13859.48
790.554	13842.98
790.887	13865.36
791.219	13753.49
791.552	13758.92
791.884	13735.42
792.217	13723.89
792.549	13669.88
792.882	13611.58
793.214	13580.62
793.546	13695.42
793.879	13603.22
794.211	13530.68
794.543	13530.45
794.875	13496.55
795.207	13514.18
795.539	13469.66
795.871	13467.63
796.203	13442.77
796.535	13333.39
796.867	13349.89
797.198	13285.71
797.53	13256.11
797.862	13275.09
798.193	13287.07
798.525	13052.27
798.856	13193.51
799.188	13020.63
799.519	12964.59
799.85	12879.39
800.182	13036.68
800.513	12982.44
800.844	12778.38
801.175	12944.7
801.506	12951.93
801.837	12810.69
802.168	12839.62
802.499	12810.02
802.83	12694.77
803.161	12745.16
803.491	12706.74
803.822	12746.29
804.153	12626.07
804.483	12504.49
804.814	12546.75
805.145	12525.28
805.475	12510.59
805.805	12485.73
806.136	12478.73
806.466	12477.37
806.796	12370.48
807.126	12364.15
807.457	12365.28
807.787	12360.76
808.117	12231.5
808.447	12262.23
808.777	12296.13
809.107	12219.75
809.436	12183.59
809.766	12162.12
810.096	12115.35
810.426	12111.96
810.755	12063.37
811.085	12069.92
811.414	12105.85
811.744	11990.6
812.073	11903.83
812.403	11993.54
812.732	11856.82
813.061	11904.96
813.39	11802.81
813.719	11812.08
814.049	11842.58
814.378	11822.92
814.707	11755.35
815.036	11720.33
815.365	11684.17
815.693	11626.09
816.022	11649.14
816.351	11623.83
816.68	11535.25
817.008	11671.52
817.337	11489.6
817.665	11532.31
817.994	11629.48
818.322	11443.27
818.651	11497.06
818.979	11421.8
819.307	11511.07
819.636	11393.56
819.964	11410.96
820.292	11405.31
820.62	11356.72
820.948	11432.2
821.276	11380.68
821.604	11303.16
821.932	11453.67
822.259	11430.17
822.587	11343.16
822.915	11345.42
823.243	11305.42
823.57	11283.28
823.898	11361.69
824.225	11437.85
824.553	11351.75
824.88	11321.69
825.207	11356.72
825.535	11263.39
825.862	11320.56
826.189	11378.64
826.516	11472.42
826.843	11417.28
827.17	11467
827.497	11456.61
827.824	11294.12
828.151	11378.87
828.478	11336.16
828.805	11397.62
829.131	11396.72
829.458	11473.1
829.785	11250.74
830.111	11312.2
830.438	11409.6
830.764	11409.38
831.09	11344.07
831.417	11335.03
831.743	11372.31
832.069	11349.72
832.395	11240.79
832.722	11275.14
833.048	11283.28
833.374	11292.77
833.7	11268.36
834.026	11275.37
834.351	11350.62
834.677	11255.48
835.003	11375.48
835.329	11268.59
835.654	11257.97
835.98	11190.4
836.306	11192.88
836.631	11212.54
836.956	11236.95
837.282	11170.06
837.607	11163.05
837.932	11108.59
838.258	11105.65
838.583	11095.03
838.908	11117.63
839.233	11088.93
839.558	11021.59
839.883	11013.68
840.208	10984.3
840.533	11009.16
840.858	11000.57
841.182	10946.11
841.507	10950.86
841.832	10875.6
842.156	10954.25
842.481	10894.59
842.805	10958.77
843.13	10793.35
843.454	10844.42
843.778	10754.93
844.103	10740.69
844.427	10788.83
844.751	10709.73
845.075	10713.57
845.399	10664.08
845.723	10617.98
846.047	10680.13
846.371	10538.66
846.695	10532.56
847.019	10454.6
847.343	10370.76
847.666	10384.32
847.99	10215.06
848.313	10421.83
848.637	10252.12
848.96	10234.72
849.284	10233.59
849.607	10221.61
849.931	10083.53
850.254	9987.27
850.577	10024.78
850.9	9984.1
851.223	9968.96
851.546	9868.4
851.869	9859.81
852.192	9900.04
852.515	9740.94
852.838	9757.67
853.161	9753.6
853.483	9725.8
853.806	9683.09
854.129	9684.45
854.451	9562.19
854.774	9585.02
855.096	9539.37
855.419	9580.5
855.741	9506.6
856.063	9455.53
856.385	9416.66
856.708	9389.54
857.03	9367.85
857.352	9340.95
857.674	9392.25
857.996	9249.21
858.318	9280.17
858.64	9253.73
858.961	9246.49
859.283	9207.85
859.605	9161.52
859.926	9207.17
860.248	9205.82
860.57	9160.85
860.891	9111.81
861.212	9128.08
861.534	9025.48
861.855	8972.15
862.176	9068.87
862.498	9015.31
862.819	9010.34
863.14	8922.21
863.461	8959.72
863.782	8911.14
864.103	8883.57
864.424	8880.18
864.745	8870.01
865.065	8873.85
865.386	8854.87
865.707	8784.81
866.027	8830.23
866.348	8784.13
866.668	8841.08
866.989	8798.14
867.309	8691.71
867.63	8742.33
867.95	8747.07
868.27	8611.93
868.59	8704.81
868.91	8587.53
869.23	8602.9
869.55	8598.15
869.87	8695.77
870.19	8547.53
870.51	8583.01
870.83	8639.73
871.15	8555.66
871.469	8543.24
871.789	8577.13
872.109	8504.14
872.428	8500.3
872.748	8526.74
873.067	8508.66
873.386	8464.82
873.706	8518.15
874.025	8410.81
874.344	8417.82
874.663	8458.94
874.982	8401.77
875.301	8407.87
875.62	8396.35
875.939	8359.29
876.258	8390.47
876.577	8333.52
876.896	8365.39
877.214	8253.3
877.533	8357.25
877.852	8240.87
878.17	8272.06
878.489	8275.67
878.807	8276.35
879.125	8247.2
879.444	8282
879.762	8185.96
880.08	8208.33
880.398	8204.49
880.716	8201.1
881.034	8166.97
881.352	8128.33
881.67	8167.65
881.988	8171.72
882.306	8087.2
882.624	8102.8
882.941	8044.27
883.259	8001.1
883.577	8043.36
883.894	7951.84
884.212	8002.46
884.529	7979.41
884.846	7964.95
885.164	7955.91
885.481	7922.01
885.798	7885.4
886.115	7831.39
886.432	7899.18
886.75	7835.46
887.067	7876.59
887.383	7789.58
887.7	7765.63
888.017	7809.02
888.334	7801.33
888.651	7720.66
888.967	7772.41
889.284	7666.87
889.6	7668.46
889.917	7603.15
890.233	7635.46
890.55	7609.25
890.866	7563.6
891.182	7562.02
891.498	7517.05
891.815	7514.11
892.131	7555.24
892.447	7436.82
892.763	7441.8
893.079	7439.76
893.395	7361.12
893.71	7397.73
894.026	7348.69
894.342	7298.3
894.657	7299.65
894.973	7258.52
895.289	7274.12
895.604	7242.71
895.92	7156.15
896.235	7121.13
896.55	7123.39
896.865	7115.25
897.181	7091.75
897.496	7106.44
897.811	7108.02
898.126	7044.74
898.441	7026.44
898.756	6990.96
899.071	6920.23
899.386	6964.75
899.7	6932.88
900.015	6931.75
900.33	6855.37
900.644	6825.54
900.959	6879.78
901.273	6823.51
901.588	6743.51
901.902	6722.49
902.216	6700.8
902.531	6692.44
902.845	6665.09
903.159	6654.25
903.473	6583.97
903.787	6597.75
904.101	6504.87
904.415	6567.02
904.729	6529.73
905.042	6454.25
905.356	6488.15
905.67	6433.91
905.984	6470.3
906.297	6426
906.611	6397.53
906.924	6400.69
907.237	6292
907.551	6307.59
907.864	6276.18
908.177	6253.8
908.491	6237.08
908.804	6225.1
909.117	6171.55
909.43	6153.69
909.743	6153.69
910.056	6097.65
910.368	6127.93
910.681	6066.92
910.994	6051.78
911.307	6026.01
911.619	5973.59
911.932	5973.36
912.244	5900.37
912.557	5962.96
912.869	5904.44
913.181	5923.42
913.494	5858.33
913.806	5823.76
914.118	5827.6
914.43	5782.18
914.742	5760.71
915.054	5723.2
915.366	5743.76
915.678	5668.74
915.99	5640.71
916.302	5599.36
916.613	5598.23
916.925	5603.43
917.236	5595.97
917.548	5567.04
917.859	5542.86
918.171	5539.7
918.482	5519.36
918.794	5448.85
919.105	5493.82
919.416	5424.9
919.727	5400.49
920.038	5400.27
920.349	5360.27
920.66	5331.79
920.971	5337.9
921.282	5349.87
921.593	5241.4
921.903	5223.1
922.214	5261.06
922.525	5246.37
922.835	5208.86
923.146	5169.99
923.456	5134.51
923.767	5104.91
924.077	5099.03
924.387	5131.35
924.697	5059.94
925.008	5059.26
925.318	5036.21
925.628	4999.83
925.938	4985.14
926.248	4950.11
926.558	4929.77
926.867	4967.28
927.177	4910.79
927.487	4883.67
927.796	4814.97
928.106	4831.69
928.416	4803.22
928.725	4817.68
929.034	4780.85
929.344	4777.91
929.653	4765.93
929.962	4737.91
930.271	4716.22
930.581	4656.78
930.89	4671.7
931.199	4672.6
931.508	4633.51
931.817	4626.95
932.125	4580.18
932.434	4599.38
932.743	4546.5
933.051	4535.43
933.36	4523.91
933.669	4479.39
933.977	4458.82
934.286	4440.74
934.594	4482.78
934.902	4430.8
935.21	4465.15
935.519	4432.61
935.827	4409.33
936.135	4350.8
936.443	4357.36
936.751	4334.08
937.059	4351.93
937.367	4311.71
937.674	4267.42
937.982	4309.45
938.29	4267.42
938.597	4265.38
938.905	4219.96
939.213	4154.88
939.52	4189
939.827	4156.01
940.135	4121.21
940.442	4145.84
940.749	4131.83
941.056	4131.6
941.363	4069.91
941.67	4063.81
941.977	4068.78
942.284	4016.35
942.591	4021.09
942.898	4020.42
943.205	3983.13
943.511	3998.04
943.818	3962.34
944.125	3937.26
944.431	3928.44
944.738	3903.81
945.044	3855
945.35	3864.71
945.657	3831.04
945.963	3800.76
946.269	3817.94
946.575	3789.69
946.881	3761.67
947.187	3827.2
947.493	3769.8
947.799	3765.06
948.105	3713.08
948.41	3708.33
948.716	3715.79
949.022	3704.27
949.327	3714.66
949.633	3616.36
949.938	3661.78
950.244	3629.01
950.549	3617.04
950.854	3584.5
951.16	3566.64
951.465	3540.66
951.77	3503.82
952.075	3497.49
952.38	3492.52
952.685	3505.18
952.99	3467.44
953.294	3472.86
953.599	3433.54
953.904	3434.44
954.209	3362.81
954.513	3397.83
954.818	3369.36
955.122	3398.51
955.426	3389.92
955.731	3361.23
956.035	3348.8
956.339	3332.07
956.643	3303.15
956.948	3264.05
957.252	3275.8
957.556	3261.11
957.86	3234
958.163	3250.72
958.467	3215.24
958.771	3234.9
959.075	3224.28
959.378	3198.29
959.682	3178.18
959.985	3161
960.289	3162.36
960.592	3126.43
960.896	3130.72
961.199	3127.78
961.502	3092.08
961.805	3094.79
962.108	3068.35
962.411	3064.96
962.714	3024.74
963.017	3044.17
963.32	3060.67
963.623	3015.92
963.926	3021.35
964.228	2981.35
964.531	2984.29
964.833	2945.42
965.136	2940.45
965.438	2965.98
965.741	2897.96
966.043	2901.12
966.345	2850.5
966.648	2850.73
966.95	2858.19
967.252	2855.93
967.554	2858.41
967.856	2807.57
968.158	2832.65
968.46	2792.65
968.761	2827.91
969.063	2819.09
969.365	2748.13
969.666	2786.78
969.968	2726.21
970.269	2738.42
970.571	2717.17
970.872	2718.53
971.174	2727.8
971.475	2700.23
971.776	2681.92
972.077	2685.08
972.378	2659.1
972.679	2655.03
972.98	2657.06
973.281	2616.39
973.582	2598.53
973.883	2603.05
974.183	2606.67
974.484	2575.48
974.785	2556.73
975.085	2583.84
975.386	2565.54
975.686	2532.09
975.986	2534.13
976.287	2522.15
976.587	2515.15
976.887	2525.54
977.187	2495.94
977.487	2495.49
977.787	2483.06
978.087	2450.97
978.387	2440.8
978.687	2455.49
978.987	2407.8
979.286	2416.62
979.586	2407.35
979.885	2403.96
980.185	2367.13
980.484	2377.3
980.784	2343.85
981.083	2354.92
981.382	2373.68
981.682	2303.17
981.981	2306.56
982.28	2322.16
982.579	2274.93
982.878	2312.89
983.177	2320.35
983.475	2274.47
983.774	2227.02
984.073	2259.33
984.372	2233.8
984.67	2262.95
984.969	2256.4
985.267	2241.03
985.566	2212.78
985.864	2190.63
986.162	2194.7
986.461	2154.93
986.759	2191.99
987.057	2180.24
987.355	2123.97
987.653	2134.82
987.951	2137.98
988.249	2095.04
988.547	2115.83
988.844	2112.22
989.142	2066.8
989.44	2048.94
989.737	2083.29
990.035	2070.64
990.332	2051.66
990.63	2029.96
990.927	2068.38
991.224	2015.72
991.521	2022.5
991.819	2011.88
992.116	2020.02
992.413	2008.49
992.71	1964.2
993.006	2006.46
993.303	1982.96
993.6	1971.21
993.897	1943.86
994.193	1960.58
994.49	1950.19
994.787	1933.24
995.083	1891.66
995.379	1913.35
995.676	1906.8
995.972	1875.39
996.268	1891.66
996.565	1856.18
996.861	1879.46
997.157	1858.21
997.453	1831.55
997.749	1886.01
998.044	1846.69
998.34	1785.45
998.636	1779.8
998.932	1793.58
999.227	1772.57
999.523	1789.06
999.818	1759.91
1000.114	1762.17
1000.409	1785.67
1000.704	1747.26
1001	1744.54
1001.295	1739.57
1001.59	1732.79
1001.885	1726.01
1002.18	1710.65
1002.475	1713.13
1002.77	1672
1003.065	1662.06
1003.359	1665.68
1003.654	1694.15
1003.949	1623.42
1004.243	1613.93
1004.538	1608.5
1004.832	1611.89
1005.127	1634.49
1005.421	1585
1005.715	1593.14
1006.009	1588.62
1006.304	1597.66
1006.598	1567.6
1006.892	1556.07
1007.186	1515.17
1007.48	1548.17
1007.773	1540.03
1008.067	1524.66
1008.361	1523.76
1008.655	1502.07
1008.948	1537.54
1009.242	1477.43
1009.535	1490.54
1009.829	1502.07
1010.122	1474.5
1010.415	1462.07
1010.708	1458.45
1011.001	1445.34
1011.295	1445.8
1011.588	1454.83
1011.881	1421.16
1012.173	1426.81
1012.466	1423.2
1012.759	1418.45
1013.052	1389.75
1013.344	1407.15
1013.637	1368.96
1013.93	1388.17
1014.222	1386.14
1014.514	1383.65
1014.807	1361.5
1015.099	1362.41
1015.391	1357.21
1015.683	1292.58
1015.976	1348.62
1016.268	1316.08
1016.56	1296.65
1016.851	1305.91
1017.143	1298
1017.435	1274.5
1017.727	1273.37
1018.018	1267.95
1018.31	1229.3
1018.602	1237.67
1018.893	1246.25
1019.185	1219.13
1019.476	1241.73
1019.767	1232.92
1020.058	1229.3
1020.35	1209.87
1020.641	1210.77
1020.932	1180.94
1021.223	1189.76
1021.514	1178.23
1021.804	1188.17
1022.095	1165.12
1022.386	1153.37
1022.677	1157.67
1022.967	1147.72
1023.258	1161.96
1023.548	1149.98
1023.839	1118.35
1024.129	1122.41
1024.419	1119.93
1024.709	1102.98
1025	1099.82
1025.29	1075.86
1025.58	1072.02
1025.87	1071.79
1026.16	1044.45
1026.449	1068.86
1026.739	1047.61
1027.029	1058.23
1027.319	1036.09
1027.608	1043.09
1027.898	1027.95
1028.187	1025.69
1028.477	1016.88
1028.766	1026.6
1029.055	1028.18
1029.344	995.64
1029.634	996.32
1029.923	990.44
1030.212	983.21
1030.501	954.96
1030.79	956.32
1031.078	952.47
1031.367	941.18
1031.656	954.96
1031.945	949.09
1032.233	951.12
1032.522	933.72
1032.81	911.8
1033.099	924.23
1033.387	934.62
1033.675	917.45
1033.963	898.69
1034.251	908.63
1034.54	916.32
1034.828	899.59
1035.116	883.78
1035.403	894.4
1035.691	897.79
1035.979	896.43
1036.267	869.09
1036.554	895.75
1036.842	865.92
1037.129	845.59
1037.417	834.96
1037.704	844.23
1037.992	828.64
1038.279	820.28
1038.566	836.77
1038.853	836.77
1039.14	836.77
