Data from hue_300_FLMS001491_00036.txt Node
Date: Tue Feb 07 15:50:39 GMT 2017
User: dcchb
Spectrometer: FLMS00149
Trigger mode: 0
Integration Time (sec): 2.000000E-2
Scans to average: 10
Electric dark correction enabled: true
Nonlinearity correction enabled: false
Boxcar width: 0
XAxis mode: Wavelengths
Number of Pixels in Spectrum: 2048
>>>>>Begin Spectral Data<<<<<
341.393	-21.44
341.776	-21.44
342.16	-21.44
342.543	-63.47
342.927	-73.42
343.31	-68.22
343.693	-50.82
344.077	-53.98
344.46	-60.76
344.843	-51.5
345.226	-25.28
345.61	-28.67
345.993	-26.64
346.376	-10.37
346.759	-0.65
347.142	21.72
347.525	37.99
347.908	55.85
348.291	68.05
348.674	91.33
349.057	101.95
349.44	117.99
349.823	155.28
350.206	174.26
350.588	202.06
350.971	212.68
351.354	210.64
351.737	232.79
352.119	239.34
352.502	263.3
352.884	269.4
353.267	272.56
353.65	286.12
354.032	303.07
354.414	303.52
354.797	287.7
355.179	313.92
355.562	301.26
355.944	313.92
356.326	341.94
356.709	312.34
357.091	313.01
357.473	330.64
357.855	338.55
358.238	333.13
358.62	326.12
359.002	328.83
359.384	341.49
359.766	336.74
360.148	327.48
360.53	328.83
360.912	331.32
361.294	321.6
361.676	301.49
362.057	336.74
362.439	334.93
362.821	318.66
363.203	330.42
363.584	313.01
363.966	325.67
364.348	307.59
364.729	329.29
365.111	308.27
365.493	314.82
365.874	330.64
366.256	305.78
366.637	322.73
367.019	318.89
367.4	308.72
367.781	310.53
368.163	299.68
368.544	295.84
368.925	305.78
369.306	316.18
369.688	324.31
370.069	311.43
370.45	318.44
370.831	318.66
371.212	299
371.593	310.75
371.974	315.5
372.355	315.5
372.736	304.2
373.117	327.93
373.498	326.35
373.879	291.32
374.26	301.72
374.641	316.86
375.021	324.99
375.402	314.82
375.783	301.04
376.163	327.48
376.544	334.03
376.925	309.17
377.305	316.86
377.686	295.16
378.066	327.93
378.447	323.18
378.827	308.49
379.208	336.29
379.588	320.02
379.968	331.54
380.349	305.78
380.729	349.4
381.109	345.78
381.489	338.55
381.87	341.49
382.25	325.9
382.63	329.74
383.01	326.57
383.39	328.61
383.77	337.87
384.15	339.68
384.53	339
384.91	347.59
385.29	337.87
385.67	339.91
386.049	357.31
386.429	345.78
386.809	360.02
387.189	343.07
387.568	372.45
387.948	360.92
388.328	344.2
388.707	343.07
389.087	361.83
389.466	337.65
389.846	340.36
390.225	360.7
390.605	349.17
390.984	363.86
391.363	376.74
391.743	344.65
392.122	350.98
392.501	370.41
392.881	379
393.26	363.41
393.639	373.13
394.018	388.04
394.397	367.48
394.776	366.57
395.155	385.55
395.534	386.01
395.913	354.14
396.292	383.52
396.671	374.71
397.05	382.17
397.429	394.82
397.808	407.25
398.186	392.11
398.565	374.71
398.944	400.02
399.323	373.13
399.701	414.48
400.08	413.8
400.458	390.07
400.837	398.89
401.215	398.89
401.594	364.76
401.972	405.67
402.351	397.53
402.729	416.06
403.107	430.75
403.486	421.71
403.864	416.97
404.242	446.57
404.62	401.37
404.999	416.97
405.377	434.59
405.755	451.32
406.133	461.26
406.511	443.63
406.889	453.35
407.267	437.3
407.645	443.63
408.023	478.89
408.401	469.62
408.779	497.19
409.156	491.77
409.534	475.72
409.912	479.34
410.29	511.43
410.667	501.48
411.045	491.77
411.422	524.31
411.8	528.38
412.178	521.37
412.555	560.24
412.933	528.6
413.31	571.09
413.687	552.33
414.065	583.06
414.442	559.34
414.819	575.61
415.197	609.73
415.574	608.6
415.951	612.67
416.328	623.29
416.705	616.06
417.082	630.97
417.46	641.82
417.837	642.72
418.214	655.38
418.591	667.58
418.967	683.17
419.344	700.12
419.721	691.54
420.098	677.07
420.475	681.59
420.852	702.83
421.228	729.05
421.605	731.53
421.982	721.82
422.358	730.86
422.735	753.68
423.111	755.71
423.488	770.86
423.864	773.57
424.241	769.05
424.617	785.32
424.994	782.83
425.37	818.54
425.746	809.27
426.123	824.19
426.499	825.54
426.875	827.8
427.251	837.97
427.627	855.37
428.003	882.49
428.379	897.63
428.756	905.54
429.132	897.86
429.507	909.61
429.883	918.42
430.259	950.74
430.635	928.14
431.011	961.58
431.387	971.08
431.763	1001.58
432.138	977.86
432.514	1021.92
432.89	986.44
433.265	1044.52
433.641	1044.97
434.016	1051.07
434.392	1037.74
434.767	1073.9
435.143	1051.53
435.518	1083.39
435.894	1091.3
436.269	1080.45
436.644	1113.9
437.02	1124.29
437.395	1130.62
437.77	1122.26
438.145	1186.44
438.52	1163.61
438.895	1178.53
439.271	1200.45
439.646	1207.45
440.021	1207.23
440.395	1211.07
440.77	1231.18
441.145	1237.51
441.52	1255.14
441.895	1226.89
442.27	1249.94
442.645	1231.86
443.019	1252.2
443.394	1286.1
443.769	1272.09
444.143	1261.46
444.518	1289.71
444.892	1303.04
445.267	1279.77
445.641	1297.4
446.016	1289.94
446.39	1319.32
446.764	1340.78
447.139	1289.49
447.513	1334.91
447.887	1319.99
448.262	1331.07
448.636	1350.5
449.01	1338.75
449.384	1383.27
449.758	1336.94
450.132	1359.54
450.506	1347.34
450.88	1382.14
451.254	1367.45
451.628	1379.65
452.002	1372.87
452.376	1395.7
452.75	1452.87
453.123	1446.77
453.497	1435.02
453.871	1451.52
454.244	1486.32
454.618	1475.7
454.992	1492.19
455.365	1472.31
455.739	1517.73
456.112	1511.17
456.486	1497.16
456.859	1528.12
457.232	1539.42
457.606	1549.37
457.979	1536.94
458.352	1554.11
458.725	1583.26
459.099	1586.2
459.472	1619.42
459.845	1606.31
460.218	1616.26
460.591	1623.04
460.964	1650.83
461.337	1695.35
461.71	1680.66
462.083	1676.14
462.456	1685.41
462.829	1682.47
463.201	1726.31
463.574	1702.36
463.947	1710.49
464.32	1732.64
464.692	1761.56
465.065	1734.9
465.438	1809.7
465.81	1817.83
466.183	1829.58
466.555	1838.17
466.928	1858.28
467.3	1843.82
467.672	1859.41
468.045	1890.37
468.417	1879.75
468.789	1889.92
469.161	1901.45
469.534	1948.68
469.906	1953.88
470.278	1964.04
470.65	1989.81
471.022	2030.94
471.394	2047.66
471.766	2075.91
472.138	2032.74
472.51	2081.1
472.882	2091.05
473.253	2129.92
473.625	2153.64
473.997	2178.95
474.369	2178.5
474.74	2182.34
475.112	2230.48
475.484	2237.71
475.855	2271.83
476.227	2269.57
476.598	2331.72
476.97	2326.75
477.341	2390.93
477.713	2378.72
478.084	2383.24
478.455	2443.35
478.827	2410.59
479.198	2498.49
479.569	2526.29
479.94	2558.15
480.311	2560.64
480.682	2588.21
481.053	2669.34
481.424	2697.13
481.795	2677.92
482.166	2704.14
482.537	2713.63
482.908	2753.4
483.279	2767.19
483.65	2795.21
484.021	2888.31
484.391	2905.71
484.762	2879.27
485.133	2902.55
485.503	2929.22
485.874	2981.87
486.244	2988.2
486.615	3023.9
486.985	3039.5
487.356	3092.15
487.726	3097.8
488.097	3152.49
488.467	3171.02
488.837	3205.14
489.207	3213.28
489.578	3262.54
489.948	3260.06
490.318	3269.32
490.688	3267.74
491.058	3364.69
491.428	3422.76
491.798	3400.62
492.168	3409.66
492.538	3457.11
492.908	3477.68
493.278	3511.35
493.648	3465.93
494.017	3511.57
494.387	3543.44
494.757	3547.05
495.126	3580.5
495.496	3591.57
495.866	3624.79
496.235	3666.6
496.605	3650.1
496.974	3693.49
497.344	3717.9
497.713	3669.08
498.082	3721.06
498.452	3761.06
498.821	3752.25
499.19	3771.68
499.559	3807.39
499.928	3811.68
500.298	3863.88
500.667	3858.68
501.036	3830.89
501.405	3896.2
501.774	3872.02
502.143	3919.25
502.512	3909.3
502.88	3972.81
503.249	3923.99
503.618	3945.69
503.987	3938.68
504.356	3976.42
504.724	3984.1
505.093	3993.82
505.462	3957.89
505.83	4038.57
506.199	4034.5
506.567	4101.62
506.936	4027.27
507.304	4084.67
507.672	4099.81
508.041	4149.07
508.409	4138.45
508.777	4178.9
509.145	4164.89
509.514	4145
509.882	4218.22
510.25	4236.3
510.618	4213.02
510.986	4257.77
511.354	4248.05
511.722	4290.99
512.09	4311.33
512.458	4290.76
512.826	4315.17
513.193	4321.5
513.561	4354.49
513.929	4325.79
514.297	4330.99
514.664	4368.5
515.032	4379.35
515.4	4403.3
515.767	4364.43
516.135	4419.35
516.502	4374.83
516.869	4391.55
517.237	4467.03
517.604	4431.1
517.972	4453.02
518.339	4482.85
518.706	4457.76
519.073	4482.17
519.44	4480.59
519.808	4544.09
520.175	4488.5
520.542	4581.15
520.909	4573.92
521.276	4562.17
521.643	4571.43
522.009	4602.39
522.376	4660.92
522.743	4620.25
523.11	4633.58
523.477	4686.23
523.843	4739.56
524.21	4739.79
524.577	4819.56
524.943	4791.54
525.31	4808.94
525.676	4821.14
526.043	4867.92
526.409	4882.39
526.776	4953.34
527.142	4939.56
527.508	4917.64
527.874	4905.44
528.241	4958.32
528.607	4975.72
528.973	5064.98
529.339	5029.73
529.705	5057.07
530.071	5108.37
530.437	5117.63
530.803	5117.86
531.169	5163.96
531.535	5177.07
531.901	5193.79
532.267	5163.96
532.632	5222.26
532.998	5248.03
533.364	5316.27
533.73	5265.88
534.095	5283.28
534.461	5337.29
534.826	5339.55
535.192	5372.54
535.557	5367.34
535.923	5420.22
536.288	5443.05
536.653	5484.63
537.019	5466.33
537.384	5498.87
537.749	5520.11
538.114	5478.98
538.479	5539.32
538.845	5547.45
539.21	5587.45
539.575	5584.51
539.94	5602.37
540.305	5627.22
540.67	5612.31
541.034	5700.44
541.399	5724.85
541.764	5758.97
542.129	5722.14
542.494	5762.59
542.858	5806.2
543.223	5762.59
543.587	5834.45
543.952	5834
544.316	5849.59
544.681	5848.91
545.045	5925.52
545.41	5981.79
545.774	5975.92
546.138	5946.31
546.503	6007.55
546.867	6001.68
547.231	6012.3
547.595	6131.62
547.959	6113.77
548.324	6107.66
548.688	6144.5
549.052	6133.88
549.416	6243.71
549.779	6168
550.143	6213.42
550.507	6266.53
550.871	6294.1
551.235	6245.29
551.599	6299.3
551.962	6287.32
552.326	6299.98
552.689	6330.48
553.053	6318.05
553.417	6329.81
553.78	6450.25
554.143	6377.49
554.507	6459.75
554.87	6471.95
555.234	6559.63
555.597	6474.43
555.96	6501.33
556.323	6517.6
556.686	6558.05
557.05	6551.27
557.413	6570.02
557.776	6656.35
558.139	6632.85
558.502	6631.72
558.865	6656.8
559.228	6685.5
559.59	6704.48
559.953	6719.17
560.316	6739.06
560.679	6739.96
561.041	6760.3
561.404	6760.75
561.767	6846.63
562.129	6815.22
562.492	6889.79
562.854	6823.58
563.217	6915.78
563.579	6923.24
563.941	6925.72
564.304	7007.98
564.666	7053.18
565.028	7013.18
565.39	7035.1
565.753	7062.44
566.115	7111.71
566.477	7114.87
566.839	7180.18
567.201	7121.2
567.563	7147.18
567.925	7272.83
568.287	7257.69
568.648	7210.23
569.01	7296.33
569.372	7356.44
569.734	7357.35
570.095	7384.24
570.457	7404.13
570.819	7433.73
571.18	7387.86
571.542	7539.94
571.903	7485.71
572.265	7582.88
572.626	7678.02
572.987	7683.44
573.349	7704.01
573.71	7829.88
574.071	7849.54
574.432	7873.72
574.794	7873.27
575.155	7938.12
575.516	7991.23
575.877	8069.65
576.238	8145.12
576.599	8181.96
576.96	8255.4
577.32	8310.77
577.681	8402.97
578.042	8565.23
578.403	8582.4
578.763	8679.8
579.124	8716.41
579.485	8898.78
579.845	9020.13
580.206	9038.43
580.566	9136.06
580.927	9334.02
581.287	9494.24
581.648	9557.52
582.008	9701.47
582.368	9875.02
582.728	10020.33
583.089	10118.41
583.449	10311.4
583.809	10453.99
584.169	10649.92
584.529	10819.86
584.889	11037.25
585.249	11222.78
585.609	11366.28
585.969	11624.13
586.329	11778.02
586.688	12016.44
587.048	12227.96
587.408	12385.01
587.768	12605.12
588.127	12881.5
588.487	13114.94
588.846	13472.22
589.206	13545.43
589.565	13855.94
589.925	14131.41
590.284	14345.41
590.643	14559.42
591.003	14856.59
591.362	15219.52
591.721	15444.59
592.08	15729.56
592.44	16064.01
592.799	16354.4
593.158	16645.92
593.517	16798.91
593.876	17187.82
594.235	17408.38
594.593	17736.96
594.952	18094.24
595.311	18286.78
595.67	18551.4
596.029	18976.93
596.387	19261.67
596.746	19583.24
597.104	19721.32
597.463	19975.1
597.822	20321.3
598.18	20622.54
598.538	20924.68
598.897	21329.18
599.255	21421.61
599.613	22017.98
599.972	22163.97
600.33	22490.74
600.688	22581.81
601.046	22897.51
601.404	23300.88
601.762	23549.01
602.12	23880.3
602.478	24268.77
602.836	24467.63
603.194	24613.17
603.552	24899.49
603.91	25029.65
604.268	25350.55
604.625	25478.91
604.983	25887.03
605.341	26087.03
605.698	26361.59
606.056	26673
606.413	26904.86
606.771	27195.47
607.128	27421.91
607.485	27396.14
607.843	27629.81
608.2	28039.07
608.557	28422.33
608.914	28371.49
609.272	28748.65
609.629	28907.52
609.986	29207.4
610.343	29248.07
610.7	29553.15
611.057	29720.38
611.414	29800.83
611.771	30115.85
612.127	30478.32
612.484	30543.18
612.841	30693.23
613.198	30829.05
613.554	31044.86
613.911	31194.01
614.267	31443.27
614.624	31490.5
614.98	31706.54
615.337	32044.61
615.693	32050.94
616.05	32142.91
616.406	32419.51
616.762	32577.02
617.118	32594.65
617.475	32853.4
617.831	33109.21
618.187	33008.65
618.543	33419.26
618.899	33493.61
619.255	33572.7
619.611	33546.49
619.967	33925.69
620.323	34066.93
620.678	34046.14
621.034	34038.23
621.39	34104.67
621.746	34172.92
622.101	34665.11
622.457	34459.01
622.812	34594.6
623.168	34767.02
623.523	34983.74
623.879	34949.62
624.234	34873.69
624.589	35223.73
624.945	35159.78
625.3	35344.41
625.655	35449.49
626.01	35457.4
626.365	35516.16
626.72	35562.48
627.075	35510.28
627.43	35431.41
627.785	35663.05
628.14	35699.43
628.495	35886.09
628.85	35945.98
629.205	35757.73
629.559	36111.62
629.914	35829.82
630.269	35962.25
630.623	35900.33
630.978	35946.2
631.332	36078.85
631.687	36101.68
632.041	36009.7
632.396	36206.31
632.75	36065.29
633.104	36188.91
633.459	36128.34
633.813	35978.29
634.167	36094.67
634.521	36098.74
634.875	36145.29
635.229	36137.38
635.583	36155.01
635.937	36118.85
636.291	36037.72
636.645	36236.14
636.999	36127.67
637.352	36265.06
637.706	36070.27
638.06	36254.44
638.413	36110.27
638.767	36136.03
639.121	36146.2
639.474	35960.66
639.828	35989.59
640.181	36058.06
640.534	36164.5
640.888	36023.04
641.241	35887.9
641.594	35992.3
641.947	36194.78
642.301	36082.24
642.654	36094.45
643.007	36180.77
643.36	36060.55
643.713	35994.11
644.066	36131.06
644.419	35950.27
644.771	35883.83
645.124	35475.48
645.477	35381.92
645.83	35164.75
646.182	35136.73
646.535	35016.96
646.888	35115.04
647.24	34929.96
647.593	35170.85
647.945	35063.29
648.298	34971.99
648.65	34821.94
649.002	34733.13
649.355	34910.97
649.707	34964.76
650.059	35017.64
650.411	35520.68
650.763	35554.57
651.115	35943.26
651.467	35695.13
651.819	35780.56
652.171	35653.55
652.523	35752.53
652.875	35634.8
653.227	35528.13
653.578	35813.1
653.93	35686.32
654.282	35614.01
654.633	35548.7
654.985	35565.65
655.337	35546.21
655.688	35706.66
656.039	35884.96
656.391	35408.59
656.742	35602.26
657.094	35500.79
657.445	35699.65
657.796	35593.22
658.147	35520.22
658.498	35573.56
658.849	35622.37
659.2	35632.76
659.551	35467.8
659.902	35566.78
660.253	35457.4
660.604	35668.69
660.955	35478.87
661.306	35596.61
661.656	35506.21
662.007	35554.12
662.358	35394.13
662.708	35479.1
663.059	35398.65
663.409	35294.02
663.76	35511.41
664.11	35416.5
664.461	35568.58
664.811	35476.38
665.161	35474.58
665.511	35345.31
665.862	35500.34
666.212	35516.61
666.562	35534.91
666.912	35376.5
667.262	35325.88
667.612	35352.09
667.962	35495.82
668.312	35310.74
668.662	35590.05
669.011	35399.55
669.361	35485.65
669.711	35375.37
670.06	35256.28
670.41	35247.24
670.76	35164.98
671.109	35319.33
671.459	35233.9
671.808	35214.47
672.157	35258.31
672.507	35031.42
672.856	35199.1
673.205	35214.24
673.554	35216.96
673.904	35142.38
674.253	35358.65
674.602	35241.36
674.951	34672.34
675.3	34532
675.649	35201.14
675.998	34949.17
676.346	35004.31
676.695	35094.92
677.044	35015.83
677.393	34978.77
677.741	35073.23
678.09	35024.64
678.438	34789.17
678.787	34967.24
679.135	34851.99
679.484	34617.42
679.832	34841.37
680.181	34510.08
680.529	34666.46
680.877	34575.84
681.225	34500.82
681.573	34695.16
681.922	34534.26
682.27	34271.44
682.618	34436.41
682.966	34264.66
683.314	34591.44
683.661	34245.91
684.009	34178.79
684.357	34086.59
684.705	34059.25
685.053	34199.81
685.4	34119.13
685.748	33928.63
686.095	33798.01
686.443	33895.63
686.79	33837.56
687.138	33757.56
687.485	33811.57
687.832	33526.38
688.18	33720.27
688.527	33374.97
688.874	33305.37
689.221	33461.75
689.568	33259.04
689.915	33307.63
690.262	33328.42
690.609	33131.81
690.956	33038.03
691.303	33027.41
691.65	32876.68
691.997	33005.94
692.344	32756
692.69	32765.72
693.037	32774.08
693.383	32384.04
693.73	32447.31
694.077	32383.81
694.423	32316.01
694.769	32337.26
695.116	32142.23
695.462	32200.31
695.808	31928.68
696.155	32135.45
696.501	31899.08
696.847	31981.79
697.193	31632.19
697.539	31703.83
697.885	31552.87
698.231	31460.9
698.577	31400.78
698.923	31249.15
699.269	31236.72
699.614	31126.67
699.96	31055.48
700.306	31089.83
700.651	30936.84
700.997	30824.75
701.342	30792.44
701.688	30828.6
702.033	30638.32
702.379	30601.71
702.724	30493.69
703.069	30601.48
703.415	30211.89
703.76	30264.32
704.105	30244.2
704.45	30150.65
704.795	29939.58
705.14	29888.28
705.485	29846.25
705.83	29806.48
706.175	29744.78
706.52	29649.64
706.865	29491.46
707.209	29433.38
707.554	29474.96
707.899	29633.37
708.243	29373.95
708.588	29347.51
708.932	29186.38
709.277	29158.58
709.621	29229.09
709.966	28874.98
710.31	28958.14
710.654	28721.98
710.998	28778.03
711.342	28783.9
711.687	28622.1
712.031	28620.74
712.375	28617.13
712.719	28617.58
713.063	28449.9
713.407	28548.43
713.75	28451.71
714.094	28504.36
714.438	28316.8
714.782	28268.89
715.125	28074.77
715.469	28171.26
715.812	28085.62
716.156	27937.6
716.499	27941.67
716.843	27997.94
717.186	27853.53
717.53	27954.77
717.873	27903.02
718.216	27865.74
718.559	27682.01
718.902	27426.65
719.246	27594.56
719.589	27549.81
719.932	27361.79
720.275	27332.42
720.617	27353.21
720.96	27283.15
721.303	27259.65
721.646	27337.61
721.989	27107.11
722.331	27272.53
722.674	27115.25
723.016	27122.25
723.359	27062.82
723.701	26983.73
724.044	26945.08
724.386	26839.32
724.729	26845.65
725.071	26845.2
725.413	26781.02
725.755	26752.09
726.097	26677.29
726.439	26561.82
726.782	26679.78
727.124	26615.83
727.465	26457.64
727.807	26468.26
728.149	26479.11
728.491	26356.17
728.833	26492.21
729.175	26397.53
729.516	26301.71
729.858	26219.45
730.199	26244.99
730.541	26210.86
730.882	26092.68
731.224	26240.92
731.565	26096.29
731.906	26140.81
732.248	26072.11
732.589	25938.1
732.93	25817.43
733.271	25973.36
733.612	25980.36
733.953	25882.51
734.294	25703.53
734.635	25689.97
734.976	25870.53
735.317	25656.08
735.658	25730.88
735.999	25663.08
736.339	25573.37
736.68	25677.09
737.021	25580.82
737.361	25551.9
737.702	25572.24
738.042	25464.9
738.383	25348.06
738.723	25535.4
739.063	25315.07
739.404	25405.91
739.744	25301.96
740.084	25190.1
740.424	25235.97
740.764	25169.08
741.104	25292.47
741.444	25162.53
741.784	25055.41
742.124	25118.92
742.464	25053.38
742.804	25006.6
743.143	24873.5
743.483	24976.32
743.823	24761.19
744.162	24817.23
744.502	24847.06
744.841	24764.12
745.181	24915.31
745.52	24736.55
745.86	24812.26
746.199	24765.03
746.538	24705.82
746.877	24728.64
747.216	24719.83
747.556	24701.75
747.895	24691.13
748.234	24627.86
748.573	24567.97
748.911	24479.84
749.25	24571.13
749.589	24419.95
749.928	24433.28
750.267	24615.65
750.605	24518.93
750.944	24412.95
751.283	24355.32
751.621	24405.26
751.96	24254.53
752.298	24207.3
752.636	24376.11
752.975	24077.59
753.313	24088.89
753.651	24158.94
753.989	23977.48
754.327	23941.32
754.666	23884.82
755.004	23978.83
755.342	23892.96
755.679	23964.14
756.017	23857.25
756.355	23963.69
756.693	23763.02
757.031	23818.16
757.368	23710.37
757.706	23761.66
758.044	23515.12
758.381	23572.97
758.719	23552.18
759.056	23509.47
759.394	23349.47
759.731	23269.47
760.068	23301.11
760.405	23327.78
760.743	23182.47
761.08	23252.75
761.417	23137.5
761.754	23173.2
762.091	23077.84
762.428	22998.07
762.765	22820.45
763.102	23025.41
763.438	22824.06
763.775	22747
764.112	22775.25
764.449	22741.13
764.785	22611.86
765.122	22612.99
765.458	22429.72
765.795	22410.51
766.131	22429.27
766.467	22460.45
766.804	22193.79
767.14	22090.75
767.476	22258.2
767.812	22034.48
768.148	22153.12
768.485	21896.18
768.821	21888.49
769.157	21757.65
769.492	21810.75
769.828	21731.43
770.164	21668.61
770.5	21468.62
770.836	21548.61
771.171	21379.81
771.507	21285.34
771.842	21180.49
772.178	21165.35
772.513	21127.38
772.849	21030.21
773.184	21029.53
773.519	20907.5
773.855	20830.44
774.19	20740.73
774.525	20710.22
774.86	20648.98
775.195	20583.44
775.53	20543.44
775.865	20290.79
776.2	20281.3
776.535	20152.94
776.87	20205.82
777.205	20082.66
777.539	19990.69
777.874	19997.02
778.209	19817.81
778.543	19758.83
778.878	19791.6
779.212	19726.06
779.547	19602.68
779.881	19646.52
780.215	19498.72
780.55	19565.62
780.884	19358.16
781.218	19295.11
781.552	19270.71
781.886	19192.74
782.22	19056.25
782.554	18995.46
782.888	18831.85
783.222	18827.56
783.556	18836.14
783.889	18684.06
784.223	18603.15
784.557	18575.81
784.89	18612.19
785.224	18415.59
785.557	18412.43
785.891	18350.05
786.224	18252.66
786.558	18258.31
786.891	18060.57
787.224	18013.34
787.557	17859.22
787.891	17913.91
788.224	17906.22
788.557	17859.45
788.89	17830.07
789.223	17767.02
789.556	17660.58
789.888	17573.58
790.221	17508.72
790.554	17319.12
790.887	17462.62
791.219	17362.06
791.552	17364.09
791.884	17249.07
792.217	17207.49
792.549	17122.06
792.882	16959.58
793.214	16964.78
793.546	16940.6
793.879	16878
794.211	16777.89
794.543	16725.46
794.875	16775.86
795.207	16767.05
795.539	16651.12
795.871	16648.63
796.203	16425.81
796.535	16364.57
796.867	16417.45
797.198	16337.23
797.53	16275.31
797.862	16181.75
798.193	16200.28
798.525	16108.08
798.856	16196.66
799.188	16036.67
799.519	15972.26
799.85	15775.88
800.182	15860.4
800.513	15856.56
800.844	15787.64
801.175	15785.38
801.506	15684.14
801.837	15650.01
802.168	15649.11
802.499	15546.51
802.83	15549.45
803.161	15506.06
803.491	15412.73
803.822	15459.73
804.153	15294.99
804.483	15142.45
804.814	15186.97
805.145	15165.28
805.475	15146.97
805.805	15097.71
806.136	15197.14
806.466	15120.76
806.796	15008.9
807.126	14819.75
807.457	14826.98
807.787	14864.5
808.117	14842.8
808.447	14771.39
808.777	14747.21
809.107	14696.59
809.436	14666.76
809.766	14632.41
810.096	14655.46
810.426	14545.18
810.755	14531.85
811.085	14490.95
811.414	14406.2
811.744	14326.21
812.073	14367.56
812.403	14361.46
812.732	14329.37
813.061	14267.22
813.39	14128.47
813.719	14100.67
814.049	14184.51
814.378	14048.25
814.707	14085.31
815.036	14024.52
815.365	13943.39
815.693	13835.82
816.022	13858.19
816.351	13832.88
816.68	13793.56
817.008	13727.35
817.337	13672.66
817.665	13681.25
817.994	13640.8
818.322	13651.42
818.651	13570.74
818.979	13492.78
819.307	13570.07
819.636	13493.23
819.964	13396.06
820.292	13465.66
820.62	13466.79
820.948	13415.95
821.276	13446.68
821.604	13384.08
821.932	13437.64
822.259	13448.04
822.587	13357.64
822.915	13323.75
823.243	13378.43
823.57	13300.47
823.898	13357.42
824.225	13370.07
824.553	13354.71
824.88	13300.47
825.207	13421.6
825.535	13297.98
825.862	13364.2
826.189	13311.32
826.516	13396.51
826.843	13403.07
827.17	13327.81
827.497	13371.65
827.824	13313.58
828.151	13391.99
828.478	13323.75
828.805	13377.98
829.131	13264.09
829.458	13240.13
829.785	13184.31
830.111	13251.88
830.438	13281.26
830.764	13268.83
831.09	13240.36
831.417	13215.95
831.743	13211.66
832.069	13277.19
832.395	13233.35
832.722	13245.78
833.048	13203.07
833.374	13163.75
833.7	13116.75
834.026	13126.69
834.351	13234.93
834.677	13184.99
835.003	13217.99
835.329	13072
835.654	13093.7
835.98	13004.43
836.306	13052.11
836.631	12971.66
836.956	13089.85
837.282	13014.15
837.607	12994.71
837.932	12946.81
838.258	12930.76
838.583	12932.57
838.908	12875.17
839.233	12885.57
839.558	12831.33
839.883	12858.45
840.208	12780.03
840.533	12841.95
840.858	12780.71
841.182	12812.12
841.507	12817.32
841.832	12760.6
842.156	12728.96
842.481	12685.34
842.805	12642.18
843.13	12610.77
843.454	12544.56
843.778	12487.61
844.103	12559.02
844.427	12504.33
844.751	12488.51
845.075	12390.21
845.399	12331.46
845.723	12368.06
846.047	12322.87
846.371	12201.97
846.695	12287.84
847.019	12077.68
847.343	12122.65
847.666	12045.36
847.99	11974.63
848.313	11961.52
848.637	11871.81
848.96	11829.77
849.284	11781.64
849.607	11676.33
849.931	11614.86
850.254	11608.76
850.577	11497.13
850.9	11480.18
851.223	11450.57
851.546	11487.86
851.869	11298.04
852.192	11309.11
852.515	11244.03
852.838	11225.04
853.161	11231.15
853.483	11114.31
853.806	11175.33
854.129	11133.75
854.451	11103.47
854.774	11122.9
855.096	11020.53
855.419	10952.06
855.741	10931.49
856.063	10885.62
856.385	10888.1
856.708	10785.73
857.03	10867.54
857.352	10839.97
857.674	10755.9
857.996	10680.65
858.318	10651.73
858.64	10661.44
858.961	10611.95
859.283	10578.06
859.605	10581.9
859.926	10534.44
860.248	10549.36
860.57	10502.58
860.891	10399.08
861.212	10448.12
861.534	10432.52
861.855	10363.37
862.176	10387.1
862.498	10415.35
862.819	10371.73
863.14	10312.98
863.461	10370.38
863.782	10308.01
864.103	10239.08
864.424	10247.89
864.745	10295.58
865.065	10125.41
865.386	10123.15
865.707	10164.51
866.027	10137.84
866.348	10144.62
866.668	10115.69
866.989	10098.29
867.309	10040.89
867.63	10043.61
867.95	10075.7
868.27	9973.33
868.59	10024.85
868.91	10000.44
869.23	9963.38
869.55	9936.72
869.87	9949.6
870.19	9944.4
870.51	9947.34
870.83	9880.22
871.15	9817.62
871.469	9815.14
871.789	9847.45
872.109	9814.46
872.428	9766.33
872.748	9823.27
873.067	9757.51
873.386	9796.83
873.706	9760.9
874.025	9717.74
874.344	9702.82
874.663	9622.37
874.982	9659.66
875.301	9711.41
875.62	9570.4
875.939	9573.11
876.258	9642.49
876.577	9534.01
876.896	9527.01
877.214	9560.23
877.533	9633.67
877.852	9486.78
878.17	9508.03
878.489	9498.99
878.807	9469.61
879.125	9452.66
879.444	9426.45
879.762	9434.81
880.08	9415.6
880.398	9348.93
880.716	9374.47
881.034	9391.19
881.352	9393
881.67	9257.64
881.988	9297.86
882.306	9239.33
882.624	9236.62
882.941	9139.67
883.259	9225.1
883.577	9225.1
883.894	9115.04
884.212	9148.94
884.529	9097.64
884.846	9103.29
885.164	9126.12
885.481	8979.91
885.798	9053.58
886.115	8971.09
886.432	9002.28
886.75	8919.34
887.067	8942.39
887.383	8987.81
887.7	8920.02
888.017	8874.6
888.334	8962.05
888.651	8833.24
888.967	8750.53
889.284	8802.28
889.6	8729.29
889.917	8692.46
890.233	8737.43
890.55	8733.36
890.866	8637.54
891.182	8680.48
891.498	8575.4
891.815	8603.87
892.131	8548.96
892.447	8540.82
892.763	8579.92
893.079	8505.34
893.395	8534.04
893.71	8480.03
894.026	8402.52
894.342	8371.56
894.657	8371.79
894.973	8341.28
895.289	8302.41
895.604	8260.83
895.92	8318.45
896.235	8192.36
896.55	8215.18
896.865	8196.42
897.181	8170.21
897.496	8167.27
897.811	8095.18
898.126	8085.47
898.441	8097.89
898.756	8026.03
899.071	7981.51
899.386	8025.13
899.7	7946.71
900.015	7894.96
900.33	7837.79
900.644	7847.28
900.959	7819.03
901.273	7839.37
901.588	7757.11
901.902	7760.28
902.216	7731.12
902.531	7687.96
902.845	7637.34
903.159	7602.99
903.473	7587.85
903.787	7559.38
904.101	7522.77
904.415	7500.17
904.729	7458.14
905.042	7493.16
905.356	7374.75
905.67	7383.56
905.984	7413.39
906.297	7313.51
906.611	7334.52
906.924	7253.17
907.237	7303.79
907.551	7238.03
907.864	7175.21
908.177	7126.17
908.491	7205.26
908.804	7112.84
909.117	7114.87
909.43	7045.04
909.743	7089.33
910.056	6989.67
910.368	7016.79
910.681	6940.41
910.994	6916.46
911.307	6884.59
911.619	6831.71
911.932	6847.76
912.244	6798.04
912.557	6787.87
912.869	6737.93
913.181	6756.91
913.494	6747.42
913.806	6643.92
914.118	6628.1
914.43	6600.08
914.742	6589.23
915.054	6569.57
915.366	6516.02
915.678	6489.58
915.99	6469.24
916.302	6422.91
916.613	6355.34
916.925	6409.13
917.236	6399.86
917.548	6369.13
917.859	6313.76
918.171	6294.55
918.482	6233.54
918.794	6217.49
919.105	6173.88
919.416	6134.33
919.727	6159.64
920.038	6079.19
920.349	6101.11
920.66	6011.4
920.971	6046.65
921.282	6076.93
921.593	5998.29
921.903	6019.31
922.214	5968.46
922.525	5935.69
922.835	5909.25
923.146	5873.55
923.456	5830.16
923.767	5837.84
924.077	5789.03
924.387	5819.54
924.697	5773.66
925.008	5746.54
925.318	5711.29
925.628	5729.37
925.938	5645.3
926.248	5614.8
926.558	5589.26
926.867	5598.07
927.177	5526.66
927.487	5547.68
927.796	5539.54
928.106	5548.81
928.416	5475.82
928.725	5445.76
929.034	5410.73
929.344	5445.76
929.653	5401.47
929.962	5318.08
930.271	5339.1
930.581	5261.13
930.89	5295.48
931.199	5294.8
931.508	5255.26
931.817	5242.15
932.125	5241.47
932.434	5174.36
932.743	5139.55
933.051	5159.21
933.36	5124.64
933.669	5054.81
933.977	5050.52
934.286	5059.56
934.594	4990.18
934.902	4997.64
935.21	4983.63
935.519	4943.18
935.827	4919.67
936.135	4871.76
936.443	4883.29
936.751	4895.04
937.059	4881.48
937.367	4839.22
937.674	4853.46
937.982	4806.91
938.29	4761.71
938.597	4735.95
938.905	4711.54
939.213	4693.92
939.52	4683.07
939.827	4678.1
940.135	4646.01
940.442	4639.91
940.749	4632.22
941.056	4654.14
941.363	4566.91
941.67	4539.8
941.977	4534.82
942.284	4527.59
942.591	4496.18
942.898	4450.53
943.205	4479.91
943.511	4436.52
943.818	4419.8
944.125	4422.51
944.431	4354.94
944.738	4365.79
945.044	4340.71
945.35	4316.07
945.657	4274.49
945.963	4264.1
946.269	4287.15
946.575	4255.06
946.881	4250.99
947.187	4203.76
947.493	4203.76
947.799	4190.88
948.105	4150.43
948.41	4119.69
948.716	4170.09
949.022	4078.34
949.327	4089.41
949.633	4069.07
949.938	4044.67
950.244	4029.53
950.549	4017.32
950.854	4003.76
951.16	3972.35
951.465	3950.21
951.77	3940.04
952.075	3927.38
952.38	3879.02
952.685	3901.85
952.99	3821.62
953.294	3857.78
953.599	3851
953.904	3814.17
954.209	3754.96
954.513	3813.94
954.818	3798.12
955.122	3724
955.426	3728.52
955.731	3715.64
956.035	3716.31
956.339	3675.41
956.643	3661.4
956.948	3653.27
957.252	3630.22
957.556	3662.76
957.86	3611.68
958.163	3595.41
958.467	3585.24
958.771	3550.67
959.075	3526.26
959.378	3544.79
959.682	3559.93
959.985	3472.71
960.289	3491.01
960.592	3464.8
960.896	3486.49
961.199	3432.03
961.502	3444.46
961.805	3397.45
962.108	3380.5
962.411	3451.24
962.714	3403.1
963.017	3324.69
963.32	3331.24
963.623	3389.77
963.926	3340.28
964.228	3268.87
964.531	3324.46
964.833	3300.51
965.136	3240.62
965.438	3268.87
965.741	3231.81
966.043	3192.26
966.345	3259.15
966.648	3204.46
966.95	3178.48
967.252	3162.88
967.554	3171.47
967.856	3171.02
968.158	3117.01
968.46	3141.41
968.761	3099.38
969.063	3083.11
969.365	3038.59
969.666	3061.19
969.968	2999.72
970.269	3026.39
970.571	3011.02
970.872	3041.98
971.174	2954.07
971.475	2936.22
971.776	2978.03
972.077	2898.71
972.378	2893.74
972.679	2966.5
972.98	2909.33
973.281	2884.47
973.582	2878.6
973.883	2910.46
974.183	2869.78
974.484	2855.09
974.785	2832.95
975.085	2804.93
975.386	2845.15
975.686	2792.5
975.986	2787.3
976.287	2749.33
976.587	2730.8
976.887	2750.46
977.187	2740.52
977.487	2720.86
977.787	2709.34
978.087	2694.65
978.387	2662.11
978.687	2672.95
978.987	2665.04
979.286	2625.5
979.586	2657.13
979.885	2613.74
980.185	2606.97
980.484	2668.43
980.784	2612.39
981.083	2579.62
981.382	2563.12
981.682	2543.24
981.981	2543.46
982.28	2494.43
982.579	2500.53
982.878	2515.44
983.177	2515.22
983.475	2532.84
983.774	2469.12
984.073	2502.79
984.372	2438.16
984.67	2399.97
984.969	2415.11
985.267	2429.79
985.566	2425.73
985.864	2389.8
986.162	2418.72
986.461	2360.19
986.759	2356.8
987.057	2322.91
987.355	2343.24
987.653	2326.75
987.951	2340.53
988.249	2331.04
988.547	2312.06
988.844	2293.08
989.142	2312.74
989.44	2274.09
989.737	2293.98
990.035	2264.38
990.332	2253.98
990.63	2257.14
990.927	2237.71
991.224	2219.86
991.521	2258.27
991.819	2207.43
992.116	2206.75
992.413	2181.89
992.71	2184.38
993.006	2159.75
993.303	2174.66
993.6	2152.06
993.897	2155.9
994.193	2114.77
994.49	2137.6
994.787	2114.55
995.083	2089.01
995.379	2066.64
995.676	2057.38
995.972	2070.26
996.268	2023.25
996.565	2023.7
996.861	2045.17
997.157	2009.01
997.453	2001.56
997.749	2009.01
998.044	2010.82
998.34	1993.87
998.636	1929.7
998.932	1946.42
999.227	1970.37
999.523	1946.42
999.818	1926.98
1000.114	1934.44
1000.409	1869.81
1000.704	1870.26
1001	1883.14
1001.295	1868.91
1001.59	1865.06
1001.885	1897.61
1002.18	1882.01
1002.475	1813.31
1002.77	1858.74
1003.065	1844.95
1003.359	1816.03
1003.654	1813.77
1003.949	1795.46
1004.243	1768.8
1004.538	1784.16
1004.832	1786.87
1005.127	1773.54
1005.421	1759.98
1005.715	1735.8
1006.009	1709.14
1006.304	1739.87
1006.598	1718.4
1006.892	1683.15
1007.186	1682.24
1007.48	1692.64
1007.773	1663.49
1008.067	1654.22
1008.361	1636.37
1008.655	1622.81
1008.948	1636.6
1009.242	1631.4
1009.535	1633.21
1009.829	1594.79
1010.122	1591.4
1010.415	1585.98
1010.708	1567.9
1011.001	1557.95
1011.295	1540.1
1011.588	1569.25
1011.881	1547.56
1012.173	1562.25
1012.466	1536.71
1012.759	1488.8
1013.052	1523.6
1013.344	1517.73
1013.637	1483.83
1013.93	1464.62
1014.222	1498.29
1014.514	1459.2
1014.807	1456.26
1015.099	1478.18
1015.391	1430.73
1015.683	1467.33
1015.976	1428.47
1016.268	1416.04
1016.56	1397.96
1016.851	1402.48
1017.143	1389.37
1017.435	1363.38
1017.727	1365.87
1018.018	1358.41
1018.31	1367.45
1018.602	1356.6
1018.893	1329.48
1019.185	1319.99
1019.476	1299.88
1019.767	1313.21
1020.058	1311.86
1020.35	1301.69
1020.641	1272.09
1020.932	1257.85
1021.223	1256.04
1021.514	1249.26
1021.804	1248.58
1022.095	1238.41
1022.386	1248.58
1022.677	1248.81
1022.967	1217.17
1023.258	1193.67
1023.548	1230.96
1023.839	1195.03
1024.129	1196.61
1024.419	1185.08
1024.709	1193.44
1025	1167.46
1025.29	1169.94
1025.58	1155.48
1025.87	1158.87
1026.16	1141.47
1026.449	1118.42
1026.739	1135.59
1027.029	1124.29
1027.319	1143.5
1027.608	1130.62
1027.898	1096.04
1028.187	1086.55
1028.477	1082.71
1028.766	1084.29
1029.055	1084.75
1029.344	1068.25
1029.634	1044.97
1029.923	1065.76
1030.212	1032.09
1030.501	1043.16
1030.79	1050.85
1031.078	1023.28
1031.367	1037.29
1031.656	1012.88
1031.945	1049.27
1032.233	1018.08
1032.522	1012.21
1032.81	985.09
1033.099	1003.84
1033.387	972.43
1033.675	976.27
1033.963	963.84
1034.251	972.66
1034.54	961.58
1034.828	962.49
1035.116	930.85
1035.403	912.32
1035.691	929.5
1035.979	916.84
1036.267	933.56
1036.554	902.83
1036.842	893.34
1037.129	894.69
1037.417	895.82
1037.704	879.33
1037.992	882.04
1038.279	895.37
1038.566	908.03
1038.853	908.03
1039.14	908.03
