Data from hue_210_FLMS001491_00016.txt Node
Date: Tue Feb 07 16:40:49 GMT 2017
User: dcchb
Spectrometer: FLMS00149
Trigger mode: 0
Integration Time (sec): 2.000000E-2
Scans to average: 10
Electric dark correction enabled: true
Nonlinearity correction enabled: false
Boxcar width: 0
XAxis mode: Wavelengths
Number of Pixels in Spectrum: 2048
>>>>>Begin Spectral Data<<<<<
341.393	-21.79
341.776	-21.79
342.16	-21.79
342.543	-65.41
342.927	-69.48
343.31	-61.11
343.693	-78.06
344.077	-76.26
344.46	-51.62
344.843	-45.52
345.226	-47.1
345.61	-37.39
345.993	-14.79
346.376	-19.08
346.759	-11.4
347.142	29.73
347.525	32.44
347.908	66.34
348.291	72.22
348.674	107.47
349.057	134.13
349.44	141.82
349.823	147.02
350.206	154.25
350.588	202.61
350.971	211.87
351.354	219.56
351.737	222.72
352.119	266.33
352.502	274.02
352.884	271.31
353.267	275.37
353.65	295.49
354.032	309.5
354.414	311.98
354.797	308.82
355.179	337.52
355.562	323.96
355.944	331.87
356.326	325.99
356.709	352.21
357.091	323.28
357.473	349.95
357.855	349.04
358.238	345.65
358.62	328.93
359.002	341.14
359.384	328.93
359.766	314.47
360.148	328.03
360.53	333.45
360.912	327.12
361.294	328.48
361.676	327.8
362.057	339.33
362.439	309.95
362.821	346.78
363.203	322.6
363.584	321.47
363.966	330.29
364.348	330.51
364.729	322.15
365.111	314.92
365.493	309.72
365.874	308.82
366.256	315.6
366.637	314.02
367.019	312.66
367.4	317.63
367.781	302.49
368.163	313.79
368.544	297.97
368.925	306.56
369.306	291.64
369.688	313.79
370.069	297.75
370.45	295.71
370.831	303.85
371.212	303.85
371.593	297.07
371.974	314.02
372.355	305.43
372.736	290.51
373.117	318.54
373.498	320.57
373.879	295.71
374.26	309.95
374.641	285.54
375.021	300.46
375.402	318.99
375.783	315.83
376.163	325.32
376.544	327.12
376.925	331.64
377.305	317.41
377.686	329.16
378.066	339.55
378.447	329.84
378.827	334.13
379.208	339.55
379.588	324.41
379.968	329.16
380.349	324.86
380.729	325.77
381.109	343.85
381.489	340.46
381.87	347.46
382.25	320.8
382.63	351.76
383.01	328.48
383.39	317.63
383.77	334.58
384.15	335.03
384.53	344.07
384.91	339.1
385.29	343.62
385.67	350.63
386.049	370.96
386.429	347.46
386.809	359.67
387.189	344.07
387.568	373
387.948	348.14
388.328	353.56
388.707	363.73
389.087	360.34
389.466	340.23
389.846	341.59
390.225	375.26
390.605	360.34
390.984	385.65
391.363	366.22
391.743	358.54
392.122	370.74
392.501	369.16
392.881	373.68
393.26	387.91
393.639	375.71
394.018	403.05
394.397	384.52
394.776	390.4
395.155	393.34
395.534	390.4
395.913	408.03
396.292	385.43
396.671	382.04
397.05	386.33
397.429	386.11
397.808	395.37
398.186	383.85
398.565	412.32
398.944	406.22
399.323	383.17
399.701	406.44
400.08	416.39
400.458	431.3
400.837	414.81
401.215	431.53
401.594	418.2
401.972	411.64
402.351	435.82
402.729	408.93
403.107	450.51
403.486	421.13
403.864	426.78
404.242	445.31
404.62	444.18
404.999	455.93
405.377	462.49
405.755	464.07
406.133	441.92
406.511	465.43
406.889	470.62
407.267	473.34
407.645	472.21
408.023	470.17
408.401	490.74
408.779	497.06
409.156	493
409.534	511.07
409.912	528.93
410.29	537.06
410.667	545.88
411.045	545.42
411.422	548.36
411.8	540.45
412.178	571.64
412.555	570.73
412.933	576.84
413.31	588.36
413.687	605.76
414.065	588.59
414.442	632.43
414.819	644.4
415.197	643.05
415.574	665.19
415.951	643.27
416.328	664.97
416.705	661.58
417.082	678.08
417.46	696.83
417.837	710.62
418.214	677.4
418.591	695.48
418.967	717.85
419.344	718.98
419.721	751.29
420.098	720.11
420.475	745.42
420.852	756.94
421.228	785.42
421.605	785.19
421.982	807.56
422.358	828.58
422.735	855.02
423.111	860.9
423.488	854.12
423.864	881.23
424.241	895.24
424.617	908.35
424.994	924.85
425.37	928.01
425.746	955.81
426.123	966.2
426.499	959.42
426.875	1008.01
427.251	1025.18
427.627	1040.1
428.003	1024.96
428.379	1056.82
428.756	1054.79
429.132	1034.9
429.507	1074.68
429.883	1089.36
430.259	1110.15
430.635	1108.57
431.011	1111.74
431.387	1129.14
431.763	1169.59
432.138	1194.22
432.514	1185.18
432.89	1225.86
433.265	1250.94
433.641	1256.82
434.016	1294.1
434.392	1291.62
434.767	1321.45
435.143	1341.79
435.518	1362.13
435.894	1375.68
436.269	1429.92
436.644	1452.29
437.02	1437.6
437.395	1497.49
437.77	1527.09
438.145	1542.01
438.52	1569.58
438.895	1577.03
439.271	1595.79
439.646	1616.36
440.021	1663.81
440.395	1677.6
440.77	1691.83
441.145	1716.92
441.52	1746.3
441.895	1728.22
442.27	1762.79
442.645	1771.38
443.019	1785.84
443.394	1800.08
443.769	1817.48
444.143	1855.9
444.518	1878.04
444.892	1863.35
445.267	1926.4
445.641	1962.34
446.016	1934.77
446.39	1973.41
446.764	1966.86
447.139	1966.86
447.513	1980.19
447.887	2006.18
448.262	2023.58
448.636	2047.98
449.01	2071.49
449.384	2116
449.758	2087.76
450.132	2155.32
450.506	2133.63
450.88	2167.08
451.254	2147.19
451.628	2193.74
452.002	2213.4
452.376	2235.55
452.75	2278.26
453.123	2273.74
453.497	2297.47
453.871	2334.75
454.244	2344.02
454.618	2356.68
454.992	2376.11
455.365	2396.9
455.739	2450.68
456.112	2490.01
456.486	2502.89
456.859	2524.81
457.232	2554.41
457.606	2555.31
457.979	2589.89
458.352	2677.8
458.725	2683.45
459.099	2703.56
459.472	2735.87
459.845	2750.79
460.218	2761.41
460.591	2777.23
460.964	2816.32
461.337	2856.32
461.71	2920.28
462.083	2955.53
462.456	2968.41
462.829	2987.62
463.201	3059.26
463.574	3031.46
463.947	3084.34
464.32	3102.87
464.692	3184
465.065	3195.52
465.438	3247.73
465.81	3292.7
466.183	3312.58
466.555	3391.68
466.928	3375.18
467.3	3378.8
467.672	3421.73
468.045	3552.12
468.417	3530.88
468.789	3566.81
469.161	3627.15
469.534	3670.54
469.906	3750.76
470.278	3756.41
470.65	3769.07
471.022	3839.12
471.394	3899.91
471.766	3933.36
472.138	3934.03
472.51	4035.5
472.882	4097.42
473.253	4182.62
473.625	4196.4
473.997	4254.25
474.369	4326.34
474.74	4333.8
475.112	4407.47
475.484	4515.94
475.855	4550.29
476.227	4539.44
476.598	4724.3
476.97	4705.54
477.341	4823.96
477.713	4840.68
478.084	4917.51
478.455	5056.72
478.827	5026.44
479.198	5246.77
479.569	5195.24
479.94	5357.05
480.311	5397.95
480.682	5452.19
481.053	5566.53
481.424	5601.34
481.795	5696.7
482.166	5703.93
482.537	5855.79
482.908	5957.94
483.279	5985.51
483.65	6064.37
484.021	6186.18
484.391	6233.64
484.762	6296.01
485.133	6322.45
485.503	6390.69
485.874	6492.39
486.244	6559.05
486.615	6677.92
486.985	6743
487.356	6816.45
487.726	6873.39
488.097	7020.28
488.467	7001.3
488.837	7172.59
489.207	7207.4
489.578	7331.46
489.948	7344.57
490.318	7473.38
490.688	7456.65
491.058	7568.74
491.428	7642.86
491.798	7667.95
492.168	7821.39
492.538	7868.39
492.908	7954.95
493.278	8052.57
493.648	8093.7
494.017	8096.41
494.387	8168.27
494.757	8239.23
495.126	8281.27
495.496	8263.19
495.866	8367.14
496.235	8371.21
496.605	8490.75
496.974	8449.62
497.344	8587.02
497.713	8568.26
498.082	8639.67
498.452	8679.45
498.821	8718.09
499.19	8724.42
499.559	8833.34
499.928	8836.28
500.298	8875.83
500.667	8975.26
501.036	8940.01
501.405	8975.03
501.774	8981.81
502.143	9084.18
502.512	9036.73
502.88	9141.13
503.249	9140.23
503.618	9101.36
503.987	9152.43
504.356	9109.94
504.724	9252.09
505.093	9210.96
505.462	9274.23
505.83	9324.85
506.199	9392.2
506.567	9413.44
506.936	9416.15
507.304	9410.73
507.672	9485.3
508.041	9493.89
508.409	9615.24
508.777	9593.1
509.145	9565.3
509.514	9526.88
509.882	9573.89
510.25	9582.7
510.618	9663.83
510.986	9714.9
511.354	9703.37
511.722	9722.36
512.09	9831.73
512.458	9784.28
512.826	9896.59
513.193	9834.67
513.561	9845.52
513.929	9851.62
514.297	9913.54
514.664	9877.38
515.032	9977.72
515.4	9965.51
515.767	9992.18
516.135	9926.65
516.502	9902.01
516.869	10006.87
517.237	10035.12
517.604	9978.4
517.972	10020.88
518.339	10026.3
518.706	10026.08
519.073	10074.89
519.44	10046.87
519.808	10145.62
520.175	10104.04
520.542	10154.89
520.909	10152.85
521.276	10097.26
521.643	10187.2
522.009	10161.44
522.376	10196.7
522.743	10205.73
523.11	10242.12
523.477	10266.07
523.843	10274.21
524.21	10327.09
524.577	10357.14
524.943	10396.92
525.31	10277.82
525.676	10288.67
526.043	10342.91
526.409	10335.9
526.776	10392.4
527.142	10384.71
527.508	10424.03
527.874	10418.16
528.241	10376.13
528.607	10343.81
528.973	10417.03
529.339	10413.86
529.705	10423.13
530.071	10375
530.437	10415.67
530.803	10443.69
531.169	10397.82
531.535	10332.28
531.901	10297.94
532.267	10323.47
532.632	10384.26
532.998	10344.04
533.364	10318.95
533.73	10338.61
534.095	10322.34
534.461	10331.83
534.826	10320.53
535.192	10306.52
535.557	10295.9
535.923	10219.07
536.288	10271.04
536.653	10260.42
537.019	10138.39
537.384	10156.02
537.749	10127.09
538.114	10103.82
538.479	10064.95
538.845	9982.92
539.21	9982.01
539.575	9954.89
539.94	9965.74
540.305	9965.29
540.67	9890.49
541.034	9795.12
541.399	9847.55
541.764	9772.98
542.129	9769.36
542.494	9767.33
542.858	9772.53
543.223	9701.11
543.587	9716.26
543.952	9715.35
544.316	9691.4
544.681	9596.48
545.045	9612.3
545.41	9631.74
545.774	9554.68
546.138	9496.6
546.503	9498.41
546.867	9380.67
547.231	9482.59
547.595	9389.48
547.959	9339.99
548.324	9388.81
548.688	9328.92
549.052	9281.46
549.416	9271.07
549.779	9263.16
550.143	9214.35
550.507	9278.3
550.871	9238.3
551.235	9076.5
551.599	9167.34
551.962	9083.05
552.326	9078.98
552.689	9063.84
553.053	8966.67
553.417	9005.99
553.78	9057.29
554.143	8988.82
554.507	9031.75
554.87	8987.91
555.234	9023.17
555.597	8908.37
555.96	8878.99
556.323	8962.38
556.686	8854.58
557.05	8901.81
557.413	8818.2
557.776	8845.77
558.139	8926.67
558.502	8798.54
558.865	8777.75
559.228	8865.43
559.59	8813.68
559.953	8782.95
560.316	8876.05
560.679	8832.89
561.041	8842.61
561.404	8795.15
561.767	8802.83
562.129	8736.62
562.492	8851.42
562.854	8857.52
563.217	8829.73
563.579	8804.87
563.941	8859.1
564.304	8862.49
564.666	8869.5
565.028	8752.67
565.39	8828.82
565.753	8893.68
566.115	8844.64
566.477	8900.91
566.839	8893.68
567.201	8950.17
567.563	8890.97
567.925	8938.88
568.287	8969.61
568.648	8896.39
569.01	8954.47
569.372	8932.32
569.734	8922.15
570.095	8911.31
570.457	9002.15
570.819	9047.57
571.18	9005.54
571.542	8967.57
571.903	9037.86
572.265	9095.71
572.626	9006.44
572.987	9046.44
573.349	9043.73
573.71	9122.83
574.071	9089.38
574.432	9095.26
574.794	9185.87
575.155	9111.53
575.516	9162.82
575.877	9149.27
576.238	9112.66
576.599	9180
576.96	9150.39
577.32	9208.25
577.681	9276.72
578.042	9232.65
578.403	9229.49
578.763	9221.35
579.124	9228.59
579.485	9268.36
579.845	9283.72
580.206	9263.84
580.566	9298.87
580.927	9213.44
581.287	9284.4
581.648	9216.38
582.008	9354.91
582.368	9264.97
582.728	9316.27
583.089	9311.52
583.449	9266.55
583.809	9313.78
584.169	9322.14
584.529	9244.18
584.889	9405.76
585.249	9297.74
585.609	9316.04
585.969	9398.3
586.329	9352.65
586.688	9407.11
587.048	9337.28
587.408	9328.24
587.768	9349.03
588.127	9342.71
588.487	9304.06
588.846	9415.25
589.206	9336.6
589.565	9396.26
589.925	9429.94
590.284	9376.15
590.643	9356.72
591.003	9416.38
591.362	9420.22
591.721	9433.78
592.08	9388.58
592.44	9368.69
592.799	9423.83
593.158	9405.98
593.517	9392.42
593.876	9438.75
594.235	9434.68
594.593	9422.93
594.952	9509.03
595.311	9352.2
595.67	9325.76
596.029	9485.98
596.387	9473.1
596.746	9439.2
597.104	9410.73
597.463	9441.23
597.822	9445.53
598.18	9442.82
598.538	9370.5
598.897	9461.12
599.255	9424.29
599.613	9487.11
599.972	9389.03
600.33	9510.84
600.688	9405.08
601.046	9464.06
601.404	9461.8
601.762	9523.94
602.12	9541.8
602.478	9496.6
602.836	9521.91
603.194	9456.83
603.552	9538.41
603.91	9486.88
604.268	9485.75
604.625	9432.2
604.983	9488.92
605.341	9481.23
605.698	9483.72
606.056	9518.07
606.413	9451.86
606.771	9513.32
607.128	9566.88
607.485	9489.6
607.843	9563.04
608.2	9557.62
608.557	9554.45
608.914	9559.2
609.272	9604.17
609.629	9594.9
609.986	9643.26
610.343	9565.98
610.7	9625.41
611.057	9626.99
611.414	9580.21
611.771	9547.22
612.127	9621.12
612.484	9618.86
612.841	9666.99
613.198	9607.11
613.554	9603.94
613.911	9666.09
614.267	9713.77
614.624	9676.03
614.98	9632.42
615.337	9760.55
615.693	9704.28
616.05	9684.17
616.406	9722.13
616.762	9688.23
617.118	9672.64
617.475	9709.93
617.831	9722.36
618.187	9778.18
618.543	9763.71
618.899	9802.81
619.255	9781.79
619.611	9806.42
619.967	9778.85
620.323	9828.8
620.678	9726.43
621.034	9774.33
621.39	9799.19
621.746	9728.68
622.101	9786.99
622.457	9810.72
622.812	9766.88
623.168	9857.72
623.523	9869.47
623.879	9872.18
624.234	9760.77
624.589	9819.3
624.945	9851.85
625.3	9850.26
625.655	9829.25
626.01	9805.74
626.365	9796.93
626.72	9746.31
627.075	9771.62
627.43	9733.43
627.785	9772.53
628.14	9738.63
628.495	9771.62
628.85	9762.58
629.205	9697.27
629.559	9746.31
629.914	9709.7
630.269	9682.81
630.623	9733.88
630.978	9722.13
631.332	9749.02
631.687	9739.53
632.041	9669.25
632.396	9698.4
632.75	9627.9
633.104	9675.35
633.459	9618.86
633.813	9601.23
634.167	9614.79
634.521	9570.27
634.875	9653.88
635.229	9619.99
635.583	9557.84
635.937	9548.8
636.291	9566.2
636.645	9507.67
636.999	9521.01
637.352	9527.11
637.706	9538.86
638.06	9545.64
638.413	9452.31
638.767	9535.92
639.121	9475.81
639.474	9419.31
639.828	9415.02
640.181	9388.81
640.534	9446.66
640.888	9402.14
641.241	9320.56
641.594	9346.77
641.947	9435.36
642.301	9422.93
642.654	9407.11
643.007	9348.36
643.36	9328.92
643.713	9381.8
644.066	9397.85
644.419	9292.99
644.771	9273.78
645.124	9200.11
645.477	9168.7
645.83	9128.7
646.182	9064.52
646.535	9066.33
646.888	9057.74
647.24	9027.23
647.593	9100.23
647.945	9036.5
648.298	9015.71
648.65	8971.42
649.002	9015.48
649.355	8981.13
649.707	9003.96
650.059	9060.45
650.411	9165.76
650.763	9125.99
651.115	9247.34
651.467	9232.88
651.819	9227.68
652.171	9143.62
652.523	9153.33
652.875	9174.8
653.227	9126.21
653.578	9231.52
653.93	9229.71
654.282	9161.69
654.633	9175.03
654.985	9180.22
655.337	9203.95
655.688	9218.42
656.039	9244.86
656.391	9173.22
656.742	9207.79
657.094	9243.05
657.445	9262.26
657.796	9198.76
658.147	9252.54
658.498	9245.99
658.849	9300
659.2	9180.22
659.551	9167.8
659.902	9287.34
660.253	9203.95
660.604	9232.88
660.955	9210.51
661.306	9235.59
661.656	9205.99
662.007	9251.18
662.358	9280.79
662.708	9241.69
663.059	9251.64
663.409	9177.74
663.76	9309.71
664.11	9247.34
664.461	9222.71
664.811	9281.69
665.161	9268.13
665.511	9235.59
665.862	9260
666.212	9245.99
666.562	9321.01
666.912	9264.97
667.262	9248.25
667.612	9278.08
667.962	9268.81
668.312	9255.93
668.662	9294.8
669.011	9260.45
669.361	9153.11
669.711	9264.52
670.06	9231.97
670.41	9227
670.76	9259.09
671.109	9235.14
671.459	9168.93
671.808	9224.07
672.157	9253.9
672.507	9134.35
672.856	9190.39
673.205	9183.39
673.554	9210.73
673.904	9130.73
674.253	9147.46
674.602	9143.84
674.951	9010.06
675.3	9043.51
675.649	9155.37
675.998	9044.86
676.346	9096.39
676.695	9141.81
677.044	9047.8
677.393	9098.64
677.741	9122.15
678.09	9026.1
678.438	9078.76
678.787	9041.7
679.135	9031.98
679.484	9034.24
679.832	8990.85
680.181	8909.95
680.529	8934.36
680.877	8984.3
681.225	8947.24
681.573	9009.61
681.922	8897.29
682.27	8866.33
682.618	8916.05
682.966	8835.15
683.314	8891.42
683.661	8840.57
684.009	8826.56
684.357	8751.99
684.705	8792.44
685.053	8773.23
685.4	8779.33
685.748	8715.83
686.095	8668.37
686.443	8645.78
686.79	8709.05
687.138	8688.49
687.485	8664.53
687.832	8658.88
688.18	8646.23
688.527	8589.96
688.874	8591.31
689.221	8467.02
689.568	8521.71
689.915	8507.93
690.262	8459.57
690.609	8527.13
690.956	8370.3
691.303	8405.33
691.65	8416.63
691.997	8385.22
692.344	8293.47
692.69	8253.47
693.037	8258.67
693.383	8217.99
693.73	8228.61
694.077	8155.17
694.423	8179.35
694.769	8096.41
695.116	8112.23
695.462	8110.65
695.808	8043.98
696.155	8025.68
696.501	7940.03
696.847	8016.41
697.193	7959.24
697.539	7914.72
697.885	7873.59
698.231	7828.62
698.577	7804.44
698.923	7789.75
699.269	7756.99
699.614	7671.79
699.96	7659.36
700.306	7675.41
700.651	7622.53
700.997	7588.63
701.342	7567.39
701.688	7572.81
702.033	7529.65
702.379	7540.49
702.724	7486.48
703.069	7514.51
703.415	7412.36
703.76	7417.56
704.105	7441.06
704.45	7416.43
704.795	7340.05
705.14	7348.63
705.485	7321.06
705.83	7237.9
706.175	7241.07
706.52	7201.07
706.865	7234.97
707.209	7195.64
707.554	7153.61
707.899	7159.94
708.243	7181.86
708.588	7118.36
708.932	7082.88
709.277	7062.09
709.621	7075.87
709.966	7051.02
710.31	7083.78
710.654	6989.55
710.998	7000.85
711.342	6994.97
711.687	7001.3
712.031	6928.76
712.375	6904.58
712.719	6944.8
713.063	6879.04
713.407	6913.39
713.75	6841.08
714.094	6867.97
714.438	6804.24
714.782	6840.85
715.125	6769.21
715.469	6817.57
715.812	6793.85
716.156	6718.59
716.499	6787.97
716.843	6747.97
717.186	6724.02
717.53	6731.02
717.873	6736.22
718.216	6734.41
718.559	6702.78
718.902	6642.44
719.246	6673.4
719.589	6603.57
719.932	6611.03
720.275	6601.99
720.617	6604.25
720.96	6628.88
721.303	6632.5
721.646	6625.26
721.989	6584.13
722.331	6581.42
722.674	6613.96
723.016	6561.54
723.359	6594.76
723.701	6597.92
724.044	6545.27
724.386	6552.5
724.729	6547.75
725.071	6588.43
725.413	6546.4
725.755	6535.1
726.097	6510.92
726.439	6503.68
726.782	6480.41
727.124	6502.33
727.465	6510.46
727.807	6478.6
728.149	6434.08
728.491	6443.12
728.833	6512.27
729.175	6461.2
729.516	6509.79
729.858	6418.49
730.199	6468.21
730.541	6483.57
730.882	6419.62
731.224	6503.23
731.565	6414.87
731.906	6509.11
732.248	6541.42
732.589	6421.43
732.93	6428.21
733.271	6418.04
733.612	6399.28
733.953	6429.56
734.294	6416.68
734.635	6406.74
734.976	6485.38
735.317	6425.72
735.658	6451.48
735.999	6420.75
736.339	6434.53
736.68	6517.02
737.021	6450.8
737.361	6435.44
737.702	6499.62
738.042	6414.87
738.383	6440.41
738.723	6469.79
739.063	6463.69
739.404	6536.45
739.744	6513.18
740.084	6527.64
740.424	6550.46
740.764	6507.98
741.104	6559.95
741.444	6574.42
741.784	6572.61
742.124	6576.9
742.464	6591.37
742.804	6601.99
743.143	6623.23
743.483	6649.44
743.823	6641.08
744.162	6703.68
744.502	6686.73
744.841	6652.61
745.181	6783.9
745.52	6775.77
745.86	6785.49
746.199	6819.83
746.538	6891.7
746.877	6912.26
747.216	6921.53
747.556	6985.03
747.895	7067.96
748.234	7046.95
748.573	7148.19
748.911	7134.4
749.25	7195.42
749.589	7249.43
749.928	7318.13
750.267	7399.71
750.605	7438.35
750.944	7546.37
751.283	7538.23
751.621	7714.27
751.96	7785.91
752.298	7832.92
752.636	7984.78
752.975	7967.38
753.313	8056.41
753.651	8194.04
753.989	8225.67
754.327	8335.05
754.666	8414.37
755.004	8640.13
755.342	8651.88
755.679	8807.81
756.017	8902.49
756.355	9083.73
756.693	9183.39
757.031	9425.42
757.368	9458.18
757.706	9604.85
758.044	9801.45
758.381	9885.52
758.719	10014.1
759.056	10174.1
759.394	10337.48
759.731	10492.96
760.068	10688.89
760.405	10855.21
760.743	11047.29
761.08	11186.27
761.417	11266.95
761.754	11464.46
762.091	11657.9
762.428	11803.21
762.765	12002.07
763.102	12121.62
763.438	12252.69
763.775	12445.68
764.112	12666.01
764.449	12853.57
764.785	12950.97
765.122	13073.91
765.458	13250.4
765.795	13415.59
766.131	13635.25
766.467	13783.04
766.804	13857.84
767.14	14007.22
767.476	14185.06
767.812	14291.95
768.148	14434.78
768.485	14572.17
768.821	14669.12
769.157	14841.32
769.492	14971.26
769.828	15168.32
770.164	15234.75
770.5	15365.15
770.836	15541.64
771.171	15584.12
771.507	15679.04
771.842	15762.2
772.178	15886.26
772.513	16029.76
772.849	16044.9
773.184	16218.46
773.519	16331.9
773.855	16438.79
774.19	16475.85
774.525	16571.44
774.86	16521.95
775.195	16661.61
775.53	16709.74
775.865	16706.81
776.2	16806.69
776.535	16779.57
776.87	16943.86
777.205	16917.87
777.539	17022.28
777.874	17132.11
778.209	17036.97
778.543	17061.37
778.878	17111.32
779.212	17123.74
779.547	17215.72
779.881	17341.14
780.215	17290.29
780.55	17294.59
780.884	17409.61
781.218	17417.3
781.552	17482.83
781.886	17412.55
782.22	17420.69
782.554	17483.96
782.888	17273.8
783.222	17351.99
783.556	17370.52
783.889	17392.44
784.223	17286.68
784.557	17366
784.89	17419.78
785.224	17466.56
785.557	17271.31
785.891	17360.35
786.224	17329.39
786.558	17356.96
786.891	17208.49
787.224	17206.68
787.557	17240.13
787.891	17284.42
788.224	17260.92
788.557	17242.16
788.89	17285.32
789.223	17227.02
789.556	17227.92
789.888	17190.41
790.221	17094.37
790.554	17058.66
790.887	17104.31
791.219	17116.74
791.552	17023.63
791.884	16957.42
792.217	17012.34
792.549	16930.76
792.882	16893.92
793.214	16865.9
793.546	16998.78
793.879	16823.41
794.211	16720.59
794.543	16795.39
794.875	16741.61
795.207	16776.64
795.539	16656.41
795.871	16756.07
796.203	16631.55
796.535	16508.62
796.867	16646.7
797.198	16479.69
797.53	16510.65
797.862	16369.64
798.193	16441.95
798.525	16382.75
798.856	16332.13
799.188	16213.03
799.519	16116.31
799.85	16185.69
800.182	16157.67
800.513	16129.87
800.844	16022.53
801.175	16161.06
801.506	16027.05
801.837	16074.28
802.168	15998.35
802.499	15996.09
802.83	15877.45
803.161	15940.95
803.491	15888.97
803.822	15838.35
804.153	15780.5
804.483	15726.27
804.814	15712.03
805.145	15625.48
805.475	15675.87
805.805	15654.86
806.136	15614.63
806.466	15676.78
806.796	15641.52
807.126	15452.38
807.457	15484.69
807.787	15485.82
808.117	15365.15
808.447	15431.36
808.777	15348.65
809.107	15202.21
809.436	15227.3
809.766	15225.72
810.096	15227.52
810.426	15125.15
810.755	15176.68
811.085	15053.97
811.414	15085.83
811.744	15089.45
812.073	14929.68
812.403	14950.24
812.732	14928.32
813.061	14911.6
813.39	14827.31
813.719	14821.88
814.049	14799.51
814.378	14808.78
814.707	14759.06
815.036	14792.73
815.365	14652.85
815.693	14590.48
816.022	14602.46
816.351	14530.14
816.68	14521.1
817.008	14678.16
817.337	14442.69
817.665	14548.45
817.994	14524.26
818.322	14456.24
818.651	14478.84
818.979	14382.57
819.307	14442.69
819.636	14362.24
819.964	14301.9
820.292	14325.17
820.62	14363.14
820.948	14300.09
821.276	14420.54
821.604	14383.03
821.932	14387.09
822.259	14314.78
822.587	14344.61
822.915	14208.12
823.243	14312.97
823.57	14216.02
823.898	14262.12
824.225	14166.76
824.553	14157.27
824.88	14244.95
825.207	14377.83
825.535	14297.15
825.862	14328.79
826.189	14250.83
826.516	14294.89
826.843	14359.98
827.17	14292.41
827.497	14368.56
827.824	14410.6
828.151	14414.66
828.478	14345.51
828.805	14398.39
829.131	14322.69
829.458	14318.39
829.785	14308.45
830.111	14343.7
830.438	14322.46
830.764	14393.65
831.09	14257.61
831.417	14239.53
831.743	14290.37
832.069	14297.15
832.395	14193.2
832.722	14338.06
833.048	14212.41
833.374	14291.28
833.7	14275.01
834.026	14129.02
834.351	14307.1
834.677	14217.61
835.003	14322.01
835.329	14165.4
835.654	14126.31
835.98	14130.38
836.306	14122.47
836.631	14141.22
836.956	14224.39
837.282	14111.62
837.607	14134.44
837.932	14131.05
838.258	14018.97
838.583	13983.71
838.908	13970.16
839.233	14007.67
839.558	13882.93
839.883	13871.17
840.208	13880.67
840.533	13873.21
840.858	13831.85
841.182	13830.95
841.507	13767.45
841.832	13745.75
842.156	13777.84
842.481	13658.75
842.805	13639.99
843.13	13649.03
843.454	13668.47
843.778	13569.94
844.103	13619.2
844.427	13522.48
844.751	13483.61
845.075	13532.65
845.399	13460.11
845.723	13373.11
846.047	13393.22
846.371	13291.08
846.695	13242.26
847.019	13233.68
847.343	13161.36
847.666	13040.01
847.99	12962.5
848.313	13047.92
848.637	12887.47
848.96	12829.85
849.284	12850.18
849.607	12801.37
849.931	12784.88
850.254	12710.75
850.577	12644.99
850.9	12554.37
851.223	12469.86
851.546	12511.89
851.869	12454.49
852.192	12440.25
852.515	12280.93
852.838	12293.82
853.161	12270.31
853.483	12257.88
853.806	12213.37
854.129	12066.25
854.451	12005.69
854.774	12042.97
855.096	11962.3
855.419	11943.77
855.741	12005.91
856.063	11902.41
856.385	11889.76
856.708	11829.19
857.03	11772.25
857.352	11817.9
857.674	11716.88
857.996	11703.77
858.318	11649.99
858.64	11581.07
858.961	11583.55
859.283	11535.87
859.605	11584
859.926	11567.05
860.248	11481.86
860.57	11414.06
860.891	11470.11
861.212	11421.97
861.534	11350.79
861.855	11323.22
862.176	11385.59
862.498	11311.47
862.819	11305.59
863.14	11289.1
863.461	11210
863.782	11231.92
864.103	11197.12
864.424	11137.46
864.745	11166.16
865.065	11076.67
865.386	11100.17
865.707	11053.17
866.027	10997.8
866.348	11058.14
866.668	10974.08
866.989	10975.88
867.309	10925.72
867.63	10991.93
867.95	10938.82
868.27	10846.17
868.59	10890.69
868.91	10855.89
869.23	10889.11
869.55	10839.16
869.87	10887.52
870.19	10860.63
870.51	10808.66
870.83	10821.09
871.15	10774.31
871.469	10867.86
871.789	10803.23
872.109	10779.28
872.428	10740.86
872.748	10662.9
873.067	10621.99
873.386	10667.87
873.706	10666.51
874.025	10537.03
874.344	10582.9
874.663	10606.18
874.982	10550.36
875.301	10553.07
875.62	10513.3
875.939	10546.06
876.258	10506.07
876.577	10430.14
876.896	10499.29
877.214	10423.81
877.533	10452.51
877.852	10441.43
878.17	10378.61
878.489	10387.2
878.807	10372.51
879.125	10394.88
879.444	10367.76
879.762	10359.4
880.08	10234.89
880.398	10294.77
880.716	10243.02
881.034	10265.17
881.352	10256.58
881.67	10176.81
881.988	10202.57
882.306	10112.86
882.624	10109.01
882.941	10094.1
883.259	10107.43
883.577	10052.74
883.894	10008.23
884.212	9960.09
884.529	9996.47
884.846	9967.77
885.164	9930.71
885.481	9919.19
885.798	9937.27
886.115	9795.12
886.432	9841.68
886.75	9811.85
887.067	9801.9
887.383	9748.8
887.7	9786.31
888.017	9709.25
888.334	9717.61
888.651	9679.19
888.967	9685.52
889.284	9548.8
889.6	9602.13
889.917	9536.6
890.233	9530.27
890.55	9499.76
890.866	9487.34
891.182	9439.43
891.498	9455.47
891.815	9417.96
892.131	9394.68
892.447	9359.43
892.763	9285.53
893.079	9291.63
893.395	9244.86
893.71	9302.26
894.026	9181.81
894.342	9196.95
894.657	9138.64
894.973	9107.23
895.289	9117.63
895.604	9084.63
895.92	9036.5
896.235	8966.9
896.55	8954.24
896.865	8933.45
897.181	8980.23
897.496	8910.85
897.811	8841.48
898.126	8794.92
898.441	8806.68
898.756	8764.87
899.071	8690.97
899.386	8748.6
899.7	8598.32
900.015	8582.5
900.33	8517.64
900.644	8546.34
900.959	8581.6
901.273	8494.82
901.588	8434.26
901.902	8435.16
902.216	8414.14
902.531	8388.83
902.845	8376.18
903.159	8345.9
903.473	8317.87
903.787	8215.5
904.101	8170.53
904.415	8197.43
904.729	8194.49
905.042	8102.51
905.356	8145.68
905.67	8007.83
905.984	8051.89
906.297	7987.94
906.611	8008.73
906.924	7946.58
907.237	7966.92
907.551	7892.35
907.864	7874.27
908.177	7848.28
908.491	7813.26
908.804	7727.38
909.117	7691.9
909.43	7672.47
909.743	7614.62
910.056	7685.35
910.368	7619.36
910.681	7617.78
910.994	7589.53
911.307	7500.72
911.619	7531
911.932	7414.4
912.244	7365.58
912.557	7441.74
912.869	7382.53
913.181	7268.64
913.494	7268.64
913.806	7238.35
914.118	7184.34
914.43	7209.66
914.742	7186.83
915.054	7096.21
915.366	7089.66
915.678	7061.64
915.99	7076.55
916.302	7032.94
916.613	6996.33
916.925	6993.16
917.236	6972.37
917.548	6845.6
917.859	6912.94
918.171	6814.19
918.482	6793.62
918.794	6779.84
919.105	6747.97
919.416	6731.93
919.727	6671.36
920.038	6703.45
920.349	6671.59
920.66	6677.47
920.971	6578.71
921.282	6603.57
921.593	6566.28
921.903	6481.76
922.214	6491.03
922.525	6478.15
922.835	6418.72
923.146	6406.51
923.456	6430.01
923.767	6350.02
924.077	6319.06
924.387	6360.41
924.697	6293.52
925.008	6249
925.318	6232.28
925.628	6223.01
925.938	6135.78
926.248	6184.15
926.558	6089.91
926.867	6066.63
927.177	6124.03
927.487	6073.87
927.796	6050.14
928.106	5983.02
928.416	5968.33
928.725	5978.05
929.034	5943.02
929.344	5958.84
929.653	5880.42
929.962	5878.39
930.271	5797.26
930.581	5846.3
930.89	5764.72
931.199	5787.55
931.508	5738.73
931.817	5703.48
932.125	5717.26
932.434	5708
932.743	5705.06
933.051	5620.09
933.36	5639.53
933.669	5554.33
933.977	5576.03
934.286	5555.01
934.594	5559.53
934.902	5536.7
935.21	5495.35
935.519	5496.71
935.827	5395.01
936.135	5372.19
936.443	5357.27
936.751	5364.51
937.059	5312.76
937.367	5318.18
937.674	5292.87
937.982	5314.11
938.29	5256.94
938.597	5233.21
938.905	5268.92
939.213	5152.99
939.52	5134.68
939.827	5093.78
940.135	5115.25
940.442	5030.73
940.749	5109.82
941.056	5062.59
941.363	5053.78
941.67	5030.5
941.977	4965.87
942.284	4950.96
942.591	4982.37
942.898	4919.09
943.205	4934.91
943.511	4903.73
943.818	4901.47
944.125	4835.93
944.431	4803.39
944.738	4796.39
945.044	4764.97
945.35	4744.86
945.657	4733.11
945.963	4757.97
946.269	4719.1
946.575	4705.77
946.881	4632.55
947.187	4653.11
947.493	4625.32
947.799	4632.55
948.105	4569.05
948.41	4556.17
948.716	4583.51
949.022	4567.01
949.327	4510.07
949.633	4443.17
949.938	4454.93
950.244	4466.9
950.549	4409.95
950.854	4418.99
951.16	4395.04
951.465	4377.19
951.77	4321.82
952.075	4349.62
952.38	4308.26
952.685	4312.56
952.99	4277.08
953.294	4244.76
953.599	4224.87
953.904	4259
954.209	4193.92
954.513	4217.42
954.818	4159.57
955.122	4147.36
955.426	4135.84
955.731	4133.58
956.035	4104.43
956.339	4084.31
956.643	4027.59
956.948	4080.25
957.252	4007.48
957.556	4018.33
957.86	3987.37
958.163	3980.36
958.467	3938.55
958.771	3953.24
959.075	3941.94
959.378	3861.04
959.682	3880.03
959.985	3869.18
960.289	3903.3
960.592	3878.44
960.896	3836.18
961.199	3756.64
961.502	3798.45
961.805	3770.42
962.108	3743.98
962.411	3750.31
962.714	3737.43
963.017	3711.67
963.32	3706.92
963.623	3682.06
963.926	3690.88
964.228	3628.73
964.531	3659.01
964.833	3607.26
965.136	3607.04
965.438	3586.25
965.741	3543.54
966.043	3542.86
966.345	3533.59
966.648	3526.81
966.95	3545.12
967.252	3506.7
967.554	3495.63
967.856	3458.79
968.158	3439.13
968.46	3431.22
968.761	3363.2
969.063	3398.68
969.365	3400.26
969.666	3381.06
969.968	3371.79
970.269	3360.72
970.571	3356.88
970.872	3337.89
971.174	3309.87
971.475	3293.15
971.776	3270.55
972.077	3244.34
972.378	3261.51
972.679	3235.3
972.98	3233.71
973.281	3233.94
973.582	3210.89
973.883	3172.7
974.183	3163.89
974.484	3175.18
974.785	3108.97
975.085	3118.92
975.386	3109.88
975.686	3095.41
975.986	3099.03
976.287	3087.28
976.587	3035.75
976.887	3033.49
977.187	3038.47
977.487	3029.65
977.787	2957.56
978.087	2965.92
978.387	2959.6
978.687	2954.63
978.987	2926.15
979.286	2934.29
979.586	2925.47
979.885	2896.32
980.185	2913.5
980.484	2875.53
980.784	2913.5
981.083	2828.53
981.382	2831.24
981.682	2837.34
981.981	2779.04
982.28	2786.49
982.579	2789.66
982.878	2829.88
983.177	2735.42
983.475	2779.26
983.774	2764.8
984.073	2709.43
984.372	2714.63
984.67	2699.94
984.969	2700.62
985.267	2703.56
985.566	2674.41
985.864	2652.71
986.162	2646.16
986.461	2638.7
986.759	2630.11
987.057	2596.44
987.355	2559.61
987.653	2598.48
987.951	2548.76
988.249	2540.85
988.547	2557.57
988.844	2535.2
989.142	2537.69
989.44	2493.85
989.737	2506.28
990.035	2475.99
990.332	2461.53
990.63	2464.47
990.927	2453.85
991.224	2414.3
991.521	2465.37
991.819	2426.5
992.116	2392.61
992.413	2410.91
992.71	2377.47
993.006	2372.49
993.303	2381.99
993.6	2372.04
993.897	2346.73
994.193	2336.79
994.49	2339.27
994.787	2344.25
995.083	2296.79
995.379	2319.61
995.676	2259.05
995.972	2292.95
996.268	2284.81
996.565	2218.6
996.861	2221.76
997.157	2199.62
997.453	2205.27
997.749	2205.49
998.044	2190.35
998.34	2193.29
998.636	2189.9
998.932	2163.91
999.227	2111.94
999.523	2163.01
999.818	2150.13
1000.114	2093.18
1000.409	2121.2
1000.704	2046.63
1001	2106.06
1001.295	2064.03
1001.59	2042.79
1001.885	2040.98
1002.18	2033.75
1002.475	2063.12
1002.77	2010.47
1003.065	2009.79
1003.359	1997.59
1003.654	1989.91
1003.949	1977.25
1004.243	1959.4
1004.538	1932.96
1004.832	1913.07
1005.127	1936.12
1005.421	1909.46
1005.715	1913.3
1006.009	1876.91
1006.304	1876.01
1006.598	1880.98
1006.892	1886.86
1007.186	1853.19
1007.48	1859.74
1007.773	1853.86
1008.067	1807.31
1008.361	1840.08
1008.655	1783.13
1008.948	1796.69
1009.242	1792.4
1009.535	1769.57
1009.829	1745.62
1010.122	1729.12
1010.415	1749.69
1010.708	1749.46
1011.001	1716.69
1011.295	1717.6
1011.588	1699.74
1011.881	1695
1012.173	1675.79
1012.466	1676.02
1012.759	1668.78
1013.052	1638.28
1013.344	1635.34
1013.637	1636.92
1013.93	1640.31
1014.222	1638.5
1014.514	1618.39
1014.807	1598.5
1015.099	1604.38
1015.391	1590.37
1015.683	1565.96
1015.976	1592.4
1016.268	1567.09
1016.56	1544.95
1016.851	1560.76
1017.143	1537.04
1017.435	1519.86
1017.727	1491.16
1018.018	1485.74
1018.31	1502.01
1018.602	1485.51
1018.893	1471.5
1019.185	1468.11
1019.476	1436.02
1019.767	1432.86
1020.058	1427.21
1020.35	1423.14
1020.641	1386.31
1020.932	1411.16
1021.223	1390.15
1021.514	1402.8
1021.804	1365.51
1022.095	1370.94
1022.386	1370.71
1022.677	1355.8
1022.967	1361.22
1023.258	1306.76
1023.548	1335.46
1023.839	1330.04
1024.129	1288.23
1024.419	1292.52
1024.709	1262.69
1025	1292.07
1025.29	1231.51
1025.58	1276.93
1025.87	1247.33
1026.16	1227.89
1026.449	1223.37
1026.739	1224.73
1027.029	1223.6
1027.319	1220.66
1027.608	1209.59
1027.898	1207.55
1028.187	1180.66
1028.477	1181.34
1028.766	1184.73
1029.055	1127.56
1029.344	1173.2
1029.634	1149.25
1029.923	1152.64
1030.212	1127.33
1030.501	1138.63
1030.79	1106.54
1031.078	1122.81
1031.367	1105.41
1031.656	1107.89
1031.945	1081
1032.233	1088.01
1032.522	1069.93
1032.81	1086.88
1033.099	1040.55
1033.387	1061.12
1033.675	1054.56
1033.963	1063.38
1034.251	1060.66
1034.54	1030.83
1034.828	1036.71
1035.116	1047.11
1035.403	988.35
1035.691	1003.94
1035.979	1009.14
1036.267	990.16
1036.554	994.68
1036.842	1024.96
1037.129	984.06
1037.417	955.13
1037.704	966.2
1037.992	965.07
1038.279	936.37
1038.566	955.81
1038.853	955.81
1039.14	955.81
