Data from hue_140_FLMS001491_00037.txt Node
Date: Tue Feb 07 16:55:50 GMT 2017
User: dcchb
Spectrometer: FLMS00149
Trigger mode: 0
Integration Time (sec): 2.000000E-2
Scans to average: 10
Electric dark correction enabled: true
Nonlinearity correction enabled: false
Boxcar width: 0
XAxis mode: Wavelengths
Number of Pixels in Spectrum: 2048
>>>>>Begin Spectral Data<<<<<
341.393	-12.33
341.776	-12.33
342.16	-12.33
342.543	-64.31
342.927	-76.96
343.31	-59.79
343.693	-76.28
344.077	-66.11
344.46	-61.82
344.843	-59.11
345.226	-36.96
345.61	-35.15
345.993	-21.14
346.376	-10.97
346.759	24.73
347.142	46.88
347.525	50.94
347.908	38.74
348.291	69.02
348.674	94.11
349.057	102.92
349.44	136.14
349.823	127.33
350.206	173.2
350.588	192.64
350.971	196.03
351.354	207.1
351.737	234.44
352.119	246.87
352.502	274.22
352.884	286.19
353.267	293.2
353.65	295.68
354.032	275.57
354.414	304.5
354.797	290.26
355.179	330.49
355.562	324.16
355.944	307.66
356.326	333.42
356.709	335.68
357.091	325.51
357.473	337.04
357.855	342.69
358.238	341.33
358.62	333.65
359.002	317.15
359.384	339.3
359.766	341.56
360.148	331.84
360.53	338.17
360.912	326.42
361.294	341.33
361.676	353.08
362.057	320.99
362.439	342.24
362.821	332.52
363.203	338.4
363.584	298.85
363.966	315.12
364.348	326.87
364.729	333.2
365.111	320.54
365.493	307.44
365.874	293.65
366.256	328.68
366.637	310.37
367.019	304.72
367.4	314.21
367.781	297.49
368.163	318.28
368.544	306.98
368.925	320.99
369.306	324.61
369.688	305.4
370.069	316.7
370.45	324.38
370.831	314.44
371.212	332.75
371.593	325.06
371.974	319.41
372.355	315.57
372.736	316.02
373.117	323.93
373.498	329.81
373.879	320.77
374.26	322.8
374.641	295.46
375.021	337.72
375.402	331.84
375.783	328.9
376.163	329.58
376.544	334.78
376.925	322.58
377.305	325.74
377.686	327.1
378.066	311.05
378.447	330.03
378.827	321.9
379.208	317.6
379.588	333.2
379.968	343.59
380.349	334.33
380.729	346.53
381.109	345.17
381.489	351.95
381.87	345.4
382.25	359.86
382.63	355.34
383.01	352.86
383.39	350.82
383.77	338.4
384.15	343.82
384.53	352.86
384.91	358.06
385.29	341.56
385.67	334.55
386.049	360.54
386.429	359.86
386.809	362.58
387.189	344.04
387.568	372.97
387.948	350.6
388.328	378.17
388.707	362.8
389.087	372.52
389.466	399.18
389.846	374.1
390.225	387.43
390.605	383.82
390.984	371.61
391.363	377.49
391.743	380.43
392.122	370.71
392.501	387.66
392.881	390.6
393.26	384.27
393.639	370.94
394.018	378.85
394.397	374.33
394.776	376.13
395.155	383.14
395.534	390.15
395.913	393.53
396.292	400.99
396.671	387.43
397.05	402.35
397.429	401.9
397.808	411.39
398.186	399.41
398.565	398.96
398.944	393.08
399.323	418.17
399.701	391.28
400.08	412.29
400.458	420.65
400.837	399.64
401.215	402.35
401.594	393.08
401.972	416.59
402.351	412.97
402.729	426.53
403.107	422.69
403.486	431.73
403.864	428.34
404.242	431.27
404.62	419.07
404.999	419.75
405.377	445.74
405.755	447.32
406.133	454.1
406.511	453.87
406.889	457.94
407.267	446.19
407.645	440.31
408.023	453.65
408.401	462.46
408.779	473.76
409.156	477.83
409.534	456.36
409.912	464.95
410.29	473.76
410.667	479.18
411.045	459.07
411.422	480.09
411.8	474.66
412.178	501.1
412.555	506.53
412.933	475.79
413.31	467.21
413.687	483.48
414.065	491.84
414.442	501.1
414.819	511.95
415.197	528.45
415.574	508.56
415.951	527.32
416.328	522.12
416.705	533.64
417.082	531.84
417.46	536.58
417.837	529.8
418.214	536.13
418.591	543.14
418.967	546.98
419.344	567.99
419.721	571.16
420.098	547.2
420.475	556.24
420.852	572.29
421.228	563.7
421.605	553.98
421.982	567.99
422.358	572.29
422.735	594.66
423.111	566.64
423.488	589.24
423.864	579.07
424.241	595.11
424.617	611.38
424.994	609.35
425.37	597.37
425.746	588.33
426.123	593.08
426.499	612.96
426.875	598.95
427.251	633.08
427.627	610.7
428.003	642.12
428.379	641.89
428.756	647.09
429.132	641.44
429.507	671.72
429.883	650.25
430.259	675.34
430.635	670.59
431.011	673.75
431.387	685.96
431.763	707.42
432.138	699.29
432.514	710.81
432.89	700.42
433.265	728.89
433.641	729.8
434.016	723.47
434.392	729.35
434.767	767.54
435.143	750.36
435.518	749.91
435.894	779.06
436.269	766.63
436.644	793.75
437.02	781.55
437.395	758.95
437.77	794.88
438.145	801.21
438.52	793.52
438.895	817.7
439.271	831.94
439.646	824.48
440.021	833.98
440.395	837.59
440.77	866.74
441.145	850.7
441.52	857.93
441.895	841.43
442.27	875.33
442.645	871.26
443.019	903.58
443.394	885.5
443.769	863.8
444.143	862.9
444.518	914.65
444.892	887.08
445.267	904.48
445.641	916.46
446.016	919.85
446.39	912.62
446.764	919.85
447.139	935.22
447.513	928.21
447.887	954.2
448.262	927.76
448.636	957.36
449.01	973.18
449.384	968.43
449.758	966.63
450.132	986.06
450.506	1007.98
450.88	968.66
451.254	1007.98
451.628	1013.41
452.002	1009.79
452.376	1040.75
452.75	1045.04
453.123	1024.25
453.497	1060.18
453.871	1063.8
454.244	1068.55
454.618	1083.69
454.992	1098.38
455.365	1110.35
455.739	1117.36
456.112	1162.33
456.486	1149.9
456.859	1148.54
457.232	1172.72
457.606	1162.78
457.979	1181.08
458.352	1224.93
458.725	1208.2
459.099	1243.91
459.472	1252.95
459.845	1263.57
460.218	1280.29
460.591	1312.61
460.964	1295.66
461.337	1333.62
461.71	1335.88
462.083	1391.25
462.456	1378.82
462.829	1384.7
463.201	1386.73
463.574	1395.32
463.947	1413.85
464.32	1452.26
464.692	1484.35
465.065	1478.25
465.438	1543.79
465.81	1530
466.183	1555.09
466.555	1608.64
466.928	1597.35
467.3	1603.45
467.672	1656.33
468.045	1670.11
468.417	1705.36
468.789	1692.48
469.161	1729.09
469.534	1774.74
469.906	1833.72
470.278	1831.01
470.65	1873.27
471.022	1908.52
471.394	1963.21
471.766	1953.04
472.138	2009.09
472.51	2053.15
472.882	2081.63
473.253	2118.91
473.625	2160.49
473.997	2243.88
474.369	2262.86
474.74	2292.02
475.112	2358.68
475.484	2423.76
475.855	2478.23
476.227	2511.9
476.598	2590.77
476.97	2631.67
477.341	2689.75
477.713	2735.85
478.084	2854.71
478.455	2922.96
478.827	2966.12
479.198	3069.4
479.569	3113.24
479.94	3265.55
480.311	3284.98
480.682	3390.07
481.053	3498.76
481.424	3622.83
481.795	3684.52
482.166	3750.73
482.537	3837.29
482.908	3986.66
483.279	4061.69
483.65	4165.64
484.021	4316.14
484.391	4472.52
484.762	4506.2
485.133	4666.64
485.503	4734.44
485.874	4920.87
486.244	5038.61
486.615	5142.79
486.985	5235.22
487.356	5379.17
487.726	5505.26
488.097	5692.15
488.467	5776.44
488.837	5906.38
489.207	6095.98
489.578	6212.36
489.948	6399.48
490.318	6521.06
490.688	6576.2
491.058	6783.2
491.428	6975.06
491.798	7134.37
492.168	7300.47
492.538	7380.02
492.908	7568.26
493.278	7723.74
493.648	7810.51
494.017	8000.79
494.387	8100
494.757	8207.79
495.126	8420.67
495.496	8482.14
495.866	8661.79
496.235	8798.74
496.605	8942.01
496.974	9045.74
497.344	9206.64
497.713	9335.45
498.082	9487.53
498.452	9559.17
498.821	9701.76
499.19	9782.21
499.559	9964.13
499.928	9996.9
500.298	10138.14
500.667	10252.26
501.036	10327.74
501.405	10430.56
501.774	10557.56
502.143	10682.08
502.512	10719.37
502.88	10894.95
503.249	10894.95
503.618	11075.97
503.987	11081.84
504.356	11218.79
504.724	11297.43
505.093	11412.23
505.462	11406.35
505.83	11608.83
506.199	11646.8
506.567	11851.31
506.936	11832.1
507.304	12008.6
507.672	12135.6
508.041	12072.78
508.409	12243.84
508.777	12317.06
509.145	12414.01
509.514	12376.5
509.882	12501.47
510.25	12544.18
510.618	12644.06
510.986	12669.6
511.354	12758.86
511.722	12795.92
512.09	12877.05
512.458	12937.16
512.826	13027.78
513.193	13074.78
513.561	13126.76
513.929	13243.82
514.297	13234.33
514.664	13333.08
515.032	13356.36
515.4	13493.08
515.767	13525.39
516.135	13547.31
516.502	13361.1
516.869	13657.59
517.237	13585.05
517.604	13592.96
517.972	13736.01
518.339	13719.29
518.706	13768.55
519.073	13830.92
519.44	13764.48
519.808	13997.24
520.175	13854.88
520.542	14029.56
520.909	14030.69
521.276	14015.55
521.643	14093.29
522.009	14175.77
522.376	14178.94
522.743	14270.01
523.11	14325.37
523.477	14487.4
523.843	14405.14
524.21	14481.07
524.577	14522.43
524.943	14518.14
525.31	14619.83
525.676	14621.41
526.043	14617.57
526.409	14548.19
526.776	14699.37
527.142	14714.97
527.508	14775.98
527.874	14705.47
528.241	14834.74
528.607	14786.15
528.973	14822.53
529.339	14795.19
529.705	14824.79
530.071	14943.21
530.437	14874.28
530.803	14918.8
531.169	14968.07
531.535	14831.35
531.901	14811.69
532.267	14885.13
532.632	14943.89
532.998	14868.18
533.364	14887.62
533.73	14945.02
534.095	14932.36
534.461	14840.84
534.826	14825.47
535.192	14897.79
535.557	14880.84
535.923	14886.04
536.288	14808.52
536.653	14826.83
537.019	14649.43
537.384	14768.07
537.749	14768.98
538.114	14662.54
538.479	14666.15
538.845	14664.8
539.21	14485.82
539.575	14597.91
539.94	14465.48
540.305	14535.31
540.67	14499.38
541.034	14500.28
541.399	14437.23
541.764	14528.08
542.129	14366.95
542.494	14379.83
542.858	14286.73
543.223	14232.04
543.587	14266.84
543.952	14252.61
544.316	14180.97
544.681	14161.53
545.045	14167.41
545.41	14130.8
545.774	14190.69
546.138	14063.23
546.503	14041.76
546.867	14015.55
547.231	14121.99
547.595	14001.31
547.959	13999.96
548.324	13916.12
548.688	13878.38
549.052	13873.86
549.416	13704.82
549.779	13766.97
550.143	13760.42
550.507	13780.3
550.871	13754.09
551.235	13628.67
551.599	13663.24
551.962	13686.07
552.326	13581.89
552.689	13643.81
553.053	13451.5
553.417	13529.46
553.78	13659.85
554.143	13456.47
554.507	13449.46
554.87	13519.29
555.234	13489.24
555.597	13427.99
555.96	13450.59
556.323	13441.1
556.686	13381.22
557.05	13493.76
557.413	13384.61
557.776	13328.56
558.139	13405.17
558.502	13357.71
558.865	13406.3
559.228	13430.71
559.59	13434.1
559.953	13356.58
560.316	13509.35
560.679	13402.46
561.041	13430.03
561.404	13499.18
561.767	13406.3
562.129	13426.86
562.492	13568.33
562.854	13508.22
563.217	13442.91
563.579	13446.52
563.941	13496.92
564.304	13490.82
564.666	13565.84
565.028	13540.53
565.39	13512.29
565.753	13617.82
566.115	13649.68
566.477	13630.93
566.839	13515.45
567.201	13670.7
567.563	13630.7
567.925	13728.33
568.287	13660.08
568.648	13620.31
569.01	13714.09
569.372	13793.18
569.734	13639.51
570.095	13693.98
570.457	13725.16
570.819	13732.17
571.18	13719.96
571.542	13837.48
571.903	13742.34
572.265	13763.13
572.626	13929.9
572.987	13833.86
573.349	13823.46
573.71	13910.92
574.071	13934.2
574.432	13857.81
574.794	14035.44
575.155	13913.41
575.516	13917.93
575.877	13962.9
576.238	14025.04
576.599	14052.84
576.96	13972.61
577.32	13914.76
577.681	13997.92
578.042	14048.54
578.403	13967.19
578.763	14052.38
579.124	14015.1
579.485	14055.77
579.845	14029.56
580.206	13973.06
580.566	14062.1
580.927	13921.99
581.287	14116.79
581.648	14037.02
582.008	14061.42
582.368	14048.32
582.728	14041.31
583.089	13982.78
583.449	13976
583.809	13954.53
584.169	14004.02
584.529	13955.89
584.889	14105.04
585.249	13961.99
585.609	13940.52
585.969	14017.13
586.329	13924.03
586.688	13860.98
587.048	13993.18
587.408	13897.81
587.768	13952.73
588.127	13865.72
588.487	13810.13
588.846	13868.89
589.206	13802.9
589.565	13847.87
589.925	13885.84
590.284	13879.06
590.643	13867.3
591.003	13879.73
591.362	13902.33
591.721	13886.97
592.08	13825.5
592.44	13860.53
592.799	13762.22
593.158	13814.2
593.517	13761.32
593.876	13848.32
594.235	13720.64
594.593	13734.2
594.952	13801.09
595.311	13726.97
595.67	13706.18
596.029	13815.1
596.387	13848.55
596.746	13824.82
597.104	13788.89
597.463	13735.33
597.822	13808.55
598.18	13700.53
598.538	13727.87
598.897	13724.94
599.255	13773.3
599.613	13836.57
599.972	13754.09
600.33	13742.56
600.688	13721.09
601.046	13719.74
601.404	13791.83
601.762	13745.73
602.12	13753.18
602.478	13739.62
602.836	13779.62
603.194	13800.19
603.552	13748.66
603.91	13699.4
604.268	13712.96
604.625	13746.18
604.983	13744.6
605.341	13722.68
605.698	13843.58
606.056	13807.19
606.413	13731.72
606.771	13805.61
607.128	13790.7
607.485	13726.74
607.843	13744.37
608.2	13777.14
608.557	13825.27
608.914	13823.69
609.272	13871.15
609.629	13877.25
609.986	13898.72
610.343	13852.84
610.7	13976
611.057	13958.83
611.414	13913.18
611.771	13910.69
612.127	13932.61
612.484	13970.35
612.841	14070.01
613.198	13938.26
613.554	13986.62
613.911	14008.32
614.267	13958.38
614.624	13993.18
614.98	13959.96
615.337	14075.43
615.693	13949.11
616.05	14000.86
616.406	14114.76
616.762	14032.72
617.118	13997.24
617.475	14032.95
617.831	14112.04
618.187	14058.49
618.543	14075.66
618.899	14223.68
619.255	14156.11
619.611	14087.86
619.967	14177.13
620.323	14181.42
620.678	14136.68
621.034	14133.06
621.39	14130.57
621.746	14188.65
622.101	14299.84
622.457	14132.16
622.812	14157.24
623.168	14162.21
623.523	14226.17
623.879	14251.93
624.234	14189.78
624.589	14162.66
624.945	14148.2
625.3	14192.04
625.655	14152.95
626.01	14135.77
626.365	14190.01
626.72	14185.71
627.075	14160.86
627.43	14174.42
627.785	14120.63
628.14	14132.83
628.495	14191.59
628.85	14222.55
629.205	14150.24
629.559	14197.47
629.914	14083.12
630.269	14120.41
630.623	14082.44
630.978	14069.79
631.332	14120.18
631.687	14146.17
632.041	14096.68
632.396	14100.07
632.75	14089.22
633.104	14047.87
633.459	13936
633.813	14042.67
634.167	13918.38
634.521	13982.1
634.875	13846.06
635.229	13945.49
635.583	13881.99
635.937	13813.29
636.291	13786.18
636.645	13850.58
636.999	13821.2
637.352	13902.33
637.706	13770.58
638.06	13849.9
638.413	13845.61
638.767	13702.79
639.121	13755.22
639.474	13663.69
639.828	13674.77
640.181	13714.09
640.534	13690.36
640.888	13678.16
641.241	13570.59
641.594	13618.95
641.947	13626.41
642.301	13625.28
642.654	13647.42
643.007	13678.16
643.36	13567.2
643.713	13552.28
644.066	13602.45
644.419	13546.41
644.771	13560.87
645.124	13345.96
645.477	13267.32
645.83	13218.73
646.182	13232.75
646.535	13153.88
646.888	13166.76
647.24	13109.81
647.593	13213.54
647.945	13133.54
648.298	13152.97
648.65	13067.78
649.002	13075.46
649.355	13155.23
649.707	13105.74
650.059	13131.28
650.411	13255.57
650.763	13288.34
651.115	13443.36
651.467	13347.54
651.819	13407.66
652.171	13351.39
652.523	13341.44
652.875	13336.25
653.227	13309.13
653.578	13373.53
653.93	13407.66
654.282	13241.11
654.633	13380.31
654.985	13292.63
655.337	13345.96
655.688	13390.03
656.039	13421.21
656.391	13273.42
656.742	13359.3
657.094	13404.27
657.445	13381.22
657.796	13339.86
658.147	13345.96
658.498	13333.76
658.849	13399.97
659.2	13308.68
659.551	13392.52
659.902	13365.17
660.253	13343.48
660.604	13342.35
660.955	13329.47
661.306	13378.05
661.656	13374.89
662.007	13408.56
662.358	13460.76
662.708	13386.41
663.059	13399.75
663.409	13366.53
663.76	13447.88
664.11	13361.56
664.461	13355.45
664.811	13404.94
665.161	13409.46
665.511	13368.56
665.862	13352.29
666.212	13449.01
666.562	13444.49
666.912	13310.94
667.262	13374.89
667.612	13360.88
667.962	13420.08
668.312	13435.45
668.662	13468.9
669.011	13355.23
669.361	13303.48
669.711	13352.29
670.06	13440.42
670.41	13321.33
670.76	13312.29
671.109	13376.47
671.459	13387.54
671.808	13293.31
672.157	13448.33
672.507	13269.13
672.856	13343.25
673.205	13317.04
673.554	13267.09
673.904	13229.13
674.253	13340.54
674.602	13220.09
674.951	13064.39
675.3	12987.55
675.649	13239.07
675.998	13225.74
676.346	13196.81
676.695	13286.53
677.044	13085.18
677.393	13230.26
677.741	13194.78
678.09	13185.29
678.438	13132.86
678.787	13117.95
679.135	13112.07
679.484	13009.7
679.832	13065.29
680.181	12900.32
680.529	13021.23
680.877	13001.79
681.225	12955.24
681.573	13046.99
681.922	12928.8
682.27	12873.21
682.618	12908.23
682.966	12841.12
683.314	12879.08
683.661	12806.32
684.009	12792.3
684.357	12768.8
684.705	12787.79
685.053	12710.95
685.4	12734
685.748	12637.96
686.095	12642.48
686.443	12574.46
686.79	12585.76
687.138	12562.48
687.485	12554.35
687.832	12554.8
688.18	12558.41
688.527	12437.29
688.874	12454.91
689.221	12365.65
689.568	12329.72
689.915	12271.87
690.262	12351.64
690.609	12209.27
690.956	12181.25
691.303	12188.7
691.65	12160.01
691.997	12146.9
692.344	11998.2
692.69	12024.87
693.037	11954.36
693.383	11886.79
693.73	11944.64
694.077	11844.99
694.423	11861.93
694.769	11763.18
695.116	11819.45
695.462	11748.94
695.808	11695.84
696.155	11713.92
696.501	11639.34
696.847	11614.26
697.193	11480.7
697.539	11534.94
697.885	11439.57
698.231	11426.24
698.577	11430.31
698.923	11390.53
699.269	11333.81
699.614	11312.57
699.96	11245
700.306	11258.33
700.651	11172.46
700.997	11136.08
701.342	11101.28
701.688	11048.62
702.033	10970.88
702.379	11020.37
702.724	10961.17
703.069	10998.91
703.415	10866.48
703.76	10885.24
704.105	10857.21
704.45	10774.05
704.795	10754.39
705.14	10707.39
705.485	10698.57
705.83	10654.73
706.175	10657.45
706.52	10706.71
706.865	10555.3
707.209	10499.26
707.554	10546.94
707.899	10531.57
708.243	10475.08
708.588	10442.08
708.932	10347.4
709.277	10342.65
709.621	10307.62
709.966	10260.39
710.31	10281.86
710.654	10181.75
710.998	10205.93
711.342	10137.01
711.687	10195.54
712.031	10127.74
712.375	10073.51
712.719	10097.01
713.063	10058.82
713.407	10068.08
713.75	10012.04
714.094	10050.23
714.438	9960.74
714.782	10044.81
715.125	9944.24
715.469	9969.1
715.812	9929.78
716.156	9821.08
716.499	9910.35
716.843	9913.28
717.186	9896.34
717.53	9900.86
717.873	9810.01
718.216	9835.77
718.559	9781.99
718.902	9690.24
719.246	9767.98
719.589	9728.88
719.932	9725.04
720.275	9686.85
720.617	9658.6
720.96	9677.81
721.303	9628.09
721.646	9662.9
721.989	9582.22
722.331	9638.72
722.674	9635.55
723.016	9692.5
723.359	9592.16
723.701	9631.94
724.044	9551.71
724.386	9507.19
724.729	9625.61
725.071	9600.07
725.413	9518.49
725.755	9550.36
726.097	9513.3
726.439	9440.98
726.782	9491.15
727.124	9515.78
727.465	9481.66
727.807	9468.78
728.149	9462.9
728.491	9492.28
728.833	9492.05
729.175	9416.35
729.516	9391.49
729.858	9435.33
730.199	9466.52
730.541	9417.48
730.882	9411.6
731.224	9436.46
731.565	9352.62
731.906	9448.21
732.248	9418.38
732.589	9383.58
732.93	9404.82
733.271	9375.67
733.612	9433.3
733.953	9387.42
734.294	9377.25
734.635	9365.28
734.976	9509.68
735.317	9383.81
735.658	9356.46
735.999	9363.92
736.339	9365.73
736.68	9414.31
737.021	9407.54
737.361	9377.48
737.702	9422.45
738.042	9398.27
738.383	9403.24
738.723	9419.96
739.063	9393.75
739.404	9416.57
739.744	9391.26
740.084	9437.59
740.424	9449.12
740.764	9541.99
741.104	9504.26
741.444	9386.07
741.784	9435.33
742.124	9512.17
742.464	9494.99
742.804	9530.7
743.143	9485.05
743.483	9553.29
743.823	9549
744.162	9538.15
744.502	9595.33
744.841	9633.07
745.181	9764.59
745.52	9626.06
745.86	9702.22
746.199	9759.84
746.538	9743.8
746.877	9806.85
747.216	9903.12
747.556	9985.15
747.895	9953.51
748.234	10010.68
748.573	10108.76
748.911	10096.1
749.25	10160.96
749.589	10239.38
749.928	10304.69
750.267	10429.43
750.605	10454.74
750.944	10429.43
751.283	10561.63
751.621	10732.92
751.96	10714.17
752.298	10836.65
752.636	10889.98
752.975	11024.22
753.313	11061.73
753.651	11232.8
753.989	11341.27
754.327	11408.61
754.666	11538.55
755.004	11705.78
755.342	11777.42
755.679	11993.23
756.017	12048.6
756.355	12297.63
756.693	12316.16
757.031	12499.88
757.368	12679.09
757.706	12709.6
758.044	12812.87
758.381	13153.88
758.719	13246.3
759.056	13315
759.394	13562.45
759.731	13667.99
760.068	13899.85
760.405	14021.2
760.743	14121.08
761.08	14380.74
761.417	14540.73
761.754	14713.84
762.091	14884.23
762.428	14995.41
762.765	15046.26
763.102	15379.36
763.438	15483.53
763.775	15615.73
764.112	15865.44
764.449	16069.73
764.785	16206.45
765.122	16323.74
765.458	16444.41
765.795	16525.77
766.131	16803.27
766.467	16894.34
766.804	17059.76
767.14	17090.5
767.476	17439.87
767.812	17424.95
768.148	17666.53
768.485	17787.43
768.821	17833.75
769.157	18014.09
769.492	18091.15
769.828	18309
770.164	18199.39
770.5	18306.51
770.836	18521.87
771.171	18647.07
771.507	18697.01
771.842	18740.17
772.178	18925.93
772.513	19027.17
772.849	19005.02
773.184	19040.05
773.519	19235.98
773.855	19302.19
774.19	19237.56
774.525	19377.67
774.86	19440.27
775.195	19562.75
775.53	19577.89
775.865	19607.04
776.2	19614.5
776.535	19583.54
776.87	19640.49
777.205	19717.09
777.539	19759.35
777.874	19898.78
778.209	19747.15
778.543	19877.99
778.878	19769.3
779.212	19823.98
779.547	19780.6
779.881	19984.66
780.215	19947.37
780.55	20080.93
780.884	19867.37
781.218	19948.5
781.552	20075.73
781.886	19965.68
782.22	19969.29
782.554	19923.19
782.888	19827.6
783.222	19809.52
783.556	19822.85
783.889	19816.53
784.223	19716.87
784.557	19785.57
784.89	19814.49
785.224	19770.43
785.557	19657.89
785.891	19548.96
786.224	19692.24
786.558	19680.71
786.891	19589.19
787.224	19572.92
787.557	19570.88
787.891	19561.62
788.224	19459.93
788.557	19557.1
788.89	19471.23
789.223	19509.19
789.556	19360.27
789.888	19329.31
790.221	19293.15
790.554	19241.17
790.887	19228.29
791.219	19313.94
791.552	19254.51
791.884	19106.04
792.217	19244.79
792.549	19072.14
792.882	19024.23
793.214	18971.35
793.546	18986.94
793.879	18875.53
794.211	18869.89
794.543	18913.73
794.875	18874.86
795.207	18946.72
795.539	18839.6
795.871	18886.83
796.203	18674.18
796.535	18688.2
796.867	18621.53
797.198	18563
797.53	18592.83
797.862	18488.65
798.193	18534.75
798.525	18436
798.856	18446.17
799.188	18264.03
799.519	18180.19
799.85	18076.01
800.182	18229.45
800.513	18173.86
800.844	18023.13
801.175	18099.28
801.506	18100.87
801.837	18026.97
802.168	17935.9
802.499	17927.54
802.83	17842.12
803.161	17686.41
803.491	17812.74
803.822	17772.96
804.153	17731.38
804.483	17632.86
804.814	17544.27
805.145	17568.22
805.475	17514.67
805.805	17505.85
806.136	17481
806.466	17468.34
806.796	17473.76
807.126	17311.96
807.457	17254.33
807.787	17311.96
808.117	17244.17
808.447	17237.84
808.777	17146.31
809.107	17031.52
809.436	17128.69
809.766	17023.83
810.096	17034.91
810.426	17011.85
810.755	17035.81
811.085	16874.01
811.414	16925.76
811.744	16773.22
812.073	16830.62
812.403	16709.49
812.732	16742.26
813.061	16648.02
813.39	16672.88
813.719	16576.39
814.049	16671.98
814.378	16485.77
814.707	16461.59
815.036	16461.36
815.365	16439.21
815.693	16239.67
816.022	16340.46
816.351	16373.91
816.68	16177.75
817.008	16343.4
817.337	16169.62
817.665	16114.03
817.994	16135.27
818.322	16166.68
818.651	16027.7
818.979	15991.77
819.307	16053.69
819.636	16015.95
819.964	15908.38
820.292	15998.55
820.62	15956.97
820.948	15928.04
821.276	15946.12
821.604	15889.17
821.932	15856.63
822.259	15967.36
822.587	15968.72
822.915	15804.2
823.243	15921.94
823.57	15870.87
823.898	15852.11
824.225	15876.29
824.553	15882.85
824.88	15877.42
825.207	15958.1
825.535	15876.74
825.862	15929.4
826.189	15841.49
826.516	15937.98
826.843	16003.97
827.17	15954.93
827.497	15995.84
827.824	15899.79
828.151	15959.45
828.478	15904.54
828.805	15985.89
829.131	15874.26
829.458	15960.58
829.785	15878.33
830.111	15888.72
830.438	15867.25
830.764	15886.23
831.09	15991.77
831.417	15741.83
831.743	15958.1
832.069	15910.87
832.395	15753.58
832.722	15896.63
833.048	15897.76
833.374	15791.1
833.7	15779.57
834.026	15781.15
834.351	15843.98
834.677	15754.03
835.003	15820.25
835.329	15754.03
835.654	15735.96
835.98	15663.87
836.306	15725.34
836.631	15688.05
836.956	15714.71
837.282	15721.04
837.607	15557.66
837.932	15635.85
838.258	15609.41
838.583	15622.74
838.908	15484.66
839.233	15510.43
839.558	15506.36
839.883	15374.84
840.208	15486.02
840.533	15374.38
840.858	15407.83
841.182	15344.1
841.507	15272.69
841.832	15148.63
842.156	15252.58
842.481	15298
842.805	15259.13
843.13	15161.06
843.454	15053.26
843.778	15044.9
844.103	14983.21
844.427	15000.38
844.751	14984.11
845.075	14900.95
845.399	15019.59
845.723	14875.41
846.047	14886.49
846.371	14719.94
846.695	14726.04
847.019	14547.74
847.343	14545.48
847.666	14529.66
847.99	14434.3
848.313	14407.18
848.637	14292.38
848.96	14288.08
849.284	14251.02
849.607	14164.92
849.931	14097.36
850.254	13993.86
850.577	13953.63
850.9	13844.48
851.223	13865.95
851.546	13811.49
851.869	13812.17
852.192	13758.16
852.515	13598.39
852.838	13573.53
853.161	13628.89
853.483	13531.72
853.806	13384.15
854.129	13434.77
854.451	13416.92
854.774	13299.18
855.096	13234.33
855.419	13284.95
855.741	13233.88
856.063	13178.51
856.385	13065.07
856.708	13111.84
857.03	13026.42
857.352	13039.53
857.674	12969.7
857.996	12976.93
858.318	12768.35
858.64	12858.52
858.961	12863.94
859.283	12785.3
859.605	12826.43
859.926	12792.76
860.248	12700.1
860.57	12646.09
860.891	12645.87
861.212	12641.57
861.534	12597.51
861.855	12546.89
862.176	12587.34
862.498	12541.92
862.819	12526.32
863.14	12463.95
863.461	12407
863.782	12348.02
864.103	12364.97
864.424	12334.24
864.745	12383.5
865.065	12331.07
865.386	12157.75
865.707	12254.47
866.027	12275.71
866.348	12163.39
866.668	12204.3
866.989	12143.51
867.309	12107.35
867.63	12185.32
867.95	12082.27
868.27	12044.08
868.59	12076.62
868.91	12022.61
869.23	12051.53
869.55	11938.09
869.87	12000.24
870.19	12028.03
870.51	11913.01
870.83	12013.79
871.15	11909.16
871.469	11913.23
871.789	11920.69
872.109	11931.76
872.428	11785.55
872.748	11781.03
873.067	11827.13
873.386	11752.11
873.706	11772.67
874.025	11697.42
874.344	11681.83
874.663	11702.16
874.982	11606.57
875.301	11677.76
875.62	11611.54
875.939	11677.76
876.258	11668.04
876.577	11592.11
876.896	11599.34
877.214	11549.85
877.533	11551.43
877.852	11573.35
878.17	11491.55
878.489	11522.96
878.807	11518.67
879.125	11439.12
879.444	11441.61
879.762	11376.75
880.08	11415.39
880.398	11317.54
880.716	11452
881.034	11327.48
881.352	11279.8
881.67	11242.52
881.988	11257.88
882.306	11269.18
882.624	11168.17
882.941	11111.22
883.259	11141.05
883.577	11141.73
883.894	11123.87
884.212	11072.8
884.529	11073.03
884.846	11000.04
885.164	10923.43
885.481	10884.56
885.798	10971.79
886.115	10856.54
886.432	10834.39
886.75	10836.65
887.067	10810.21
887.383	10831.9
887.7	10807.5
888.017	10760.49
888.334	10753.26
888.651	10701.29
888.967	10615.19
889.284	10638.01
889.6	10619.93
889.917	10485.7
890.233	10577.9
890.55	10495.19
890.866	10539.26
891.182	10456.1
891.498	10428.07
891.815	10377.91
892.131	10346.04
892.447	10287.96
892.763	10243.9
893.079	10226.5
893.395	10182.2
893.71	10149.21
894.026	10148.53
894.342	10146.72
894.657	10054.52
894.973	10046.16
895.289	10026.28
895.604	9997.8
895.92	9992.6
896.235	9880.74
896.55	9974.75
896.865	9911.7
897.181	9866.73
897.496	9915.09
897.811	9781.99
898.126	9754.42
898.441	9697.92
898.756	9656.57
899.071	9583.12
899.386	9680.52
899.7	9572.28
900.015	9535.67
900.33	9480.75
900.644	9482.79
900.959	9426.74
901.273	9428.1
901.588	9340.87
901.902	9233.75
902.216	9267.65
902.531	9285.73
902.845	9292.96
903.159	9156.69
903.473	9127.32
903.787	9084.38
904.101	9122.34
904.415	9072.63
904.729	9012.52
905.042	8977.49
905.356	8964.83
905.67	8911.95
905.984	8878.28
906.297	8890.71
906.611	8779.08
906.924	8778.85
907.237	8723.26
907.551	8749.02
907.864	8641.91
908.177	8649.36
908.491	8645.97
908.804	8605.75
909.117	8487.33
909.43	8507.67
909.743	8458.86
910.056	8489.82
910.368	8387.22
910.681	8388.13
910.994	8377.51
911.307	8316.04
911.619	8189.94
911.932	8294.12
912.244	8124.18
912.557	8149.04
912.869	8075.82
913.181	8091.41
913.494	8095.03
913.806	8037.63
914.118	8005.76
914.43	7952.88
914.742	7947.23
915.054	7903.62
915.366	7865.88
915.678	7822.49
915.99	7768.03
916.302	7715.83
916.613	7744.75
916.925	7682.16
917.236	7703.4
917.548	7599
917.859	7634.25
918.171	7595.38
918.482	7514.93
918.794	7505.89
919.105	7495.04
919.416	7411.88
919.727	7380.92
920.038	7413.69
920.349	7335.5
920.66	7303.41
920.971	7333.69
921.282	7276.74
921.593	7229.97
921.903	7229.06
922.214	7202.62
922.525	7121.49
922.835	7117.88
923.146	7071.78
923.456	6987.71
923.767	7009.86
924.077	7013.25
924.387	6968.5
924.697	6899.58
925.008	6973.7
925.318	6876.53
925.628	6858.9
925.938	6840.37
926.248	6810.09
926.558	6749.75
926.867	6772.12
927.177	6680.38
927.487	6648.06
927.796	6683.54
928.106	6621.62
928.416	6599.7
928.725	6624.11
929.034	6508.63
929.344	6564.67
929.653	6542.07
929.962	6392.25
930.271	6409.65
930.581	6364.9
930.89	6386.82
931.199	6383.21
931.508	6333.72
931.817	6320.38
932.125	6356.54
932.434	6273.61
932.743	6184.12
933.051	6207.17
933.36	6148.19
933.669	6169.2
933.977	6150.67
934.286	6054.85
934.594	6056.21
934.902	6050.34
935.21	6058.47
935.519	5961.98
935.827	5962.2
936.135	5943.9
936.443	5872.03
936.751	5905.03
937.059	5884.01
937.367	5823.45
937.674	5793.17
937.982	5824.13
938.29	5763.34
938.597	5762.43
938.905	5663.45
939.213	5664.36
939.52	5623.45
939.827	5697.12
940.135	5613.96
940.442	5625.04
940.749	5599.27
941.056	5581.87
941.363	5548.65
941.67	5531.48
941.977	5503.46
942.284	5445.83
942.591	5470.92
942.898	5403.8
943.205	5412.61
943.511	5401.09
943.818	5344.14
944.125	5300.75
944.431	5264.59
944.738	5305.72
945.044	5260.3
945.35	5258.49
945.657	5181.43
945.963	5165.39
946.269	5118.16
946.575	5110.92
946.881	5119.96
947.187	5100.98
947.493	5090.59
947.799	5050.59
948.105	5018.95
948.41	4984.15
948.716	5024.15
949.022	4951.38
949.327	4939.4
949.633	4882.68
949.938	4884.49
950.244	4940.53
950.549	4860.76
950.854	4818.96
951.16	4819.18
951.465	4763.59
951.77	4762.91
952.075	4720.43
952.38	4772.63
952.685	4702.12
952.99	4659.86
953.294	4665.51
953.599	4649.47
953.904	4631.62
954.209	4624.38
954.513	4664.38
954.818	4567.21
955.122	4587.55
955.426	4518.85
955.731	4458.74
956.035	4491.05
956.339	4432.3
956.643	4489.25
956.948	4406.76
957.252	4414.45
957.556	4333.77
957.86	4366.54
958.163	4364.05
958.467	4331.06
958.771	4293.77
959.075	4329.25
959.378	4272.08
959.682	4241.57
959.985	4216.71
960.289	4195.24
960.592	4248.12
960.896	4225.75
961.199	4179.65
961.502	4210.61
961.805	4101.69
962.108	4094.68
962.411	4060.78
962.714	4045.19
963.017	4068.24
963.32	4075.92
963.623	4043.83
963.926	4040.22
964.228	3974.46
964.531	3955.02
964.833	3954.8
965.136	3912.99
965.438	3908.02
965.741	3911.18
966.043	3909.15
966.345	3821.47
966.648	3853.33
966.95	3818.08
967.252	3829.15
967.554	3799.55
967.856	3778.98
968.158	3806.78
968.46	3780.34
968.761	3731.3
969.063	3740.57
969.365	3700.11
969.666	3717.97
969.968	3642.49
970.269	3677.97
970.571	3675.26
970.872	3657.4
971.174	3632.09
971.475	3575.37
971.776	3590.29
972.077	3556.39
972.378	3579.21
972.679	3523.62
972.98	3524.98
973.281	3503.06
973.582	3520.46
973.883	3484.98
974.183	3435.71
974.484	3449.5
974.785	3428.26
975.085	3436.84
975.386	3405.66
975.686	3404.3
975.986	3374.47
976.287	3387.13
976.587	3330.86
976.887	3362.04
977.187	3295.38
977.487	3344.87
977.787	3292.22
978.087	3253.12
978.387	3247.92
978.687	3265.55
978.987	3240.24
979.286	3192.33
979.586	3175.16
979.885	3157.08
980.185	3165.89
980.484	3115.95
980.784	3137.42
981.083	3110.3
981.382	3071.66
981.682	3101.94
981.981	3069.17
982.28	3078.21
982.579	3080.92
982.878	3063.75
983.177	3020.13
983.475	3006.57
983.774	2981.49
984.073	2983.75
984.372	2949.63
984.67	2950.53
984.969	2922.06
985.267	2951.66
985.566	2955.95
985.864	2927.71
986.162	2876.63
986.461	2893.36
986.759	2860.14
987.057	2823.3
987.355	2851.55
987.653	2814.71
987.951	2861.27
988.249	2811.78
988.547	2788.05
988.844	2798.67
989.142	2782.85
989.44	2765
989.737	2714.6
990.035	2723.64
990.332	2727.03
990.63	2692.46
990.927	2712.57
991.224	2688.39
991.521	2642.29
991.819	2671.22
992.116	2662.85
992.413	2630.54
992.71	2598.67
993.006	2581.73
993.303	2594.38
993.6	2582.86
993.897	2578.56
994.193	2561.84
994.49	2556.19
994.787	2517.32
995.083	2514.16
995.379	2498.11
995.676	2452.24
995.972	2459.02
996.268	2460.37
996.565	2453.59
996.861	2412.01
997.157	2426.48
997.453	2425.8
997.749	2430.32
998.044	2389.87
998.34	2384.22
998.636	2374.73
998.932	2336.08
999.227	2329.53
999.523	2321.39
999.818	2286.37
1000.114	2333.82
1000.409	2339.7
1000.704	2326.14
1001	2262.41
1001.295	2259.93
1001.59	2231.45
1001.885	2220.61
1002.18	2237.55
1002.475	2171.57
1002.77	2184
1003.065	2173.38
1003.359	2170.21
1003.654	2157.1
1003.949	2155.52
1004.243	2131.12
1004.538	2127.73
1004.832	2118.69
1005.127	2108.29
1005.421	2071.23
1005.715	2057.67
1006.009	2053.6
1006.304	2060.38
1006.598	2012.25
1006.892	2035.3
1007.186	1985.81
1007.48	2025.58
1007.773	1985.13
1008.067	1985.13
1008.361	1976.09
1008.655	1944.45
1008.948	1954.85
1009.242	1934.29
1009.535	1896.32
1009.829	1934.29
1010.122	1905.13
1010.415	1911.91
1010.708	1875.3
1011.001	1880.5
1011.295	1853.61
1011.588	1822.88
1011.881	1830.79
1012.173	1828.07
1012.466	1786.94
1012.759	1787.85
1013.052	1788.98
1013.344	1775.42
1013.637	1777
1013.93	1761.86
1014.222	1739.94
1014.514	1751.47
1014.807	1741.07
1015.099	1709.21
1015.391	1716.89
1015.683	1719.38
1015.976	1689.09
1016.268	1668.3
1016.56	1663.78
1016.851	1634.86
1017.143	1647.97
1017.435	1636.21
1017.727	1613.39
1018.018	1614.29
1018.31	1598.47
1018.602	1579.27
1018.893	1600.96
1019.185	1572.26
1019.476	1551.7
1019.767	1550.34
1020.058	1541.08
1020.35	1526.61
1020.641	1520.51
1020.932	1516.44
1021.223	1491.36
1021.514	1479.16
1021.804	1465.82
1022.095	1468.76
1022.386	1479.83
1022.677	1482.55
1022.967	1441.19
1023.258	1416.78
1023.548	1438.48
1023.839	1406.39
1024.129	1422.43
1024.419	1407.07
1024.709	1400.29
1025	1345.6
1025.29	1372.72
1025.58	1340.85
1025.87	1356.22
1026.16	1325.94
1026.449	1357.13
1026.739	1306.28
1027.029	1299.73
1027.319	1305.83
1027.608	1285.26
1027.898	1268.77
1028.187	1273.51
1028.477	1284.81
1028.766	1262.89
1029.055	1277.58
1029.344	1251.37
1029.634	1232.16
1029.923	1238.48
1030.212	1224.7
1030.501	1220.41
1030.79	1210.91
1031.078	1181.08
1031.367	1197.13
1031.656	1216.11
1031.945	1211.82
1032.233	1186.06
1032.522	1159.39
1032.81	1161.88
1033.099	1136.79
1033.387	1137.47
1033.675	1146.28
1033.963	1121.43
1034.251	1143.57
1034.54	1122.78
1034.828	1111.71
1035.116	1083.69
1035.403	1075.55
1035.691	1084.14
1035.979	1050.24
1036.267	1050.01
1036.554	1048.43
1036.842	1052.5
1037.129	1034.42
1037.417	1054.53
1037.704	1021.54
1037.992	1048.66
1038.279	994.65
1038.566	1012.05
1038.853	1012.05
1039.14	1012.05
