Data from hue_240_FLMS001491_00080.txt Node
Date: Tue Feb 07 16:35:57 GMT 2017
User: dcchb
Spectrometer: FLMS00149
Trigger mode: 0
Integration Time (sec): 2.000000E-2
Scans to average: 10
Electric dark correction enabled: true
Nonlinearity correction enabled: false
Boxcar width: 0
XAxis mode: Wavelengths
Number of Pixels in Spectrum: 2048
>>>>>Begin Spectral Data<<<<<
341.393	-21.82
341.776	-21.82
342.16	-21.82
342.543	-40.13
342.927	-41.03
343.31	-65.66
343.693	-57.53
344.077	-63.85
344.46	-60.92
344.843	-60.46
345.226	-39
345.61	-37.87
345.993	-10.07
346.376	-8.04
346.759	14.79
347.142	20.66
347.525	47.1
347.908	49.14
348.291	80.1
348.674	81.45
349.057	110.15
349.44	127.55
349.823	147.21
350.206	174.78
350.588	194.67
350.971	189.25
351.354	217.49
351.737	224.27
352.119	233.54
352.502	254.33
352.884	271.96
353.267	290.94
353.65	284.84
354.032	294.33
354.414	304.95
354.797	305.85
355.179	330.26
355.562	316.93
355.944	335.46
356.326	328.23
356.709	337.04
357.091	356.7
357.473	338.62
357.855	307.44
358.238	333.88
358.62	311.5
359.002	333.88
359.384	326.42
359.766	346.98
360.148	338.85
360.53	334.1
360.912	322.12
361.294	334.78
361.676	351.73
362.057	334.78
362.439	328
362.821	318.28
363.203	323.03
363.584	332.97
363.966	318.51
364.348	335.23
364.729	317.15
365.111	294.55
365.493	278.96
365.874	299.75
366.256	294.1
366.637	295.46
367.019	301.56
367.4	324.38
367.781	278.74
368.163	309.02
368.544	295.68
368.925	288.9
369.306	317.38
369.688	323.25
370.069	307.89
370.45	307.89
370.831	303.82
371.212	280.32
371.593	321.9
371.974	311.05
372.355	290.49
372.736	315.12
373.117	305.18
373.498	328.68
373.879	324.84
374.26	326.19
374.641	306.98
375.021	312.63
375.402	316.02
375.783	330.94
376.163	320.54
376.544	320.32
376.925	324.38
377.305	301.33
377.686	314.44
378.066	327.32
378.447	318.73
378.827	335.46
379.208	322.35
379.588	316.02
379.968	332.75
380.349	312.41
380.729	327.1
381.109	324.61
381.489	348.11
381.87	344.27
382.25	336.59
382.63	346.53
383.01	325.06
383.39	321.45
383.77	307.66
384.15	341.78
384.53	338.85
384.91	340.65
385.29	316.25
385.67	341.56
386.049	346.76
386.429	346.98
386.809	359.19
387.189	342.01
387.568	347.21
387.948	354.44
388.328	358.51
388.707	355.34
389.087	364.16
389.466	341.78
389.846	375.68
390.225	374.78
390.605	368.68
390.984	373.65
391.363	363.71
391.743	367.77
392.122	374.33
392.501	380.2
392.881	369.58
393.26	389.69
393.639	355.57
394.018	347.21
394.397	396.7
394.776	380.65
395.155	376.59
395.534	384.5
395.913	414.78
396.292	375
396.671	382.24
397.05	403.25
397.429	390.82
397.808	375.23
398.186	400.99
398.565	398.05
398.944	403.93
399.323	424.27
399.701	408
400.08	383.37
400.458	412.52
400.837	407.09
401.215	415.46
401.594	400.99
401.972	407.55
402.351	425.62
402.729	410.71
403.107	411.16
403.486	412.74
403.864	412.74
404.242	412.52
404.62	461.33
404.999	426.75
405.377	440.99
405.755	448
406.133	455.45
406.511	453.87
406.889	459.3
407.267	472.63
407.645	475.79
408.023	484.15
408.401	488.9
408.779	458.39
409.156	499.52
409.534	475.11
409.912	493.87
410.29	508.11
410.667	481.22
411.045	478.5
411.422	502.68
411.8	524.6
412.178	528.67
412.555	546.98
412.933	550.37
413.31	549.24
413.687	537.94
414.065	551.27
414.442	558.5
414.819	553.08
415.197	551.5
415.574	586.75
415.951	585.62
416.328	559.18
416.705	585.39
417.082	570.71
417.46	584.94
417.837	604.15
418.214	604.15
418.591	633.3
418.967	622.68
419.344	626.07
419.721	639.63
420.098	649.57
420.475	645.05
420.852	655
421.228	676.69
421.605	679.63
421.982	664.49
422.358	708.78
422.735	699.06
423.111	715.79
423.488	731.15
423.864	757.37
424.241	750.81
424.617	730.93
424.994	763.02
425.37	759.4
425.746	764.37
426.123	766.41
426.499	781.1
426.875	803.69
427.251	800.98
427.627	794.43
428.003	810.02
428.379	847.31
428.756	848.44
429.132	823.58
429.507	883.69
429.883	888.44
430.259	900.87
430.635	889.12
431.011	894.09
431.387	920.98
431.763	907.87
432.138	932.5
432.514	948.1
432.89	950.81
433.265	997.36
433.641	1026.96
434.016	971.82
434.392	990.58
434.767	1045.95
435.143	1015.21
435.518	1059.73
435.894	1080.97
436.269	1092.5
436.644	1090.01
437.02	1118.94
437.395	1112.39
437.77	1147.87
438.145	1117.13
438.52	1171.14
438.895	1189.67
439.271	1193.51
439.646	1191.71
440.021	1227.41
440.395	1267.41
440.77	1251.14
441.145	1260.18
441.52	1282.55
441.895	1261.76
442.27	1285.71
442.645	1289.1
443.019	1321.65
443.394	1309.44
443.769	1320.74
444.143	1309.67
444.518	1366.39
444.892	1354.19
445.267	1408.88
445.641	1391.7
446.016	1387.18
446.39	1416.56
446.764	1423.34
447.139	1445.71
447.513	1436.45
447.887	1428.99
448.262	1425.82
448.636	1464.69
449.01	1485.03
449.384	1493.17
449.758	1519.83
450.132	1495.43
450.506	1541.08
450.88	1513.96
451.254	1544.24
451.628	1535.2
452.002	1542.21
452.376	1570.91
452.75	1584.69
453.123	1596.44
453.497	1638.7
453.871	1638.02
454.244	1687.74
454.618	1678.7
454.992	1694.97
455.365	1678.02
455.739	1770
456.112	1748.08
456.486	1780.39
456.859	1770.67
457.232	1787.17
457.606	1832.82
457.979	1809.32
458.352	1845.02
458.725	1900.61
459.099	1885.25
459.472	1914.62
459.845	1940.39
460.218	1964.57
460.591	1964.79
460.964	1954.62
461.337	2016.32
461.71	2030.33
462.083	2075.98
462.456	2076.43
462.829	2059.03
463.201	2113.04
463.574	2090.67
463.947	2161.85
464.32	2189.65
464.692	2222.19
465.065	2223.54
465.438	2206.82
465.81	2276.2
466.183	2327.04
466.555	2301.96
466.928	2319.59
467.3	2329.98
467.672	2375.63
468.045	2392.8
468.417	2435.06
468.789	2464.21
469.161	2490.65
469.534	2568.39
469.906	2575.85
470.278	2612.69
470.65	2609.3
471.022	2649.75
471.394	2686.13
471.766	2740.14
472.138	2721.16
472.51	2778.1
472.882	2851.1
473.253	2884.32
473.625	2898.55
473.997	2928.16
474.369	2966.8
474.74	3023.52
475.112	3046.8
475.484	3056.97
475.855	3141.26
476.227	3168.38
476.598	3196.62
476.97	3269.17
477.341	3347.13
477.713	3385.77
478.084	3345.1
478.455	3448.14
478.827	3489.5
479.198	3583.96
479.569	3541.02
479.94	3696.05
480.311	3689.49
480.682	3740.34
481.053	3775.59
481.424	3853.56
481.795	3885.87
482.166	3968.13
482.537	3971.29
482.908	4074.34
483.279	4080.22
483.65	4138.97
484.021	4233.43
484.391	4215.13
484.762	4275.69
485.133	4327.22
485.503	4382.58
485.874	4432.75
486.244	4454.67
486.615	4544.39
486.985	4601.79
487.356	4679.52
487.726	4738.28
488.097	4804.94
488.467	4824.15
488.837	4929.69
489.207	4901.66
489.578	5001.1
489.948	5016.46
490.318	5059.85
490.688	5146.86
491.058	5180.53
491.428	5303.46
491.798	5318.38
492.168	5351.82
492.538	5308.21
492.908	5416.23
493.278	5502.55
493.648	5484.02
494.017	5536
494.387	5587.3
494.757	5640.18
495.126	5648.31
495.496	5725.82
495.866	5731.02
496.235	5812.15
496.605	5774.86
496.974	5848.76
497.344	5938.02
497.713	5944.58
498.082	5933.95
498.452	5985.48
498.821	6036.32
499.19	6022.54
499.559	6046.49
499.928	6131.69
500.298	6153.61
500.667	6169.65
501.036	6155.19
501.405	6243.78
501.774	6229.09
502.143	6285.13
502.512	6338.69
502.88	6353.6
503.249	6340.95
503.618	6387.95
503.987	6365.13
504.356	6387.95
504.724	6435.41
505.093	6471.57
505.462	6480.15
505.83	6512.7
506.199	6562.41
506.567	6592.47
506.936	6611.9
507.304	6687.38
507.672	6664.33
508.041	6716.31
508.409	6708.17
508.777	6768.06
509.145	6764.21
509.514	6755.85
509.882	6844.44
510.25	6825.46
510.618	6752.92
510.986	6879.69
511.354	6927.6
511.722	6942.74
512.09	6981.38
512.458	6994.72
512.826	6972.12
513.193	7030.2
513.561	7020.48
513.929	7073.81
514.297	7115.84
514.664	7112
515.032	7163.07
515.4	7213.69
515.767	7213.92
516.135	7175.5
516.502	7120.36
516.869	7224.99
517.237	7279.91
517.604	7200.14
517.972	7270.87
518.339	7267.48
518.706	7333.47
519.073	7304.31
519.44	7387.48
519.808	7421.82
520.175	7379.79
520.542	7410.3
520.909	7343.63
521.276	7471.09
521.643	7471.99
522.009	7523.52
522.376	7483.52
522.743	7521.03
523.11	7625.89
523.477	7676.96
523.843	7615.94
524.21	7640.35
524.577	7652.55
524.943	7739.78
525.31	7675.83
525.676	7791.31
526.043	7758.31
526.409	7778.65
526.776	7800.12
527.142	7842.6
527.508	7886.22
527.874	7906.56
528.241	7904.98
528.607	7959.44
528.973	7934.35
529.339	7918.53
529.705	7958.99
530.071	8016.61
530.437	7998.76
530.803	8057.06
531.169	8062.94
531.535	8013.45
531.901	8004.86
532.267	8008.02
532.632	8052.77
532.998	8050.51
533.364	8083.73
533.73	8049.15
534.095	8101.13
534.461	8087.8
534.826	8102.71
535.192	8101.35
535.557	8162.14
535.923	8034.46
536.288	8111.52
536.653	8125.99
537.019	8066.55
537.384	8087.57
537.749	8128.25
538.114	8054.12
538.479	8112.2
538.845	8136.38
539.21	8046.67
539.575	8104.97
539.94	8089.6
540.305	8121.69
540.67	8169.38
541.034	8110.62
541.399	8130.28
541.764	8066.33
542.129	8061.81
542.494	8092.09
542.858	8129.38
543.223	8060.68
543.587	8041.7
543.952	8012.09
544.316	8030.85
544.681	8041.02
545.045	8060
545.41	8130.96
545.774	8124.18
546.138	8066.55
546.503	8049.38
546.867	7991.3
547.231	8053.45
547.595	8032.88
547.959	8050.28
548.324	8050.96
548.688	8025.88
549.052	8001.92
549.416	8067.68
549.779	8005.76
550.143	8020.23
550.507	8055.71
550.871	8039.89
551.235	8033.11
551.599	8019.55
551.962	8027.68
552.326	8054.12
552.689	8026.33
553.053	8060.9
553.417	8000.57
553.78	8144.07
554.143	8009.61
554.507	8084.18
554.87	8071.3
555.234	8077.63
555.597	8017.74
555.96	8101.81
556.323	8005.54
556.686	8032.2
557.05	8119.21
557.413	8116.95
557.776	8117.63
558.139	8073.78
558.502	8118.98
558.865	8192.65
559.228	8142.03
559.59	8177.96
559.953	8163.5
560.316	8236.49
560.679	8226.78
561.041	8213.44
561.404	8236.94
561.767	8222.03
562.129	8213.89
562.492	8328.02
562.854	8246.66
563.217	8290.73
563.579	8334.79
563.941	8346.32
564.304	8346.32
564.666	8366.43
565.028	8368.92
565.39	8392.42
565.753	8460.89
566.115	8451.18
566.477	8448.46
566.839	8478.07
567.201	8474
567.563	8535.24
567.925	8606.2
568.287	8592.87
568.648	8533.66
569.01	8568.24
569.372	8670.61
569.734	8589.93
570.095	8698.18
570.457	8664.96
570.819	8693.43
571.18	8693.2
571.542	8660.21
571.903	8731.85
572.265	8747.44
572.626	8746.08
572.987	8820.21
573.349	8854.1
573.71	8813.88
574.071	8901.11
574.432	8919.19
574.794	8940.88
575.155	8949.69
575.516	8889.81
575.877	8959.64
576.238	9039.41
576.599	8993.99
576.96	9013.65
577.32	9038.05
577.681	9007.09
578.042	9043.7
578.403	9064.04
578.763	9113.98
579.124	9109.46
579.485	9155.79
579.845	9146.07
580.206	9205.73
580.566	9155.56
580.927	9168.45
581.287	9231.04
581.648	9179.52
582.008	9263.13
582.368	9295.67
582.728	9307.42
583.089	9223.59
583.449	9243.7
583.809	9284.6
584.169	9325.28
584.529	9358.72
584.889	9383.58
585.249	9338.16
585.609	9328.67
585.969	9369.12
586.329	9335.67
586.688	9355.11
587.048	9410.7
587.408	9392.85
587.768	9397.37
588.127	9364.37
588.487	9396.24
588.846	9484.37
589.206	9443.01
589.565	9418.16
589.925	9476.23
590.284	9461.09
590.643	9518.04
591.003	9491.6
591.362	9544.25
591.721	9539.96
592.08	9554.2
592.44	9542.22
592.799	9546.97
593.158	9550.36
593.517	9563.01
593.876	9528.44
594.235	9600.98
594.593	9558.94
594.952	9640.98
595.311	9531.83
595.67	9568.43
596.029	9634.42
596.387	9600.07
596.746	9678.71
597.104	9573.18
597.463	9606.4
597.822	9652.27
598.18	9589
598.538	9625.61
598.897	9733.18
599.255	9617.93
599.613	9649.79
599.972	9652.95
600.33	9638.49
600.688	9653.4
601.046	9701.31
601.404	9678.94
601.762	9590.36
602.12	9761.2
602.478	9716.45
602.836	9748.54
603.194	9742.22
603.552	9781.08
603.91	9693.63
604.268	9752.61
604.625	9765.72
604.983	9767.3
605.341	9712.84
605.698	9784.47
606.056	9795.1
606.413	9778.15
606.771	9763.46
607.128	9777.02
607.485	9704.93
607.843	9717.58
608.2	9769.11
608.557	9765.27
608.914	9833.96
609.272	9872.16
609.629	9855.88
609.986	9892.49
610.343	9872.38
610.7	9954.19
611.057	9865.6
611.414	9890.46
611.771	9900.18
612.127	10006.62
612.484	9934.75
612.841	9988.54
613.198	9923
613.554	9937.24
613.911	9955.32
614.267	10024.02
614.624	9948.09
614.98	9997.12
615.337	10084.35
615.693	10030.8
616.05	9979.27
616.406	10058.37
616.762	9972.94
617.118	10013.39
617.475	10025.37
617.831	9996.45
618.187	10048.87
618.543	10082.32
618.899	10057.01
619.255	10107.4
619.611	10024.47
619.967	10078.48
620.323	10140.4
620.678	10023.56
621.034	10114.64
621.39	10068.76
621.746	10033.51
622.101	10180.85
622.457	10044.13
622.812	10106.73
623.168	10116.22
623.523	10172.94
623.879	10171.81
624.234	10093.62
624.589	10144.46
624.945	10167.29
625.3	10170.23
625.655	10083.45
626.01	10123
626.365	10098.82
626.72	10081.19
627.075	10116.22
627.43	10083
627.785	10149.21
628.14	10098.82
628.495	10110.12
628.85	10114.18
629.205	10015.88
629.559	10036.45
629.914	10075.09
630.269	10053.85
630.623	9979.5
630.978	9996.22
631.332	10027.86
631.687	10099.72
632.041	10012.94
632.396	10053.62
632.75	9986.73
633.104	9917.35
633.459	9935.66
633.813	9939.27
634.167	9950.57
634.521	9887.3
634.875	9963.23
635.229	9862.89
635.583	9867.18
635.937	9877.58
636.291	9863.34
636.645	9847.75
636.999	9915.09
637.352	9894.08
637.706	9836.9
638.06	9848.88
638.413	9808.65
638.767	9805.26
639.121	9865.83
639.474	9720.07
639.828	9737.24
640.181	9754.42
640.534	9781.54
640.888	9751.48
641.241	9716.45
641.594	9692.05
641.947	9703.12
642.301	9747.19
642.654	9721.88
643.007	9720.97
643.36	9636.68
643.713	9636.23
644.066	9711.03
644.419	9602.56
644.771	9551.03
645.124	9501.32
645.477	9461.09
645.83	9453.18
646.182	9379.74
646.535	9332.28
646.888	9332.96
647.24	9233.3
647.593	9354.66
647.945	9318.95
648.298	9286.18
648.65	9279.18
649.002	9276.24
649.355	9259.97
649.707	9262.68
650.059	9356.24
650.411	9469.68
650.763	9487.53
651.115	9539.06
651.467	9553.07
651.819	9531.15
652.171	9492.5
652.523	9462.67
652.875	9458.83
653.227	9469.68
653.578	9537.25
653.93	9501.32
654.282	9452.96
654.633	9398.72
654.985	9446.18
655.337	9406.63
655.688	9465.16
656.039	9491.83
656.391	9413.64
656.742	9435.11
657.094	9434.43
657.445	9421.55
657.796	9420.87
658.147	9489.11
658.498	9415.67
658.849	9359.63
659.2	9385.39
659.551	9356.01
659.902	9439.85
660.253	9385.61
660.604	9492.73
660.955	9383.13
661.306	9437.14
661.656	9476.91
662.007	9451.6
662.358	9422.9
662.708	9409.12
663.059	9426.07
663.409	9363.47
663.76	9363.02
664.11	9480.75
664.461	9452.73
664.811	9386.07
665.161	9417.93
665.511	9403.02
665.862	9425.39
666.212	9436.69
666.562	9485.27
666.912	9428.78
667.262	9395.56
667.612	9406.18
667.962	9431.49
668.312	9377.71
668.662	9401.66
669.011	9414.54
669.361	9405.05
669.711	9360.53
670.06	9431.04
670.41	9368.44
670.76	9308.55
671.109	9442.79
671.459	9429.91
671.808	9396.91
672.157	9405.28
672.507	9306.97
672.856	9334.54
673.205	9321.44
673.554	9359.4
673.904	9316.24
674.253	9334.09
674.602	9347.42
674.951	9193.98
675.3	9179.52
675.649	9324.15
675.998	9280.53
676.346	9259.52
676.695	9311.72
677.044	9173.87
677.393	9203.02
677.741	9194.66
678.09	9232.4
678.438	9173.64
678.787	9275.34
679.135	9187.65
679.484	9113.31
679.832	9180.42
680.181	9149.24
680.529	9183.13
680.877	9194.21
681.225	9037.15
681.573	9158.95
681.922	9043.93
682.27	9023.82
682.618	8994.89
682.966	8979.3
683.314	9004.38
683.661	9031.95
684.009	8928.23
684.357	8951.05
684.705	8878.51
685.053	8956.25
685.4	8842.35
685.748	8813.65
686.095	8906.53
686.443	8907.21
686.79	8879.41
687.138	8849.81
687.485	8757.38
687.832	8756.93
688.18	8795.57
688.527	8714.67
688.874	8733.88
689.221	8688.46
689.568	8648.69
689.915	8645.52
690.262	8631.28
690.609	8631.74
690.956	8631.28
691.303	8610.95
691.65	8555.35
691.997	8541.34
692.344	8456.6
692.69	8441.91
693.037	8419.99
693.383	8312.87
693.73	8391.74
694.077	8317.39
694.423	8321.91
694.769	8344.51
695.116	8282.59
695.462	8215.48
695.808	8182.93
696.155	8256.83
696.501	8197.4
696.847	8221.8
697.193	8093.9
697.539	8108.13
697.885	8142.94
698.231	8051.19
698.577	8050.73
698.923	8064.07
699.269	7992.66
699.614	7928.03
699.96	7945.88
700.306	7864.75
700.651	7861.36
700.997	7810.97
701.342	7909.04
701.688	7850.74
702.033	7795.6
702.379	7783.17
702.724	7730.97
703.069	7682.83
703.415	7677.41
703.76	7647.81
704.105	7656.39
704.45	7634.7
704.795	7585.66
705.14	7560.8
705.485	7543.63
705.83	7443.74
706.175	7513.57
706.52	7486.23
706.865	7422.95
707.209	7433.35
707.554	7418.89
707.899	7402.39
708.243	7334.37
708.588	7380.47
708.932	7279
709.277	7283.75
709.621	7359.91
709.966	7250.3
710.31	7279.91
710.654	7216.41
710.998	7260.92
711.342	7227.03
711.687	7210.53
712.031	7204.66
712.375	7116.52
712.719	7180.25
713.063	7178.44
713.407	7149.29
713.75	7108.84
714.094	7081.95
714.438	7033.59
714.782	7066.81
715.125	7020.48
715.469	7014.38
715.812	7031.78
716.156	7017.77
716.499	7000.14
716.843	6960.82
717.186	6923.53
717.53	6955.17
717.873	6983.64
718.216	6948.39
718.559	6928.5
718.902	6804.89
719.246	6871.78
719.589	6836.3
719.932	6804.21
720.275	6828.85
720.617	6844.21
720.96	6825
721.303	6835.17
721.646	6812.35
721.989	6854.16
722.331	6880.82
722.674	6817.55
723.016	6813.71
723.359	6804.21
723.701	6770.09
724.044	6787.04
724.386	6747.94
724.729	6776.19
725.071	6740.94
725.413	6770.77
725.755	6705.01
726.097	6706.36
726.439	6689.87
726.782	6686.7
727.124	6695.06
727.465	6678.12
727.807	6702.3
728.149	6693.93
728.491	6669.3
728.833	6689.19
729.175	6663.2
729.516	6669.53
729.858	6650.32
730.199	6639.25
730.541	6656.87
730.882	6639.7
731.224	6663.88
731.565	6628.63
731.906	6577.33
732.248	6606.25
732.589	6613.71
732.93	6571.9
733.271	6598.12
733.612	6617.55
733.953	6618.68
734.294	6614.84
734.635	6626.37
734.976	6577.1
735.317	6580.04
735.658	6615.74
735.999	6553.37
736.339	6587.5
736.68	6613.26
737.021	6538.01
737.361	6593.82
737.702	6604.22
738.042	6571.23
738.383	6564.22
738.723	6615.74
739.063	6595.86
739.404	6561.28
739.744	6629.3
740.084	6621.85
740.424	6647.16
740.764	6586.59
741.104	6631.11
741.444	6652.81
741.784	6601.51
742.124	6621.62
742.464	6646.25
742.804	6658.91
743.143	6647.38
743.483	6680.83
743.823	6668.17
744.162	6695.74
744.502	6738.9
744.841	6804.44
745.181	6761.05
745.52	6726.93
745.86	6736.42
746.199	6753.14
746.538	6829.07
746.877	6885.12
747.216	6843.31
747.556	6869.3
747.895	6916.98
748.234	6981.38
748.573	6905.45
748.911	6984.55
749.25	6989.75
749.589	6996.98
749.928	7087.14
750.267	7156.07
750.605	7177.31
750.944	7231.77
751.283	7203.75
751.621	7229.29
751.96	7323.52
752.298	7397.64
752.636	7462.28
752.975	7428.38
753.313	7487.59
753.651	7643.51
753.989	7665.43
754.327	7669.05
754.666	7720.35
755.004	7870.63
755.342	7899.33
755.679	7960.79
756.017	8015.26
756.355	8192.2
756.693	8198.08
757.031	8297.51
757.368	8365.98
757.706	8417.96
758.044	8532.76
758.381	8690.04
758.719	8708.8
759.056	8798.06
759.394	8954.44
759.731	8958.06
760.068	9080.31
760.405	9158.28
760.743	9288.44
761.08	9378.84
761.417	9390.36
761.754	9525.5
762.091	9613.86
762.428	9727.75
762.765	9689.56
763.102	9908.99
763.438	9913.51
763.775	10045.03
764.112	10103.79
764.449	10263.11
764.785	10325.93
765.122	10343.56
765.458	10438.47
765.795	10501.97
766.131	10647.28
766.467	10671.91
766.804	10713.49
767.14	10834.39
767.476	10874.62
767.812	10997.78
768.148	11028.06
768.485	11080.71
768.821	11150.77
769.157	11208.17
769.492	11262.18
769.828	11341.5
770.164	11327.71
770.5	11377.88
770.836	11472.34
771.171	11569.74
771.507	11532.45
771.842	11524.09
772.178	11573.81
772.513	11640.24
772.849	11673.01
773.184	11677.31
773.519	11785.1
773.855	11755.95
774.19	11831.2
774.525	11800.47
774.86	11872.56
775.195	11972.21
775.53	11889.73
775.865	11958.65
776.2	11840.92
776.535	11872.56
776.87	11960.24
777.205	11880.01
777.539	11898.32
777.874	11980.8
778.209	11913.23
778.543	11924.08
778.878	11855.15
779.212	11932.67
779.547	11911.2
779.881	12039.78
780.215	12000.91
780.55	12079.33
780.884	11976.96
781.218	11892.89
781.552	12005.88
781.886	11955.94
782.22	11921.14
782.554	11905.77
782.888	11806.12
783.222	11844.08
783.556	11771.77
783.889	11758.89
784.223	11746
784.557	11774.48
784.89	11798.66
785.224	11774.93
785.557	11779.9
785.891	11697.87
786.224	11748.49
786.558	11757.53
786.891	11635.27
787.224	11694.03
787.557	11596.18
787.891	11612.45
788.224	11624.2
788.557	11664.88
788.89	11643.41
789.223	11675.05
789.556	11551.21
789.888	11534.48
790.221	11557.08
790.554	11501.94
790.887	11451.78
791.219	11405.22
791.552	11381.49
791.884	11310.99
792.217	11377.88
792.549	11291.1
792.882	11240.48
793.214	11174.95
793.546	11199.58
793.879	11243.42
794.211	11143.53
794.543	11226.7
794.875	11151.9
795.207	11233.48
795.539	11118.68
795.871	11179.01
796.203	11120.94
796.535	10988.51
796.867	10983.99
797.198	10967.95
797.53	11021.73
797.862	10876.2
798.193	10885.24
798.525	10858.12
798.856	10820.38
799.188	10759.82
799.519	10829.42
799.85	10680.04
800.182	10702.19
800.513	10689.99
800.844	10537.45
801.175	10691.57
801.506	10620.61
801.837	10523.66
802.168	10567.73
802.499	10578.8
802.83	10505.13
803.161	10501.07
803.491	10496.09
803.822	10517.79
804.153	10421.29
804.483	10364.8
804.814	10356.66
805.145	10386.04
805.475	10346.95
805.805	10221.75
806.136	10287.06
806.466	10330.9
806.796	10248.19
807.126	10203.45
807.457	10179.94
807.787	10130.68
808.117	10139.72
808.447	10085.48
808.777	10158.7
809.107	10076.9
809.436	10010.68
809.766	10076.9
810.096	10028.31
810.426	9950.35
810.755	9994.86
811.085	10027.41
811.414	9928.65
811.744	9854.98
812.073	9838.71
812.403	9876.9
812.732	9837.35
813.061	9841.42
813.39	9792.84
813.719	9763.68
814.049	9794.87
814.378	9727.3
814.707	9714.19
815.036	9751.71
815.365	9662.22
815.693	9578.15
816.022	9684.82
816.351	9571.37
816.68	9598.26
817.008	9619.73
817.337	9492.5
817.665	9475.78
817.994	9529.11
818.322	9536.12
818.651	9480.53
818.979	9468.1
819.307	9469.91
819.636	9454.99
819.964	9384.26
820.292	9392.85
820.62	9405.05
820.948	9373.86
821.276	9361.66
821.604	9353.98
821.932	9445.05
822.259	9396.24
822.587	9461.55
822.915	9306.97
823.243	9386.97
823.57	9340.87
823.898	9422.45
824.225	9313.3
824.553	9300.42
824.88	9363.02
825.207	9382.23
825.535	9329.35
825.862	9405.28
826.189	9334.09
826.516	9414.31
826.843	9394.88
827.17	9361.89
827.497	9450.92
827.824	9368.67
828.151	9367.99
828.478	9372.96
828.805	9410.47
829.131	9381.32
829.458	9356.91
829.785	9306.97
830.111	9436.91
830.438	9423.35
830.764	9387.42
831.09	9438.27
831.417	9350.81
831.743	9392.17
832.069	9357.82
832.395	9332.96
832.722	9334.09
833.048	9349.23
833.374	9295.45
833.7	9270.82
834.026	9277.14
834.351	9290.02
834.677	9294.32
835.003	9249.57
835.329	9285.5
835.654	9264.71
835.98	9295
836.306	9255.22
836.631	9249.35
836.956	9268.1
837.282	9238.73
837.607	9158.73
837.932	9209.8
838.258	9202.57
838.583	9203.25
838.908	9104.27
839.233	9134.77
839.558	9119.63
839.883	9050.93
840.208	9090.48
840.533	9090.03
840.858	9085.96
841.182	9044.61
841.507	9043.93
841.832	8981.56
842.156	8971.61
842.481	8981.56
842.805	8962.8
843.13	8985.4
843.454	8914.67
843.778	8970.71
844.103	8828.12
844.427	8818.62
844.751	8900.43
845.075	8776.82
845.399	8835.57
845.723	8753.54
846.047	8839.41
846.371	8729.36
846.695	8674.67
847.019	8635.35
847.343	8645.75
847.666	8508.58
847.99	8566.88
848.313	8585.41
848.637	8496.15
848.96	8413.89
849.284	8410.95
849.607	8327.11
849.931	8387.9
850.254	8349.94
850.577	8252.54
850.9	8206.21
851.223	8196.49
851.546	8190.84
851.869	8104.97
852.192	8139.32
852.515	8037.18
852.838	8067.23
853.161	8085.99
853.483	8013.45
853.806	7919.66
854.129	7937.29
854.451	7929.83
854.774	7847.35
855.096	7917.86
855.419	7834.7
855.741	7847.8
856.063	7795.83
856.385	7778.43
856.708	7734.13
857.03	7685.55
857.352	7773.45
857.674	7769.84
857.996	7617.98
858.318	7598.32
858.64	7571.65
858.961	7546.12
859.283	7584.31
859.605	7489.62
859.926	7539.11
860.248	7583.63
860.57	7520.13
860.891	7494.37
861.212	7454.82
861.534	7467.93
861.855	7440.81
862.176	7468.38
862.498	7403.97
862.819	7460.24
863.14	7452.56
863.461	7371.43
863.782	7389.96
864.103	7370.3
864.424	7323.75
864.745	7354.48
865.065	7313.13
865.386	7262.51
865.707	7302.73
866.027	7244.65
866.348	7184.54
866.668	7226.35
866.989	7235.39
867.309	7168.5
867.63	7158.55
867.95	7162.85
868.27	7174.15
868.59	7168.95
868.91	7183.86
869.23	7140.25
869.55	7135.05
869.87	7111.32
870.19	7131.66
870.51	7076.07
870.83	7133.7
871.15	7037.2
871.469	7074.49
871.789	7074.49
872.109	7084.43
872.428	7015.28
872.748	7050.08
873.067	7036.52
873.386	7025.22
873.706	7007.37
874.025	6990.42
874.344	6951.1
874.663	6967.15
874.982	6974.15
875.301	6970.09
875.62	6893.02
875.939	6991.33
876.258	6931.89
876.577	6913.36
876.896	6947.94
877.214	6872.69
877.533	6855.74
877.852	6882.86
878.17	6790.43
878.489	6853.48
878.807	6759.24
879.125	6805.57
879.444	6850.09
879.762	6789.98
880.08	6779.58
880.398	6730.77
880.716	6752.24
881.034	6769.19
881.352	6703.65
881.67	6723.54
881.988	6693.71
882.306	6701.39
882.624	6645.35
882.941	6623.2
883.259	6642.86
883.577	6649.87
883.894	6654.84
884.212	6586.59
884.529	6600.38
884.846	6573.03
885.164	6562.64
885.481	6546.37
885.798	6518.57
886.115	6474.28
886.432	6519.48
886.75	6474.96
887.067	6467.05
887.383	6467.27
887.7	6460.27
888.017	6456.88
888.334	6442.42
888.651	6455.3
888.967	6404.45
889.284	6352.93
889.6	6377.33
889.917	6299.59
890.233	6276.77
890.55	6317.67
890.866	6293.72
891.182	6236.55
891.498	6275.87
891.815	6236.32
892.131	6201.07
892.447	6231.57
892.763	6175.08
893.079	6139.82
893.395	6145.7
893.71	6086.04
894.026	6117.9
894.342	6091.92
894.657	6069.77
894.973	6019.6
895.289	6042.43
895.604	6070.45
895.92	5978.25
896.235	5923.56
896.55	5959.94
896.865	5952.94
897.181	5894.41
897.496	5881.98
897.811	5868.42
898.126	5820.96
898.441	5813.51
898.756	5847.63
899.071	5780.51
899.386	5764.02
899.7	5727.18
900.015	5702.77
900.33	5684.47
900.644	5676.33
900.959	5727.18
901.273	5590.01
901.588	5647.41
901.902	5659.39
902.216	5606.96
902.531	5602.44
902.845	5555.43
903.159	5555.66
903.473	5482.21
903.787	5484.7
904.101	5482.21
904.415	5488.54
904.729	5431.37
905.042	5456.9
905.356	5387.3
905.67	5401.09
905.984	5337.13
906.297	5402.22
906.611	5324.48
906.924	5317.02
907.237	5270.47
907.551	5298.26
907.864	5283.58
908.177	5218.49
908.491	5254.65
908.804	5192.28
909.117	5171.26
909.43	5199.28
909.743	5077.03
910.056	5140.98
910.368	5062.56
910.681	5077.71
910.994	5079.06
911.307	5058.5
911.619	4997.93
911.932	5018.72
912.244	4974.88
912.557	4945.05
912.869	4887.2
913.181	4895.34
913.494	4865.73
913.806	4883.81
914.118	4811.05
914.43	4855.11
914.742	4841.1
915.054	4756.58
915.366	4785.28
915.678	4796.81
915.99	4774.89
916.302	4734.21
916.613	4698.28
916.925	4686.53
917.236	4700.31
917.548	4634.78
917.859	4660.32
918.171	4617.38
918.482	4606.76
918.794	4571.05
919.105	4602.46
919.416	4562.24
919.727	4543.26
920.038	4526.99
920.349	4487.89
920.66	4441.79
920.971	4474.78
921.282	4423.71
921.593	4415.12
921.903	4438.63
922.214	4411.96
922.525	4395.01
922.835	4347.33
923.146	4329.93
923.456	4331.74
923.767	4305.3
924.077	4291.51
924.387	4289.93
924.697	4262.59
925.008	4226.2
925.318	4221
925.628	4236.15
925.938	4201.57
926.248	4152.08
926.558	4143.04
926.867	4153.66
927.177	4147.11
927.487	4070.73
927.796	4062.14
928.106	4086.77
928.416	4053.33
928.725	4054.23
929.034	4005.87
929.344	4021.46
929.653	4004.06
929.962	3977.62
930.271	3962.03
930.581	3941.24
930.89	3940.79
931.199	3902.14
931.508	3905.31
931.817	3900.79
932.125	3884.06
932.434	3907.57
932.743	3844.29
933.051	3776.5
933.36	3822.37
933.669	3781.24
933.977	3799.32
934.286	3775.82
934.594	3759.77
934.902	3762.49
935.21	3713.67
935.519	3761.13
935.827	3682.71
936.135	3693.34
936.443	3673.67
936.751	3685.2
937.059	3618.31
937.367	3580.57
937.674	3577.18
937.982	3562.27
938.29	3550.06
938.597	3543.28
938.905	3574.24
939.213	3536.73
939.52	3521.36
939.827	3521.81
940.135	3455.15
940.442	3443.4
940.749	3438.43
941.056	3444.53
941.363	3427.58
941.67	3422.61
941.977	3408.14
942.284	3379.9
942.591	3385.55
942.898	3372.67
943.205	3364.3
943.511	3333.57
943.818	3317.98
944.125	3302.16
944.431	3268.26
944.738	3272.78
945.044	3230.52
945.35	3235.27
945.657	3215.16
945.963	3181.71
946.269	3217.42
946.575	3207.7
946.881	3195.27
947.187	3138.32
947.493	3140.58
947.799	3130.19
948.105	3121.37
948.41	3103.29
948.716	3141.94
949.022	3107.59
949.327	3078.44
949.633	3101.26
949.938	3050.64
950.244	3072.11
950.549	3021.04
950.854	3023.07
951.16	2994.6
951.465	2972.22
951.77	2966.57
952.075	2942.85
952.38	2984.65
952.685	2955.95
952.99	2941.26
953.294	2927.25
953.599	2910.76
953.904	2879.57
954.209	2864.43
954.513	2893.58
954.818	2847.26
955.122	2853.13
955.426	2812.68
955.731	2797.99
956.035	2827.14
956.339	2788.27
956.643	2810.42
956.948	2767.48
957.252	2764.09
957.556	2768.84
957.86	2760.03
958.163	2755.28
958.467	2729.52
958.771	2726.58
959.075	2699.91
959.378	2684.1
959.682	2678.67
959.985	2661.27
960.289	2691.1
960.592	2622.63
960.896	2628.28
961.199	2635.51
961.502	2602.29
961.805	2609.3
962.108	2606.58
962.411	2591.22
962.714	2584.21
963.017	2573.14
963.32	2547.6
963.623	2546.92
963.926	2546.7
964.228	2524.33
964.531	2528.17
964.833	2516.42
965.136	2508.51
965.438	2499.92
965.741	2487.49
966.043	2474.38
966.345	2428.96
966.648	2423.31
966.95	2429.19
967.252	2408.17
967.554	2430.77
967.856	2418.57
968.158	2395.06
968.46	2405.91
968.761	2373.82
969.063	2358.68
969.365	2372.69
969.666	2355.29
969.968	2340.15
970.269	2319.36
970.571	2334.27
970.872	2278.68
971.174	2294.5
971.475	2254.05
971.776	2268.51
972.077	2277.33
972.378	2249.98
972.679	2274.62
972.98	2240.49
973.281	2211.57
973.582	2212.02
973.883	2215.18
974.183	2221.74
974.484	2194.17
974.785	2193.04
975.085	2193.04
975.386	2198.01
975.686	2156.2
975.986	2139.93
976.287	2178.12
976.587	2112.59
976.887	2138.8
977.187	2101.06
977.487	2128.86
977.787	2112.13
978.087	2092.93
978.387	2096.54
978.687	2060.61
978.987	2083.66
979.286	2074.85
979.586	2068.07
979.885	2007.73
980.185	2043.21
980.484	2017.22
980.784	2038.24
981.083	2007.05
981.382	2009.09
981.682	1985.81
981.981	1979.03
982.28	1963.21
982.579	1963.21
982.878	1961.63
983.177	1972.25
983.475	1941.06
983.774	1928.86
984.073	1942.19
984.372	1929.99
984.67	1892.03
984.969	1891.35
985.267	1876.21
985.566	1915.75
985.864	1872.14
986.162	1864.68
986.461	1839.6
986.759	1854.06
987.057	1836.66
987.355	1813.16
987.653	1816.55
987.951	1871.24
988.249	1834.17
988.547	1803.44
988.844	1798.7
989.142	1794.4
989.44	1793.27
989.737	1768.19
990.035	1794.85
990.332	1784.23
990.63	1741.3
990.927	1740.84
991.224	1734.52
991.521	1735.87
991.819	1723.44
992.116	1750.34
992.413	1718.7
992.71	1701.52
993.006	1707.85
993.303	1696.78
993.6	1661.52
993.897	1664.91
994.193	1693.16
994.49	1654.52
994.787	1663.56
995.083	1654.29
995.379	1663.11
995.676	1622.2
995.972	1628.3
996.268	1652.26
996.565	1609.1
996.861	1622.66
997.157	1602.09
997.453	1594.41
997.749	1585.14
998.044	1588.76
998.34	1574.52
998.636	1563.45
998.932	1556.22
999.227	1546.95
999.523	1534.52
999.818	1551.02
1000.114	1530.68
1000.409	1529.55
1000.704	1481.64
1001	1477.8
1001.295	1517.35
1001.59	1484.81
1001.885	1467.18
1002.18	1458.82
1002.475	1479.16
1002.77	1464.92
1003.065	1414.3
1003.359	1431.25
1003.654	1446.84
1003.949	1428.99
1004.243	1431.47
1004.538	1402.77
1004.832	1420.63
1005.127	1403
1005.421	1397.58
1005.715	1357.8
1006.009	1374.98
1006.304	1366.16
1006.598	1355.54
1006.892	1361.87
1007.186	1342.21
1007.48	1370.91
1007.773	1331.59
1008.067	1318.03
1008.361	1308.77
1008.655	1329.1
1008.948	1283.91
1009.242	1299.05
1009.535	1267.18
1009.829	1275.09
1010.122	1276.45
1010.415	1283
1010.708	1275.77
1011.001	1258.6
1011.295	1253.17
1011.588	1257.01
1011.881	1228.32
1012.173	1234.87
1012.466	1235.77
1012.759	1223.34
1013.052	1210.46
1013.344	1225.83
1013.637	1214.53
1013.93	1197.36
1014.222	1193.29
1014.514	1196.68
1014.807	1187.64
1015.099	1179.95
1015.391	1183.12
1015.683	1182.21
1015.976	1137.7
1016.268	1149.67
1016.56	1122.33
1016.851	1119.17
1017.143	1132.5
1017.435	1151.93
1017.727	1127.75
1018.018	1109
1018.31	1097.92
1018.602	1088.21
1018.893	1095.21
1019.185	1091.14
1019.476	1077.58
1019.767	1070.81
1020.058	1075.1
1020.35	1062.67
1020.641	1044.14
1020.932	1031.26
1021.223	1029.45
1021.514	1037.59
1021.804	1041.43
1022.095	1039.17
1022.386	1010.02
1022.677	1003.01
1022.967	1012.28
1023.258	1010.69
1023.548	991.71
1023.839	1005.5
1024.129	969.56
1024.419	986.29
1024.709	972.5
1025	997.36
1025.29	968.89
1025.58	944.25
1025.87	945.38
1026.16	952.84
1026.449	941.77
1026.739	928.89
1027.029	937.02
1027.319	922.11
1027.608	926.85
1027.898	903.35
1028.187	892.96
1028.477	889.34
1028.766	899.51
1029.055	857.93
1029.344	892.96
1029.634	891.15
1029.923	863.8
1030.212	887.76
1030.501	883.24
1030.79	857.48
1031.078	858.38
1031.367	838.72
1031.656	845.95
1031.945	836.46
1032.233	840.3
1032.522	839.62
1032.81	847.76
1033.099	802.11
1033.387	798.72
1033.675	793.07
1033.963	812.51
1034.251	824.26
1034.54	814.77
1034.828	817.7
1035.116	807.99
1035.403	807.54
1035.691	796.46
1035.979	799.4
1036.267	762.11
1036.554	785.39
1036.842	761.43
1037.129	765.73
1037.417	753.98
1037.704	753.75
1037.992	732.06
1038.279	731.15
1038.566	741.55
1038.853	741.55
1039.14	741.55
