Data from hue_180_FLMS001491_00033.txt Node
Date: Tue Feb 07 16:46:54 GMT 2017
User: dcchb
Spectrometer: FLMS00149
Trigger mode: 0
Integration Time (sec): 2.000000E-2
Scans to average: 10
Electric dark correction enabled: true
Nonlinearity correction enabled: false
Boxcar width: 0
XAxis mode: Wavelengths
Number of Pixels in Spectrum: 2048
>>>>>Begin Spectral Data<<<<<
341.393	-26
341.776	-26
342.16	-26
342.543	-51.09
342.927	-62.84
343.31	-86.79
343.693	-79.11
344.077	-57.19
344.46	-79.33
344.843	-45.89
345.226	-47.02
345.61	-23.97
345.993	-3.18
346.376	-27.13
346.759	25.3
347.142	50.15
347.525	41.57
347.908	62.36
348.291	75.46
348.674	80.44
349.057	114.33
349.44	101
349.823	141.45
350.206	158.85
350.588	190.49
350.971	190.26
351.354	215.12
351.737	235.46
352.119	248.79
352.502	239.53
352.884	263.03
353.267	258.06
353.65	275.68
354.032	291.96
354.414	310.94
354.797	301.22
355.179	324.72
355.562	312.97
355.944	326.98
356.326	324.72
356.709	331.5
357.091	335.57
357.473	328.34
357.855	345.29
358.238	344.61
358.62	337.6
359.002	336.93
359.384	340.99
359.766	333.54
360.148	313.2
360.53	335.8
360.912	315.23
361.294	346.87
361.676	319.98
362.057	318.85
362.439	324.27
362.821	317.94
363.203	316.36
363.584	314.55
363.966	329.02
364.348	344.16
364.729	320.2
365.111	323.82
365.493	324.27
365.874	312.97
366.256	312.29
366.637	306.64
367.019	308.23
367.4	308.23
367.781	320.2
368.163	298.06
368.544	305.51
368.925	318.17
369.306	330.82
369.688	321.33
370.069	313.88
370.45	316.14
370.831	309.81
371.212	305.06
371.593	326.3
371.974	298.28
372.355	302.35
372.736	324.5
373.117	317.72
373.498	306.42
373.879	304.38
374.26	325.18
374.641	315.91
375.021	322.46
375.402	306.87
375.783	314.33
376.163	318.85
376.544	350.26
376.925	326.98
377.305	333.08
377.686	311.39
378.066	340.54
378.447	333.08
378.827	317.27
379.208	320.43
379.588	334.89
379.968	331.73
380.349	343.03
380.729	338.28
381.109	355.91
381.489	336.47
381.87	330.6
382.25	344.84
382.63	340.77
383.01	346.87
383.39	335.57
383.77	353.42
384.15	325.85
384.53	348.23
384.91	356.81
385.29	358.17
385.67	338.06
386.049	332.41
386.429	347.77
386.809	355.91
387.189	360.43
387.568	348.45
387.948	340.99
388.328	350.03
388.707	354.1
389.087	385.06
389.466	353.87
389.846	357.94
390.225	375.34
390.605	358.39
390.984	364.27
391.363	354.55
391.743	376.47
392.122	370.82
392.501	362.91
392.881	372.18
393.26	390.03
393.639	371.95
394.018	372.86
394.397	370.37
394.776	385.74
395.155	370.15
395.534	386.64
395.913	378.28
396.292	377.6
396.671	374.89
397.05	400.88
397.429	385.51
397.808	384.16
398.186	387.77
398.565	401.33
398.944	389.81
399.323	418.73
399.701	402.91
400.08	405.17
400.458	429.35
400.837	421.67
401.215	409.47
401.594	401.33
401.972	422.35
402.351	399.52
402.729	422.12
403.107	437.49
403.486	434.55
403.864	421.9
404.242	420.31
404.62	434.78
404.999	442.23
405.377	425.06
405.755	479.07
406.133	467.32
406.511	468.9
406.889	435.45
407.267	467.77
407.645	480.43
408.023	477.26
408.401	489.69
408.779	496.7
409.156	505.28
409.534	484.49
409.912	496.92
410.29	517.03
410.667	506.41
411.045	553.87
411.422	500.31
411.8	532.4
412.178	563.59
412.555	561.1
412.933	536.02
413.31	557.49
413.687	569.46
414.065	586.86
414.442	585.73
414.819	592.74
415.197	617.82
415.574	604.94
415.951	613.76
416.328	634.55
416.705	630.48
417.082	625.28
417.46	649.69
417.837	639.97
418.214	655.79
418.591	642
418.967	671.61
419.344	661.89
419.721	677.71
420.098	689.23
420.475	710.02
420.852	698.72
421.228	712.06
421.605	722.68
421.982	764.26
422.358	752.96
422.735	779.17
423.111	739.85
423.488	769.68
423.864	778.27
424.241	806.74
424.617	802.9
424.994	827.08
425.37	813.98
425.746	832.51
426.123	859.4
426.499	834.77
426.875	866.18
427.251	853.97
427.627	896.23
428.003	894.65
428.379	923.58
428.756	919.74
429.132	907.08
429.507	955.44
429.883	951.15
430.259	982.33
430.635	951.37
431.011	987.76
431.387	976.46
431.763	1041.99
432.138	992.28
432.514	1037.92
432.89	1036.34
433.265	1081.31
433.641	1073.18
434.016	1104.14
434.392	1136.23
434.767	1129.22
435.143	1133.52
435.518	1148.66
435.894	1184.36
436.269	1193.4
436.644	1205.15
437.02	1242.67
437.395	1224.36
437.77	1251.48
438.145	1293.51
438.52	1288.09
438.895	1319.95
439.271	1342.1
439.646	1342.55
440.021	1349.1
440.395	1401.76
440.77	1400.4
441.145	1378.93
441.52	1436.56
441.895	1445.6
442.27	1471.36
442.645	1448.54
443.019	1502.09
443.394	1471.81
443.769	1500.51
444.143	1529.66
444.518	1543.45
444.892	1543.67
445.267	1541.41
445.641	1590
446.016	1594.52
446.39	1581.87
446.764	1592.03
447.139	1644.69
447.513	1641.98
447.887	1618.02
448.262	1681.75
448.636	1665.25
449.01	1688.76
449.384	1724.46
449.758	1681.98
450.132	1709.09
450.506	1769.88
450.88	1761.75
451.254	1749.32
451.628	1787.28
452.002	1832.03
452.376	1832.93
452.75	1823.67
453.123	1858.47
453.497	1892.59
453.871	1923.78
454.244	1966.94
454.618	1993.15
454.992	1982.76
455.365	1995.19
455.739	2011.01
456.112	2038.8
456.486	2075.64
456.859	2090.78
457.232	2112.02
457.606	2139.14
457.979	2181.85
458.352	2168.29
458.725	2225.01
459.099	2235.86
459.472	2293.48
459.845	2342.98
460.218	2339.36
460.591	2381.17
460.964	2392.69
461.337	2448.74
461.71	2501.39
462.083	2527.83
462.456	2519.02
462.829	2544.55
463.201	2610.09
463.574	2607.83
463.947	2634.49
464.32	2698.9
464.692	2724.21
465.065	2766.47
465.438	2784.77
465.81	2850.08
466.183	2879.46
466.555	2931.89
466.928	2960.13
467.3	2975.27
467.672	3062.28
468.045	3088.49
468.417	3095.27
468.789	3149.51
469.161	3194.7
469.534	3277.41
469.906	3291.42
470.278	3368.26
470.65	3398.77
471.022	3467.01
471.394	3540.46
471.766	3565.09
472.138	3601.02
472.51	3697.06
472.882	3729.15
473.253	3803.95
473.625	3879.88
473.997	4003.95
474.369	3959.88
474.74	4053.21
475.112	4136.37
475.484	4219.31
475.855	4330.27
476.227	4360.78
476.598	4445.52
476.97	4528.45
477.341	4663.59
477.713	4711.5
478.084	4779.3
478.455	4868.33
478.827	4953.98
479.198	5126.63
479.569	5097.03
479.94	5279.17
480.311	5314.2
480.682	5447.98
481.053	5572.95
481.424	5693.62
481.795	5797.8
482.166	5850.91
482.537	5987.85
482.908	6058.58
483.279	6198.47
483.65	6295.19
484.021	6416.31
484.391	6603.2
484.762	6618.57
485.133	6711.67
485.503	6808.17
485.874	6969.75
486.244	7054.94
486.615	7192.34
486.985	7270.76
487.356	7426.23
487.726	7473.01
488.097	7635.94
488.467	7691.31
488.837	7875.49
489.207	8027.12
489.578	8121.81
489.948	8216.94
490.318	8312.76
490.688	8334.46
491.058	8510.72
491.428	8629.59
491.798	8730.83
492.168	8861.67
492.538	8947.1
492.908	9095.79
493.278	9180.76
493.648	9184.38
494.017	9328.78
494.387	9447.42
494.757	9442.22
495.126	9617.13
495.496	9687.87
495.866	9707.53
496.235	9764.02
496.605	9885.38
496.974	9939.16
497.344	9999.72
497.713	10101.87
498.082	10137.57
498.452	10198.81
498.821	10324.69
499.19	10324.91
499.559	10418.47
499.928	10566.71
500.298	10517.22
500.667	10687.61
501.036	10612.59
501.405	10712.25
501.774	10754.73
502.143	10825.01
502.512	10858.68
502.88	10864.78
503.249	10912.02
503.618	11042.18
503.987	11070.2
504.356	11114.04
504.724	11085.57
505.093	11191.1
505.462	11153.14
505.83	11282.63
506.199	11325.56
506.567	11430.65
506.936	11365.34
507.304	11480.36
507.672	11529.4
508.041	11558.55
508.409	11577.08
508.777	11620.02
509.145	11646.23
509.514	11637.19
509.882	11662.5
510.25	11730.07
510.618	11793.35
510.986	11761.48
511.354	11865.44
511.722	11981.37
512.09	12006.45
512.458	11961.03
512.826	12014.81
513.193	12094.13
513.561	12049.39
513.929	12064.08
514.297	12160.57
514.664	12182.94
515.032	12249.38
515.4	12251.87
515.767	12206.22
516.135	12316.95
516.502	12232.21
516.869	12376.61
517.237	12392.65
517.604	12270.17
517.972	12425.65
518.339	12399.66
518.706	12441.24
519.073	12387.68
519.44	12462.94
519.808	12495.7
520.175	12450.05
520.542	12523.95
520.909	12571.18
521.276	12572.54
521.643	12601.24
522.009	12587.45
522.376	12695.92
522.743	12693.89
523.11	12723.04
523.477	12734.79
523.843	12773.89
524.21	12902.7
524.577	12879.2
524.943	12847.33
525.31	12871.06
525.676	12866.31
526.043	12914.45
526.409	12970.04
526.776	12946.09
527.142	12905.64
527.508	13023.15
527.874	12959.19
528.241	12944.05
528.607	12979.76
528.973	13110.83
529.339	12960.32
529.705	12972.98
530.071	13110.38
530.437	12960.32
530.803	12921
531.169	12999.64
531.535	12906.99
531.901	12963.49
532.267	12992.19
532.632	12910.38
532.998	12918.06
533.364	12888.46
533.73	12882.81
534.095	12974.11
534.461	12934.56
534.826	12901.34
535.192	12861.57
535.557	12904.05
535.923	12851.4
536.288	12798.07
536.653	12698.64
537.019	12660.44
537.384	12635.36
537.749	12640.33
538.114	12623.16
538.479	12527.34
538.845	12554.91
539.21	12468.58
539.575	12419.77
539.94	12369.15
540.305	12450.73
540.67	12294.35
541.034	12337.29
541.399	12325.09
541.764	12211.87
542.129	12131.87
542.494	12127.35
542.858	12191.98
543.223	12062.72
543.587	12060.69
543.952	11977.07
544.316	12080.57
544.681	11893.46
545.045	11911.99
545.41	11870.63
545.774	11843.97
546.138	11775.04
546.503	11806.46
546.867	11676.74
547.231	11707.93
547.595	11689.85
547.959	11705.21
548.324	11574.37
548.688	11533.24
549.052	11445.11
549.416	11421.83
549.779	11402.62
550.143	11358.33
550.507	11420.7
550.871	11325.11
551.235	11343.19
551.599	11268.84
551.962	11228.62
552.326	11282.4
552.689	11247.83
553.053	11097.77
553.417	11058.23
553.78	11183.42
554.143	11083.76
554.507	11085.57
554.87	11023.65
555.234	11067.72
555.597	11029.53
555.96	10914.28
556.323	10956.53
556.686	10845.35
557.05	11007.15
557.413	10841.73
557.776	10903.88
558.139	10889.42
558.502	10863.88
558.865	10898.23
559.228	10918.12
559.59	10852.81
559.953	10817.33
560.316	10937.55
560.679	10836.76
561.041	10891
561.404	10836.99
561.767	10841.28
562.129	10746.6
562.492	10844.9
562.854	10799.7
563.217	10789.31
563.579	10767.39
563.941	10815.29
564.304	10784.11
564.666	10847.61
565.028	10874.28
565.39	10799.48
565.753	10852.58
566.115	10879.25
566.477	10841.06
566.839	10865.69
567.201	10879.25
567.563	10787.95
567.925	10923.31
568.287	10861.85
568.648	10873.82
569.01	10944.56
569.372	10981.84
569.734	10862.3
570.095	10908.17
570.457	10942.97
570.819	10916.99
571.18	10825.01
571.542	10949.75
571.903	10973.26
572.265	10914.5
572.626	10986.82
572.987	10955.63
573.349	10929.19
573.71	11017.32
574.071	11060.26
574.432	11029.98
574.794	11022.29
575.155	11059.36
575.516	10933.94
575.877	10978.68
576.238	11044.67
576.599	11051.67
576.96	10980.71
577.32	11042.41
577.681	10971.45
578.042	10951.56
578.403	10963.54
578.763	10949.53
579.124	11026.36
579.485	11018.68
579.845	11018
580.206	10965.8
580.566	11067.94
580.927	11008.74
581.287	11008.96
581.648	11017.1
582.008	10970.09
582.368	10997.89
582.728	10991.11
583.089	10973.48
583.449	10888.29
583.809	10916.31
584.169	10905.01
584.529	10934.84
584.889	10992.24
585.249	10903.43
585.609	10899.13
585.969	10956.08
586.329	10868.85
586.688	10948.4
587.048	10886.03
587.408	10815.29
587.768	10912.24
588.127	10798.57
588.487	10770.1
588.846	10891.9
589.206	10848.06
589.565	10829.98
589.925	10832.7
590.284	10851.23
590.643	10772.58
591.003	10861.17
591.362	10853.03
591.721	10758.12
592.08	10771.68
592.44	10830.66
592.799	10793.15
593.158	10803.32
593.517	10737.1
593.876	10776.88
594.235	10738.23
594.593	10734.84
594.952	10761.96
595.311	10651.91
595.67	10750.66
596.029	10750.44
596.387	10728.97
596.746	10792.7
597.104	10687.61
597.463	10636.99
597.822	10716.31
598.18	10653.04
598.538	10718.57
598.897	10611.01
599.255	10667.5
599.613	10761.06
599.972	10651.23
600.33	10688.07
600.688	10624.34
601.046	10636.77
601.404	10674.73
601.762	10662.08
602.12	10750.66
602.478	10662.53
602.836	10713.15
603.194	10634.06
603.552	10693.26
603.91	10710.66
604.268	10662.76
604.625	10601.06
604.983	10628.18
605.341	10598.13
605.698	10619.59
606.056	10678.58
606.413	10652.81
606.771	10641.29
607.128	10711.34
607.485	10662.08
607.843	10624.11
608.2	10687.16
608.557	10745.47
608.914	10709.53
609.272	10720.16
609.629	10790.21
609.986	10778.23
610.343	10688.29
610.7	10741.17
611.057	10716.77
611.414	10742.98
611.771	10802.87
612.127	10802.87
612.484	10752.47
612.841	10821.4
613.198	10723.09
613.554	10780.95
613.911	10802.87
614.267	10788.18
614.624	10791.79
614.98	10757.22
615.337	10865.69
615.693	10792.24
616.05	10722.87
616.406	10853.94
616.762	10842.41
617.118	10853.71
617.475	10842.41
617.831	10855.97
618.187	10897.78
618.543	10835.86
618.899	10855.97
619.255	10970.77
619.611	10868.4
619.967	10943.43
620.323	10965.35
620.678	10920.6
621.034	10848.97
621.39	10860.94
621.746	10856.42
622.101	10952.24
622.457	10845.12
622.812	10931.9
623.168	10924.9
623.523	10877.67
623.879	10951.34
624.234	10880.38
624.589	10909.76
624.945	10916.31
625.3	10964.22
625.655	10967.61
626.01	10891
626.365	10972.8
626.72	10898.46
627.075	10915.41
627.43	10877.67
627.785	10853.49
628.14	10826.59
628.495	10880.15
628.85	10830.21
629.205	10728.52
629.559	10760.61
629.914	10812.36
630.269	10787.27
630.623	10849.19
630.978	10737.33
631.332	10775.07
631.687	10777.33
632.041	10754.05
632.396	10761.51
632.75	10712.47
633.104	10699.82
633.459	10698.24
633.813	10729.42
634.167	10723.09
634.521	10627.73
634.875	10648.97
635.229	10674.06
635.583	10665.92
635.937	10618.46
636.291	10605.81
636.645	10608.52
636.999	10581.63
637.352	10649.2
637.706	10582.76
638.06	10556.77
638.413	10455.08
638.767	10532.82
639.121	10436.55
639.474	10427.96
639.828	10462.31
640.181	10517.9
640.534	10448.98
640.888	10448.3
641.241	10411.24
641.594	10393.84
641.947	10510.9
642.301	10401.75
642.654	10442.42
643.007	10429.99
643.36	10411.92
643.713	10353.61
644.066	10329.43
644.419	10317.68
644.771	10323.78
645.124	10233.62
645.477	10220.06
645.83	10115.2
646.182	10045.82
646.535	10013.28
646.888	10032.49
647.24	9963.34
647.593	10037.46
647.945	10030.68
648.298	10029.55
648.65	9973.73
649.002	9959.27
649.355	10036.56
649.707	10020.97
650.059	10121.98
650.411	10146.61
650.763	10164.92
651.115	10242.88
651.467	10223.45
651.819	10174.63
652.171	10181.41
652.523	10168.53
652.875	10131.02
653.227	10158.14
653.578	10231.58
653.93	10196.33
654.282	10168.31
654.633	10173.05
654.985	10171.02
655.337	10215.76
655.688	10213.73
656.039	10253.73
656.391	10219.15
656.742	10214.18
657.094	10231.58
657.445	10237.91
657.796	10220.06
658.147	10195.88
658.498	10245.14
658.849	10199.94
659.2	10178.48
659.551	10154.3
659.902	10247.17
660.253	10238.36
660.604	10255.54
660.955	10247.4
661.306	10194.97
661.656	10226.61
662.007	10274.07
662.358	10172.83
662.708	10227.29
663.059	10203.33
663.409	10232.71
663.76	10241.3
664.11	10259.15
664.461	10236.33
664.811	10231.36
665.161	10225.25
665.511	10258.47
665.862	10232.71
666.212	10266.61
666.562	10293.05
666.912	10252.82
667.262	10216.89
667.612	10260.96
667.962	10212.15
668.312	10248.98
668.662	10310.68
669.011	10234.97
669.361	10172.15
669.711	10221.41
670.06	10191.58
670.41	10149.78
670.76	10220.28
671.109	10171.02
671.459	10197.91
671.808	10190
672.157	10132.83
672.507	10138.7
672.856	10213.73
673.205	10155.88
673.554	10192.03
673.904	10163.33
674.253	10192.71
674.602	10120.85
674.951	10060.06
675.3	9921.31
675.649	10122.88
675.998	10042.43
676.346	10074.52
676.695	10161.53
677.044	9985.49
677.393	10032.26
677.741	10093.51
678.09	10021.87
678.438	9961.76
678.787	9984.81
679.135	9978.03
679.484	9919.5
679.832	9993.4
680.181	9872.04
680.529	10002.43
680.877	9887.86
681.225	9905.49
681.573	9969.44
681.922	9765.15
682.27	9832.95
682.618	9847.86
682.966	9835.21
683.314	9816.22
683.661	9738.71
684.009	9731.48
684.357	9693.74
684.705	9693.52
685.053	9759.73
685.4	9657.59
685.748	9597.47
686.095	9545.27
686.443	9587.08
686.79	9512.73
687.138	9616.46
687.485	9612.16
687.832	9483.13
688.18	9566.74
688.527	9482.67
688.874	9443.58
689.221	9413.3
689.568	9399.06
689.915	9403.13
690.262	9287.2
690.609	9320.64
690.956	9347.76
691.303	9278.39
691.65	9239.97
691.997	9180.99
692.344	9152.51
692.69	9176.69
693.037	9173.3
693.383	9068.22
693.73	9085.85
694.077	9005.17
694.423	8971.05
694.769	9026.64
695.116	9015.34
695.462	8945.29
695.808	8952.29
696.155	8905.97
696.501	8781.22
696.847	8819.64
697.193	8748
697.539	8745.97
697.885	8697.84
698.231	8712.53
698.577	8663.71
698.923	8667.78
699.269	8658.29
699.614	8568.12
699.96	8515.47
700.306	8493.1
700.651	8502.59
700.997	8473.89
701.342	8404.96
701.688	8456.94
702.033	8321.8
702.379	8356.15
702.724	8357.73
703.069	8340.33
703.415	8207.68
703.76	8236.83
704.105	8274.8
704.45	8201.8
704.795	8091.52
705.14	8130.17
705.485	8118.19
705.83	8044.52
706.175	8078.64
706.52	8021.02
706.865	7970.62
707.209	8039.55
707.554	7935.37
707.899	7923.85
708.243	7929.04
708.588	7849.5
708.932	7821.93
709.277	7788.48
709.621	7835.26
709.966	7715.72
710.31	7792.32
710.654	7618.09
710.998	7725.88
711.342	7759.33
711.687	7662.84
712.031	7673.68
712.375	7555.95
712.719	7671.87
713.063	7589.16
713.407	7634.81
713.75	7553.46
714.094	7574.7
714.438	7537.87
714.782	7510.75
715.125	7564.98
715.469	7536.96
715.812	7476.4
716.156	7455.38
716.499	7448.38
716.843	7459.45
717.186	7391.88
717.53	7454.03
717.873	7466.91
718.216	7350.3
718.559	7310.53
718.902	7385.33
719.246	7370.41
719.589	7368.83
719.932	7282.73
720.275	7357.31
720.617	7300.36
720.96	7265.33
721.303	7298.55
721.646	7295.39
721.989	7292.9
722.331	7282.05
722.674	7242.73
723.016	7241.15
723.359	7265.56
723.701	7246.8
724.044	7173.36
724.386	7152.79
724.729	7244.54
725.071	7227.82
725.413	7172.68
725.755	7223.52
726.097	7136.07
726.439	7116.63
726.782	7196.63
727.124	7202.28
727.465	7151.21
727.807	7112.79
728.149	7133.81
728.491	7160.48
728.833	7125
729.175	7112.34
729.516	7091.1
729.858	7109.86
730.199	7121.61
730.541	7139.23
730.882	7099.01
731.224	7175.62
731.565	7098.78
731.906	7193.92
732.248	7106.92
732.589	7132.91
732.93	7041.83
733.271	7023.98
733.612	7081.16
733.953	7127.26
734.294	7089.07
734.635	7136.52
734.976	7111.21
735.317	7051.55
735.658	7095.39
735.999	7091.32
736.339	7107.37
736.68	7110.76
737.021	7094.04
737.361	7106.69
737.702	7122.51
738.042	7088.61
738.383	7131.32
738.723	7137.43
739.063	7121.61
739.404	7200.93
739.744	7143.98
740.084	7123.41
740.424	7232.79
740.764	7231.43
741.104	7249.51
741.444	7176.52
741.784	7208.16
742.124	7259
742.464	7225.56
742.804	7223.52
743.143	7272.34
743.483	7291.32
743.823	7277.99
744.162	7270.08
744.502	7356.4
744.841	7375.16
745.181	7433.24
745.52	7411.54
745.86	7484.99
746.199	7509.62
746.538	7473.91
746.877	7614.93
747.216	7635.04
747.556	7643.85
747.895	7670.29
748.234	7718.65
748.573	7768.6
748.911	7875.49
749.25	7906.22
749.589	7936.27
749.928	7964.07
750.267	8076.84
750.605	8129.04
750.944	8192.76
751.283	8182.82
751.621	8303.27
751.96	8346.21
752.298	8476.83
752.636	8538.29
752.975	8583.94
753.313	8700.1
753.651	8845.63
753.989	8909.36
754.327	9003.59
754.666	9041.56
755.004	9192.29
755.342	9302.79
755.679	9446.74
756.017	9583.24
756.355	9802.89
756.693	9794.76
757.031	9994.53
757.368	10065.03
757.706	10288.98
758.044	10295.76
758.381	10487.62
758.719	10662.3
759.056	10844.45
759.394	10965.12
759.731	11086.25
760.068	11217.09
760.405	11315.62
760.743	11451.21
761.08	11653.69
761.417	11796.51
761.754	11987.92
762.091	12213.9
762.428	12314.01
762.765	12463.16
763.102	12617.96
763.438	12829.25
763.775	12882.81
764.112	13191.28
764.449	13377.04
764.785	13473.3
765.122	13589.69
765.458	13603.24
765.795	13869.23
766.131	14049.11
766.467	14178.82
766.804	14291.59
767.14	14394.41
767.476	14594.86
767.812	14651.8
768.148	14826.71
768.485	14912.36
768.821	15043.88
769.157	15204.56
769.492	15321.16
769.828	15480.93
770.164	15543.98
770.5	15652.23
770.836	15813.13
771.171	15819.68
771.507	15980.13
771.842	16000.24
772.178	16112.56
772.513	16267.13
772.849	16256.28
773.184	16399.78
773.519	16503.51
773.855	16498.54
774.19	16581.7
774.525	16656.05
774.86	16825.76
775.195	16825.98
775.53	16848.36
775.865	16935.59
776.2	16884.51
776.535	16889.26
776.87	17028.69
777.205	17031.18
777.539	17087.67
777.874	17261.9
778.209	17192.98
778.543	17221.91
778.878	17226.65
779.212	17338.06
779.547	17314.56
779.881	17419.41
780.215	17401.11
780.55	17486.53
780.884	17402.69
781.218	17438.4
781.552	17383.48
781.886	17444.05
782.22	17422.13
782.554	17490.6
782.888	17379.87
783.222	17421.22
783.556	17312.98
783.889	17485.18
784.223	17389.59
784.557	17341.45
784.89	17465.97
785.224	17392.3
785.557	17335.35
785.891	17317.27
786.224	17354.78
786.558	17389.59
786.891	17267.55
787.224	17269.59
787.557	17183.71
787.891	17242.47
788.224	17302.36
788.557	17301.23
788.89	17298.29
789.223	17270.04
789.556	17199.76
789.888	17213.32
790.221	17172.64
790.554	17079.99
790.887	17095.81
791.219	16988.24
791.552	17111.17
791.884	17005.87
792.217	16872.31
792.549	16853.55
792.882	16881.35
793.214	16831.86
793.546	16823.72
793.879	16761.35
794.211	16782.14
794.543	16770.62
794.875	16698.76
795.207	16722.26
795.539	16627.35
795.871	16713.9
796.203	16594.8
796.535	16540.57
796.867	16425.77
797.198	16499.21
797.53	16410.4
797.862	16313.46
798.193	16339.22
798.525	16271.42
798.856	16328.82
799.188	16227.58
799.519	16114.36
799.85	16175.61
800.182	16159.11
800.513	16101.71
800.844	15943.3
801.175	16149.17
801.506	16087.92
801.837	15979.23
802.168	16004.54
802.499	15896.97
802.83	15886.35
803.161	15797.08
803.491	15866.46
803.822	15762.96
804.153	15720.7
804.483	15634.38
804.814	15578.56
805.145	15571.55
805.475	15579.92
805.805	15531.78
806.136	15491.78
806.466	15508.05
806.796	15487.04
807.126	15411.33
807.457	15310.32
807.787	15349.41
808.117	15367.49
808.447	15289.75
808.777	15316.65
809.107	15219.92
809.436	15244.56
809.766	15191.9
810.096	15151.23
810.426	15076.43
810.755	15130.89
811.085	15134.73
811.414	14990.1
811.744	14977.67
812.073	14971.57
812.403	14937.22
812.732	14795.08
813.061	14870.1
813.39	14769.77
813.719	14759.15
814.049	14771.8
814.378	14777.68
814.707	14654.52
815.036	14729.09
815.365	14646.61
815.693	14525.25
816.022	14593.95
816.351	14520.28
816.68	14469.44
817.008	14553.95
817.337	14421.98
817.665	14370.46
817.994	14428.31
818.322	14299.27
818.651	14320.29
818.979	14191.93
819.307	14341.98
819.636	14324.35
819.964	14238.93
820.292	14270.35
820.62	14208.43
820.948	14238.26
821.276	14282.1
821.604	14155.55
821.932	14183.12
822.259	14271.7
822.587	14207.75
822.915	14239.39
823.243	14322.55
823.57	14228.31
823.898	14174.53
824.225	14183.57
824.553	14181.31
824.88	14170.23
825.207	14252.94
825.535	14174.08
825.862	14273.28
826.189	14227.63
826.516	14227.41
826.843	14356.9
827.17	14306.28
827.497	14348.54
827.824	14255.88
828.151	14356.22
828.478	14279.61
828.805	14352.38
829.131	14263.79
829.458	14312.6
829.785	14239.16
830.111	14178.14
830.438	14324.13
830.764	14333.62
831.09	14338.59
831.417	14202.55
831.743	14316.67
832.069	14283.45
832.395	14186.73
832.722	14261.08
833.048	14172.95
833.374	14214.08
833.7	14186.51
834.026	14138.6
834.351	14168.88
834.677	14148.99
835.003	14212.95
835.329	14164.13
835.654	14109.9
835.98	14066.51
836.306	14068.77
836.631	14028.32
836.956	14077.81
837.282	14107.64
837.607	13963.46
837.932	14016.11
838.258	14053.18
838.583	13968.66
838.908	13849.57
839.233	13972.27
839.558	13875.55
839.883	13824.03
840.208	13777.25
840.533	13748.78
840.858	13867.87
841.182	13816.35
841.507	13728.21
841.832	13612.06
842.156	13680.08
842.481	13674.2
842.805	13740.19
843.13	13654.09
843.454	13627.42
843.778	13530.93
844.103	13477.37
844.427	13475.56
844.751	13437.82
845.075	13378.62
845.399	13393.08
845.723	13287.77
846.047	13262.91
846.371	13308.34
846.695	13177.72
847.019	13033.32
847.343	13057.72
847.666	12943.37
847.99	12976.59
848.313	12935.24
848.637	12797.39
848.96	12889.36
849.284	12846.65
849.607	12692.08
849.931	12740.44
850.254	12711.06
850.577	12589.49
850.9	12495.7
851.223	12373.67
851.546	12451.86
851.869	12322.6
852.192	12343.62
852.515	12321.02
852.838	12224.07
853.161	12107.01
853.483	12098.2
853.806	12051.19
854.129	12040.57
854.451	12010.07
854.774	11908.37
855.096	11951.31
855.419	11911.76
855.741	11844.87
856.063	11782.05
856.385	11806.46
856.708	11770.3
857.03	11710.86
857.352	11715.16
857.674	11693.92
857.996	11577.08
858.318	11530.08
858.64	11569.4
858.961	11570.98
859.283	11420.7
859.605	11377.31
859.926	11495.05
860.248	11403.53
860.57	11378.9
860.891	11428.84
861.212	11313.36
861.534	11258.67
861.855	11224.32
862.176	11203.31
862.498	11301.84
862.819	11306.81
863.14	11185.68
863.461	11108.62
863.782	11097.32
864.103	11102.97
864.424	11116.76
864.745	11122.63
865.065	11032.69
865.386	10995.4
865.707	10969.64
866.027	10986.82
866.348	10928.74
866.668	10966.7
866.989	11032.69
867.309	10902.98
867.63	10818.23
867.95	10879.25
868.27	10851.68
868.59	10882.19
868.91	10802.87
869.23	10771.68
869.55	10755.86
869.87	10715.18
870.19	10747.05
870.51	10724.68
870.83	10829.98
871.15	10610.1
871.469	10688.29
871.789	10723.55
872.109	10643.32
872.428	10619.82
872.748	10630.67
873.067	10629.76
873.386	10599.93
873.706	10614.4
874.025	10442.2
874.344	10516.55
874.663	10499.6
874.982	10494.63
875.301	10544.79
875.62	10493.72
875.939	10496.21
876.258	10479.94
876.577	10435.42
876.896	10439.71
877.214	10395.64
877.533	10384.12
877.852	10367.85
878.17	10312.71
878.489	10429.09
878.807	10366.27
879.125	10220.28
879.444	10299.38
879.762	10200.85
880.08	10258.02
880.398	10146.84
880.716	10232.26
881.034	10151.81
881.352	10161.98
881.67	10099.83
881.988	10126.05
882.306	10176.89
882.624	10008.99
882.941	9977.58
883.259	9960.85
883.577	9942.1
883.894	9984.13
884.212	9974.41
884.529	9896.22
884.846	9849.9
885.164	9938.71
885.481	9913.85
885.798	9774.19
886.115	9739.39
886.432	9756.34
886.75	9768.54
887.067	9828.43
887.383	9724.02
887.7	9698.26
888.017	9610.81
888.334	9672.05
888.651	9657.36
888.967	9566.97
889.284	9520.41
889.6	9488.32
889.917	9482.67
890.233	9529.9
890.55	9414.2
890.866	9443.81
891.182	9423.69
891.498	9372.85
891.815	9378.04
892.131	9275.9
892.447	9295.79
892.763	9215.11
893.079	9243.36
893.395	9226.41
893.71	9156.36
894.026	9129.46
894.342	9103.48
894.657	9032.06
894.973	9086.75
895.289	9062.57
895.604	9003.59
895.92	8990.26
896.235	8956.59
896.55	8872.75
896.865	8856.7
897.181	8837.95
897.496	8849.24
897.811	8757.95
898.126	8781.45
898.441	8768.57
898.756	8671.85
899.071	8692.86
899.386	8675.01
899.7	8547.56
900.015	8520.21
900.33	8532.64
900.644	8496.71
900.959	8489.03
901.273	8488.58
901.588	8434.79
901.902	8403.83
902.216	8327.45
902.531	8264.4
902.845	8346.89
903.159	8246.55
903.473	8250.62
903.787	8099.66
904.101	8155.25
904.415	8172.2
904.729	8157.96
905.042	8062.37
905.356	8101.92
905.67	8041.36
905.984	8087.23
906.297	7967.91
906.611	7872.55
906.924	7918.65
907.237	7916.84
907.551	7854.24
907.864	7836.39
908.177	7856.5
908.491	7798.88
908.804	7708.26
909.117	7696.05
909.43	7601.82
909.743	7531.31
910.056	7620.35
910.368	7582.16
910.681	7494.7
910.994	7484.76
911.307	7452.45
911.619	7382.62
911.932	7453.35
912.244	7341.26
912.557	7380.81
912.869	7266.01
913.181	7239.12
913.494	7286.12
913.806	7177.42
914.118	7202.73
914.43	7137.43
914.742	7146.69
915.054	7002.74
915.366	7028.5
915.678	7050.65
915.99	6959.12
916.302	6919.35
916.613	6930.88
916.925	6929.52
917.236	6907.83
917.548	6881.84
917.859	6814.5
918.171	6767.49
918.482	6746.7
918.794	6726.14
919.105	6714.61
919.416	6717.78
919.727	6709.87
920.038	6669.42
920.349	6610.89
920.66	6597.1
920.971	6569.76
921.282	6597.55
921.593	6529.76
921.903	6513.26
922.214	6474.62
922.525	6426.03
922.835	6431.46
923.146	6374.51
923.456	6370.67
923.767	6344.68
924.077	6339.25
924.387	6304.9
924.697	6240.27
925.008	6250.67
925.318	6206.6
925.628	6228.52
925.938	6208.86
926.248	6156.89
926.558	6085.48
926.867	6052.93
927.177	6082.09
927.487	6049.09
927.796	5946.95
928.106	5957.8
928.416	5946.72
928.725	5934.97
929.034	5885.25
929.344	5936.1
929.653	5827.86
929.962	5827.63
930.271	5812.26
930.581	5777.69
930.89	5730.68
931.199	5738.14
931.508	5741.98
931.817	5738.37
932.125	5674.41
932.434	5617.24
932.743	5589.44
933.051	5594.64
933.36	5552.38
933.669	5566.62
933.977	5547.86
934.286	5506.73
934.594	5524.81
934.902	5484.36
935.21	5486.85
935.519	5452.5
935.827	5394.19
936.135	5355.33
936.443	5340.18
936.751	5264.48
937.059	5334.31
937.367	5265.16
937.674	5220.64
937.982	5237.59
938.29	5250.7
938.597	5187.42
938.905	5120.98
939.213	5114.2
939.52	5124.37
939.827	5099.51
940.135	5064.71
940.442	5062
940.749	5077.37
941.056	5020.64
941.363	4992.85
941.67	4974.32
941.977	4906.3
942.284	4891.38
942.591	4921.89
942.898	4930.25
943.205	4869.46
943.511	4816.36
943.818	4826.07
944.125	4824.49
944.431	4791.5
944.738	4726.87
945.044	4806.87
945.35	4752.86
945.657	4686.19
945.963	4659.52
946.269	4658.85
946.575	4642.58
946.881	4580.66
947.187	4594.44
947.493	4580.43
947.799	4611.39
948.105	4514.9
948.41	4549.7
948.716	4525.29
949.022	4472.64
949.327	4513.54
949.633	4470.6
949.938	4384.5
950.244	4447.33
950.549	4427.44
950.854	4375.46
951.16	4355.8
951.465	4326.2
951.77	4330.95
952.075	4272.42
952.38	4271.29
952.685	4301.12
952.99	4244.62
953.294	4197.39
953.599	4224.06
953.904	4189.25
954.209	4202.36
954.513	4179.54
954.818	4111.74
955.122	4149.26
955.426	4160.78
955.731	4078.52
956.035	4059.77
956.339	4057.51
956.643	4017.28
956.948	3998.07
957.252	3988.58
957.556	4009.6
957.86	3939.32
958.163	3998.3
958.467	3923.05
958.771	3926.66
959.075	3909.04
959.378	3860.9
959.682	3881.92
959.985	3844.4
960.289	3840.34
960.592	3835.82
960.896	3828.36
961.199	3779.77
961.502	3793.33
961.805	3782.94
962.108	3749.94
962.411	3749.94
962.714	3709.94
963.017	3674.92
963.32	3660.45
963.623	3667.23
963.926	3633.34
964.228	3627.69
964.531	3607.8
964.833	3589.5
965.136	3566.9
965.438	3572.1
965.741	3504.53
966.043	3520.8
966.345	3508.82
966.648	3512.44
966.95	3492.32
967.252	3484.41
967.554	3473.79
967.856	3431.99
968.158	3399.44
968.46	3421.82
968.761	3395.38
969.063	3413.91
969.365	3376.17
969.666	3368.71
969.968	3326.23
970.269	3383.85
970.571	3319.45
970.872	3281.71
971.174	3291.2
971.475	3301.37
971.776	3274.02
972.077	3264.31
972.378	3231.77
972.679	3247.58
972.98	3223.18
973.281	3162.39
973.582	3169.39
973.883	3165.78
974.183	3160.13
974.484	3133.91
974.785	3099.79
975.085	3111.99
975.386	3126.01
975.686	3079.9
975.986	3050.98
976.287	3082.16
976.587	3038.32
976.887	3017.99
977.187	3007.14
977.487	2966.69
977.787	2972.79
978.087	2969.63
978.387	2947.93
978.687	2951.77
978.987	2933.02
979.286	2894.83
979.586	2906.8
979.885	2902.51
980.185	2862.51
980.484	2883.75
980.784	2882.85
981.083	2874.49
981.382	2819.12
981.682	2787.26
981.981	2796.75
982.28	2776.18
982.579	2777.54
982.878	2802.4
983.177	2764.88
983.475	2768.5
983.774	2715.17
984.073	2690.54
984.372	2713.81
984.67	2687.6
984.969	2709.07
985.267	2692.8
985.566	2655.51
985.864	2638.56
986.162	2616.41
986.461	2634.04
986.759	2609.63
987.057	2601.73
987.355	2587.49
987.653	2596.53
987.951	2557.88
988.249	2552.24
988.547	2572.35
988.844	2523.54
989.142	2535.06
989.44	2509.75
989.737	2508.62
990.035	2458
990.332	2453.93
990.63	2420.26
990.927	2472.46
991.224	2448.51
991.521	2453.48
991.819	2423.42
992.116	2403.31
992.413	2374.84
992.71	2377.55
993.006	2398.57
993.303	2325.12
993.6	2336.2
993.897	2313.82
994.193	2381.17
994.49	2308.4
994.787	2303.43
995.083	2313.6
995.379	2302.52
995.676	2263.2
995.972	2271.11
996.268	2243.77
996.565	2245.8
996.861	2241.28
997.157	2219.59
997.453	2210.32
997.749	2209.87
998.044	2169.87
998.34	2191.57
998.636	2197.67
998.932	2119.03
999.227	2150.89
999.523	2140.49
999.818	2139.82
1000.114	2077.67
1000.409	2102.98
1000.704	2055.3
1001	2096.2
1001.295	2072.47
1001.59	2066.37
1001.885	2057.11
1002.18	2008.29
1002.475	1997.9
1002.77	2015.07
1003.065	2005.36
1003.359	1981.63
1003.654	1947.51
1003.949	1989.54
1004.243	1967.84
1004.538	1926.04
1004.832	1935.75
1005.127	1900.73
1005.421	1896.43
1005.715	1863.21
1006.009	1893.27
1006.304	1888.52
1006.598	1902.53
1006.892	1845.59
1007.186	1853.27
1007.48	1814.4
1007.773	1843.55
1008.067	1818.7
1008.361	1815.53
1008.655	1798.58
1008.948	1768.98
1009.242	1777.79
1009.535	1797
1009.829	1727.17
1010.122	1740.51
1010.415	1737.57
1010.708	1755.87
1011.001	1728.3
1011.295	1744.35
1011.588	1689.43
1011.881	1652.82
1012.173	1680.85
1012.466	1679.49
1012.759	1672.71
1013.052	1655.76
1013.344	1633.39
1013.637	1656.67
1013.93	1594.75
1014.222	1625.25
1014.514	1589.55
1014.807	1574.18
1015.099	1575.09
1015.391	1567.18
1015.683	1564.24
1015.976	1528.53
1016.268	1534.41
1016.56	1538.48
1016.851	1503.68
1017.143	1503.22
1017.435	1512.04
1017.727	1498.03
1018.018	1502.55
1018.31	1474.07
1018.602	1473.39
1018.893	1452.83
1019.185	1440.63
1019.476	1458.48
1019.767	1446.5
1020.058	1411.93
1020.35	1418.48
1020.641	1377.8
1020.932	1383
1021.223	1419.16
1021.514	1382.32
1021.804	1382.1
1022.095	1372.83
1022.386	1364.7
1022.677	1334.19
1022.967	1341.19
1023.258	1322.66
1023.548	1310.46
1023.839	1304.81
1024.129	1285.38
1024.419	1279.5
1024.709	1284.25
1025	1287.18
1025.29	1269.33
1025.58	1268.88
1025.87	1260.74
1026.16	1242.21
1026.449	1246.96
1026.739	1215.77
1027.029	1230.01
1027.319	1203.34
1027.608	1205.38
1027.898	1205.6
1028.187	1201.54
1028.477	1187.75
1028.766	1172.61
1029.055	1150.01
1029.344	1143.68
1029.634	1144.59
1029.923	1154.76
1030.212	1153.4
1030.501	1145.72
1030.79	1133.97
1031.078	1107.3
1031.367	1131.03
1031.656	1086.51
1031.945	1090.8
1032.233	1068.43
1032.522	1064.14
1032.81	1063.91
1033.099	1069.79
1033.387	1036.12
1033.675	1054.87
1033.963	1038.83
1034.251	1060.07
1034.54	1030.24
1034.828	1028.89
1035.116	1010.35
1035.403	1032.05
1035.691	1001.99
1035.979	1028.89
1036.267	960.41
1036.554	990.24
1036.842	957.7
1037.129	984.59
1037.417	983.69
1037.704	959.06
1037.992	969.68
1038.279	935.1
1038.566	945.95
1038.853	945.95
1039.14	945.95
