Data from hue_10_FLMS001491_68.txt Node
Date: Mon Feb 06 15:32:20 GMT 2017
User: dcchb
Spectrometer: FLMS00149
Trigger mode: 0
Integration Time (sec): 2.000000E-2
Scans to average: 10
Electric dark correction enabled: true
Nonlinearity correction enabled: false
Boxcar width: 0
XAxis mode: Wavelengths
Number of Pixels in Spectrum: 2048
>>>>>Begin Spectral Data<<<<<
341.393	-24.02
341.776	-24.02
342.16	-24.02
342.543	-58.37
342.927	-59.05
343.31	-77.58
343.693	-73.52
344.077	-44.59
344.46	-72.84
344.843	-44.82
345.226	-38.26
345.61	-28.77
345.993	-31.03
346.376	5.58
346.759	20.27
347.142	14.17
347.525	33.6
347.908	59.59
348.291	63.66
348.674	96.42
349.057	118.12
349.44	130.55
349.823	132.81
350.206	156.31
350.588	203.77
350.971	206.25
351.354	217.1
351.737	249.87
352.119	243.54
352.502	286.7
352.884	278.79
353.267	277.44
353.65	277.66
354.032	291.9
354.414	300.49
354.797	304.78
355.179	313.14
355.562	317.44
355.944	313.82
356.326	353.14
356.709	346.13
357.091	335.06
357.473	346.59
357.855	321.95
358.238	343.88
358.62	353.37
359.002	367.15
359.384	329.41
359.766	347.94
360.148	352.69
360.53	337.55
360.912	327.38
361.294	330.09
361.676	327.38
362.057	303.42
362.439	331.45
362.821	331.9
363.203	324.67
363.584	331.45
363.966	320.37
364.348	334.61
364.729	319.92
365.111	318.57
365.493	323.76
365.874	330.77
366.256	318.57
366.637	320.37
367.019	299.81
367.4	307.49
367.781	305.23
368.163	306.59
368.544	326.02
368.925	309.3
369.306	333.48
369.688	294.84
370.069	318.11
370.45	299.81
370.831	293.48
371.212	287.15
371.593	324.21
371.974	288.51
372.355	297.32
372.736	313.82
373.117	296.87
373.498	305.68
373.879	317.89
374.26	315.63
374.641	294.84
375.021	295.51
375.402	314.95
375.783	318.57
376.163	316.31
376.544	306.14
376.925	319.24
377.305	326.93
377.686	338.9
378.066	331.45
378.447	323.99
378.827	319.47
379.208	332.35
379.588	324.89
379.968	347.72
380.349	336.42
380.729	323.99
381.109	327.83
381.489	328.96
381.87	316.76
382.25	323.76
382.63	338.45
383.01	328.28
383.39	351.56
383.77	347.04
384.15	317.66
384.53	348.62
384.91	343.88
385.29	337.55
385.67	348.85
386.049	352.91
386.429	342.29
386.809	334.38
387.189	348.17
387.568	354.5
387.948	334.61
388.328	342.97
388.707	356.76
389.087	344.55
389.466	355.4
389.846	356.98
390.225	322.41
390.605	324.67
390.984	349.98
391.363	344.78
391.743	336.64
392.122	370.77
392.501	363.31
392.881	370.54
393.26	358.11
393.639	359.02
394.018	350.2
394.397	354.5
394.776	389.07
395.155	370.32
395.534	372.8
395.913	359.47
396.292	371.9
396.671	362.86
397.05	375.29
397.429	387.04
397.808	352.91
398.186	371.45
398.565	369.86
398.944	384.33
399.323	392.24
399.701	378.68
400.08	369.19
400.458	387.04
400.837	372.12
401.215	397.43
401.594	366.7
401.972	382.74
402.351	398.79
402.729	378
403.107	384.1
403.486	388.17
403.864	392.69
404.242	394.04
404.62	392.24
404.999	409.64
405.377	394.27
405.755	395.85
406.133	400.6
406.511	390.88
406.889	385.23
407.267	403.08
407.645	399.24
408.023	410.31
408.401	408.51
408.779	412.57
409.156	424.33
409.534	432.01
409.912	421.39
410.29	438.79
410.667	422.74
411.045	429.52
411.422	438.11
411.8	442.86
412.178	420.26
412.555	428.62
412.933	425.91
413.31	442.86
413.687	426.58
414.065	455.28
414.442	455.28
414.819	457.32
415.197	447.83
415.574	438.34
415.951	454.61
416.328	469.97
416.705	450.31
417.082	468.62
417.46	457.09
417.837	456.64
418.214	481.27
418.591	493.25
418.967	454.61
419.344	486.02
419.721	484.44
420.098	495.74
420.475	461.39
420.852	489.63
421.228	479.01
421.605	472.46
421.982	484.44
422.358	483.31
422.735	494.38
423.111	488.73
423.488	510.65
423.864	503.42
424.241	501.39
424.617	494.15
424.994	508.39
425.37	497.32
425.746	527.37
426.123	536.64
426.499	494.61
426.875	516.3
427.251	516.07
427.627	523.31
428.003	534.15
428.379	551.1
428.756	525.11
429.132	563.98
429.507	548.39
429.883	542.29
430.259	552.23
430.635	556.75
431.011	533.25
431.387	552.68
431.763	556.75
432.138	575.06
432.514	585.45
432.89	576.19
433.265	597.2
433.641	581.38
434.016	584.32
434.392	606.02
434.767	591.78
435.143	594.26
435.518	594.72
435.894	632.68
436.269	619.57
436.644	632.68
437.02	611.21
437.395	641.49
437.77	628.39
438.145	642.4
438.52	668.61
438.895	667.48
439.271	662.74
439.646	661.38
440.021	649.18
440.395	668.39
440.77	645.79
441.145	688.05
441.52	672.68
441.895	677.2
442.27	688.95
442.645	681.49
443.019	690.31
443.394	702.06
443.769	693.47
444.143	670.19
444.518	684.88
444.892	712.45
445.267	704.09
445.641	706.35
446.016	706.35
446.39	733.7
446.764	712.45
447.139	733.02
447.513	732.79
447.887	727.37
448.262	722.17
448.636	728.95
449.01	731.66
449.384	741.38
449.758	750.19
450.132	747.48
450.506	777.54
450.88	757.88
451.254	759.01
451.628	777.08
452.002	799
452.376	795.84
452.75	791.1
453.123	791.55
453.497	781.15
453.871	820.25
454.244	804.43
454.618	823.86
454.992	825.22
455.365	820.47
455.739	834.48
456.112	843.52
456.486	853.47
456.859	851.88
457.232	869.06
457.606	866.8
457.979	881.04
458.352	868.83
458.725	883.75
459.099	909.96
459.472	904.31
459.845	913.58
460.218	924.42
460.591	933.24
460.964	912.22
461.337	948.61
461.71	966.68
462.083	971.66
462.456	941.83
462.829	970.75
463.201	990.86
463.574	996.06
463.947	982.05
464.32	1034.03
464.692	1054.14
465.065	1022.28
465.438	1058.43
465.81	1071.99
466.183	1058.88
466.555	1076.51
466.928	1071.09
467.3	1072.67
467.672	1103.18
468.045	1118.77
468.417	1149.05
468.789	1142.27
469.161	1143.63
469.534	1195.83
469.906	1185.66
470.278	1214.81
470.65	1220.91
471.022	1229.05
471.394	1250.52
471.766	1286.9
472.138	1268.37
472.51	1307.47
472.882	1320.12
473.253	1335.71
473.625	1337.52
473.997	1367.58
474.369	1406.22
474.74	1402.6
475.112	1413
475.484	1442.6
475.855	1469.04
476.227	1508.59
476.598	1556.27
476.97	1565.54
477.341	1603.28
477.713	1603.96
478.084	1591.07
478.455	1674.46
478.827	1674.46
479.198	1695.48
479.569	1747.91
479.94	1824.74
480.311	1816.6
480.682	1836.04
481.053	1876.04
481.424	1885.3
481.795	1930.27
482.166	1958.97
482.537	1995.13
482.908	2022.25
483.279	2059.99
483.65	2112.87
484.021	2117.16
484.391	2168.01
484.762	2195.58
485.133	2245.29
485.503	2273.32
485.874	2285.97
486.244	2328.46
486.615	2409.81
486.985	2395.12
487.356	2476.47
487.726	2496.59
488.097	2543.14
488.467	2537.49
488.837	2590.37
489.207	2609.13
489.578	2653.19
489.948	2690.48
490.318	2729.8
490.688	2766.18
491.058	2803.47
491.428	2857.71
491.798	2912.85
492.168	2947.42
492.538	2954.2
492.908	2995.33
493.278	3050.24
493.648	3038.72
494.017	3099.28
494.387	3137.25
494.757	3162.11
495.126	3225.61
495.496	3219.73
495.866	3259.28
496.235	3286.62
496.605	3304.48
496.974	3349.45
497.344	3352.84
497.713	3450.01
498.082	3452.95
498.452	3508.76
498.821	3465.83
499.19	3496.56
499.559	3505.15
499.928	3530.68
500.298	3557.35
500.667	3582.21
501.036	3615.2
501.405	3584.47
501.774	3647.52
502.143	3699.04
502.512	3718.25
502.88	3742.43
503.249	3731.36
503.618	3789.21
503.987	3807.96
504.356	3817
504.724	3833.05
505.093	3841.64
505.462	3852.48
505.83	3886.15
506.199	3933.16
506.567	3936.32
506.936	3945.36
507.304	4027.85
507.672	4009.99
508.041	4000.73
508.409	4006.15
508.777	4039.15
509.145	4065.59
509.514	4059.71
509.882	4127.28
510.25	4095.64
510.618	4139.71
510.986	4135.19
511.354	4174.73
511.722	4175.41
512.09	4215.64
512.458	4237.11
512.826	4245.92
513.193	4254.73
513.561	4247.05
513.929	4304
514.297	4351
514.664	4379.48
515.032	4344
515.4	4405.69
515.767	4384.22
516.135	4442.3
516.502	4403.2
516.869	4419.7
517.237	4462.18
517.604	4495.63
517.972	4515.74
518.339	4529.53
518.706	4534.73
519.073	4493.37
519.44	4581.28
519.808	4585.8
520.175	4529.75
520.542	4605.68
520.909	4634.16
521.276	4632.12
521.643	4674.38
522.009	4721.61
522.376	4726.36
522.743	4744.89
523.11	4781.72
523.477	4760.71
523.843	4836.41
524.21	4854.04
524.577	4910.53
524.943	4918.67
525.31	4932.91
525.676	4963.87
526.043	4965.22
526.409	4947.82
526.776	5032.57
527.142	5060.59
527.508	5102.62
527.874	5100.59
528.241	5130.19
528.607	5118.21
528.973	5165.22
529.339	5176.29
529.705	5194.6
530.071	5277.53
530.437	5309.62
530.803	5288.6
531.169	5332.9
531.535	5302.61
531.901	5357.98
532.267	5367.25
532.632	5399.56
532.998	5445.89
533.364	5484.53
533.73	5442.27
534.095	5505.55
534.461	5509.16
534.826	5571.53
535.192	5587.35
535.557	5623.28
535.923	5608.37
536.288	5673.68
536.653	5646.79
537.019	5683.62
537.384	5690.85
537.749	5724.3
538.114	5693.79
538.479	5726.11
538.845	5779.89
539.21	5790.51
539.575	5832.09
539.94	5833
540.305	5877.97
540.67	5912.09
541.034	5937.4
541.399	5889.04
541.764	5888.59
542.129	5976.95
542.494	6021.92
542.858	6042.03
543.223	6011.3
543.587	6064.4
543.952	6100.11
544.316	6114.34
544.681	6137.4
545.045	6150.73
545.41	6194.34
545.774	6253.32
546.138	6190.5
546.503	6241.8
546.867	6220.1
547.231	6315.92
547.595	6355.02
547.959	6383.94
548.324	6392.08
548.688	6354.34
549.052	6398.18
549.416	6413.32
549.779	6478.18
550.143	6501.91
550.507	6485.86
550.871	6521.34
551.235	6463.26
551.599	6551.4
551.962	6623.48
552.326	6630.49
552.689	6616.25
553.053	6610.6
553.417	6671.17
553.78	6717.94
554.143	6672.52
554.507	6659.87
554.87	6703.48
555.234	6784.38
555.597	6763.59
555.96	6737.38
556.323	6823.25
556.686	6816.02
557.05	6866.19
557.413	6967.2
557.776	6875.91
558.139	7016.24
558.502	6953.42
558.865	6975.57
559.228	7038.39
559.59	7043.13
559.953	7032.74
560.316	7119.97
560.679	7095.34
561.041	7165.39
561.404	7153.87
561.767	7208.55
562.129	7254.2
562.492	7273.64
562.854	7242.45
563.217	7190.25
563.579	7265.73
563.941	7321.54
564.304	7314.77
564.666	7408.77
565.028	7471.15
565.39	7375.55
565.753	7461.88
566.115	7485.61
566.477	7476.79
566.839	7472.73
567.201	7598.15
567.563	7578.94
567.925	7596.57
568.287	7693.74
568.648	7709.11
569.01	7654.42
569.372	7771.7
569.734	7767.86
570.095	7821.64
570.457	7827.75
570.819	7891.47
571.18	7915.65
571.542	7981.19
571.903	7924.47
572.265	8011.92
572.626	8076.1
572.987	8041.53
573.349	8110.9
573.71	8162.88
574.071	8209.21
574.432	8227.74
574.794	8385.47
575.155	8368.3
575.516	8334.4
575.877	8410.78
576.238	8495.53
576.599	8535.07
576.96	8639.48
577.32	8636.99
577.681	8656.65
578.042	8820.71
578.403	8826.59
578.763	8902.75
579.124	9038.11
579.485	9122.85
579.845	9236.07
580.206	9289.85
580.566	9406.01
580.927	9503.63
581.287	9641.48
581.648	9661.82
582.008	9888.71
582.368	9964.87
582.728	10164.18
583.089	10239.43
583.449	10341.58
583.809	10496.6
584.169	10655.92
584.529	10762.36
584.889	11032.63
585.249	11176.36
585.609	11305.62
585.969	11522.11
586.329	11568.89
586.688	11854.53
587.048	12002.1
587.408	12216.56
587.768	12438.02
588.127	12564.8
588.487	12784.23
588.846	13083.2
589.206	13225.12
589.565	13485.9
589.925	13691.09
590.284	13869.4
590.643	14218.76
591.003	14456.27
591.362	14682.48
591.721	14956.37
592.08	15219.87
592.44	15480.88
592.799	15759.74
593.158	15976.91
593.517	16252.84
593.876	16450.34
594.235	16776.89
594.593	17011.46
594.952	17367.38
595.311	17617.77
595.67	17858.67
596.029	18285.32
596.387	18528.03
596.746	18797.63
597.104	18942.03
597.463	19197.62
597.822	19677.83
598.18	19853.87
598.538	20065.84
598.897	20494.08
599.255	20628.31
599.613	21093.39
599.972	21357.56
600.33	21603.43
600.688	21792.35
601.046	22042.06
601.404	22454.25
601.762	22742.61
602.12	23159.77
602.478	23357.06
602.836	23550.27
603.194	23637.73
603.552	23986.64
603.91	24244.49
604.268	24711.82
604.625	24764.02
604.983	25164.69
605.341	25130.12
605.698	25612.36
606.056	25821.17
606.413	26065.46
606.771	26365.56
607.128	26594.94
607.485	26652.79
607.843	26881.03
608.2	27351.07
608.557	27598.75
608.914	27672.42
609.272	27967.56
609.629	28215.68
609.986	28542.68
610.343	28665.39
610.7	28864.48
611.057	29042.78
611.414	29276.67
611.771	29377.91
612.127	29747.4
612.484	29997.56
612.841	30097.44
613.198	30204.78
613.554	30404.78
613.911	30720.93
614.267	30867.37
614.624	30874.15
614.98	31079.11
615.337	31307.58
615.693	31508.25
616.05	31654.01
616.406	31868.7
616.762	32017.84
617.118	32148.01
617.475	32370.83
617.831	32507.55
618.187	32566.98
618.543	32764.27
618.899	33062.56
619.255	33105.05
619.611	33152.73
619.967	33541.87
620.323	33543.23
620.678	33542.78
621.034	33749.78
621.39	33868.19
621.746	33779.38
622.101	34419.59
622.457	34236.32
622.812	34304.56
623.168	34432.24
623.523	34402.41
623.879	34656.87
624.234	34451.9
624.589	34738
624.945	34887.83
625.3	34912.68
625.655	34905.23
626.01	35048.73
626.365	35280.36
626.72	35194.71
627.075	35106.35
627.43	35323.29
627.785	35380.69
628.14	35479.67
628.495	35385.44
628.85	35514.7
629.205	35386.34
629.559	35671.31
629.914	35515.61
630.269	35713.34
630.623	35686
630.978	35668.82
631.332	35828.14
631.687	35799.67
632.041	35884.18
632.396	35861.59
632.75	35906.1
633.104	35944.75
633.459	35846.44
633.813	35731.19
634.167	35917.18
634.521	35902.26
634.875	35981.81
635.229	35940
635.583	35950.62
635.937	35946.78
636.291	35861.59
636.645	35994.46
636.999	35878.31
637.352	35980
637.706	35844.18
638.06	36049.15
638.413	36022.03
638.767	35877.63
639.121	36110.39
639.474	35866.1
639.828	35790.17
640.181	36032.65
640.534	36004.41
640.888	35869.04
641.241	35904.52
641.594	35904.75
641.947	35939.55
642.301	35903.62
642.654	35964.18
643.007	36019.77
643.36	35998.76
643.713	35795.15
644.066	36030.17
644.419	35901.58
644.771	35627.92
645.124	35228.16
645.477	35252.34
645.83	35051.89
646.182	34797.88
646.535	34851.67
646.888	34973.02
647.24	34763.54
647.593	34862.74
647.945	34726.02
648.298	34724.21
648.65	34630.88
649.002	34597.89
649.355	34762.41
649.707	34775.74
650.059	34872.46
650.411	35356.74
650.763	35301.15
651.115	35627.02
651.467	35542.72
651.819	35593.8
652.171	35471.77
652.523	35408.94
652.875	35373.91
653.227	35240.58
653.578	35546.57
653.93	35419.79
654.282	35407.36
654.633	35199.91
654.985	35449.17
655.337	35435.38
655.688	35460.24
656.039	35511.99
656.391	35128.27
656.742	35227.93
657.094	35234.71
657.445	35347.7
657.796	35250.98
658.147	35205.11
658.498	35165.11
658.849	35286.23
659.2	35224.31
659.551	35092.34
659.902	35261.83
660.253	35203.75
660.604	35286.69
660.955	35180.47
661.306	35217.53
661.656	35082.85
662.007	35195.61
662.358	35170.3
662.708	35144.99
663.059	35178.44
663.409	34951.1
663.76	35229.96
664.11	35099.12
664.461	35248.04
664.811	35147.03
665.161	35107.71
665.511	34952.91
665.862	35111.77
666.212	35232.22
666.562	35034.71
666.912	35083.3
667.262	35013.92
667.612	35089.4
667.962	35101.38
668.312	35039.23
668.662	35259.34
669.011	35047.6
669.361	35050.99
669.711	34973.02
670.06	34882.18
670.41	34893.48
670.76	34880.14
671.109	34968.73
671.459	34882.85
671.808	34802.63
672.157	34972.8
672.507	34800.82
672.856	34657.78
673.205	34858
673.554	34924.43
673.904	34858.67
674.253	35017.54
674.602	34901.84
674.951	34358.12
675.3	34229.31
675.649	34672.69
675.998	34781.61
676.346	34775.29
676.695	34856.19
677.044	34503.2
677.393	34642.18
677.741	34548.85
678.09	34551.79
678.438	34493.49
678.787	34643.09
679.135	34611.9
679.484	34298.69
679.832	34562.86
680.181	34351.12
680.529	34529.19
680.877	34295.3
681.225	34306.82
681.573	34505.24
681.922	34145.25
682.27	33997.91
682.618	34127.39
682.966	33997.45
683.314	34107.73
683.661	34023.22
684.009	33761.53
684.357	33830.68
684.705	33730.34
685.053	33772.15
685.4	33770.57
685.748	33601.76
686.095	33634.53
686.443	33524.47
686.79	33483.12
687.138	33399.5
687.485	33431.82
687.832	33379.16
688.18	33289.68
688.527	33239.06
688.874	33151.37
689.221	33124.26
689.568	33173.52
689.915	32976.69
690.262	32836.35
690.609	32861.21
690.956	32755.45
691.303	32754.77
691.65	32603.59
691.997	32627.55
692.344	32356.82
692.69	32268.46
693.037	32445.4
693.383	32099.88
693.73	32205.64
694.077	31978.75
694.423	32018.07
694.769	32085.19
695.116	31922.93
695.462	31924.29
695.808	31730.85
696.155	31801.13
696.501	31502.6
696.847	31500.8
697.193	31302.84
697.539	31461.7
697.885	31181.71
698.231	31120.69
698.577	31091.09
698.923	31040.47
699.269	30886.57
699.614	30727.48
699.96	30754.83
700.306	30727.26
700.651	30530.43
700.997	30625.56
701.342	30507.38
701.688	30423.99
702.033	30244.33
702.379	30202.53
702.724	30323.65
703.069	30348.96
703.415	29911.69
703.76	30066.94
704.105	29932.02
704.45	29871.01
704.795	29749.2
705.14	29655.65
705.485	29624.24
705.83	29540.17
706.175	29577.68
706.52	29415.2
706.865	29275.77
707.209	29281.42
707.554	29245.49
707.899	29280.52
708.243	29258.14
708.588	29102.67
708.932	28965.95
709.277	28720.08
709.621	28828.55
709.966	28723.24
710.31	28761.88
710.654	28440.31
710.998	28651.38
711.342	28568.44
711.687	28523.47
712.031	28344.72
712.375	28336.13
712.719	28263.59
713.063	28236.25
713.407	28328.68
713.75	28125.74
714.094	28144.27
714.438	28129.13
714.782	28117.16
715.125	27910.61
715.469	28013.2
715.812	27773.66
716.156	27716.94
716.499	27655.02
716.843	27678.75
717.186	27464.97
717.53	27557.4
717.873	27723.95
718.216	27496.38
718.559	27376.16
718.902	27202.15
719.246	27271.3
719.589	27257.52
719.932	27161.93
720.275	27130.74
720.617	27042.61
720.96	27035.15
721.303	26983.4
721.646	27026.11
721.989	26785.67
722.331	26869.05
722.674	26788.15
723.016	26853.91
723.359	26731.66
723.701	26839.9
724.044	26641.49
724.386	26530.98
724.729	26617.53
725.071	26602.39
725.413	26512
725.755	26453.47
726.097	26370.54
726.439	26274.04
726.782	26330.76
727.124	26476.52
727.465	26217.77
727.807	26253.02
728.149	26177.77
728.491	26135.74
728.833	26192.91
729.175	25997.44
729.516	25946.14
729.858	25948.85
730.199	25960.83
730.541	25900.94
730.882	25816.88
731.224	25926.03
731.565	25777.56
731.906	25718.35
732.248	25763.09
732.589	25558.58
732.93	25566.49
733.271	25608.07
733.612	25555.64
733.953	25586.6
734.294	25422.54
734.635	25391.8
734.976	25473.16
735.317	25274.07
735.658	25350.9
735.999	25289.21
736.339	25224.8
736.68	25284.01
737.021	25167.18
737.361	25184.58
737.702	25298.02
738.042	25144.8
738.383	25061.64
738.723	25174.18
739.063	24939.61
739.404	25145.71
739.744	24974.64
740.084	24903.68
740.424	24897.13
740.764	24853.29
741.104	24853.97
741.444	24774.42
741.784	24689.45
742.124	24721.09
742.464	24785.49
742.804	24634.31
743.143	24741.43
743.483	24697.81
743.823	24411.72
744.162	24351.61
744.502	24523.35
744.841	24399.51
745.181	24467.31
745.52	24351.38
745.86	24479.06
746.199	24288.33
746.538	24375.56
746.877	24315.9
747.216	24257.37
747.556	24212.17
747.895	24196.58
748.234	24090.6
748.573	24100.76
748.911	24118.17
749.25	24042.69
749.589	23988.68
749.928	24026.42
750.267	23997.72
750.605	23946.19
750.944	23855.8
751.283	23766.08
751.621	23875.46
751.96	23697.16
752.298	23680.44
752.636	23614.45
752.975	23571.74
753.313	23427.34
753.651	23572.87
753.989	23407.68
754.327	23512.31
754.666	23359.77
755.004	23364.29
755.342	23372.2
755.679	23303.5
756.017	23230.51
756.355	23228.25
756.693	23280
757.031	23223.5
757.368	23025.09
757.706	22956.61
758.044	22895.82
758.381	22875.71
758.719	22777.18
759.056	22807.01
759.394	22727.69
759.731	22701.71
760.068	22595.49
760.405	22594.59
760.743	22499.45
761.08	22503.52
761.417	22407.25
761.754	22367.93
762.091	22268.72
762.428	22261.72
762.765	22179.01
763.102	22218.55
763.438	22088.61
763.775	21949.63
764.112	21943.08
764.449	21918
764.785	21869.64
765.122	21621.06
765.458	21641.17
765.795	21595.29
766.131	21623.99
766.467	21366.6
766.804	21347.62
767.14	21297.22
767.476	21390.33
767.812	21187.62
768.148	21215.64
768.485	21109.43
768.821	20998.7
769.157	20944.24
769.492	20855.43
769.828	20813.62
770.164	20688.88
770.5	20629.22
770.836	20506.73
771.171	20474.87
771.507	20556.68
771.842	20295.44
772.178	20195.78
772.513	20257.02
772.849	20230.81
773.184	20115.33
773.519	20030.14
773.855	19865.17
774.19	19895.68
774.525	19888.9
774.86	19867.88
775.195	19796.25
775.53	19673.99
775.865	19674.44
776.2	19529.13
776.535	19313.32
776.87	19351.06
777.205	19270.84
777.539	19242.59
777.874	19136.6
778.209	19072.2
778.543	19027.68
778.878	18827.91
779.212	18900.68
779.547	18832.88
779.881	18808.7
780.215	18701.58
780.55	18664.98
780.884	18503.62
781.218	18512.66
781.552	18552.44
781.886	18400.8
782.22	18297.53
782.554	18274.03
782.888	18097.53
783.222	17975.73
783.556	17890.76
783.889	17838.78
784.223	17792
784.557	17673.59
784.89	17766.24
785.224	17676.75
785.557	17541.62
785.891	17559.69
786.224	17476.31
786.558	17505.01
786.891	17356.99
787.224	17223.88
787.557	17232.92
787.891	17193.6
788.224	17178.46
788.557	17038.8
788.89	17093.94
789.223	17070.67
789.556	16917.22
789.888	16798.81
790.221	16707.96
790.554	16610.79
790.887	16698.47
791.219	16571.7
791.552	16560.85
791.884	16575.31
792.217	16549.1
792.549	16430.01
792.882	16242.44
793.214	16173.74
793.546	16182.1
793.879	16132.61
794.211	16008.55
794.543	15985.05
794.875	16027.76
795.207	16009
795.539	15914.99
795.871	15891.94
796.203	15765.84
796.535	15638.84
796.867	15703.25
797.198	15599.75
797.53	15581.89
797.862	15467.32
798.193	15486.3
798.525	15327.89
798.856	15388.45
799.188	15335.57
799.519	15191.17
799.85	15182.81
800.182	15207.67
800.513	15164.73
800.844	15035.92
801.175	15126.54
801.506	15093.77
801.837	14951.63
802.168	14921.8
802.499	14799.77
802.83	14789.37
803.161	14711.86
803.491	14748.24
803.822	14687.23
804.153	14681.58
804.483	14537.4
804.814	14542.6
805.145	14533.11
805.475	14505.08
805.805	14382.15
806.136	14392.32
806.466	14429.38
806.796	14393.68
807.126	14236.62
807.457	14189.61
807.787	14188.03
808.117	14072.55
808.447	14136.96
808.777	14056.73
809.107	14036.62
809.436	13985.78
809.766	13913.24
810.096	13987.13
810.426	13928.6
810.755	13888.6
811.085	13850.64
811.414	13816.29
811.744	13761.38
812.073	13644.99
812.403	13699.46
812.732	13594.6
813.061	13625.11
813.39	13534.04
813.719	13481.16
814.049	13541.72
814.378	13445
814.707	13448.16
815.036	13370.65
815.365	13414.04
815.693	13160.26
816.022	13188.28
816.351	13249.3
816.68	13172.92
817.008	13196.87
817.337	13006.14
817.665	13055.86
817.994	12929.31
818.322	12991.45
818.651	12931.11
818.979	12955.52
819.307	12882.53
819.636	12882.3
819.964	12812.93
820.292	12836.88
820.62	12808.86
820.948	12821.97
821.276	12882.75
821.604	12816.09
821.932	12869.87
822.259	12761.63
822.587	12771.57
822.915	12734.28
823.243	12755.3
823.57	12775.19
823.898	12756.88
824.225	12745.13
824.553	12708.97
824.88	12752.81
825.207	12824.68
825.535	12625.59
825.862	12711.23
826.189	12793.04
826.516	12687.73
826.843	12764.57
827.17	12812.7
827.497	12776.32
827.824	12707.39
828.151	12807.95
828.478	12706.94
828.805	12724.79
829.131	12715.3
829.458	12631.69
829.785	12670.78
830.111	12672.82
830.438	12727.5
830.764	12689.09
831.09	12709.88
831.417	12658.58
831.743	12673.04
832.069	12680.05
832.395	12627.17
832.722	12696.54
833.048	12588.75
833.374	12649.31
833.7	12593.04
834.026	12530
834.351	12627.39
834.677	12527.28
835.003	12541.97
835.329	12528.41
835.654	12575.87
835.98	12540.16
836.306	12544.46
836.631	12425.37
836.956	12464.69
837.282	12486.15
837.607	12354.18
837.932	12368.42
838.258	12308.53
838.583	12350.34
838.908	12251.36
839.233	12306.72
839.558	12288.87
839.883	12236.67
840.208	12206.84
840.533	12257.46
840.858	12179.27
841.182	12212.26
841.507	12165.94
841.832	12064.7
842.156	12044.81
842.481	12093.85
842.805	12084.58
843.13	12059.5
843.454	11970.24
843.778	11944.25
844.103	11956
844.427	11860.18
844.751	11897.47
845.075	11894.98
845.399	11814.53
845.723	11744.25
846.047	11724.14
846.371	11659.96
846.695	11649.11
847.019	11521.43
847.343	11549.23
847.666	11471.72
847.99	11400.08
848.313	11375.68
848.637	11260.2
848.96	11324.38
849.284	11309.01
849.607	11230.82
849.931	11150.6
850.254	11083.03
850.577	11136.36
850.9	10940.21
851.223	10968.45
851.546	10961.45
851.869	10865.18
852.192	10917.38
852.515	10813.88
852.838	10710.38
853.161	10768.23
853.483	10737.05
853.806	10702.92
854.129	10615.7
854.451	10594.68
854.774	10544.28
855.096	10516.26
855.419	10482.59
855.741	10454.12
856.063	10400.11
856.385	10384.29
856.708	10436.94
857.03	10308.81
857.352	10327.57
857.674	10332.99
857.996	10241.47
858.318	10157.85
858.64	10173.45
858.961	10186.55
859.283	10124.18
859.605	10097.74
859.926	10126.67
860.248	10072.21
860.57	9994.02
860.891	10023.62
861.212	9991.98
861.534	9978.65
861.855	9967.35
862.176	9890.06
862.498	9887.35
862.819	9917.41
863.14	9834.02
863.461	9815.26
863.782	9811.87
864.103	9789.28
864.424	9784.08
864.745	9787.92
865.065	9752.22
865.386	9702.27
865.707	9685.32
866.027	9700.92
866.348	9624.08
866.668	9674.25
866.989	9596.97
867.309	9551.54
867.63	9556.74
867.95	9558.32
868.27	9495.27
868.59	9532.11
868.91	9542.73
869.23	9475.84
869.55	9481.04
869.87	9499.79
870.19	9511.32
870.51	9479
870.83	9436.52
871.15	9380.25
871.469	9388.84
871.789	9376.18
872.109	9388.38
872.428	9326.46
872.748	9426.8
873.067	9335.73
873.386	9340.02
873.706	9280.59
874.025	9288.95
874.344	9164.43
874.663	9251.44
874.982	9221.83
875.301	9200.14
875.62	9163.08
875.939	9116.07
876.258	9163.76
876.577	9126.24
876.896	9184.55
877.214	9154.94
877.533	9071.33
877.852	9142.06
878.17	9055.74
878.489	9053.25
878.807	9088.05
879.125	9084.66
879.444	9058.45
879.762	9018.22
880.08	9002.18
880.398	8937.32
880.716	9034.72
881.034	8862.97
881.352	8880.15
881.67	8952.91
881.988	8895.97
882.306	8843.31
882.624	8843.09
882.941	8813.93
883.259	8828.17
883.577	8770.77
883.894	8762.64
884.212	8760.83
884.529	8672.24
884.846	8695.52
885.164	8687.61
885.481	8641.74
885.798	8702.98
886.115	8590.21
886.432	8626.14
886.75	8598.57
887.067	8609.87
887.383	8567.61
887.7	8534.39
888.017	8452.81
888.334	8470.22
888.651	8438.8
888.967	8438.8
889.284	8348.18
889.6	8330.78
889.917	8292.14
890.233	8335.98
890.55	8298.24
890.866	8254.18
891.182	8174.86
891.498	8175.76
891.815	8214.85
892.131	8141.41
892.447	8153.84
892.763	8124.91
893.079	8110.9
893.395	8090.11
893.71	8107.06
894.026	8038.59
894.342	8083.33
894.657	7982.32
894.973	8010.11
895.289	8005.14
895.604	7924.69
895.92	7884.24
896.235	7861.64
896.55	7871.59
896.865	7860.51
897.181	7778.03
897.496	7795.66
897.811	7687.64
898.126	7688.31
898.441	7685.38
898.756	7656
899.071	7585.04
899.386	7594.76
899.7	7576
900.015	7511.14
900.33	7530.35
900.644	7498.94
900.959	7489.22
901.273	7431.82
901.588	7447.19
901.902	7332.84
902.216	7322.9
902.531	7363.35
902.845	7305.05
903.159	7250.36
903.473	7223.24
903.787	7217.37
904.101	7130.82
904.415	7199.51
904.729	7206.97
905.042	7098.05
905.356	7114.09
905.67	7089.23
905.984	7060.53
906.297	7105.28
906.611	7004.26
906.924	7003.14
907.237	6906.87
907.551	6955.23
907.864	6943.93
908.177	6855.57
908.491	6871.61
908.804	6795
909.117	6789.13
909.43	6752.29
909.743	6782.58
910.056	6767.21
910.368	6653.54
910.681	6617.83
910.994	6598.17
911.307	6590.04
911.619	6545.52
911.932	6567.89
912.244	6532.86
912.557	6498.29
912.869	6433.88
913.181	6503.26
913.494	6414.9
913.806	6367.9
914.118	6411.74
914.43	6338.75
914.742	6334.45
915.054	6308.92
915.366	6248.13
915.678	6260.1
915.99	6187.11
916.302	6155.93
916.613	6138.07
916.925	6114.57
917.236	6101.46
917.548	6050.39
917.859	6100.79
918.171	5993.9
918.482	6005.87
918.794	6024.4
919.105	6018.3
919.416	5959.55
919.727	5900.79
920.038	5896.27
920.349	5833
920.66	5807.91
920.971	5783.73
921.282	5771.08
921.593	5736.5
921.903	5660.35
922.214	5700.12
922.525	5686.56
922.835	5699.21
923.146	5610.86
923.456	5642.94
923.767	5611.08
924.077	5585.77
924.387	5551.2
924.697	5521.14
925.008	5515.04
925.318	5477.75
925.628	5463.51
925.938	5470.29
926.248	5379.22
926.558	5398.66
926.867	5368.15
927.177	5339.22
927.487	5311.88
927.796	5253.35
928.106	5247.93
928.416	5266.01
928.725	5225.78
929.034	5219.91
929.344	5188.95
929.653	5210.41
929.962	5134.26
930.271	5136.07
930.581	5115.05
930.89	5097.2
931.199	5063.98
931.508	5002.96
931.817	5044.77
932.125	5040.7
932.434	4990.98
932.743	4934.26
933.051	4958.22
933.36	4953.02
933.669	4904.89
933.977	4870.31
934.286	4856.98
934.594	4801.84
934.902	4796.41
935.21	4791.22
935.519	4801.39
935.827	4775.62
936.135	4724.32
936.443	4705.57
936.751	4654.72
937.059	4684.78
937.367	4658.11
937.674	4593.48
937.982	4639.81
938.29	4620.6
938.597	4602.52
938.905	4554.84
939.213	4543.54
939.52	4496.53
939.827	4527.72
940.135	4471.9
940.442	4464.22
940.749	4482.07
941.056	4462.18
941.363	4390.55
941.67	4415.18
941.977	4376.31
942.284	4302.87
942.591	4319.59
942.898	4313.71
943.205	4316.43
943.511	4235.75
943.818	4276.43
944.125	4243.66
944.431	4255.18
944.738	4235.3
945.044	4196.66
945.35	4152.36
945.657	4130.22
945.963	4139.93
946.269	4100.16
946.575	4135.19
946.881	4111.46
947.187	4068.07
947.493	4042.53
947.799	4035.98
948.105	3991.46
948.41	3985.59
948.716	3995.98
949.022	3986.04
949.327	3957.34
949.633	3892.26
949.938	3905.59
950.244	3928.87
950.549	3848.87
950.854	3849.55
951.16	3872.6
951.465	3821.07
951.77	3799.83
952.075	3818.59
952.38	3777.91
952.685	3743.11
952.99	3723.22
953.294	3727.06
953.599	3689.55
953.904	3703.56
954.209	3680.51
954.513	3683.22
954.818	3659.95
955.122	3643.45
955.426	3624.24
955.731	3614.07
956.035	3556.45
956.339	3573.17
956.643	3572.49
956.948	3525.49
957.252	3553.51
957.556	3532.72
957.86	3498.14
958.163	3447.07
958.467	3466.28
958.771	3480.06
959.075	3471.48
959.378	3414.08
959.682	3426.05
959.985	3362.1
960.289	3345.38
960.592	3370.24
960.896	3341.08
961.199	3327.53
961.502	3322.78
961.805	3328.43
962.108	3298.37
962.411	3292.05
962.714	3259.5
963.017	3216.34
963.32	3225.83
963.623	3200.3
963.926	3176.34
964.228	3243.01
964.531	3168.21
964.833	3188.09
965.136	3163.01
965.438	3106.97
965.741	3123.24
966.043	3137.93
966.345	3099.96
966.648	3055.44
966.95	3069.45
967.252	3060.64
967.554	3047.98
967.856	3071.49
968.158	3044.6
968.46	2993.97
968.761	3015.9
969.063	2999.4
969.365	2986.97
969.666	2991.94
969.968	2966.63
970.269	2947.42
970.571	2926.86
970.872	2918.5
971.174	2921.66
971.475	2876.46
971.776	2866.07
972.077	2853.19
972.378	2847.76
972.679	2832.4
972.98	2826.07
973.281	2825.39
973.582	2790.36
973.883	2838.5
974.183	2800.31
974.484	2791.27
974.785	2748.33
975.085	2712.17
975.386	2759.86
975.686	2736.81
975.986	2718.5
976.287	2720.54
976.587	2650.71
976.887	2655.23
977.187	2669.46
977.487	2674.21
977.787	2640.99
978.087	2618.17
978.387	2591.27
978.687	2577.49
978.987	2615.45
979.286	2584.72
979.586	2529.35
979.885	2534.55
980.185	2532.07
980.484	2541.78
980.784	2519.19
981.083	2505.85
981.382	2505.63
981.682	2495.46
981.981	2480.32
982.28	2462.69
982.579	2444.84
982.878	2455.23
983.177	2417.49
983.475	2436.7
983.774	2409.13
984.073	2411.84
984.372	2409.36
984.67	2391.73
984.969	2374.1
985.267	2398.06
985.566	2363.48
985.864	2320.77
986.162	2309.47
986.461	2323.71
986.759	2294.56
987.057	2262.02
987.355	2272.64
987.653	2291.17
987.951	2264.05
988.249	2284.62
988.547	2234.45
988.844	2235.58
989.142	2241
989.44	2212.3
989.737	2199.42
990.035	2184.05
990.332	2206.2
990.63	2177.95
990.927	2131.85
991.224	2185.18
991.521	2127.33
991.819	2144.73
992.116	2092.08
992.413	2124.39
992.71	2105.41
993.006	2114.45
993.303	2099.54
993.6	2093.66
993.897	2057.05
994.193	2073.1
994.49	2062.25
994.787	2032.87
995.083	2051.85
995.379	2017.28
995.676	2016.15
995.972	2030.84
996.268	2005.98
996.565	2010.5
996.861	1993.1
997.157	1988.58
997.453	1971.85
997.749	1932.53
998.044	1962.14
998.34	1938.86
998.636	1931.4
998.932	1907.22
999.227	1898.86
999.523	1909.48
999.818	1897.96
1000.114	1864.51
1000.409	1818.86
1000.704	1868.35
1001	1842.59
1001.295	1845.3
1001.59	1818.41
1001.885	1808.24
1002.18	1832.88
1002.475	1806.89
1002.77	1815.7
1003.065	1750.84
1003.359	1812.31
1003.654	1778.87
1003.949	1729.15
1004.243	1763.27
1004.538	1698.87
1004.832	1737.96
1005.127	1717.4
1005.421	1702.03
1005.715	1694.35
1006.009	1669.49
1006.304	1697.51
1006.598	1629.49
1006.892	1643.28
1007.186	1678.98
1007.48	1645.99
1007.773	1644.63
1008.067	1624.29
1008.361	1630.85
1008.655	1596.27
1008.948	1608.02
1009.242	1586.33
1009.535	1569.61
1009.829	1571.19
1010.122	1570.51
1010.415	1519.66
1010.708	1553.33
1011.001	1544.52
1011.295	1536.16
1011.588	1508.59
1011.881	1516.05
1012.173	1528.93
1012.466	1522.83
1012.759	1496.61
1013.052	1500.45
1013.344	1474.47
1013.637	1464.52
1013.93	1444.86
1014.222	1439.67
1014.514	1459.1
1014.807	1432.66
1015.099	1394.47
1015.391	1429.27
1015.683	1393.79
1015.976	1399.89
1016.268	1376.62
1016.56	1382.27
1016.851	1401.93
1017.143	1373
1017.435	1373
1017.727	1364.87
1018.018	1319.44
1018.31	1360.12
1018.602	1332.55
1018.893	1321.48
1019.185	1307.69
1019.476	1307.24
1019.767	1288.26
1020.058	1304.08
1020.35	1291.42
1020.641	1272.89
1020.932	1276.05
1021.223	1281.48
1021.514	1237.64
1021.804	1258.88
1022.095	1235.83
1022.386	1223.63
1022.677	1201.71
1022.967	1217.52
1023.258	1206.68
1023.548	1218.65
1023.839	1178.2
1024.129	1196.51
1024.419	1162.38
1024.709	1186.34
1025	1154.7
1025.29	1154.7
1025.58	1144.98
1025.87	1138.66
1026.16	1123.97
1026.449	1123.29
1026.739	1127.81
1027.029	1098.43
1027.319	1100.24
1027.608	1083.52
1027.898	1088.94
1028.187	1076.29
1028.477	1067.7
1028.766	1076.74
1029.055	1056.62
1029.344	1050.3
1029.634	1040.81
1029.923	1050.75
1030.212	1013.01
1030.501	1057.53
1030.79	1011.43
1031.078	1026.12
1031.367	999.23
1031.656	1000.36
1031.945	991.54
1032.233	1005.1
1032.522	989.06
1032.81	974.14
1033.099	992.67
1033.387	963.97
1033.675	954.71
1033.963	953.8
1034.251	951.54
1034.54	930.3
1034.828	947.02
1035.116	960.58
1035.403	927.36
1035.691	910.64
1035.979	900.24
1036.267	939.34
1036.554	913.35
1036.842	908.61
1037.129	906.8
1037.417	863.86
1037.704	872.45
1037.992	887.59
1038.279	877.65
1038.566	878.32
1038.853	878.32
1039.14	878.32
