Data from hue_350_FLMS001491_84.txt Node
Date: Mon Feb 06 15:38:38 GMT 2017
User: dcchb
Spectrometer: FLMS00149
Trigger mode: 0
Integration Time (sec): 2.000000E-2
Scans to average: 10
Electric dark correction enabled: true
Nonlinearity correction enabled: false
Boxcar width: 0
XAxis mode: Wavelengths
Number of Pixels in Spectrum: 2048
>>>>>Begin Spectral Data<<<<<
341.393	11.68
341.776	11.68
342.16	11.68
342.543	-57.02
342.927	-50.92
343.31	-78.94
343.693	-65.38
344.077	-69.22
344.46	-61.31
344.843	-50.92
345.226	-40.07
345.61	-25.61
345.993	-27.87
346.376	12.13
346.759	11.68
347.142	32.24
347.525	42.19
347.908	61.85
348.291	81.06
348.674	86.48
349.057	91.68
349.44	141.62
349.823	147.04
350.206	178.46
350.588	163.77
350.971	206.03
351.354	220.94
351.737	258.23
352.119	261.39
352.502	298.45
352.884	280.15
353.267	302.29
353.65	291.22
354.032	306.81
354.414	308.17
354.797	330.54
355.179	335.51
355.562	321.73
355.944	326.93
356.326	320.82
356.709	339.36
357.091	346.13
357.473	353.37
357.855	347.04
358.238	339.36
358.62	328.06
359.002	343.42
359.384	345.46
359.766	356.98
360.148	342.52
360.53	352.69
360.912	345.01
361.294	339.58
361.676	332.8
362.057	336.19
362.439	342.97
362.821	322.18
363.203	334.84
363.584	323.76
363.966	318.11
364.348	332.58
364.729	330.09
365.111	316.31
365.493	297.1
365.874	325.8
366.256	300.03
366.637	327.6
367.019	323.54
367.4	314.05
367.781	305.68
368.163	319.47
368.544	315.4
368.925	314.95
369.306	311.11
369.688	312.01
370.069	302.75
370.45	302.52
370.831	334.16
371.212	316.98
371.593	306.81
371.974	298.9
372.355	311.79
372.736	317.66
373.117	303.2
373.498	324.89
373.879	338.68
374.26	330.99
374.641	318.57
375.021	310.2
375.402	305.46
375.783	310.43
376.163	337.77
376.544	327.6
376.925	317.21
377.305	338.68
377.686	320.6
378.066	327.38
378.447	340.26
378.827	331.67
379.208	335.74
379.588	338.68
379.968	332.8
380.349	338.45
380.729	324.21
381.109	332.12
381.489	330.99
381.87	342.97
382.25	339.58
382.63	339.13
383.01	342.97
383.39	354.27
383.77	339.58
384.15	324.44
384.53	356.53
384.91	341.16
385.29	347.49
385.67	352.91
386.049	337.77
386.429	348.17
386.809	363.99
387.189	352.69
387.568	332.8
387.948	351.78
388.328	363.08
388.707	358.34
389.087	352.46
389.466	361.28
389.846	353.14
390.225	343.2
390.605	356.3
390.984	375.96
391.363	372.8
391.743	373.93
392.122	372.8
392.501	351.56
392.881	382.74
393.26	352.24
393.639	381.84
394.018	399.01
394.397	369.86
394.776	395.63
395.155	365.8
395.534	372.35
395.913	362.41
396.292	360.6
396.671	369.19
397.05	373.03
397.429	404.66
397.808	397.21
398.186	371.22
398.565	391.56
398.944	374.16
399.323	376.64
399.701	374.38
400.08	375.51
400.458	385.91
400.837	401.73
401.215	387.04
401.594	400.14
401.972	387.26
402.351	394.95
402.729	405.34
403.107	412.8
403.486	389.3
403.864	410.09
404.242	403.31
404.62	402.4
404.999	420.26
405.377	430.43
405.755	422.29
406.133	416.19
406.511	401.73
406.889	444.21
407.267	413.48
407.645	425.23
408.023	437.88
408.401	426.58
408.779	420.03
409.156	448.51
409.534	414.61
409.912	455.28
410.29	460.93
410.667	432.23
411.045	440.82
411.422	445.79
411.8	466.13
412.178	455.74
412.555	460.93
412.933	466.81
413.31	477.88
413.687	461.39
414.065	456.41
414.442	466.81
414.819	481.05
415.197	507.71
415.574	501.61
415.951	512.91
416.328	497.54
416.705	494.38
417.082	486.92
417.46	500.03
417.837	509.97
418.214	504.32
418.591	503.64
418.967	506.58
419.344	488.5
419.721	521.27
420.098	530.54
420.475	525.57
420.852	515.4
421.228	531.67
421.605	532.34
421.982	544.1
422.358	539.58
422.735	565.11
423.111	540.71
423.488	564.66
423.864	543.19
424.241	553.36
424.617	586.35
424.994	553.14
425.37	569.63
425.746	561.5
426.123	551.1
426.499	572.8
426.875	585.22
427.251	589.52
427.627	595.17
428.003	577.99
428.379	610.08
428.756	612.79
429.132	589.29
429.507	627.94
429.883	633.13
430.259	622.96
430.635	618.9
431.011	627.94
431.387	627.94
431.763	656.41
432.138	660.03
432.514	661.15
432.89	658.44
433.265	695.96
433.641	678.78
434.016	676.52
434.392	678.56
434.767	686.92
435.143	709.29
435.518	696.86
435.894	714.26
436.269	712.68
436.644	729.18
437.02	717.65
437.395	724.88
437.77	731.44
438.145	716.75
438.52	760.36
438.895	737.54
439.271	757.2
439.646	770.98
440.021	782.28
440.395	772.79
440.77	764.43
441.145	751.32
441.52	777.99
441.895	801.72
442.27	781.38
442.645	768.04
443.019	796.74
443.394	811.43
443.769	809.63
444.143	806.46
444.518	821.83
444.892	791.1
445.267	820.02
445.641	818.44
446.016	818.89
446.39	821.15
446.764	863.86
447.139	843.07
447.513	808.27
447.887	848.95
448.262	851.88
448.636	854.82
449.01	840.36
449.384	859.34
449.758	848.95
450.132	865.67
450.506	868.38
450.88	886.69
451.254	887.14
451.628	897.31
452.002	913.8
452.376	921.71
452.75	916.06
453.123	911.09
453.497	913.35
453.871	917.65
454.244	947.93
454.618	944.31
454.992	933.01
455.365	929.4
455.739	968.72
456.112	955.84
456.486	984.99
456.859	989.73
457.232	1005.1
457.606	1003.97
457.979	993.8
458.352	1015.5
458.725	1049.39
459.099	1056.4
459.472	1040.13
459.845	1064.76
460.218	1053.46
460.591	1069.96
460.964	1049.17
461.337	1093.69
461.71	1102.95
462.083	1113.8
462.456	1123.29
462.829	1140.46
463.201	1120.8
463.574	1150.18
463.947	1137.98
464.32	1190.18
464.692	1183.63
465.065	1183.85
465.438	1206.68
465.81	1213.91
466.183	1222.95
466.555	1207.58
466.928	1246.22
467.3	1253.91
467.672	1248.03
468.045	1278.99
468.417	1290.06
468.789	1303.4
469.161	1338.43
469.534	1344.98
469.906	1366.67
470.278	1405.99
470.65	1386.33
471.022	1413.23
471.394	1444.19
471.766	1445.54
472.138	1472.66
472.51	1509.72
472.882	1512.66
473.253	1537.74
473.625	1530.96
473.997	1559.21
474.369	1575.26
474.74	1592.2
475.112	1604.63
475.484	1641.69
475.855	1667
476.227	1686.89
476.598	1765.31
476.97	1742.03
477.341	1777.74
477.713	1791.75
478.084	1823.16
478.455	1873.1
478.827	1889.37
479.198	1928.47
479.569	1955.36
479.94	1978.18
480.311	2005.98
480.682	2057.28
481.053	2078.29
481.424	2147.67
481.795	2152.19
482.166	2172.08
482.537	2196.48
482.908	2269.02
483.279	2294.78
483.65	2349.25
484.021	2366.19
484.391	2380.88
484.762	2421.79
485.133	2418.85
485.503	2457.27
485.874	2537.94
486.244	2534.78
486.615	2587.43
486.985	2656.13
487.356	2677.83
487.726	2657.49
488.097	2725.96
488.467	2758.5
488.837	2827.65
489.207	2833.53
489.578	2893.64
489.948	2917.82
490.318	2990.36
490.688	2990.13
491.058	3035.56
491.428	3041.88
491.798	3098.6
492.168	3137.02
492.538	3155.78
492.908	3193.74
493.278	3257.02
493.648	3252.27
494.017	3301.09
494.387	3310.8
494.757	3360.74
495.126	3421.99
495.496	3415.21
495.866	3394.19
496.235	3464.92
496.605	3492.94
496.974	3491.14
497.344	3532.49
497.713	3582.66
498.082	3570.23
498.452	3643.68
498.821	3675.54
499.19	3664.24
499.559	3676.22
499.928	3678.93
500.298	3745.14
500.667	3758.47
501.036	3734.29
501.405	3795.31
501.774	3749.66
502.143	3853.61
502.512	3872.82
502.88	3833.95
503.249	3850.9
503.618	3918.92
503.987	3918.47
504.356	3983.1
504.724	3970.45
505.093	3948.98
505.462	4035.3
505.83	4025.36
506.199	4037.79
506.567	4083.89
506.936	4052.48
507.304	4104.68
507.672	4167.05
508.041	4143.78
508.409	4172.93
508.777	4204.11
509.145	4244.56
509.514	4239.37
509.882	4277.56
510.25	4244.79
510.618	4298.8
510.986	4257.67
511.354	4330.21
511.722	4339.25
512.09	4352.81
512.458	4354.84
512.826	4381.74
513.193	4395.97
513.561	4451.56
513.929	4429.42
514.297	4461.06
514.664	4492.69
515.032	4464.9
515.4	4501.05
515.767	4539.92
516.135	4559.36
516.502	4479.36
516.869	4603.65
517.237	4654.72
517.604	4582.41
517.972	4664.89
518.339	4629.64
518.706	4631.9
519.073	4668.28
519.44	4706.25
519.808	4678
520.175	4726.36
520.542	4748.51
520.909	4767.71
521.276	4787.83
521.643	4808.84
522.009	4828.5
522.376	4871.21
522.743	4868.5
523.11	4874.15
523.477	4913.92
523.843	4993.47
524.21	5008.61
524.577	5025.79
524.943	5043.41
525.31	5055.62
525.676	5075.05
526.043	5128.61
526.409	5112.79
526.776	5192.34
527.142	5176.06
527.508	5196.85
527.874	5237.76
528.241	5215.84
528.607	5276.85
528.973	5303.07
529.339	5277.53
529.705	5383.97
530.071	5392.1
530.437	5417.41
530.803	5476.85
531.169	5466.45
531.535	5473.91
531.901	5481.14
532.267	5503.29
532.632	5587.81
532.998	5605.88
533.364	5613.79
533.73	5630.06
534.095	5663.74
534.461	5690.85
534.826	5697.18
535.192	5689.27
535.557	5750.74
535.923	5744.64
536.288	5725.88
536.653	5826.67
537.019	5784.86
537.384	5817.86
537.749	5870.06
538.114	5854.69
538.479	5855.82
538.845	5922.71
539.21	5890.17
539.575	5963.61
539.94	5961.58
540.305	6033.9
540.67	6037.28
541.034	6098.3
541.399	6058.3
541.764	6130.16
542.129	6184.63
542.494	6113.89
542.858	6191.63
543.223	6187.11
543.587	6208.81
543.952	6225.3
544.316	6249.71
544.681	6251.97
545.045	6308.46
545.41	6348.46
545.774	6388.01
546.138	6392.3
546.503	6420.55
546.867	6399.08
547.231	6444.28
547.595	6517.5
547.959	6506.42
548.324	6550.27
548.688	6582.81
549.052	6560.89
549.416	6517.27
549.779	6569.47
550.143	6570.15
550.507	6665.97
550.871	6665.52
551.235	6673.43
551.599	6736.93
551.962	6776.93
552.326	6801.78
552.689	6789.13
553.053	6770.37
553.417	6797.72
553.78	6835.91
554.143	6913.87
554.507	6920.2
554.87	6870.03
555.234	6950.26
555.597	6957.26
555.96	6978.5
556.323	7028.22
556.686	6997.49
557.05	6971.72
557.413	7078.16
557.776	7105.05
558.139	7110.48
558.502	7131.04
558.865	7189.57
559.228	7248.78
559.59	7249.46
559.953	7256.91
560.316	7310.02
560.679	7295.78
561.041	7406.51
561.404	7357.48
561.767	7350.47
562.129	7401.99
562.492	7482.67
562.854	7448.55
563.217	7466.63
563.579	7460.52
563.941	7540.07
564.304	7576.45
564.666	7588.43
565.028	7593.85
565.39	7638.82
565.753	7618.71
566.115	7670.69
566.477	7704.59
566.839	7726.28
567.201	7851.93
567.563	7851.93
567.925	7813.96
568.287	7885.15
568.648	7870.68
569.01	7969.89
569.372	7957.23
569.734	7891.7
570.095	8044.46
570.457	8101.86
570.819	8020.51
571.18	8100.06
571.542	8139.83
571.903	8214.63
572.265	8247.4
572.626	8233.39
572.987	8303.89
573.349	8378.01
573.71	8437.22
574.071	8441.74
574.432	8484.45
574.794	8606.26
575.155	8578.23
575.516	8634.73
575.877	8699.36
576.238	8759.7
576.599	8804.44
576.96	8820.49
577.32	8917.89
577.681	9057.54
578.042	9104.32
578.403	9105.68
578.763	9229.97
579.124	9302.28
579.485	9403.98
579.845	9510.41
580.206	9596.97
580.566	9671.54
580.927	9753.57
581.287	9937.75
581.648	9995.15
582.008	10194.01
582.368	10203.28
582.728	10431.29
583.089	10486.89
583.449	10692.76
583.809	10830.38
584.169	10941.79
584.529	11116.7
584.889	11403.47
585.249	11472.17
585.609	11582
585.969	11870.35
586.329	11986.28
586.688	12231.7
587.048	12364.8
587.408	12550.56
587.768	12857.67
588.127	13052.69
588.487	13211.79
588.846	13527.71
589.206	13684.54
589.565	13931.77
589.925	14192.32
590.284	14415.14
590.643	14776.04
591.003	14892.19
591.362	15238.4
591.721	15417.38
592.08	15771.04
592.44	15998.6
592.799	16335.32
593.158	16496.9
593.517	16784.8
593.876	17084.68
594.235	17258.01
594.593	17589.75
594.952	18002.17
595.311	18208.94
595.67	18607.35
596.029	18884.4
596.387	19170.5
596.746	19442.36
597.104	19699.75
597.463	19985.84
597.822	20303.8
598.18	20537.02
598.538	20718.03
598.897	21194.63
599.255	21277.79
599.613	21847.49
599.972	21921.39
600.33	22328.83
600.688	22562.05
601.046	22813.34
601.404	23234.35
601.762	23450.61
602.12	23764.73
602.478	24049.92
602.836	24279.52
603.194	24489.68
603.552	24737.58
603.91	24980.52
604.268	25417.34
604.625	25484.23
604.983	25852.36
605.341	26185.91
605.698	26350.42
606.056	26677.42
606.413	26841.71
606.771	27268.82
607.128	27349.72
607.485	27481.24
607.843	27844.62
608.2	28093.43
608.557	28399.63
608.914	28566.18
609.272	28885.72
609.629	29069.9
609.986	29505.59
610.343	29553.73
610.7	29961.63
611.057	30042.08
611.414	30204.11
611.771	30364.33
612.127	30741.95
612.484	30760.7
612.841	31170.18
613.198	31110.3
613.554	31400.01
613.911	31624.18
614.267	31760.45
614.624	31862.14
614.98	32077.05
615.337	32294.67
615.693	32462.35
616.05	32667.32
616.406	32994.77
616.762	32975.11
617.118	33102.79
617.475	33189.57
617.831	33451.93
618.187	33578.71
618.543	33619.84
618.899	34040.62
619.255	34190.22
619.611	34135.53
619.967	34464.79
620.323	34610.77
620.678	34499.36
621.034	34575.29
621.39	34764.89
621.746	34702.52
622.101	35151.32
622.457	35228.61
622.812	35300.24
623.168	35485.1
623.523	35513.12
623.879	35696.62
624.234	35470.64
624.589	35707.69
624.945	35827.91
625.3	36047.34
625.655	35981.81
626.01	36073.56
626.365	36324.4
626.72	36177.28
627.075	36173.44
627.43	36330.27
627.785	36332.31
628.14	36462.47
628.495	36565.75
628.85	36563.71
629.205	36612.75
629.559	36740.88
629.914	36772.07
630.269	36768.23
630.623	36781.11
630.978	36634.22
631.332	36803.71
631.687	37001.89
632.041	36877.15
632.396	37095.23
632.75	36828.11
633.104	36942.23
633.459	36840.77
633.813	36950.14
634.167	36955.79
634.521	37053.19
634.875	37039.86
635.229	37163.25
635.583	36965.29
635.937	37078.05
636.291	36869.47
636.645	37018.62
636.999	36957.83
637.352	37031.5
637.706	36976.58
638.06	37033.08
638.413	37053.42
638.767	36914.21
639.121	37198.27
639.474	36827.66
639.828	36875.12
640.181	37071.05
640.534	37094.77
640.888	36981.56
641.241	36680.55
641.594	36819.75
641.947	36988.79
642.301	36867.21
642.654	36978.62
643.007	36925.96
643.36	37008.9
643.713	36906.76
644.066	37106.75
644.419	36780.43
644.771	36565.3
645.124	36250.5
645.477	36253.44
645.83	35968.48
646.182	35783.62
646.535	35785.66
646.888	35888.48
647.24	35773.68
647.593	35982.49
647.945	35843.73
648.298	35799.67
648.65	35723.06
649.002	35574.14
649.355	35821.13
649.707	35702.95
650.059	35952.88
650.411	36235.59
650.763	36237.17
651.115	36693.43
651.467	36521.91
651.819	36555.35
652.171	36499.53
652.523	36438.52
652.875	36401.46
653.227	36285.08
653.578	36503.6
653.93	36477.16
654.282	36454.56
654.633	36369.14
654.985	36312.65
655.337	36269.03
655.688	36304.51
656.039	36501.79
656.391	36165.31
656.742	36309.26
657.094	36316.49
657.445	36268.13
657.796	36352.42
658.147	36195.14
658.498	36271.97
658.849	36215.25
659.2	36172.31
659.551	36192.88
659.902	36365.53
660.253	36232.87
660.604	36288.92
660.955	36203.95
661.306	36329.37
661.656	36141.13
662.007	36174.8
662.358	36207.56
662.708	36170.28
663.059	36121.24
663.409	35974.58
663.76	36210.73
664.11	36224.29
664.461	36258.64
664.811	36289.14
665.161	36184.06
665.511	36043.95
665.862	36003.73
666.212	36217.06
666.562	36184.06
666.912	36120.34
667.262	36081.69
667.612	36075.59
667.962	36228.58
668.312	36081.01
668.662	36200.79
669.011	36040.34
669.361	36091.18
669.711	36013.22
670.06	36011.86
670.41	36074.24
670.76	35997.4
671.109	36007.34
671.459	35953.56
671.808	35919.89
672.157	36004.18
672.507	35775.03
672.856	35773
673.205	35824.52
673.554	35951.3
673.904	35885.54
674.253	36045.99
674.602	35869.27
674.951	35492.56
675.3	35332.79
675.649	35761.47
675.998	35849.61
676.346	35787.01
676.695	36012.32
677.044	35633.57
677.393	35668.6
677.741	35758.54
678.09	35710.85
678.438	35537.98
678.787	35718.31
679.135	35600.8
679.484	35375.5
679.832	35534.36
680.181	35358.55
680.529	35519
680.877	35307.25
681.225	35328.72
681.573	35457.98
681.922	35251.43
682.27	35153.58
682.618	35140.02
682.966	34903.87
683.314	35172.11
683.661	35028.16
684.009	35000.14
684.357	34698.68
684.705	34765.12
685.053	34905.23
685.4	34699.36
685.748	34637.21
686.095	34593.82
686.443	34512.92
686.79	34418.69
687.138	34346.37
687.485	34646.25
687.832	34361.96
688.18	34350.44
688.527	34198.58
688.874	34172.14
689.221	34116.09
689.568	34092.82
689.915	33986.61
690.262	33922.43
690.609	33857.57
690.956	33788.42
691.303	33720.4
691.65	33588.65
691.997	33568.09
692.344	33395.66
692.69	33356.34
693.037	33317.7
693.383	33147.08
693.73	33251.03
694.077	32946.63
694.423	32993.64
694.769	32952.51
695.116	32978.05
695.462	32805.17
695.808	32688.34
696.155	32755.9
696.501	32445.18
696.847	32563.37
697.193	32410.83
697.539	32428.23
697.885	32148.46
698.231	32049.48
698.577	32111.4
698.923	31988.69
699.269	31827.34
699.614	31756.61
699.96	31713.22
700.306	31709.83
700.651	31542.15
700.997	31452.66
701.342	31461.25
701.688	31436.39
702.033	31298.32
702.379	31183.52
702.724	31162.73
703.069	31275.04
703.415	30817.42
703.76	30894.71
704.105	30905.11
704.45	30845.9
704.795	30633.93
705.14	30529.97
705.485	30640.48
705.83	30491.11
706.175	30421.28
706.52	30244.33
706.865	30228.97
707.209	30225.58
707.554	30131.79
707.899	30028.52
708.243	29988.52
708.588	30056.77
708.932	29860.39
709.277	29756.44
709.621	29758.47
709.966	29708.75
710.31	29703.78
710.654	29497.23
710.998	29606.83
711.342	29370.91
711.687	29327.75
712.031	29299.95
712.375	29187.86
712.719	29300.4
713.063	29055.21
713.407	29162.55
713.75	29048.88
714.094	29117.58
714.438	28843.46
714.782	29050.46
715.125	28698.84
715.469	28853.63
715.812	28722.11
716.156	28466.98
716.499	28617.03
716.843	28568.9
717.186	28387.88
717.53	28517.37
717.873	28499.74
718.216	28376.58
718.559	28294.1
718.902	28126.42
719.246	28182.69
719.589	28033.99
719.932	27916.94
720.275	28015.69
720.617	27953.32
720.96	27826.09
721.303	27884.62
721.646	27842.81
721.989	27691.4
722.331	27749.93
722.674	27819.08
723.016	27585.87
723.359	27604.4
723.701	27524.18
724.044	27536.61
724.386	27353.79
724.729	27445.08
725.071	27376.61
725.413	27389.04
725.755	27420.23
726.097	27137.29
726.439	27144.07
726.782	27178.88
727.124	27276.27
727.465	27103.62
727.807	27183.17
728.149	27002.38
728.491	26988.6
728.833	26918.09
729.175	26981.59
729.516	26913.12
729.858	26821.82
730.199	26728.94
730.541	26763.29
730.882	26740.92
731.224	26720.36
731.565	26515.84
731.906	26549.06
732.248	26621.15
732.589	26478.78
732.93	26349.52
733.271	26391.1
733.612	26378.22
733.953	26310.2
734.294	26329.63
734.635	26202.4
734.976	26267.49
735.317	26237.66
735.658	26065.68
735.999	26113.37
736.339	26145.91
736.68	26174.61
737.021	25947.72
737.361	25954.5
737.702	26038.11
738.042	25977.78
738.383	25922.86
738.723	25917.44
739.063	25752.25
739.404	25717.45
739.744	25743.21
740.084	25566.26
740.424	25676.32
740.764	25586.15
741.104	25759.03
741.444	25563.1
741.784	25496.66
742.124	25495.3
742.464	25392.93
742.804	25397
743.143	25328.75
743.483	25363.33
743.823	25234.07
744.162	25310
744.502	25297.57
744.841	25185.48
745.181	25216.89
745.52	25135.31
745.86	25105.71
746.199	25111.13
746.538	24966.96
746.877	25078.82
747.216	25062.1
747.556	24981.65
747.895	24923.12
748.234	24877.69
748.573	24844.25
748.911	24828.43
749.25	24878.37
749.589	24751.59
749.928	24726.28
750.267	24763.8
750.605	24616.91
750.944	24650.81
751.283	24586.18
751.621	24601.54
751.96	24315
752.298	24489.91
752.636	24389.34
752.975	24324.71
753.313	24205.62
753.651	24308.89
753.989	24165.4
754.327	24160.88
754.666	23999.07
755.004	24054.66
755.342	24126.07
755.679	23960.43
756.017	23980.32
756.355	23957.04
756.693	23768.57
757.031	23810.83
757.368	23575.35
757.706	23585.52
758.044	23533.77
758.381	23591.17
758.719	23381.91
759.056	23522.93
759.394	23398.64
759.731	23272.09
760.068	23274.57
760.405	23171.07
760.743	23088.14
761.08	23197.96
761.417	23025.09
761.754	22928.59
762.091	22954.58
762.428	22860.8
762.765	22741.48
763.102	22727.69
763.438	22618.32
763.775	22469.4
764.112	22584.87
764.449	22529.51
764.785	22407.7
765.122	22355.05
765.458	22219.01
765.795	22266.01
766.131	22240.93
766.467	22025.11
766.804	22059.91
767.14	21799.13
767.476	21783.09
767.812	21761.84
768.148	21733.6
768.485	21610.43
768.821	21522.53
769.157	21432.13
769.492	21407.95
769.828	21506.48
770.164	21215.19
770.5	21155.53
770.836	21059.94
771.171	20995.54
771.507	21082.31
771.842	20786.95
772.178	20948.31
772.513	20709.22
772.849	20837.8
773.184	20637.35
773.519	20662.21
773.855	20581.54
774.19	20459.05
774.525	20339.51
774.86	20444.36
775.195	20344.03
775.53	20120.08
775.865	20079.4
776.2	19864.94
776.535	19792.86
776.87	19885.06
777.205	19828.33
777.539	19701.11
777.874	19711.28
778.209	19492.3
778.543	19433.09
778.878	19356.71
779.212	19431.73
779.547	19268.35
779.881	19280.55
780.215	19061.35
780.55	19257.28
780.884	18970.73
781.218	19034.46
781.552	19013.89
781.886	18832.88
782.22	18792.88
782.554	18770.28
782.888	18511.31
783.222	18481.03
783.556	18374.14
783.889	18372.33
784.223	18318.09
784.557	18229.05
784.89	18302.27
785.224	18133.46
785.557	18026.8
785.891	17933.47
786.224	18003.3
786.558	17966.46
786.891	17773.25
787.224	17616.42
787.557	17669.3
787.891	17571.67
788.224	17582.97
788.557	17549.98
788.89	17495.74
789.223	17466.14
789.556	17383.65
789.888	17250.1
790.221	17230.89
790.554	17063.89
790.887	17087.16
791.219	17046.03
791.552	17024.34
791.884	16908.41
792.217	16875.87
792.549	16751.81
792.882	16650.11
793.214	16677.46
793.546	16659.38
793.879	16540.29
794.211	16442.66
794.543	16530.12
794.875	16528.99
795.207	16408.09
795.539	16348.88
795.871	16345.71
796.203	16221.88
796.535	16144.36
796.867	16145.04
797.198	16029.11
797.53	16044.93
797.862	15975.78
798.193	15965.84
798.525	15833.19
798.856	15923.35
799.188	15704.6
799.519	15698.73
799.85	15556.58
800.182	15642.23
800.513	15540.31
800.844	15508.45
801.175	15535.79
801.506	15551.38
801.837	15381.67
802.168	15378.96
802.499	15245.86
802.83	15185.07
803.161	15180.32
803.491	15235.69
803.822	15153.2
804.153	15141.68
804.483	14877.5
804.814	14907.56
805.145	14859.43
805.475	14885.41
805.805	14824.17
806.136	14898.97
806.466	14728.58
806.796	14708.02
807.126	14632.54
807.457	14575.37
807.787	14579.66
808.117	14516.84
808.447	14448.59
808.777	14426.89
809.107	14424.63
809.436	14424.41
809.766	14379.21
810.096	14332.66
810.426	14256.5
810.755	14207.24
811.085	14150.74
811.414	14233
811.744	14091.08
812.073	14064.42
812.403	14054.93
812.732	14009.73
813.061	13869.17
813.39	13840.7
813.719	13852.22
814.049	13819.23
814.378	13822.62
814.707	13738.33
815.036	13684.54
815.365	13660.59
815.693	13609.29
816.022	13631.66
816.351	13589.18
816.68	13460.14
817.008	13496.3
817.337	13436.19
817.665	13303.31
817.994	13371.56
818.322	13413.59
818.651	13345.57
818.979	13248.85
819.307	13371.78
819.636	13286.81
819.964	13186.48
820.292	13117.32
820.62	13151.22
820.948	13085.91
821.276	13191.67
821.604	13137.21
821.932	13172.92
822.259	13132.24
822.587	13084.11
822.915	13057.89
823.243	13096.53
823.57	13050.43
823.898	13130.43
824.225	13104.9
824.553	13050.21
824.88	13101.05
825.207	13137.21
825.535	13049.53
825.862	13097.21
826.189	13103.54
826.516	13160.94
826.843	13104.67
827.17	13130.43
827.497	13167.94
827.824	13068.51
828.151	13119.81
828.478	13058.34
828.805	13106.03
829.131	13069.64
829.458	13040.26
829.785	13024.45
830.111	13097.66
830.438	13101.51
830.764	13078.23
831.09	13098.57
831.417	13000.04
831.743	13111.68
832.069	13069.42
832.395	12925.92
832.722	13033.48
833.048	12912.81
833.374	12980.15
833.7	12999.14
834.026	12921.85
834.351	12953.49
834.677	12897.44
835.003	12858.35
835.329	12926.82
835.654	12934.5
835.98	12802.3
836.306	12821.29
836.631	12759.82
836.956	12791.68
837.282	12775.19
837.607	12771.34
837.932	12683.44
838.258	12719.59
838.583	12741.97
838.908	12615.64
839.233	12721.18
839.558	12590.33
839.883	12633.72
840.208	12572.93
840.533	12566.38
840.858	12576.32
841.182	12551.01
841.507	12486.83
841.832	12464.23
842.156	12467.17
842.481	12316.44
842.805	12299.72
843.13	12411.35
843.454	12302.2
843.778	12233.05
844.103	12249.78
844.427	12269.89
844.751	12205.94
845.075	12181.98
845.399	12169.55
845.723	12110.35
846.047	12116.22
846.371	12031.48
846.695	11973.17
847.019	11896.11
847.343	11824.7
847.666	11767.76
847.99	11789
848.313	11877.36
848.637	11622.22
848.96	11623.13
849.284	11658.61
849.607	11496.12
849.931	11520.98
850.254	11356.24
850.577	11398.73
850.9	11317.37
851.223	11268.56
851.546	11168.22
851.869	11163.48
852.192	11118.28
852.515	11146.3
852.838	10981.11
853.161	10987.89
853.483	11071.95
853.806	10908.34
854.129	10958.74
854.451	10831.51
854.774	10842.81
855.096	10834.9
855.419	10850.94
855.741	10749.03
856.063	10697.95
856.385	10693.89
856.708	10578.63
857.03	10609.82
857.352	10561.01
857.674	10588.35
857.996	10493.44
858.318	10463.84
858.64	10445.76
858.961	10414.34
859.283	10373.22
859.605	10342.93
859.926	10307.23
860.248	10299.55
860.57	10282.37
860.891	10317.4
861.212	10192.43
861.534	10222.49
861.855	10238.3
862.176	10200.34
862.498	10180.45
862.819	10118.76
863.14	10077.86
863.461	10056.39
863.782	10034.47
864.103	10060.68
864.424	10039.89
864.745	10049.61
865.065	9918.99
865.386	9963.06
865.707	9875.6
866.027	9855.94
866.348	9856.62
866.668	9897.75
866.989	9864.08
867.309	9834.25
867.63	9796.28
867.95	9816.85
868.27	9782.72
868.59	9769.39
868.91	9797.64
869.23	9730.52
869.55	9672.44
869.87	9793.8
870.19	9686
870.51	9679.9
870.83	9748.6
871.15	9604.65
871.469	9655.49
871.789	9613.91
872.109	9718.32
872.428	9583.41
872.748	9568.49
873.067	9594.03
873.386	9592.67
873.706	9587.02
874.025	9494.82
874.344	9444.88
874.663	9535.72
874.982	9506.35
875.301	9441.94
875.62	9427.25
875.939	9358.55
876.258	9480.58
876.577	9439.91
876.896	9381.15
877.214	9366.24
877.533	9368.04
877.852	9361.94
878.17	9307.26
878.489	9353.36
878.807	9311.77
879.125	9345.9
879.444	9266.35
879.762	9323.75
880.08	9179.35
880.398	9216.18
880.716	9233.58
881.034	9156.52
881.352	9184.32
881.67	9143.87
881.988	9162.4
882.306	9128.95
882.624	9088.96
882.941	9071.78
883.259	9027.26
883.577	9002.63
883.894	8991.33
884.212	8964.21
884.529	8898.68
884.846	8913.82
885.164	8936.87
885.481	8876.31
885.798	8876.08
886.115	8792.69
886.432	8800.83
886.75	8846.93
887.067	8834.27
887.383	8782.52
887.7	8777.33
888.017	8748.4
888.334	8740.72
888.651	8699.59
888.967	8653.26
889.284	8625.92
889.6	8617.33
889.917	8562.19
890.233	8549.31
890.55	8486.94
890.866	8498.24
891.182	8472.7
891.498	8449.88
891.815	8455.07
892.131	8388.18
892.447	8326.26
892.763	8322.65
893.079	8303.44
893.395	8320.16
893.71	8305.02
894.026	8234.29
894.342	8263.44
894.657	8208.08
894.973	8171.01
895.289	8140.05
895.604	8127.17
895.92	8094.86
896.235	8065.25
896.55	8075.65
896.865	7990.91
897.181	7966.5
897.496	8004.01
897.811	8011.7
898.126	7952.04
898.441	7929.66
898.756	7840.4
899.071	7845.15
899.386	7803.34
899.7	7801.76
900.015	7727.86
900.33	7726.96
900.644	7656.68
900.959	7640.41
901.273	7655.1
901.588	7644.7
901.902	7577.13
902.216	7524.25
902.531	7548.21
902.845	7521.77
903.159	7480.64
903.473	7391.83
903.787	7421.66
904.101	7404.25
904.415	7408.77
904.729	7324.48
905.042	7322.22
905.356	7260.08
905.67	7310.47
905.984	7255.56
906.297	7205.39
906.611	7152.06
906.924	7176.92
907.237	7080.42
907.551	7098.05
907.864	7076.13
908.177	7027.54
908.491	7045.85
908.804	7032.51
909.117	6963.59
909.43	6904.83
909.743	6890.37
910.056	6883.59
910.368	6898.28
910.681	6839.75
910.994	6806.53
911.307	6776.47
911.619	6709.81
911.932	6702.8
912.244	6682.24
912.557	6720.2
912.869	6689.7
913.181	6585.07
913.494	6588.46
913.806	6605.41
914.118	6522.92
914.43	6470.04
914.742	6498.29
915.054	6433.21
915.366	6456.93
915.678	6397.73
915.99	6292.87
916.302	6331.06
916.613	6276.6
916.925	6292.19
917.236	6285.19
917.548	6173.33
917.859	6236.38
918.171	6208.35
918.482	6171.29
918.794	6159.54
919.105	6138.3
919.416	6073.44
919.727	6124.06
920.038	6054.91
920.349	6013.56
920.66	6034.8
920.971	5937.63
921.282	5936.95
921.593	5890.85
921.903	5878.42
922.214	5900.34
922.525	5848.14
922.835	5842.26
923.146	5824.63
923.456	5748.93
923.767	5772.66
924.077	5798.42
924.387	5694.47
924.697	5648.82
925.008	5651.76
925.318	5639.33
925.628	5623.74
925.938	5602.49
926.248	5590.06
926.558	5513.68
926.867	5546.68
927.177	5517.75
927.487	5486.56
927.796	5416.06
928.106	5437.75
928.416	5428.71
928.725	5382.84
929.034	5354.36
929.344	5326.57
929.653	5302.39
929.962	5309.39
930.271	5259.23
930.581	5230.53
930.89	5234.14
931.199	5203.63
931.508	5152.79
931.817	5171.54
932.125	5142.39
932.434	5111.89
932.743	5070.98
933.051	5055.16
933.36	5040.47
933.669	5001.15
933.977	4983.75
934.286	4960.7
934.594	4993.7
934.902	4938.1
935.21	4904.66
935.519	4955.51
935.827	4842.51
936.135	4840.03
936.443	4793.02
936.751	4824.89
937.059	4792.12
937.367	4756.41
937.674	4768.84
937.982	4703.08
938.29	4729.75
938.597	4747.15
938.905	4668.96
939.213	4663.08
939.52	4679.81
939.827	4635.29
940.135	4568.4
940.442	4600.71
940.749	4592.8
941.056	4582.18
941.363	4510.77
941.67	4509.19
941.977	4470.77
942.284	4453.37
942.591	4453.82
942.898	4431.9
943.205	4408.18
943.511	4400.72
943.818	4370.44
944.125	4324.34
944.431	4341.96
944.738	4281.85
945.044	4297.22
945.35	4272.81
945.657	4236.88
945.963	4273.04
946.269	4211.8
946.575	4202.98
946.881	4209.31
947.187	4173.83
947.493	4141.29
947.799	4173.6
948.105	4129.54
948.41	4061.29
948.716	4066.94
949.022	4088.86
949.327	4038.02
949.633	3997.11
949.938	4035.98
950.244	3980.62
950.549	3969.99
950.854	3969.77
951.16	3946.49
951.465	3936.55
951.77	3918.47
952.075	3857.91
952.38	3910.56
952.685	3852.71
952.99	3830.79
953.294	3861.07
953.599	3798.25
953.904	3767.97
954.209	3783.56
954.513	3756.21
954.818	3743.11
955.122	3715.09
955.426	3715.99
955.731	3669.89
956.035	3679.15
956.339	3680.51
956.643	3630.57
956.948	3669.89
957.252	3601.19
957.556	3625.37
957.86	3590.12
958.163	3583.56
958.467	3583.34
958.771	3564.58
959.075	3568.42
959.378	3540.4
959.682	3525.26
959.985	3526.84
960.289	3464.92
960.592	3471.93
960.896	3412.95
961.199	3439.39
961.502	3419.5
961.805	3411.14
962.108	3355.32
962.411	3386.96
962.714	3373.17
963.017	3347.41
963.32	3362.1
963.623	3294.53
963.926	3310.35
964.228	3284.59
964.531	3291.37
964.833	3237.36
965.136	3234.65
965.438	3213.63
965.741	3214.08
966.043	3207.53
966.345	3162.78
966.648	3177.25
966.95	3154.65
967.252	3162.78
967.554	3147.87
967.856	3129.11
968.158	3074.2
968.46	3113.97
968.761	3078.72
969.063	3064.26
969.365	3039.85
969.666	3027.87
969.968	3045.73
970.269	3019.96
970.571	3042.56
970.872	2956.46
971.174	2921.43
971.475	2979.06
971.776	2954.2
972.077	2935.9
972.378	2900.87
972.679	2916.91
972.98	2902.23
973.281	2877.37
973.582	2831.49
973.883	2866.29
974.183	2835.11
974.484	2823.58
974.785	2826.52
975.085	2790.36
975.386	2807.77
975.686	2793.08
975.986	2811.61
976.287	2778.84
976.587	2741.1
976.887	2727.54
977.187	2738.61
977.487	2694.77
977.787	2709.46
978.087	2698.84
978.387	2657.49
978.687	2666.07
978.987	2637.15
979.286	2617.49
979.586	2662.23
979.885	2610.48
980.185	2591.5
980.484	2593.99
980.784	2579.97
981.083	2570.94
981.382	2582.91
981.682	2515.57
981.981	2530.48
982.28	2524.61
982.579	2510.15
982.878	2529.58
983.177	2488.9
983.475	2493.42
983.774	2490.26
984.073	2446.64
984.372	2434.67
984.67	2455.46
984.969	2432.18
985.267	2417.49
985.566	2396.48
985.864	2413.65
986.162	2394.22
986.461	2385.86
986.759	2369.81
987.057	2375.01
987.355	2359.42
987.653	2355.35
987.951	2352.64
988.249	2328.68
988.547	2298.4
988.844	2319.87
989.142	2284.62
989.44	2261.11
989.737	2259.76
990.035	2259.31
990.332	2225.86
990.63	2208.01
990.927	2192.41
991.224	2221.79
991.521	2181.11
991.819	2220.89
992.116	2222.02
992.413	2179.31
992.71	2150.16
993.006	2179.08
993.303	2168.91
993.6	2168.69
993.897	2114
994.193	2129.59
994.49	2123.04
994.787	2111.96
995.083	2121
995.379	2110.38
995.676	2074.23
995.972	2056.15
996.268	2066.32
996.565	2043.27
996.861	2037.39
997.157	2043.49
997.453	2035.13
997.749	2014.34
998.044	1991.97
998.34	2028.35
998.636	1980.67
998.932	1975.92
999.227	1968.01
999.523	1951.06
999.818	1909.03
1000.114	1922.59
1000.409	1905.87
1000.704	1909.48
1001	1915.36
1001.295	1894.79
1001.59	1904.51
1001.885	1836.72
1002.18	1848.69
1002.475	1845.08
1002.77	1829.71
1003.065	1837.4
1003.359	1809.37
1003.654	1802.14
1003.949	1815.02
1004.243	1790.62
1004.538	1791.07
1004.832	1790.62
1005.127	1754.23
1005.421	1742.93
1005.715	1747
1006.009	1742.03
1006.304	1716.49
1006.598	1718.08
1006.892	1722.37
1007.186	1697.96
1007.48	1712.43
1007.773	1672.88
1008.067	1681.24
1008.361	1698.42
1008.655	1650.96
1008.948	1652.99
1009.242	1630.39
1009.535	1630.62
1009.829	1636.95
1010.122	1591.75
1010.415	1594.24
1010.708	1576.61
1011.001	1562.6
1011.295	1592.66
1011.588	1564.86
1011.881	1530.96
1012.173	1569.38
1012.466	1536.61
1012.759	1545.88
1013.052	1550.62
1013.344	1526.44
1013.637	1501.36
1013.93	1507.91
1014.222	1475.82
1014.514	1470.63
1014.807	1490.51
1015.099	1479.44
1015.391	1476.27
1015.683	1453.68
1015.976	1425.88
1016.268	1414.36
1016.56	1397.63
1016.851	1417.97
1017.143	1395.37
1017.435	1389.05
1017.727	1392.66
1018.018	1378.88
1018.31	1359.44
1018.602	1358.76
1018.893	1351.08
1019.185	1358.54
1019.476	1313.57
1019.767	1334.81
1020.058	1358.76
1020.35	1333.91
1020.641	1297.07
1020.932	1333.23
1021.223	1277.86
1021.514	1256.39
1021.804	1248.94
1022.095	1258.88
1022.386	1253.91
1022.677	1247.81
1022.967	1241.03
1023.258	1223.63
1023.548	1223.85
1023.839	1214.36
1024.129	1192.67
1024.419	1190.63
1024.709	1182.95
1025	1195.38
1025.29	1195.15
1025.58	1156.06
1025.87	1158.77
1026.16	1145.21
1026.449	1146.34
1026.739	1141.59
1027.029	1159.9
1027.319	1130.52
1027.608	1111.76
1027.898	1098.66
1028.187	1093.91
1028.477	1076.96
1028.766	1077.64
1029.055	1077.19
1029.344	1074.03
1029.634	1081.03
1029.923	1075.16
1030.212	1062.95
1030.501	1068.15
1030.79	1050.98
1031.078	1068.6
1031.367	1049.85
1031.656	1031.31
1031.945	1036.51
1032.233	1052.11
1032.522	1016.63
1032.81	997.19
1033.099	1001.03
1033.387	988.15
1033.675	950.86
1033.963	972.56
1034.251	1003.52
1034.54	946.8
1034.828	971.66
1035.116	972.79
1035.403	951.32
1035.691	941.6
1035.979	960.13
1036.267	925.33
1036.554	940.24
1036.842	926.68
1037.129	928.49
1037.417	901.37
1037.704	882.84
1037.992	889.17
1038.279	897.08
1038.566	875.39
1038.853	875.39
1039.14	875.39
