Data from hue_160_FLMS001491_00097.txt Node
Date: Tue Feb 07 16:51:58 GMT 2017
User: dcchb
Spectrometer: FLMS00149
Trigger mode: 0
Integration Time (sec): 2.000000E-2
Scans to average: 10
Electric dark correction enabled: true
Nonlinearity correction enabled: false
Boxcar width: 0
XAxis mode: Wavelengths
Number of Pixels in Spectrum: 2048
>>>>>Begin Spectral Data<<<<<
341.393	-6.43
341.776	-6.43
342.16	-6.43
342.543	-68.35
342.927	-65.41
343.31	-81.9
343.693	-68.8
344.077	-87.1
344.46	-34.67
344.843	-54.56
345.226	-50.04
345.61	-30.15
345.993	-34.67
346.376	-8.69
346.759	22.73
347.142	29.96
347.525	33.57
347.908	63.18
348.291	85.32
348.674	97.07
349.057	118.77
349.44	134.36
349.823	161.03
350.206	163.29
350.588	174.81
350.971	224.53
351.354	206
351.737	228.6
352.119	235.83
352.502	244.41
352.884	275.37
353.267	280.8
353.65	286.9
354.032	295.94
354.414	292.77
354.797	309.27
355.179	314.47
355.562	309.95
355.944	318.76
356.326	331.42
356.709	357.63
357.091	315.6
357.473	343.85
357.855	345.88
358.238	334.13
358.62	344.07
359.002	354.92
359.384	369.38
359.766	334.13
360.148	333.9
360.53	327.12
360.912	345.2
361.294	312.89
361.676	323.28
362.057	331.64
362.439	329.16
362.821	321.93
363.203	333.23
363.584	306.33
363.966	317.63
364.348	330.74
364.729	336.84
365.111	325.54
365.493	304.53
365.874	304.3
366.256	314.92
366.637	312.21
367.019	311.08
367.4	319.44
367.781	306.33
368.163	320.34
368.544	320.57
368.925	335.03
369.306	335.49
369.688	327.35
370.069	311.53
370.45	334.81
370.831	314.47
371.212	306.33
371.593	340.46
371.974	298.42
372.355	283.51
372.736	313.34
373.117	332.32
373.498	324.19
373.879	341.14
374.26	317.18
374.641	295.26
375.021	318.54
375.402	315.37
375.783	336.16
376.163	294.58
376.544	309.27
376.925	340.46
377.305	316.5
377.686	346.78
378.066	332.1
378.447	328.93
378.827	340.46
379.208	328.25
379.588	354.02
379.968	350.85
380.349	337.75
380.729	331.87
381.109	354.24
381.489	324.41
381.87	339.33
382.25	337.29
382.63	332.77
383.01	342.94
383.39	344.75
383.77	361.47
384.15	342.27
384.53	341.14
384.91	336.84
385.29	344.52
385.67	364.86
386.049	349.27
386.429	351.3
386.809	344.52
387.189	365.09
387.568	378.87
387.948	363.51
388.328	383.17
388.707	355.6
389.087	355.6
389.466	367.58
389.846	358.99
390.225	346.78
390.605	353.11
390.984	352.66
391.363	378.65
391.743	357.63
392.122	360.34
392.501	370.29
392.881	399.44
393.26	372.55
393.639	357.86
394.018	370.74
394.397	373
394.776	366.9
395.155	382.72
395.534	384.07
395.913	395.37
396.292	377.29
396.671	366.9
397.05	379.33
397.429	401.47
397.808	397.86
398.186	380.68
398.565	383.39
398.944	382.26
399.323	388.59
399.701	385.65
400.08	410.29
400.458	380.46
400.837	398.76
401.215	399.66
401.594	413.45
401.972	410.96
402.351	379.33
402.729	403.51
403.107	408.03
403.486	406.44
403.864	394.24
404.242	423.39
404.62	427.01
404.999	428.82
405.377	420.46
405.755	443.05
406.133	430.85
406.511	420.23
406.889	428.36
407.267	434.01
407.645	449.83
408.023	431.53
408.401	469.49
408.779	450.51
409.156	439.66
409.534	457.97
409.912	468.14
410.29	454.13
410.667	437.4
411.045	460.45
411.422	465.65
411.8	471.3
412.178	456.16
412.555	469.04
412.933	453.9
413.31	481.92
413.687	499.55
414.065	486.44
414.442	480.11
414.819	499.1
415.197	483.28
415.574	489.83
415.951	518.98
416.328	496.16
416.705	499.1
417.082	510.4
417.46	508.81
417.837	520.34
418.214	502.49
418.591	527.34
418.967	517.63
419.344	511.98
419.721	531.19
420.098	527.34
420.475	553.78
420.852	547.91
421.228	557.4
421.605	549.04
421.982	534.35
422.358	558.98
422.735	544.52
423.111	572.09
423.488	578.42
423.864	598.53
424.241	608.7
424.617	595.37
424.994	565.54
425.37	595.59
425.746	606.89
426.123	582.94
426.499	603.5
426.875	601.92
427.251	588.36
427.627	626.33
428.003	620.22
428.379	652.31
428.756	637.4
429.132	633.1
429.507	630.17
429.883	628.81
430.259	655.25
430.635	660
431.011	666.55
431.387	653.67
431.763	685.08
432.138	694.35
432.514	704.06
432.89	697.51
433.265	695.48
433.641	696.83
434.016	709.26
434.392	717.85
434.767	734.12
435.143	714.01
435.518	733.89
435.894	739.99
436.269	749.94
436.644	767.56
437.02	756.72
437.395	750.84
437.77	756.04
438.145	795.81
438.52	811.63
438.895	797.62
439.271	811.86
439.646	796.94
440.021	823.61
440.395	787.9
440.77	806.89
441.145	832.65
441.52	850.27
441.895	841.91
442.27	880.33
442.645	858.41
443.019	867.45
443.394	851.18
443.769	874.23
444.143	857.73
444.518	894.11
444.892	903.15
445.267	888.47
445.641	910.61
446.016	897.28
446.39	911.74
446.764	893.21
447.139	921.46
447.513	917.62
447.887	933.89
448.262	949.71
448.636	926.88
449.01	949.03
449.384	947.67
449.758	988.8
450.132	999.42
450.506	982.7
450.88	1003.26
451.254	1008.91
451.628	1007.56
452.002	1031.29
452.376	1029.7
452.75	1025.41
453.123	1029.93
453.497	1076.93
453.871	1062.7
454.244	1066.99
454.618	1081.23
454.992	1117.39
455.365	1085.75
455.739	1144.28
456.112	1136.14
456.486	1171.17
456.859	1135.46
457.232	1177.05
457.606	1197.84
457.979	1193.54
458.352	1196.03
458.725	1238.06
459.099	1228.8
459.472	1263.14
459.845	1289.81
460.218	1283.03
460.591	1309.7
460.964	1317.15
461.337	1334.56
461.71	1339.3
462.083	1332.52
462.456	1389.24
462.829	1398.96
463.201	1408.23
463.574	1431.05
463.947	1445.06
464.32	1483.03
464.692	1514.44
465.065	1503.82
465.438	1519.18
465.81	1550.59
466.183	1553.53
466.555	1599.86
466.928	1633.76
467.3	1630.59
467.672	1632.17
468.045	1707.2
468.417	1683.02
468.789	1724.6
469.161	1779.06
469.534	1808.22
469.906	1842.79
470.278	1833.53
470.65	1890.47
471.022	1947.87
471.394	1945.84
471.766	1997.81
472.138	2053.18
472.51	2092.28
472.882	2125.27
473.253	2158.94
473.625	2197.36
473.997	2229.9
474.369	2274.19
474.74	2349.44
475.112	2392.61
475.484	2458.82
475.855	2494.98
476.227	2579.95
476.598	2597.35
476.97	2676.67
477.341	2712.6
477.713	2812.03
478.084	2838.92
478.455	2967.28
478.827	3001.4
479.198	3084.79
479.569	3102.42
479.94	3249.76
480.311	3303.32
480.682	3384.67
481.053	3521.62
481.424	3603.87
481.795	3666.02
482.166	3717.09
482.537	3810.87
482.908	4011.32
483.279	4031.43
483.65	4166.35
484.021	4285.89
484.391	4331.76
484.762	4480.46
485.133	4537.18
485.503	4588.03
485.874	4773.11
486.244	4888.81
486.615	5005.65
486.985	5063.72
487.356	5232.76
487.726	5383.71
488.097	5510.49
488.467	5560.21
488.837	5740.09
489.207	5891.05
489.578	6049.01
489.948	6135.56
490.318	6308.21
490.688	6400.18
491.058	6523.57
491.428	6644.47
491.798	6748.42
492.168	6916.1
492.538	7020.96
492.908	7177.57
493.278	7327.62
493.648	7381.4
494.017	7508.63
494.387	7625.92
494.757	7785.46
495.126	7850.54
495.496	7970.76
495.866	8031.55
496.235	8245.79
496.605	8298.21
496.974	8422.05
497.344	8494.14
497.713	8645.32
498.082	8731.42
498.452	8824.98
498.821	8937.97
499.19	8976.61
499.559	9174.8
499.928	9225.65
500.298	9359.43
500.667	9410.73
501.036	9467
501.405	9594.45
501.774	9635.58
502.143	9754.9
502.512	9815.69
502.88	9927.78
503.249	9936.59
503.618	10048
503.987	10149.92
504.356	10162.12
504.724	10339.29
505.093	10283.47
505.462	10341.1
505.83	10496.35
506.199	10549.45
506.567	10691.6
506.936	10708.09
507.304	10826.51
507.672	10812.27
508.041	10898.37
508.409	10887.75
508.777	11088.42
509.145	11122.77
509.514	11137.24
509.882	11219.27
510.25	11168.42
510.618	11226.05
510.986	11273.95
511.354	11302.2
511.722	11472.59
512.09	11466.94
512.458	11472.59
512.826	11615.64
513.193	11602.08
513.561	11693.6
513.929	11734.96
514.297	11791
514.664	11825.8
515.032	11853.83
515.4	11931.79
515.767	12000.94
516.135	11997.78
516.502	11909.87
516.869	12068.74
517.237	12090.2
517.604	12047.04
517.972	12110.09
518.339	12161.84
518.706	12211.78
519.073	12187.15
519.44	12223.31
519.808	12368.16
520.175	12325.45
520.542	12415.85
520.909	12385.34
521.276	12370.65
521.643	12525.22
522.009	12556.41
522.376	12534.71
522.743	12598.21
523.11	12579.01
523.477	12690.41
523.843	12740.58
524.21	12775.84
524.577	12797.98
524.943	12743.52
525.31	12821.48
525.676	12891.54
526.043	12906.91
526.409	12958.43
526.776	12936.74
527.142	12900.58
527.508	12962.72
527.874	13036.39
528.241	13040.46
528.607	13009.73
528.973	13153
529.339	13029.62
529.705	13058.99
530.071	13169.05
530.437	13118.65
530.803	13211.98
531.169	13070.29
531.535	13031.65
531.901	13094.25
532.267	13040.24
532.632	13030.07
532.998	13023.06
533.364	13037.3
533.73	13020.58
534.095	13077.3
534.461	12959.56
534.826	12961.82
535.192	12922.95
535.557	13094.92
535.923	12980.58
536.288	12920.01
536.653	12968.15
537.019	12966.34
537.384	12885.44
537.749	12863.29
538.114	12862.61
538.479	12840.24
538.845	12768.6
539.21	12743.29
539.575	12801.6
539.94	12756.4
540.305	12776.74
540.67	12651.55
541.034	12634.37
541.399	12666.01
541.764	12588.95
542.129	12633.24
542.494	12517.09
542.858	12482.74
543.223	12459.91
543.587	12559.34
543.952	12420.14
544.316	12423.76
544.681	12364.1
545.045	12318
545.41	12347.83
545.774	12420.82
546.138	12240.71
546.503	12347.6
546.867	12283.65
547.231	12194.38
547.595	12225.34
547.959	12143.76
548.324	12169.98
548.688	12089.53
549.052	12085.01
549.416	12080.49
549.779	12030.09
550.143	11936.08
550.507	12018.79
550.871	12049.3
551.235	11871
551.599	11976.76
551.962	11914.39
552.326	11838.23
552.689	11876.2
553.053	11812.02
553.417	11806.14
553.78	11879.59
554.143	11678.69
554.507	11777.44
554.87	11754.39
555.234	11812.7
555.597	11660.84
555.96	11683.89
556.323	11657.9
556.686	11683.89
557.05	11775.41
557.413	11645.7
557.776	11616.54
558.139	11667.62
558.502	11620.61
558.865	11610.67
559.228	11694.06
559.59	11678.24
559.953	11638.24
560.316	11738.58
560.679	11610.67
561.041	11636.88
561.404	11680.95
561.767	11715.53
562.129	11582.42
562.492	11727.28
562.854	11666.49
563.217	11691.57
563.579	11621.29
563.941	11661.52
564.304	11703.77
564.666	11791.68
565.028	11725.02
565.39	11708.52
565.753	11747.84
566.115	11771.57
566.477	11750.33
566.839	11780.38
567.201	11795.07
567.563	11812.25
567.925	11806.6
568.287	11814.05
568.648	11811.34
569.01	11870.32
569.372	11880.49
569.734	11907.84
570.095	11867.39
570.457	11906.71
570.819	11898.12
571.18	11885.01
571.542	11921.62
571.903	11858.12
572.265	11878.91
572.626	11915.52
572.987	11899.48
573.349	12032.81
573.71	11970.66
574.071	11984.22
574.432	11974.5
574.794	12100.37
575.155	11988.29
575.516	12006.37
575.877	12106.25
576.238	11986.03
576.599	11980.6
576.96	12120.71
577.32	12072.8
577.681	12068.51
578.042	12113.71
578.403	12060.15
578.763	12103.31
579.124	12022.64
579.485	12118.9
579.845	12120.49
580.206	12172.46
580.566	12040.94
580.927	12078.91
581.287	12146.25
581.648	12067.38
582.008	12129.98
582.368	12136.98
582.728	12076.87
583.089	12010.88
583.449	12057.21
583.809	12112.58
584.169	12058.79
584.529	12023.54
584.889	12040.26
585.249	12025.35
585.609	11987.16
585.969	12015.63
586.329	11981.51
586.688	12027.16
587.048	11955.52
587.408	11979.25
587.768	11967.95
588.127	11995.29
588.487	11955.97
588.846	12020.83
589.206	11867.61
589.565	11876.43
589.925	11945.8
590.284	11859.25
590.643	12005.91
591.003	11993.48
591.362	11962.75
591.721	11974.73
592.08	11918.23
592.44	11849.76
592.799	11898.35
593.158	11849.99
593.517	11849.76
593.876	11852.02
594.235	11809.76
594.593	11853.37
594.952	11848.63
595.311	11820.61
595.67	11838.69
596.029	11918.68
596.387	11971.79
596.746	11892.02
597.104	11760.27
597.463	11826.03
597.822	11915.97
598.18	11805.01
598.538	11828.06
598.897	11871
599.255	11783.55
599.613	11920.04
599.972	11774.73
600.33	11813.83
600.688	11722.53
601.046	11873.94
601.404	11821.96
601.762	11825.8
602.12	11894.73
602.478	11817.44
602.836	11895.86
603.194	11762.76
603.552	11798.69
603.91	11808.86
604.268	11831.68
604.625	11754.62
604.983	11856.99
605.341	11757.56
605.698	11835.07
606.056	11877.1
606.413	11798.69
606.771	11856.09
607.128	11795.07
607.485	11862.41
607.843	11816.54
608.2	11849.99
608.557	11957.1
608.914	11890.44
609.272	11987.38
609.629	11986.7
609.986	12018.57
610.343	11953.49
610.7	11960.72
611.057	11943.09
611.414	11982.64
611.771	11975.86
612.127	12025.57
612.484	11904.9
612.841	12036.87
613.198	11981.06
613.554	11998.23
613.911	11960.04
614.267	12028.51
614.624	12007.04
614.98	12018.34
615.337	12089.07
615.693	12013.82
616.05	12004.33
616.406	12135.4
616.762	12054.5
617.118	12090.88
617.475	12082.97
617.831	12065.35
618.187	12161.39
618.543	12168.39
618.899	12204.33
619.255	12216.3
619.611	12129.07
619.967	12200.94
620.323	12238.22
620.678	12141.05
621.034	12174.72
621.39	12146.25
621.746	12129.75
622.101	12333.59
622.457	12086.59
622.812	12227.83
623.168	12191.67
623.523	12154.61
623.879	12280.71
624.234	12133.59
624.589	12213.82
624.945	12222.18
625.3	12222.4
625.655	12155.06
626.01	12225.57
626.365	12227.38
626.72	12055.4
627.075	12089.3
627.43	12119.36
627.785	12103.76
628.14	12163.88
628.495	12202.29
628.85	12127.04
629.205	12148.06
629.559	12232.8
629.914	12053.14
630.269	12141.5
630.623	12085.91
630.978	12034.84
631.332	12032.35
631.687	12188.51
632.041	12052.69
632.396	12090.43
632.75	11939.7
633.104	12011.11
633.459	12136.98
633.813	11926.59
634.167	11997.78
634.521	11961.39
634.875	11913.03
635.229	11877.1
635.583	11831
635.937	11929.53
636.291	11847.05
636.645	11849.31
636.999	11860.38
637.352	11908.06
637.706	11795.07
638.06	11882.75
638.413	11847.73
638.767	11892.7
639.121	11711.01
639.474	11681.4
639.828	11757.11
640.181	11759.82
640.534	11788.74
640.888	11661.52
641.241	11685.92
641.594	11748.74
641.947	11778.35
642.301	11682.08
642.654	11640.72
643.007	11696.77
643.36	11675.75
643.713	11628.75
644.066	11631.01
644.419	11578.58
644.771	11586.04
645.124	11445.93
645.477	11333.39
645.83	11403.67
646.182	11232.37
646.535	11274.63
646.888	11252.03
647.24	11200.96
647.593	11262.43
647.945	11229.44
648.298	11229.66
648.65	11111.7
649.002	11171.81
649.355	11258.59
649.707	11244.58
650.059	11315.99
650.411	11475.31
650.763	11447.06
651.115	11550.78
651.467	11485.47
651.819	11547.39
652.171	11540.84
652.523	11457
652.875	11468.3
653.227	11366.16
653.578	11520.73
653.93	11463.33
654.282	11401.64
654.633	11485.47
654.985	11408.64
655.337	11455.42
655.688	11489.32
656.039	11540.61
656.391	11445.7
656.742	11469.2
657.094	11561.18
657.445	11511.01
657.796	11409.77
658.147	11446.61
658.498	11416.55
658.849	11521.18
659.2	11527.51
659.551	11470.79
659.902	11509.65
660.253	11430.56
660.604	11572.93
660.955	11403.67
661.306	11508.75
661.656	11533.61
662.007	11506.72
662.358	11475.31
662.708	11564.34
663.059	11514.63
663.409	11401.41
663.76	11475.31
664.11	11617.9
664.461	11495.42
664.811	11555.53
665.161	11545.13
665.511	11503.55
665.862	11499.49
666.212	11457.23
666.562	11560.95
666.912	11509.65
667.262	11479.83
667.612	11485.93
667.962	11512.14
668.312	11535.87
668.662	11573.61
669.011	11465.81
669.361	11497
669.711	11479.37
670.06	11471.24
670.41	11484.8
670.76	11470.11
671.109	11510.78
671.459	11508.3
671.808	11423.1
672.157	11466.27
672.507	11401.86
672.856	11470.33
673.205	11461.29
673.554	11422.88
673.904	11420.84
674.253	11489.77
674.602	11429.43
674.951	11191.92
675.3	11177.91
675.649	11409.54
675.998	11321.19
676.346	11332.94
676.695	11433.5
677.044	11294.97
677.393	11357.57
677.741	11342.43
678.09	11327.06
678.438	11331.81
678.787	11273.5
679.135	11326.16
679.484	11249.32
679.832	11301.98
680.181	11226.5
680.529	11225.59
680.877	11132.72
681.225	11107.18
681.573	11102.21
681.922	11095.65
682.27	11087.75
682.618	11144.69
682.966	11028.76
683.314	11081.19
683.661	11032.83
684.009	10894.08
684.357	10945.6
684.705	10885.94
685.053	10912.83
685.4	10996
685.748	10796.91
686.095	10867.41
686.443	10786.74
686.79	10833.06
687.138	10832.38
687.485	10834.87
687.832	10776.79
688.18	10761.88
688.527	10708.55
688.874	10588.1
689.221	10619.28
689.568	10636.01
689.915	10573.63
690.262	10576.35
690.609	10560.53
690.956	10536.35
691.303	10472.62
691.65	10528.89
691.997	10402.34
692.344	10337.26
692.69	10301.33
693.037	10302.23
693.383	10235.56
693.73	10166.19
694.077	10176.81
694.423	10236.47
694.769	10121.89
695.116	10097.04
695.462	10087.55
695.808	10031.28
696.155	10059.07
696.501	9941.56
696.847	9980.88
697.193	9931.62
697.539	9945.85
697.885	9827.44
698.231	9831.06
698.577	9803.26
698.923	9758.51
699.269	9760.1
699.614	9656.37
699.96	9585.86
700.306	9659.53
700.651	9495.92
700.997	9580.67
701.342	9530.05
701.688	9502.7
702.033	9485.3
702.379	9449.6
702.724	9362.59
703.069	9438.07
703.415	9252.31
703.76	9317.62
704.105	9330.73
704.45	9259.54
704.795	9262.93
705.14	9186.78
705.485	9225.65
705.83	9104.97
706.175	9093.22
706.52	9119.89
706.865	9081.24
707.209	9078.08
707.554	9016.61
707.899	8981.13
708.243	8958.31
708.588	8921.47
708.932	8870.4
709.277	8876.96
709.621	8862.49
709.966	8790.63
710.31	8793.79
710.654	8662.95
710.998	8770.07
711.342	8746.56
711.687	8703.18
712.031	8682.61
712.375	8628.37
712.719	8704.53
713.063	8636.96
713.407	8681.03
713.75	8593.57
714.094	8553.8
714.438	8581.14
714.782	8566.68
715.125	8514.25
715.469	8544.99
715.812	8489.17
716.156	8521.03
716.499	8453.46
716.843	8452.11
717.186	8436.06
717.53	8497.98
717.873	8430.87
718.216	8399.91
718.559	8347.48
718.902	8384.09
719.246	8341.38
719.589	8311.77
719.932	8296.41
720.275	8312.45
720.617	8257.31
720.96	8319.91
721.303	8291.43
721.646	8262.28
721.989	8237.42
722.331	8197.88
722.674	8251.21
723.016	8233.81
723.359	8269.29
723.701	8253.24
724.044	8159.46
724.386	8149.74
724.729	8223.87
725.071	8178.9
725.413	8210.76
725.755	8197.2
726.097	8139.35
726.439	8144.09
726.782	8171.21
727.124	8216.18
727.465	8187.26
727.807	8177.31
728.149	8165.79
728.491	8067.49
728.833	8142.74
729.175	8141.16
729.516	8141.83
729.858	8078.33
730.199	8104.77
730.541	8086.92
730.882	8090.54
731.224	8157.65
731.565	8120.14
731.906	8111.1
732.248	8079.69
732.589	8076.52
732.93	8051.21
733.271	8089.63
733.612	8029.75
733.953	8108.84
734.294	8081.27
734.635	8015.51
734.976	8044.66
735.317	8032.46
735.658	7977.32
735.999	8035.85
736.339	8025.23
736.68	8041.95
737.021	8065.45
737.361	8074.49
737.702	8112.91
738.042	8098.45
738.383	8086.02
738.723	8114.94
739.063	8112.91
739.404	8116.98
739.744	8127.82
740.084	8109.29
740.424	8116.98
740.764	8123.98
741.104	8162.17
741.444	8136.86
741.784	8173.02
742.124	8218.67
742.464	8278.1
742.804	8238.78
743.143	8203.75
743.483	8245.79
743.823	8207.59
744.162	8300.7
744.502	8378.21
744.841	8284.43
745.181	8356.29
745.52	8414.6
745.86	8461.83
746.199	8460.92
746.538	8505.44
746.877	8553.12
747.216	8579.34
747.556	8628.83
747.895	8624.31
748.234	8686.9
748.573	8738.65
748.911	8792.44
749.25	8845.54
749.589	8900.46
749.928	8937.29
750.267	8997.86
750.605	9036.5
750.944	9112.2
751.283	9254.35
751.621	9349.49
751.96	9313.1
752.298	9417.96
752.636	9510.61
752.975	9580.89
753.313	9648.24
753.651	9829.02
753.989	9822.92
754.327	9968.9
754.666	10039.86
755.004	10212.06
755.342	10304.94
755.679	10455.67
756.017	10469.23
756.355	10664.03
756.693	10763.01
757.031	10996.67
757.368	10998.26
757.706	11158.03
758.044	11295.88
758.381	11454.52
758.719	11604.34
759.056	11755.75
759.394	11872.81
759.731	11915.97
760.068	12129.98
760.405	12234.83
760.743	12457.65
761.08	12622.17
761.417	12727.93
761.754	12896.06
762.091	13052.89
762.428	13242.49
762.765	13284.3
763.102	13491.98
763.438	13589.6
763.775	13724.51
764.112	13877.95
764.449	14083.15
764.785	14181.45
765.122	14365.17
765.458	14411.73
765.795	14645.62
766.131	14781.66
766.467	14903.69
766.804	15042.44
767.14	15145.94
767.476	15228.88
767.812	15381.19
768.148	15524.24
768.485	15606.72
768.821	15790.22
769.157	15835.42
769.492	15971.46
769.828	16116.77
770.164	16139.59
770.5	16282.64
770.836	16396.76
771.171	16485.34
771.507	16582.06
771.842	16512.46
772.178	16618.22
772.513	16841.49
772.849	16893.92
773.184	16983.41
773.519	17036.06
773.855	17080.81
774.19	17147.92
774.525	17325.55
774.86	17321.71
775.195	17441.48
775.53	17403.74
775.865	17480.12
776.2	17453.45
776.535	17386.79
776.87	17490.51
777.205	17531.87
777.539	17575.03
777.874	17665.65
778.209	17629.95
778.543	17697.06
778.878	17693.67
779.212	17690.74
779.547	17688.93
779.881	17696.16
780.215	17709.27
780.55	17811.86
780.884	17737.97
781.218	17781.35
781.552	17752.2
781.886	17747.46
782.22	17734.58
782.554	17718.08
782.888	17633.79
783.222	17705.88
783.556	17682.83
783.889	17673.33
784.223	17651.87
784.557	17694.58
784.89	17745.65
785.224	17591.08
785.557	17547.91
785.891	17572.77
786.224	17516.73
786.558	17671.98
786.891	17539.78
787.224	17522.83
787.557	17466.11
787.891	17539.33
788.224	17497.97
788.557	17462.72
788.89	17517.63
789.223	17535.71
789.556	17380.01
789.888	17317.64
790.221	17325.32
790.554	17303.63
790.887	17347.24
791.219	17274.25
791.552	17181.14
791.884	17111.32
792.217	17160.13
792.549	17170.3
792.882	17029.74
793.214	16930.3
793.546	17041.49
793.879	16911.77
794.211	16910.19
794.543	17005.78
794.875	16873.81
795.207	16979.79
795.539	16875.84
795.871	16913.58
796.203	16731.21
796.535	16676.75
796.867	16762.4
797.198	16671.78
797.53	16678.56
797.862	16470.43
798.193	16476.08
798.525	16521.95
798.856	16520.6
799.188	16367.83
799.519	16356.31
799.85	16206.03
800.182	16308.85
800.513	16225.24
800.844	16178.91
801.175	16249.42
801.506	16288.06
801.837	16143.21
802.168	16049.65
802.499	16092.13
802.83	16020.5
803.161	15986.37
803.491	16013.49
803.822	15940.05
804.153	15873.16
804.483	15780.96
804.814	15720.62
805.145	15695.31
805.475	15743.67
805.805	15657.12
806.136	15652.37
806.466	15692.37
806.796	15631.81
807.126	15510.91
807.457	15495.31
807.787	15500.51
808.117	15392.04
808.447	15342.1
808.777	15304.81
809.107	15363.11
809.436	15233.4
809.766	15296.9
810.096	15241.76
810.426	15208.54
810.755	15210.35
811.085	15191.37
811.414	15160.41
811.744	15016.68
812.073	15081.76
812.403	15030.69
812.732	14938.94
813.061	15045.16
813.39	14852.84
813.719	14842.22
814.049	15034.99
814.378	14827.99
814.707	14813.52
815.036	14849
815.365	14684.26
815.693	14635
816.022	14694.66
816.351	14578.5
816.68	14529.46
817.008	14626.18
817.337	14467.09
817.665	14466.87
817.994	14471.16
818.322	14415.12
818.651	14450.37
818.979	14318.39
819.307	14447.2
819.636	14304.61
819.964	14273.88
820.292	14373.31
820.62	14321.56
820.948	14323.59
821.276	14367.66
821.604	14305.06
821.932	14310.71
822.259	14317.49
822.587	14302.35
822.915	14232.3
823.243	14292.18
823.57	14272.52
823.898	14341.44
824.225	14244.72
824.553	14237.49
824.88	14288.56
825.207	14326.3
825.535	14232.75
825.862	14215.8
826.189	14329.47
826.516	14333.08
826.843	14298.96
827.17	14342.35
827.497	14275.91
827.824	14314.33
828.151	14293.31
828.478	14302.58
828.805	14365.4
829.131	14337.83
829.458	14326.3
829.785	14216.93
830.111	14213.99
830.438	14332.18
830.764	14327.21
831.09	14359.07
831.417	14225.52
831.743	14286.31
832.069	14282.01
832.395	14195.01
832.722	14280.43
833.048	14278.85
833.374	14322.69
833.7	14187.55
834.026	14173.09
834.351	14274.1
834.677	14135.35
835.003	14304.16
835.329	14209.92
835.654	14126.99
835.98	14043.83
836.306	14129.02
836.631	14057.16
836.956	14085.63
837.282	14105.29
837.607	14053.77
837.932	13951.62
838.258	13999.98
838.583	14016.71
838.908	13843.83
839.233	13932.87
839.558	13861.46
839.883	13827.33
840.208	13811.52
840.533	13845.64
840.858	13842.93
841.182	13755.47
841.507	13723.61
841.832	13713.66
842.156	13696.26
842.481	13573.33
842.805	13673.44
843.13	13590.5
843.454	13595.48
843.778	13599.32
844.103	13546.44
844.427	13476.83
844.751	13384.63
845.075	13448.36
845.399	13360.45
845.723	13330.62
846.047	13350.74
846.371	13226.9
846.695	13197.52
847.019	13086.34
847.343	13150.52
847.666	13038.65
847.99	13009.5
848.313	12940.13
848.637	12858.32
848.96	12901.71
849.284	12814.93
849.607	12741.49
849.931	12698.78
850.254	12697.87
850.577	12588.95
850.9	12487.71
851.223	12571.55
851.546	12366.81
851.869	12362.06
852.192	12360.25
852.515	12376.3
852.838	12270.99
853.161	12224.21
853.483	12201.39
853.806	12171.11
854.129	12155.51
854.451	12042.07
854.774	12012.92
855.096	11922.75
855.419	12062.63
855.741	11838.23
856.063	11849.31
856.385	11827.84
856.708	11778.8
857.03	11702.19
857.352	11715.3
857.674	11717.79
857.996	11622.65
858.318	11564.57
858.64	11633.72
858.961	11556.66
859.283	11466.94
859.605	11403.44
859.926	11460.62
860.248	11402.54
860.57	11350.11
860.891	11378.58
861.212	11271.47
861.534	11276.67
861.855	11279.15
862.176	11239.38
862.498	11302.88
862.819	11250.45
863.14	11146.95
863.461	11185.82
863.782	11170
864.103	11150.57
864.424	11105.6
864.745	11131.36
865.065	11018.82
865.386	11074.19
865.707	11046.84
866.027	11038.25
866.348	11056.79
866.668	10934.98
866.989	10926.85
867.309	10929.11
867.63	10960.06
867.95	10955.32
868.27	10760.75
868.59	10881.2
868.91	10816.34
869.23	10819.5
869.55	10802.78
869.87	10836
870.19	10759.17
870.51	10773.4
870.83	10678.94
871.15	10736.79
871.469	10701.31
871.789	10718.04
872.109	10696.8
872.428	10674.2
872.748	10648.21
873.067	10622.9
873.386	10619.51
873.706	10589.23
874.025	10525.5
874.344	10520.98
874.663	10515.56
874.982	10525.73
875.301	10522.79
875.62	10457.71
875.939	10432.85
876.258	10469.68
876.577	10338.84
876.896	10427.88
877.214	10280.08
877.533	10363.02
877.852	10362.79
878.17	10343.81
878.489	10347.88
878.807	10354.66
879.125	10326.64
879.444	10278.5
879.762	10246.64
880.08	10350.59
880.398	10245.96
880.716	10273.3
881.034	10124.15
881.352	10231.04
881.67	10137.94
881.988	10091.61
882.306	10095
882.624	10062.46
882.941	10035.12
883.259	9958.74
883.577	9945.85
883.894	9921.45
884.212	9965.97
884.529	9960.54
884.846	9936.81
885.164	9936.36
885.481	9853.88
885.798	9939.53
886.115	9772.3
886.432	9877.38
886.75	9767.33
887.067	9776.82
887.383	9745.18
887.7	9761.9
888.017	9676.03
888.334	9706.76
888.651	9626.09
888.967	9625.86
889.284	9516.04
889.6	9488.47
889.917	9567.11
890.233	9523.04
890.55	9408.92
890.866	9457.51
891.182	9405.76
891.498	9407.34
891.815	9350.62
892.131	9311.97
892.447	9344.74
892.763	9273.78
893.079	9253.9
893.395	9235.82
893.71	9172.09
894.026	9215.48
894.342	9184.52
894.657	9114.24
894.973	9084.86
895.289	9061.81
895.604	9009.61
895.92	8961.47
896.235	8936.16
896.55	8936.84
896.865	8873.34
897.181	8835.15
897.496	8875.15
897.811	8814.81
898.126	8789.05
898.441	8758.31
898.756	8733.91
899.071	8635.38
899.386	8638.54
899.7	8590.86
900.015	8570.75
900.33	8550.18
900.644	8513.12
900.959	8497.3
901.273	8441.04
901.588	8432.67
901.902	8394.26
902.216	8428.38
902.531	8377.31
902.845	8312.9
903.159	8266.8
903.473	8203.98
903.787	8266.35
904.101	8127.82
904.415	8194.26
904.729	8127.82
905.042	8100.48
905.356	8092.12
905.67	8006.92
905.984	8021.39
906.297	7963.08
906.611	7953.36
906.924	7987.04
907.237	7880.15
907.551	7886.25
907.864	7839.02
908.177	7817.77
908.491	7752.47
908.804	7791.79
909.117	7683.77
909.43	7646.03
909.743	7552.24
910.056	7570.55
910.368	7539.82
910.681	7479.03
910.994	7484.68
911.307	7476.54
911.619	7407.39
911.932	7415.53
912.244	7338.47
912.557	7373.94
912.869	7328.97
913.181	7298.47
913.494	7224.8
913.806	7193.84
914.118	7175.98
914.43	7166.94
914.742	7126.27
915.054	7084.46
915.366	7077.68
915.678	7069.32
915.99	6998.81
916.302	6961.75
916.613	6926.72
916.925	6965.82
917.236	6861.64
917.548	6857.57
917.859	6860.74
918.171	6815.54
918.482	6795.88
918.794	6748.65
919.105	6768.76
919.416	6656
919.727	6612.38
920.038	6698.26
920.349	6624.81
920.66	6604.93
920.971	6583.23
921.282	6624.36
921.593	6533.29
921.903	6437.47
922.214	6456.45
922.525	6464.82
922.835	6460.52
923.146	6329
923.456	6354.76
923.767	6350.02
924.077	6296.91
924.387	6273.18
924.697	6258.95
925.008	6223.92
925.318	6250.36
925.628	6210.81
925.938	6182.56
926.248	6133.3
926.558	6129.68
926.867	6102.34
927.177	6014.21
927.487	6065.05
927.796	5990.93
928.106	6002.46
928.416	5926.3
928.725	5926.3
929.034	5912.29
929.344	5940.76
929.653	5862.35
929.962	5812.63
930.271	5832.29
930.581	5797.49
930.89	5748.9
931.199	5750.48
931.508	5719.3
931.817	5713.42
932.125	5749.58
932.434	5705.74
932.743	5636.14
933.051	5648.57
933.36	5624.84
933.669	5556.59
933.977	5551.17
934.286	5522.02
934.594	5483.82
934.902	5460.1
935.21	5428.01
935.519	5397.73
935.827	5381.23
936.135	5400.89
936.443	5321.12
936.751	5330.16
937.059	5329.93
937.367	5309.37
937.674	5281.57
937.982	5294.68
938.29	5265.3
938.597	5201.35
938.905	5169.48
939.213	5136.04
939.52	5138.3
939.827	5184.17
940.135	5074.57
940.442	5073.21
940.749	5111.41
941.056	5063.95
941.363	5023.95
941.67	4985.31
941.977	4983.27
942.284	4938.3
942.591	4891.75
942.898	4869.38
943.205	4876.38
943.511	4870.28
943.818	4876.16
944.125	4833.67
944.431	4812.66
944.738	4778.98
945.044	4764.3
945.35	4765.2
945.657	4671.87
945.963	4731.98
946.269	4625.09
946.575	4678.42
946.881	4654.69
947.187	4580.57
947.493	4580.12
947.799	4599.33
948.105	4566.11
948.41	4491.08
948.716	4531.53
949.022	4493.57
949.327	4457.19
949.633	4444.08
949.938	4403.85
950.244	4433.46
950.549	4389.84
950.854	4377.87
951.16	4375.15
951.465	4327.02
951.77	4311.43
952.075	4332.89
952.38	4285.44
952.685	4222.84
952.99	4215.38
953.294	4245.44
953.599	4242.05
953.904	4182.16
954.209	4150.07
954.513	4173.58
954.818	4148.94
955.122	4134.93
955.426	4110.08
955.731	4092.22
956.035	4093.8
956.339	4076.86
956.643	4074.6
956.948	4029.85
957.252	3967.71
957.556	3997.31
957.86	3975.84
958.163	3962.28
958.467	3955.5
958.771	3955.28
959.075	3920.7
959.378	3906.69
959.682	3894.94
959.985	3864.43
960.289	3865.79
960.592	3801.61
960.896	3785.56
961.199	3794.83
961.502	3800.25
961.805	3762.74
962.108	3727.94
962.411	3748.73
962.714	3695.17
963.017	3711.22
963.32	3722.74
963.623	3645.23
963.926	3666.47
964.228	3644.55
964.531	3630.77
964.833	3590.77
965.136	3567.04
965.438	3586.47
965.741	3550.09
966.043	3517.1
966.345	3536.76
966.648	3511.9
966.95	3479.36
967.252	3442.75
967.554	3468.06
967.856	3474.16
968.158	3432.13
968.46	3430.09
968.761	3410.88
969.063	3371.56
969.365	3388.06
969.666	3367.5
969.968	3347.84
970.269	3307.61
970.571	3306.03
970.872	3351.68
971.174	3279.36
971.475	3293.6
971.776	3269.19
972.077	3264.45
972.378	3245.01
972.679	3231.23
972.98	3220.16
973.281	3227.16
973.582	3181.96
973.883	3175.41
974.183	3171.8
974.484	3159.37
974.785	3091.12
975.085	3119.82
975.386	3113.49
975.686	3099.03
975.986	3062.42
976.287	3094.51
976.587	3073.04
976.887	3014.06
977.187	3026.71
977.487	2965.02
977.787	3011.57
978.087	2981.29
978.387	2965.92
978.687	2963.44
978.987	2943.78
979.286	2902.88
979.586	2905.14
979.885	2889.09
980.185	2876.21
980.484	2868.98
980.784	2811.8
981.083	2834.18
981.382	2836.66
981.682	2821.52
981.981	2819.04
982.28	2792.82
982.579	2756.44
982.878	2775.42
983.177	2718.7
983.475	2768.19
983.774	2719.83
984.073	2722.54
984.372	2713.73
984.67	2696.1
984.969	2693.16
985.267	2664.46
985.566	2655.2
985.864	2666.27
986.162	2643
986.461	2621.75
986.759	2628.98
987.057	2569.33
987.355	2601.87
987.653	2616.78
987.951	2561.87
988.249	2560.51
988.547	2538.82
988.844	2548.53
989.142	2544.02
989.44	2495.88
989.737	2467.18
990.035	2487.52
990.332	2481.19
990.63	2426.28
990.927	2442.1
991.224	2447.52
991.521	2434.19
991.819	2407.07
992.116	2402.78
992.413	2432.15
992.71	2350.8
993.006	2382.66
993.303	2383.34
993.6	2353.74
993.897	2355.55
994.193	2334.3
994.49	2311.03
994.787	2311.48
995.083	2324.13
995.379	2291.14
995.676	2278.49
995.972	2238.94
996.268	2261.08
996.565	2234.42
996.861	2236
997.157	2211.14
997.453	2166.85
997.749	2202.1
998.044	2176.34
998.34	2185.38
998.636	2167.98
998.932	2154.65
999.227	2141.54
999.523	2119.39
999.818	2138.15
1000.114	2094.99
1000.409	2111.48
1000.704	2077.81
1001	2084.14
1001.295	2038.49
1001.59	2036.23
1001.885	2047.76
1002.18	2031.49
1002.475	2020.41
1002.77	2019.51
1003.065	2002.79
1003.359	2010.47
1003.654	2018.61
1003.949	1946.74
1004.243	1979.06
1004.538	1941.54
1004.832	1938.38
1005.127	1908.78
1005.421	1923.01
1005.715	1910.36
1006.009	1891.6
1006.304	1887.54
1006.598	1874.65
1006.892	1871.26
1007.186	1849.12
1007.48	1843.47
1007.773	1809.35
1008.067	1827.65
1008.361	1812.96
1008.655	1784.94
1008.948	1810.02
1009.242	1790.81
1009.535	1768.67
1009.829	1753.53
1010.122	1757.14
1010.415	1733.64
1010.708	1746.52
1011.001	1731.61
1011.295	1737.48
1011.588	1695
1011.881	1682.57
1012.173	1691.16
1012.466	1679.86
1012.759	1633.53
1013.052	1684.83
1013.344	1661.33
1013.637	1648.22
1013.93	1644.6
1014.222	1630.59
1014.514	1589.24
1014.807	1601.89
1015.099	1570.93
1015.391	1587.66
1015.683	1564.61
1015.976	1574.55
1016.268	1532.52
1016.56	1575.68
1016.851	1508.34
1017.143	1524.61
1017.435	1531.84
1017.727	1509.24
1018.018	1494.1
1018.31	1500.65
1018.602	1465.85
1018.893	1464.04
1019.185	1469.47
1019.476	1419.98
1019.767	1422.24
1020.058	1442.8
1020.35	1434.44
1020.641	1411.39
1020.932	1422.01
1021.223	1405.29
1021.514	1388.79
1021.804	1369.13
1022.095	1345.18
1022.386	1377.94
1022.677	1329.58
1022.967	1325.74
1023.258	1330.71
1023.548	1343.37
1023.839	1307.89
1024.129	1309.7
1024.419	1258.4
1024.709	1283.94
1025	1282.13
1025.29	1264.73
1025.58	1247.33
1025.87	1228.57
1026.16	1262.92
1026.449	1240.55
1026.739	1235.12
1027.029	1204.84
1027.319	1226.54
1027.608	1208.23
1027.898	1200.77
1028.187	1167.33
1028.477	1170.04
1028.766	1161
1029.055	1177.05
1029.344	1182.24
1029.634	1163.94
1029.923	1152.64
1030.212	1144.05
1030.501	1135.92
1030.79	1133.88
1031.078	1126.65
1031.367	1135.69
1031.656	1115.8
1031.945	1091.85
1032.233	1076.71
1032.522	1057.95
1032.81	1060.66
1033.099	1097.05
1033.387	1063.15
1033.675	1038.97
1033.963	1059.53
1034.251	1032.64
1034.54	1032.19
1034.828	1004.39
1035.116	1024.51
1035.403	1043.26
1035.691	1006.43
1035.979	980.89
1036.267	982.47
1036.554	993.55
1036.842	999.2
1037.129	1007.11
1037.417	970.05
1037.704	961.01
1037.992	957.16
1038.279	969.37
1038.566	944.74
1038.853	944.74
1039.14	944.74
