Data from hue_36_FLMS001491_00092.txt Node
Date: Tue Feb 07 17:30:32 GMT 2017
User: dcchb
Spectrometer: FLMS00149
Trigger mode: 0
Integration Time (sec): 2.000000E-2
Scans to average: 10
Electric dark correction enabled: true
Nonlinearity correction enabled: false
Boxcar width: 0
XAxis mode: Wavelengths
Number of Pixels in Spectrum: 2048
>>>>>Begin Spectral Data<<<<<
341.393	-8.95
341.776	-8.95
342.16	-8.95
342.543	-69.29
342.927	-75.62
343.31	-68.61
343.693	-78.11
344.077	-66.35
344.46	-58.44
344.843	-47.82
345.226	-61.16
345.61	-20.71
345.993	3.02
346.376	-15.73
346.759	13.19
347.142	28.56
347.525	13.42
347.908	71.04
348.291	62.91
348.674	115.34
349.057	109.46
349.44	117.6
349.823	153.98
350.206	166.18
350.588	188.78
350.971	213.19
351.354	205.5
351.737	231.94
352.119	257.48
352.502	245.73
352.884	264.71
353.267	294.31
353.65	289.12
354.032	289.12
354.414	310.36
354.797	303.58
355.179	320.98
355.562	316.23
355.944	327.99
356.326	331.83
356.709	327.31
357.091	343.35
357.473	348.55
357.855	334.99
358.238	359.17
358.62	335.22
359.002	346.06
359.384	350.81
359.766	328.66
360.148	343.8
360.53	337.25
360.912	325.05
361.294	329.34
361.676	343.8
362.057	337.25
362.439	312.84
362.821	348.78
363.203	318.72
363.584	323.47
363.966	322.34
364.348	322.34
364.729	316.91
365.111	316.23
365.493	330.02
365.874	314.65
366.256	319.62
366.637	297.93
367.019	294.99
367.4	308.1
367.781	303.13
368.163	322.56
368.544	316.91
368.925	302
369.306	325.05
369.688	315.56
370.069	294.54
370.45	303.35
370.831	311.26
371.212	297.03
371.593	316.91
371.974	318.04
372.355	317.59
372.736	299.74
373.117	306.74
373.498	304.03
373.879	295.22
374.26	313.75
374.641	328.44
375.021	292.96
375.402	314.43
375.783	319.4
376.163	327.08
376.544	330.92
376.925	332.96
377.305	327.99
377.686	343.35
378.066	322.79
378.447	313.52
378.827	329.57
379.208	324.82
379.588	339.74
379.968	335.9
380.349	322.79
380.729	329.34
381.109	341.77
381.489	320.08
381.87	333.64
382.25	343.13
382.63	344.26
383.01	316.46
383.39	331.38
383.77	334.77
384.15	345.39
384.53	339.28
384.91	335.67
385.29	337.25
385.67	312.39
386.049	374.54
386.429	352.84
386.809	349.45
387.189	350.58
387.568	346.97
387.948	342.67
388.328	352.17
388.707	349.68
389.087	351.71
389.466	363.92
389.846	350.81
390.225	349.23
390.605	347.19
390.984	353.75
391.363	348.55
391.743	354.88
392.122	363.47
392.501	363.92
392.881	361.43
393.26	367.98
393.639	376.12
394.018	365.5
394.397	370.24
394.776	363.24
395.155	368.44
395.534	358.95
395.913	372.96
396.292	371.6
396.671	360.98
397.05	382.9
397.429	379.28
397.808	373.41
398.186	351.94
398.565	395.78
398.944	379.28
399.323	383.13
399.701	374.54
400.08	397.36
400.458	370.92
400.837	406.4
401.215	410.24
401.594	382.45
401.972	381.54
402.351	423.58
402.729	407.31
403.107	420.19
403.486	393.97
403.864	421.77
404.242	416.57
404.62	400.07
404.999	393.07
405.377	404.59
405.755	408.66
406.133	409.34
406.511	425.16
406.889	431.03
407.267	424.48
407.645	433.52
408.023	429.9
408.401	418.6
408.779	427.64
409.156	438.72
409.534	415.22
409.912	449.11
410.29	447.53
410.667	456.34
411.045	420.41
411.422	438.72
411.8	440.07
412.178	467.42
412.555	462.9
412.933	469.9
413.31	460.86
413.687	461.77
414.065	477.36
414.442	465.61
414.819	474.87
415.197	480.3
415.574	488.89
415.951	488.43
416.328	472.61
416.705	498.6
417.082	476.91
417.46	498.38
417.837	510.13
418.214	485.72
418.591	494.31
418.967	473.29
419.344	481.2
419.721	516.91
420.098	497.7
420.475	500.41
420.852	502.44
421.228	519.85
421.605	514.65
421.982	506.96
422.358	536.34
422.735	527.75
423.111	505.38
423.488	541.77
423.864	541.31
424.241	533.4
424.617	530.69
424.994	571.14
425.37	553.06
425.746	545.61
426.123	542.22
426.499	563.91
426.875	568.21
427.251	563.91
427.627	565.49
428.003	563.23
428.379	570.92
428.756	592.39
429.132	589.9
429.507	594.87
429.883	586.06
430.259	600.75
430.635	609.56
431.011	601.2
431.387	613.18
431.763	582.22
432.138	631.48
432.514	601.65
432.89	617.24
433.265	626.06
433.641	644.81
434.016	647.75
434.392	637.36
434.767	647.3
435.143	638.71
435.518	659.05
435.894	670.12
436.269	674.42
436.644	676.45
437.02	683.68
437.395	672.16
437.77	667.64
438.145	686.62
438.52	700.63
438.895	699.5
439.271	723
439.646	716.22
440.021	723.46
440.395	739.95
440.77	746.51
441.145	736.56
441.52	735.43
441.895	760.97
442.27	741.99
442.645	749.44
443.019	763.23
443.394	737.24
443.769	750.35
444.143	756.45
444.518	771.59
444.892	763.68
445.267	760.74
445.641	780.63
446.016	774.53
446.39	776.34
446.764	790.12
447.139	795.77
447.513	795.77
447.887	798.48
448.262	805.04
448.636	793.51
449.01	808.2
449.384	828.09
449.758	836.67
450.132	868.31
450.506	843.9
450.88	837.12
451.254	820.4
451.628	859.5
452.002	886.84
452.376	868.76
452.75	880.97
453.123	858.59
453.497	875.77
453.871	897.69
454.244	901.76
454.618	899.72
454.992	903.56
455.365	933.85
455.739	928.87
456.112	967.97
456.486	958.03
456.859	980.85
457.232	985.6
457.606	985.82
457.979	980.17
458.352	991.25
458.725	1022.43
459.099	1005.26
459.472	1044.58
459.845	1041.19
460.218	1042.32
460.591	1053.62
460.964	1081.41
461.337	1090.45
461.71	1070.57
462.083	1127.29
462.456	1131.13
462.829	1120.06
463.201	1159.38
463.574	1176.55
463.947	1194.4
464.32	1189.43
464.692	1189.43
465.065	1216.32
465.438	1227.62
465.81	1253.61
466.183	1287.96
466.555	1273.5
466.928	1284.12
467.3	1303.33
467.672	1331.58
468.045	1350.78
468.417	1343.33
468.789	1367.28
469.161	1376.77
469.534	1422.19
469.906	1443.44
470.278	1466.94
470.65	1485.7
471.022	1509.42
471.394	1509.65
471.766	1558.69
472.138	1598.91
472.51	1625.13
472.882	1656.31
473.253	1643.21
473.625	1691.57
473.997	1761.39
474.369	1748.97
474.74	1799.59
475.112	1846.14
475.484	1887.94
475.855	1915.29
476.227	1953.25
476.598	2005.23
476.97	1996.42
477.341	2067.6
477.713	2112.8
478.084	2150.31
478.455	2219.46
478.827	2256.97
479.198	2338.55
479.569	2363.64
479.94	2449.96
480.311	2520.24
480.682	2581.03
481.053	2683.4
481.424	2693.35
481.795	2724.98
482.166	2818.32
482.537	2864.64
482.908	2986.67
483.279	3034.36
483.65	3098.08
484.021	3188.25
484.391	3259.66
484.762	3356.15
485.133	3423.05
485.503	3509.6
485.874	3574.23
486.244	3680.21
486.615	3740.1
486.985	3841.34
487.356	3944.16
487.726	3988.23
488.097	4103.93
488.467	4159.98
488.837	4274.77
489.207	4389.35
489.578	4478.61
489.948	4604.03
490.318	4698.04
490.688	4750.24
491.058	4841.54
491.428	4940.07
491.798	5060.97
492.168	5220.74
492.538	5252.6
492.908	5378.47
493.278	5441.52
493.648	5507.74
494.017	5613.72
494.387	5728.75
494.757	5815.07
495.126	5893.26
495.496	5925.8
495.866	6094.84
496.235	6155.4
496.605	6295.29
496.974	6370.99
497.344	6420.48
497.713	6529.18
498.082	6566.01
498.452	6678.78
498.821	6747.93
499.19	6823.18
499.559	6907.7
499.928	7005.78
500.298	7043.52
500.667	7189.27
501.036	7143.63
501.405	7318.99
501.774	7333.45
502.143	7359.21
502.512	7455.48
502.88	7590.85
503.249	7626.32
503.618	7723.27
503.987	7810.95
504.356	7846.21
504.724	7910.16
505.093	7900.89
505.462	8014.11
505.83	8104.5
506.199	8181.34
506.567	8312.41
506.936	8358.74
507.304	8436.02
507.672	8470.14
508.041	8482.8
508.409	8602.57
508.777	8692.74
509.145	8776.35
509.514	8822.23
509.882	8836.91
510.25	8873.98
510.618	8899.74
510.986	9027.42
511.354	9074.65
511.722	9077.13
512.09	9258.15
512.458	9262.89
512.826	9356.9
513.193	9366.62
513.561	9486.61
513.929	9580.85
514.297	9625.37
514.664	9687.06
515.032	9784.01
515.4	9792.14
515.767	9831.69
516.135	9934.96
516.502	9794.86
516.869	10038.92
517.237	10084.57
517.604	10013.83
517.972	10115.52
518.339	10240.72
518.706	10178.12
519.073	10300.15
519.44	10334.28
519.808	10414.05
520.175	10464.67
520.542	10591.22
520.909	10663.76
521.276	10675.51
521.643	10791.21
522.009	10763.42
522.376	10869.63
522.743	10971.77
523.11	11055.84
523.477	11102.17
523.843	11125.22
524.21	11260.81
524.577	11346.23
524.943	11341.48
525.31	11468.71
525.676	11522.72
526.043	11564.75
526.409	11643.85
526.776	11672.77
527.142	11776.27
527.508	11857.85
527.874	11954.57
528.241	12071.18
528.607	12069.6
528.973	12202.02
529.339	12155.47
529.705	12300.55
530.071	12398.63
530.437	12484.5
530.803	12499.42
531.169	12585.52
531.535	12610.6
531.901	12557.72
532.267	12654.89
532.632	12753.2
532.998	12788.22
533.364	12900.99
533.73	12901.67
534.095	12988.22
534.461	13078.84
534.826	13126.07
535.192	13178.5
535.557	13219.85
535.923	13336.46
536.288	13384.82
536.653	13400.18
537.019	13455.78
537.384	13504.14
537.749	13539.62
538.114	13626.39
538.479	13595.66
538.845	13667.97
539.21	13725.15
539.575	13713.17
539.94	13754.75
540.305	13903.22
540.67	13875.65
541.034	13959.94
541.399	14046.5
541.764	14076.32
542.129	14048.75
542.494	14198.36
542.858	14291.46
543.223	14288.97
543.587	14387.96
543.952	14346.6
544.316	14431.57
544.681	14412.81
545.045	14547.05
545.41	14703.43
545.774	14653.94
546.138	14673.82
546.503	14700.49
546.867	14780.26
547.231	14863.2
547.595	14916.75
547.959	14947.04
548.324	15013.93
548.688	15016.41
549.052	14999.92
549.416	15106.58
549.779	15151.78
550.143	15255.95
550.507	15312.68
550.871	15420.7
551.235	15378.44
551.599	15504.99
551.962	15453.69
552.326	15558.32
552.689	15631.31
553.053	15670.86
553.417	15631.99
553.78	15827.69
554.143	15816.39
554.507	15874.24
554.87	15986.78
555.234	15971.64
555.597	15939.78
555.96	16050.28
556.323	16084.86
556.686	16154.46
557.05	16286.66
557.413	16224.29
557.776	16351.07
558.139	16492.53
558.502	16396.94
558.865	16596.71
559.228	16605.75
559.59	16558.52
559.953	16663.15
560.316	16848.46
560.679	16897.49
561.041	16993.31
561.404	16937.94
561.767	17217.49
562.129	17122.8
562.492	17280.53
562.854	17237.15
563.217	17223.36
563.579	17338.39
563.941	17321.44
564.304	17468.78
564.666	17615.89
565.028	17635.78
565.39	17678.04
565.753	17760.07
566.115	17740.41
566.477	17870.8
566.839	17911.25
567.201	17960.97
567.563	17987.18
567.925	18067.41
568.287	18066.95
568.648	18271.24
569.01	18370
569.372	18449.77
569.734	18442.54
570.095	18590.56
570.457	18598.47
570.819	18611.8
571.18	18798.01
571.542	18882.3
571.903	18918.23
572.265	19112.35
572.626	19066.7
572.987	19186.25
573.349	19175.17
573.71	19347.82
574.071	19355.73
574.432	19605.67
574.794	19641.83
575.155	19668.27
575.516	19691.09
575.877	19895.38
576.238	19962.72
576.599	20036.85
576.96	20146.22
577.32	20250.85
577.681	20397.29
578.042	20601.58
578.403	20638.19
578.763	20724.29
579.124	20865.07
579.485	21114.11
579.845	21175.57
580.206	21328.56
580.566	21446.3
580.927	21613.98
581.287	21766.29
581.648	21812.84
582.008	22095.77
582.368	22212.16
582.728	22342.77
583.089	22601.3
583.449	22720.39
583.809	22903.89
584.169	23158.12
584.529	23187.27
584.889	23603.98
585.249	23568.5
585.609	23786.8
585.969	24067.47
586.329	24118.77
586.688	24419.1
587.048	24681.02
587.408	24778.19
587.768	25052.31
588.127	25262.02
588.487	25382.47
588.846	25701.56
589.206	25808.9
589.565	26057.7
589.925	26412.5
590.284	26727.74
590.643	26911.69
591.003	27200.05
591.362	27403.88
591.721	27557.1
592.08	27734.04
592.44	27999.35
592.799	28213.13
593.158	28502.39
593.517	28649.95
593.876	28955.03
594.235	29053.11
594.593	29348.47
594.952	29552.08
595.311	29762.47
595.67	30044.49
596.029	30389.57
596.387	30669.56
596.746	30803.12
597.104	30847.64
597.463	31044.69
597.822	31492.14
598.18	31554.06
598.538	31723.32
598.897	32082.63
599.255	31963.09
599.613	32689.39
599.972	32571.21
600.33	32835.15
600.688	32825.66
601.046	33304.07
601.404	33571.86
601.762	33638.3
602.12	34013.88
602.478	34168.45
602.836	34302.91
603.194	34271.95
603.552	34562.34
603.91	34448.44
604.268	34903.57
604.625	34790.81
604.983	35156.9
605.341	35131.36
605.698	35623.78
606.056	35793.95
606.413	35836.66
606.771	36071.23
607.128	36179.47
607.485	36234.84
607.843	36388.73
608.2	36661.04
608.557	36813.81
608.914	36830.98
609.272	37120.92
609.629	37317.97
609.986	37594.35
610.343	37535.82
610.7	37807.23
611.057	37880.67
611.414	37884.96
611.771	38202.92
612.127	38345.52
612.484	38492.86
612.841	38604.95
613.198	38771.49
613.554	38710.03
613.911	39061.88
614.267	39162.22
614.624	39223.01
614.98	39358.6
615.337	39567.41
615.693	39459.61
616.05	39607.86
616.406	39974.17
616.762	39780.96
617.118	39870.45
617.475	39915.65
617.831	40201.51
618.187	40157.67
618.543	40415.52
618.899	40640.6
619.255	40513.14
619.611	40505.01
619.967	40744.55
620.323	40945.45
620.678	40814.15
621.034	40814.6
621.39	40928.05
621.746	40883.08
622.101	41331.65
622.457	41114.48
622.812	41241.26
623.168	41394.02
623.523	41374.59
623.879	41584.75
624.234	41356.74
624.589	41627.46
624.945	41655.94
625.3	41679.67
625.655	41691.42
626.01	41859.1
626.365	41843.96
626.72	41958.08
627.075	41944.97
627.43	42008.92
627.785	41840.34
628.14	42130.73
628.495	42057.74
628.85	42171.63
629.205	41978.87
629.559	42330.05
629.914	41977.74
630.269	42180.9
630.623	42141.12
630.978	42110.16
631.332	42251.86
631.687	42355.13
632.041	42252.31
632.396	42228.8
632.75	42031.3
633.104	42259.99
633.459	42036.72
633.813	42124.4
634.167	42091.41
634.521	42024.29
634.875	42308.58
635.229	42204.17
635.583	41954.01
635.937	42071.75
636.291	42058.64
636.645	42071.75
636.999	42052.31
637.352	42076.49
637.706	42055.93
638.06	42086.66
638.413	41951.98
638.767	41970.05
639.121	41936.16
639.474	41850.96
639.828	41829.72
640.181	41884.63
640.534	41880.34
640.888	41765.77
641.241	41733.22
641.594	41700.68
641.947	41947
642.301	41671.98
642.654	41902.94
643.007	42006.44
643.36	41743.85
643.713	41755.82
644.066	41748.14
644.419	41688.25
644.771	41487.36
645.124	40967.37
645.477	41000.59
645.83	40732.57
646.182	40658.22
646.535	40524.22
646.888	40586.14
647.24	40351.79
647.593	40736.87
647.945	40670.65
648.298	40491.22
648.65	40316.99
649.002	40329.87
649.355	40466.59
649.707	40344.79
650.059	40662.74
650.411	40989.97
650.763	41125.56
651.115	41507.69
651.467	41281.03
651.819	41310.41
652.171	41235.16
652.523	41045.79
652.875	41161.71
653.227	41002.17
653.578	41201.71
653.93	41121.26
654.282	41013.24
654.633	40848.73
654.985	40983.41
655.337	41007.59
655.688	41026.8
656.039	41225.89
656.391	40860.93
656.742	40811.22
657.094	41033.36
657.445	40967.82
657.796	41055.95
658.147	40966.24
658.498	40875.62
658.849	41030.64
659.2	40937.77
659.551	40833.36
659.902	41015.96
660.253	40948.39
660.604	40949.97
660.955	40815.06
661.306	40840.14
661.656	40877.88
662.007	40858.45
662.358	40887.15
662.708	40915.62
663.059	40810.09
663.409	40678.34
663.76	41006.24
664.11	40902.74
664.461	40898.44
664.811	40850.54
665.161	40790.2
665.511	40658.22
665.862	40813.25
666.212	40916.97
666.562	40863.64
666.912	40808.96
667.262	40650.99
667.612	40650.99
667.962	40729.64
668.312	40536.42
668.662	40845.79
669.011	40683.08
669.361	40622.97
669.711	40686.02
670.06	40616.87
670.41	40538
670.76	40667.94
671.109	40662.97
671.459	40522.64
671.808	40623.65
672.157	40537.78
672.507	40349.53
672.856	40483.99
673.205	40472.01
673.554	40514.5
673.904	40384.33
674.253	40709.3
674.602	40520.83
674.951	40015.98
675.3	39746.16
675.649	40355.41
675.998	40199.03
676.346	40283.77
676.695	40432.47
677.044	40133.94
677.393	40253.26
677.741	40326.03
678.09	40067.28
678.438	40069.54
678.787	40216.43
679.135	40199.71
679.484	39971.46
679.832	40108.86
680.181	39922.2
680.529	39900.05
680.877	39916.55
681.225	39818.7
681.573	39960.84
681.922	39757.68
682.27	39651.92
682.618	39645.6
682.966	39552.94
683.314	39679.95
683.661	39545.71
684.009	39437.92
684.357	39399.95
684.705	39271.82
685.053	39404.47
685.4	39277.02
685.748	39181.2
686.095	39227.3
686.443	38957.48
686.79	38991.6
687.138	39008.32
687.485	39064.82
687.832	38922.9
688.18	38705.51
688.527	38723.36
688.874	38579.86
689.221	38448.57
689.568	38575.57
689.915	38482.24
690.262	38489.69
690.609	38353.43
690.956	38140.55
691.303	38131.96
691.65	38023.72
691.997	38091.06
692.344	37829.15
692.69	37706.66
693.037	37605.88
693.383	37410.4
693.73	37596.38
694.077	37295.38
694.423	37304.19
694.769	37125.66
695.116	37143.74
695.462	37140.35
695.808	36970.86
696.155	37176.28
696.501	36644.09
696.847	36856.74
697.193	36553.25
697.539	36713.24
697.885	36399.58
698.231	36292.24
698.577	36282.52
698.923	36306.7
699.269	36151.68
699.614	35946.48
699.96	35915.98
700.306	36050.44
700.651	35768.41
700.997	35633.27
701.342	35794.4
701.688	35628.07
702.033	35460.85
702.379	35453.84
702.724	35308.31
703.069	35498.13
703.415	35079.16
703.76	35064.02
704.105	34935.21
704.45	34882.56
704.795	34759.17
705.14	34673.98
705.485	34612.28
705.83	34370.03
706.175	34556.46
706.52	34378.16
706.865	34319.18
707.209	34290.93
707.554	34069.92
707.899	34227.43
708.243	34060.21
708.588	33999.42
708.932	33796.48
709.277	33734.56
709.621	33827.67
709.966	33547.9
710.31	33650.05
710.654	33393.78
710.998	33411.18
711.342	33482.37
711.687	33313.79
712.031	33220.91
712.375	33114.47
712.719	33267.91
713.063	33043.74
713.407	33151.76
713.75	32986.34
714.094	32941.59
714.438	32733.01
714.782	32830.18
715.125	32572.79
715.469	32712.9
715.812	32546.8
716.156	32401.04
716.499	32371.89
716.843	32446.46
717.186	32172.35
717.53	32573.24
717.873	32382.96
718.216	32289.86
718.559	32222.29
718.902	32048.51
719.246	32024.55
719.589	31772.36
719.932	31803.99
720.275	31856.2
720.617	31818.01
720.96	31692.58
721.303	31743.43
721.646	31763.77
721.989	31447.62
722.331	31566.49
722.674	31411.69
723.016	31511.8
723.359	31273.39
723.701	31395.42
724.044	31248.3
724.386	30928.54
724.729	31297.34
725.071	31240.62
725.413	31153.84
725.755	31107.06
726.097	31051.25
726.439	30890.12
726.782	30846.28
727.124	30969.44
727.465	30794.76
727.807	30814.87
728.149	30679.96
728.491	30554.08
728.833	30703.68
729.175	30387.53
729.516	30575.1
729.858	30456.46
730.199	30568.77
730.541	30359.06
730.882	30318.16
731.224	30454.88
731.565	30133.98
731.906	30252.4
732.248	30242
732.589	30060.31
732.93	29917.72
733.271	30071.16
733.612	30179.18
733.953	30107.54
734.294	29849.7
734.635	29787.32
734.976	29860.99
735.317	29720.21
735.658	29732.41
735.999	29754.1
736.339	29577.16
736.68	29784.16
737.021	29634.33
737.361	29410.38
737.702	29498.97
738.042	29578.52
738.383	29327.22
738.723	29495.35
739.063	29423.49
739.404	29438.18
739.744	29289.26
740.084	29159.09
740.424	29214.46
740.764	29088.13
741.104	29261.24
741.444	29122.48
741.784	29017.63
742.124	29124.74
742.464	28905.77
742.804	28979.89
743.143	28877.74
743.483	28807.69
743.823	28668.48
744.162	28656.28
744.502	28684.98
744.841	28520.01
745.181	28795.26
745.52	28625.55
745.86	28661.93
746.199	28542.16
746.538	28510.97
746.877	28574.02
747.216	28477.08
747.556	28289.51
747.895	28313.92
748.234	28239.79
748.573	28257.87
748.911	28196.18
749.25	28157.08
749.589	28082.06
749.928	28103.07
750.267	28139.23
750.605	28000.93
750.944	27965
751.283	27805
751.621	27861.05
751.96	27756.87
752.298	27735.63
752.636	27804.78
752.975	27561.17
753.313	27447.95
753.651	27631.9
753.989	27392.58
754.327	27413.38
754.666	27349.42
755.004	27270.78
755.342	27217.67
755.679	27207.5
756.017	27160.05
756.355	27196.88
756.693	26909.66
757.031	27040.28
757.368	26865.37
757.706	26829.89
758.044	26788.76
758.381	26860.17
758.719	26657.24
759.056	26598.93
759.394	26579.05
759.731	26445.72
760.068	26301.09
760.405	26274.2
760.743	26209.34
761.08	26251.37
761.417	26138.15
761.754	25989.23
762.091	25946.07
762.428	25850.48
762.765	25759.41
763.102	25804.15
763.438	25721.44
763.775	25479.19
764.112	25618.85
764.449	25624.72
764.785	25396.25
765.122	25276.03
765.458	25285.52
765.795	25173.43
766.131	25118.52
766.467	25000.11
766.804	24998.75
767.14	24698.19
767.476	24754.69
767.812	24603.51
768.148	24714.01
768.485	24437.86
768.821	24382.27
769.157	24318.99
769.492	24291.2
769.828	24236.96
770.164	24149.73
770.5	23995.39
770.836	24064.31
771.171	23857.54
771.507	23809.63
771.842	23695.28
772.178	23523.31
772.513	23489.41
772.849	23509.3
773.184	23264.11
773.519	23337.1
773.855	23265.69
774.19	23136.43
774.525	23083.32
774.86	22980.72
775.195	22996.32
775.53	22896.66
775.865	22795.87
776.2	22658.7
776.535	22470.91
776.87	22478.36
777.205	22353.62
777.539	22266.84
777.874	22378.48
778.209	22227.75
778.543	21974.42
778.878	21931.26
779.212	21978.49
779.547	21827.08
779.881	21835.22
780.215	21706.41
780.55	21681.55
780.884	21575.11
781.218	21474.32
781.552	21534.66
781.886	21447.88
782.22	21279.75
782.554	21256.47
782.888	21063.94
783.222	20961.34
783.556	20804.06
783.889	20821.68
784.223	20707.11
784.557	20646.32
784.89	20689.94
785.224	20518.42
785.557	20440.45
785.891	20382.37
786.224	20340.11
786.558	20313.45
786.891	20197.52
787.224	19999.33
787.557	19919.11
787.891	19899.22
788.224	19939.22
788.557	19878.21
788.89	19838.21
789.223	19795.5
789.556	19616.97
789.888	19558.21
790.221	19577.65
790.554	19429.4
790.887	19472.12
791.219	19383.98
791.552	19236.42
791.884	19176.98
792.217	19131.56
792.549	19062.86
792.882	18904.22
793.214	18883.43
793.546	18826.03
793.879	18740.83
794.211	18641.85
794.543	18717.33
794.875	18658.35
795.207	18638.24
795.539	18531.12
795.871	18465.81
796.203	18262.66
796.535	18244.58
796.867	18282.54
797.198	18130.91
797.53	18141.98
797.862	18020.85
798.193	18003
798.525	17927.07
798.856	17952.16
799.188	17833.74
799.519	17710.13
799.85	17548.1
800.182	17614.76
800.513	17592.39
800.844	17447.76
801.175	17509.45
801.506	17488.21
801.837	17450.7
802.168	17354.43
802.499	17302.68
802.83	17233.08
803.161	17172.97
803.491	17082.12
803.822	17176.13
804.153	17012.29
804.483	16862.69
804.814	16924.84
805.145	16923.93
805.475	16843.48
805.805	16802.13
806.136	16752.64
806.466	16772.75
806.796	16723.71
807.126	16563.72
807.457	16530.05
807.787	16564.85
808.117	16417.28
808.447	16319.66
808.777	16393.55
809.107	16295.02
809.436	16356.72
809.766	16258.87
810.096	16171.18
810.426	16177.96
810.755	16098.64
811.085	16100
811.414	16004.41
811.744	15979.55
812.073	15988.36
812.403	15813.23
812.732	15752.66
813.061	15827.69
813.39	15761.93
813.719	15785.66
814.049	15742.27
814.378	15650.75
814.707	15569.84
815.036	15687.58
815.365	15474.93
815.693	15343.64
816.022	15406.69
816.351	15359.45
816.68	15327.59
817.008	15305.9
817.337	15153.58
817.665	15118.11
817.994	15250.53
818.322	15162.85
818.651	15121.5
818.979	14990.2
819.307	15071.33
819.636	14998.56
819.964	14893.7
820.292	14959.47
820.62	14984.32
820.948	14942.52
821.276	14928.51
821.604	14838.11
821.932	14914.27
822.259	14851.22
822.587	14828.62
822.915	14849.19
823.243	14824.33
823.57	14809.41
823.898	14819.81
824.225	14669.98
824.553	14700.49
824.88	14793.59
825.207	14799.92
825.535	14765.57
825.862	14788.17
826.189	14726.93
826.516	14777.78
826.843	14872.46
827.17	14848.28
827.497	14874.95
827.824	14819.36
828.151	14769.87
828.478	14709.98
828.805	14893.48
829.131	14750.66
829.458	14751.79
829.785	14709.3
830.111	14743.2
830.438	14804.44
830.764	14775.06
831.09	14777.1
831.417	14688.29
831.743	14737.32
832.069	14707.04
832.395	14771
832.722	14784.78
833.048	14680.83
833.374	14680.15
833.7	14574.62
834.026	14606.03
834.351	14643.54
834.677	14659.13
835.003	14678.79
835.329	14571.23
835.654	14528.97
835.98	14576.42
836.306	14496.65
836.631	14443.32
836.956	14424.79
837.282	14454.17
837.607	14398.58
837.932	14410.78
838.258	14396.54
838.583	14402.87
838.908	14235.87
839.233	14308.86
839.558	14161.97
839.883	14215.76
840.208	14138.02
840.533	14112.26
840.858	14108.64
841.182	14102.99
841.507	14118.13
841.832	13998.81
842.156	13978.93
842.481	14105.48
842.805	13937.8
843.13	14006.27
843.454	13878.14
843.778	13914.52
844.103	13939.83
844.427	13820.29
844.751	13794.07
845.075	13775.09
845.399	13789.78
845.723	13658.71
846.047	13670.69
846.371	13590.24
846.695	13526.06
847.019	13403.35
847.343	13416.23
847.666	13313.63
847.99	13223.69
848.313	13241.54
848.637	13151.83
848.96	13204.71
849.284	13078.84
849.607	12958.39
849.931	12961.1
850.254	12889.01
850.577	12817.83
850.9	12753.42
851.223	12742.35
851.546	12708.45
851.869	12624.61
852.192	12736.7
852.515	12509.36
852.838	12514.33
853.161	12503.71
853.483	12340.33
853.806	12407.67
854.129	12359.76
854.451	12234.34
854.774	12260.55
855.096	12226.88
855.419	12192.53
855.741	12068.47
856.063	12063.95
856.385	12083.38
856.708	11955.02
857.03	11929.71
857.352	11911.64
857.674	12028.24
857.996	11861.24
858.318	11825.08
858.64	11836.16
858.961	11709.16
859.283	11793.45
859.605	11607.24
859.926	11705.09
860.248	11661.47
860.57	11568.59
860.891	11575.83
861.212	11470.74
861.534	11507.35
861.855	11474.36
862.176	11479.56
862.498	11498.31
862.819	11432.55
863.14	11449.5
863.461	11342.84
863.782	11414.02
864.103	11343.52
864.424	11407.24
864.745	11336.74
865.065	11309.84
865.386	11279.56
865.707	11259.9
866.027	11219.45
866.348	11161.37
866.668	11187.81
866.989	11144.2
867.309	11026.69
867.63	11141.71
867.95	11117.98
868.27	11009.06
868.59	11027.37
868.91	11002.96
869.23	11005.67
869.55	10984.2
869.87	11046.35
870.19	11012
870.51	10964.77
870.83	10935.84
871.15	10885.45
871.469	10911.66
871.789	10929.06
872.109	10859.23
872.428	10851.1
872.748	10927.71
873.067	10878.44
873.386	10788.28
873.706	10805.45
874.025	10657.66
874.344	10642.97
874.663	10749.18
874.982	10737.43
875.301	10669.63
875.62	10624.89
875.939	10623.31
876.258	10623.31
876.577	10560.49
876.896	10544.89
877.214	10579.24
877.533	10575.63
877.852	10581.73
878.17	10541.73
878.489	10544.67
878.807	10517.32
879.125	10493.82
879.444	10442.3
879.762	10453.14
880.08	10488.62
880.398	10397.1
880.716	10329.08
881.034	10322.3
881.352	10419.92
881.67	10311
881.988	10323.66
882.306	10336.54
882.624	10265.58
882.941	10184
883.259	10218.8
883.577	10093.6
883.894	10036.21
884.212	10068.29
884.529	10095.41
884.846	10059.71
885.164	10101.51
885.481	10044.34
885.798	10061.06
886.115	9971.8
886.432	9944.91
886.75	9936.09
887.067	10004.12
887.383	9856.55
887.7	9878.92
888.017	9838.92
888.334	9915.98
888.651	9872.82
888.967	9789.21
889.284	9733.39
889.6	9665.14
889.917	9701.07
890.233	9673.73
890.55	9623.11
890.866	9685.25
891.182	9559.61
891.498	9541.98
891.815	9527.07
892.131	9463.11
892.447	9451.14
892.763	9490.91
893.079	9433.96
893.395	9392.38
893.71	9318.94
894.026	9295.89
894.342	9298.15
894.657	9260.18
894.973	9199.62
895.289	9274.64
895.604	9233.97
895.92	9140.18
896.235	9128.88
896.55	9036.46
896.865	9057.02
897.181	9005.05
897.496	9053.41
897.811	8982
898.126	8939.74
898.441	8927.99
898.756	8939.51
899.071	8825.39
899.386	8821.1
899.7	8783.58
900.015	8736.8
900.33	8644.38
900.644	8665.39
900.959	8710.14
901.273	8631.04
901.588	8528.22
901.902	8513.31
902.216	8514.21
902.531	8505.62
902.845	8540.2
903.159	8423.14
903.473	8434.67
903.787	8379.53
904.101	8261.11
904.415	8278.51
904.729	8287.32
905.042	8257.72
905.356	8268.57
905.67	8178.85
905.984	8191.51
906.297	8134.79
906.611	8088.91
906.924	8125.52
907.237	8054.56
907.551	8035.81
907.864	7994
908.177	8022.7
908.491	7997.39
908.804	7935.02
909.117	7843.27
909.43	7815.92
909.743	7802.14
910.056	7793.1
910.368	7725.53
910.681	7624.52
910.994	7616.83
911.307	7585.2
911.619	7536.16
911.932	7629.94
912.244	7514.46
912.557	7554.24
912.869	7523.28
913.181	7457.06
913.494	7412.32
913.806	7373.9
914.118	7368.7
914.43	7310.4
914.742	7254.58
915.054	7258.42
915.366	7238.31
915.678	7210.97
915.99	7164.19
916.302	7093.01
916.613	7144.76
916.925	7144.76
917.236	6981.6
917.548	7048.49
917.859	7082.38
918.171	6970.07
918.482	6902.28
918.794	6924.2
919.105	6871.09
919.416	6851.43
919.727	6815.72
920.038	6849.17
920.349	6774.14
920.66	6697.08
920.971	6747.7
921.282	6733.24
921.593	6603.3
921.903	6594.26
922.214	6580.48
922.525	6525.79
922.835	6527.6
923.146	6524.88
923.456	6511.78
923.767	6478.11
924.077	6497.77
924.387	6419.35
924.697	6373.25
925.008	6355.85
925.318	6340.03
925.628	6327.6
925.938	6297.32
926.248	6244.21
926.558	6200.6
926.867	6218.45
927.177	6112.92
927.487	6118.57
927.796	6123.54
928.106	6095.07
928.416	6046.71
928.725	6043.99
929.034	5999.02
929.344	6032.24
929.653	5959.48
929.962	5934.84
930.271	5851.68
930.581	5889.42
930.89	5910.44
931.199	5870.89
931.508	5787.96
931.817	5759.93
932.125	5783.66
932.434	5763.55
932.743	5703.66
933.051	5675.87
933.36	5667.73
933.669	5638.13
933.977	5626.38
934.286	5616.43
934.594	5605.81
934.902	5516.55
935.21	5498.25
935.519	5519.49
935.827	5498.02
936.135	5432.71
936.443	5391.58
936.751	5405.59
937.059	5371.47
937.367	5359.04
937.674	5329.21
937.982	5338.48
938.29	5324.92
938.597	5269.55
938.905	5198.14
939.213	5198.14
939.52	5201.98
939.827	5194.75
940.135	5166.95
940.442	5145.71
940.749	5104.81
941.056	5119.72
941.363	5054.19
941.67	5123.11
941.977	5018.48
942.284	4977.58
942.591	4985.26
942.898	4935.55
943.205	4951.37
943.511	4912.27
943.818	4915.89
944.125	4856.45
944.431	4841.54
944.738	4848.32
945.044	4815.1
945.35	4803.12
945.657	4768.55
945.963	4730.13
946.269	4705.72
946.575	4710.24
946.881	4663.01
947.187	4678.61
947.493	4642.67
947.799	4599.06
948.105	4591.83
948.41	4604.48
948.716	4565.84
949.022	4513.19
949.327	4521.55
949.633	4479.29
949.938	4496.24
950.244	4474.77
950.549	4425.96
950.854	4393.19
951.16	4381.66
951.465	4380.76
951.77	4366.3
952.075	4343.02
952.38	4299.41
952.685	4354.77
952.99	4261.89
953.294	4306.41
953.599	4241.1
953.904	4206.98
954.209	4225.74
954.513	4210.82
954.818	4192.97
955.122	4146.64
955.426	4171.5
955.731	4098.96
956.035	4094.67
956.339	4095.57
956.643	4047.21
956.948	4003.37
957.252	4006.76
957.556	4051.05
957.86	4029.81
958.163	4013.99
958.467	3965.4
958.771	3938.29
959.075	3930.83
959.378	3935.57
959.682	3900.32
959.985	3898.51
960.289	3874.56
960.592	3857.84
960.896	3834.33
961.199	3819.65
961.502	3772.64
961.805	3775.35
962.108	3757.73
962.411	3767.67
962.714	3705.75
963.017	3726.09
963.32	3720.44
963.623	3658.29
963.926	3681.12
964.228	3683.38
964.531	3644.06
964.833	3617.62
965.136	3617.39
965.438	3629.59
965.741	3579.65
966.043	3573.32
966.345	3532.2
966.648	3481.8
966.95	3523.16
967.252	3513.66
967.554	3537.17
967.856	3446.1
968.158	3438.86
968.46	3468.24
968.761	3440.45
969.063	3401.13
969.365	3385.31
969.666	3379.43
969.968	3363.84
970.269	3348.7
970.571	3333.56
970.872	3284.52
971.174	3294.24
971.475	3277.51
971.776	3312.99
972.077	3285.87
972.378	3267.8
972.679	3241.36
972.98	3203.84
973.281	3258.53
973.582	3197.74
973.883	3187.8
974.183	3185.31
974.484	3155.93
974.785	3149.15
975.085	3102.15
975.386	3150.96
975.686	3102.15
975.986	3093.11
976.287	3073.9
976.587	3030.74
976.887	3041.36
977.187	3023.06
977.487	3034.36
977.787	3002.27
978.087	2978.09
978.387	2952.32
978.687	2986.9
978.987	2992.32
979.286	2903.74
979.586	2906.9
979.885	2918.65
980.185	2889.73
980.484	2853.57
980.784	2847.92
981.083	2844.08
981.382	2854.92
981.682	2847.47
981.981	2833.46
982.28	2806.79
982.579	2795.04
982.878	2787.13
983.177	2751.2
983.475	2793.91
983.774	2743.29
984.073	2702.39
984.372	2726.11
984.67	2681.37
984.969	2716.62
985.267	2686.12
985.566	2711.2
985.864	2683.18
986.162	2636.4
986.461	2608.38
986.759	2629.62
987.057	2611.54
987.355	2579.23
987.653	2560.02
987.951	2542.84
988.249	2579.9
988.547	2523.63
988.844	2548.49
989.142	2547.81
989.44	2526.35
989.737	2513.01
990.035	2463.07
990.332	2489.06
990.63	2491.32
990.927	2473.24
991.224	2452
991.521	2469.85
991.819	2408.38
992.116	2386.01
992.413	2414.48
992.71	2392.79
993.006	2378.1
993.303	2341.04
993.6	2354.83
993.897	2358.67
994.193	2354.37
994.49	2339.91
994.787	2325.67
995.083	2322.06
995.379	2278.67
995.676	2286.13
995.972	2267.6
996.268	2287.71
996.565	2218.11
996.861	2217.2
997.157	2256.75
997.453	2211.78
997.749	2199.35
998.044	2205.45
998.34	2197.77
998.636	2169.52
998.932	2183.3
999.227	2153.47
999.523	2139.01
999.818	2126.36
1000.114	2133.81
1000.409	2144.66
1000.704	2118.22
1001	2088.17
1001.295	2071.44
1001.59	2074.83
1001.885	2064.89
1002.18	2067.15
1002.475	2043.19
1002.77	2031.22
1003.065	2003.87
1003.359	1972.24
1003.654	2038.68
1003.949	1946.25
1004.243	1974.5
1004.538	1977.21
1004.832	1927.27
1005.127	1904.67
1005.421	1937.66
1005.715	1936.76
1006.009	1925.68
1006.304	1900.6
1006.598	1891.33
1006.892	1883.2
1007.186	1859.47
1007.48	1875.74
1007.773	1857.66
1008.067	1812.01
1008.361	1813.14
1008.655	1795.52
1008.948	1775.86
1009.242	1768.85
1009.535	1774.5
1009.829	1773.6
1010.122	1776.08
1010.415	1762.52
1010.708	1738.34
1011.001	1720.27
1011.295	1708.51
1011.588	1693.83
1011.881	1694.28
1012.173	1685.46
1012.466	1686.14
1012.759	1660.61
1013.052	1691.57
1013.344	1650.21
1013.637	1650.66
1013.93	1617.9
1014.222	1634.17
1014.514	1613.15
1014.807	1597.1
1015.099	1599.36
1015.391	1574.73
1015.683	1560.27
1015.976	1562.76
1016.268	1571.12
1016.56	1555.75
1016.851	1548.29
1017.143	1520.5
1017.435	1537.9
1017.727	1488.18
1018.018	1508.52
1018.31	1504.9
1018.602	1496.09
1018.893	1473.49
1019.185	1446.6
1019.476	1457.45
1019.767	1456.54
1020.058	1434.62
1020.35	1453.61
1020.641	1420.39
1020.932	1384.91
1021.223	1410.67
1021.514	1384.46
1021.804	1380.39
1022.095	1386.94
1022.386	1349.65
1022.677	1349.65
1022.967	1337.9
1023.258	1337
1023.548	1328.41
1023.839	1321.41
1024.129	1309.43
1024.419	1309.2
1024.709	1307.62
1025	1264.91
1025.29	1281.63
1025.58	1257.45
1025.87	1256.77
1026.16	1250.9
1026.449	1224.23
1026.739	1255.87
1027.029	1220.84
1027.319	1210
1027.608	1219.49
1027.898	1191.69
1028.187	1176.55
1028.477	1199.38
1028.766	1192.37
1029.055	1166.61
1029.344	1148.76
1029.634	1165.25
1029.923	1163.44
1030.212	1160.05
1030.501	1162.09
1030.79	1118.93
1031.078	1132.94
1031.367	1120.28
1031.656	1101.98
1031.945	1108.76
1032.233	1124.12
1032.522	1096.1
1032.81	1082.77
1033.099	1063.11
1033.387	1094.07
1033.675	1075.54
1033.963	1025.37
1034.251	1034.86
1034.54	1044.13
1034.828	1028.53
1035.116	1004.58
1035.403	1017.46
1035.691	993.5
1035.979	1004.35
1036.267	994.41
1036.554	961.42
1036.842	980.85
1037.129	993.73
1037.417	983.56
1037.704	957.12
1037.992	951.25
1038.279	973.84
1038.566	944.01
1038.853	944.01
1039.14	944.01
