Data from hue_24_FLMS001491_00055.txt Node
Date: Tue Feb 07 17:12:27 GMT 2017
User: dcchb
Spectrometer: FLMS00149
Trigger mode: 0
Integration Time (sec): 2.000000E-2
Scans to average: 10
Electric dark correction enabled: true
Nonlinearity correction enabled: false
Boxcar width: 0
XAxis mode: Wavelengths
Number of Pixels in Spectrum: 2048
>>>>>Begin Spectral Data<<<<<
341.393	-5.8
341.776	-5.8
342.16	-5.8
342.543	-60.27
342.927	-72.92
343.31	-40.15
343.693	-64.56
344.077	-76.54
344.46	-45.58
344.843	-41.96
345.226	-30.89
345.61	-38.35
345.993	-16.65
346.376	3.23
346.759	-0.61
347.142	12.95
347.525	17.92
347.908	58.6
348.291	74.87
348.674	85.04
349.057	102.67
349.44	127.3
349.823	162.1
350.206	177.24
350.588	216.79
350.971	195.09
351.354	223.79
351.737	228.09
352.119	269.67
352.502	272.61
352.884	274.41
353.267	278.03
353.65	293.85
354.032	303.79
354.414	306.05
354.797	306.73
355.179	333.85
355.562	329.33
355.944	340.63
356.326	357.58
356.709	333.62
357.091	333.85
357.473	358.71
357.855	357.58
358.238	332.04
358.62	336.78
359.002	344.47
359.384	355.32
359.766	332.27
360.148	327.29
360.53	331.81
360.912	323.23
361.294	321.64
361.676	323
362.057	334.07
362.439	329.55
362.821	323.23
363.203	315.77
363.584	329.33
363.966	305.83
364.348	308.76
364.729	334.3
365.111	329.78
365.493	329.55
365.874	326.62
366.256	312.38
366.637	326.84
367.019	323
367.4	318.71
367.781	311.7
368.163	313.28
368.544	297.01
368.925	310.12
369.306	316.9
369.688	312.6
370.069	327.97
370.45	293.85
370.831	309.89
371.212	310.34
371.593	310.34
371.974	302.21
372.355	323.45
372.736	308.54
373.117	314.19
373.498	315.99
373.879	321.87
374.26	340.4
374.641	315.77
375.021	300.63
375.402	325.49
375.783	334.07
376.163	345.6
376.544	336.56
376.925	313.73
377.305	332.04
377.686	309.67
378.066	329.78
378.447	318.48
378.827	326.84
379.208	336.33
379.588	334.98
379.968	332.04
380.349	331.81
380.729	317.8
381.109	353.96
381.489	337.01
381.87	332.49
382.25	357.8
382.63	344.47
383.01	337.46
383.39	339.95
383.77	315.99
384.15	352.38
384.53	333.85
384.91	351.93
385.29	329.1
385.67	336.33
386.049	354.19
386.429	345.15
386.809	364.35
387.189	370.68
387.568	353.73
387.948	355.99
388.328	355.54
388.707	363
389.087	360.29
389.466	359.16
389.846	358.71
390.225	355.09
390.605	379.5
390.984	360.51
391.363	360.74
391.743	365.03
392.122	367.52
392.501	353.96
392.881	379.5
393.26	367.29
393.639	374.07
394.018	372.72
394.397	364.81
394.776	352.38
395.155	367.97
395.534	390.34
395.913	382.89
396.292	366.39
396.671	398.48
397.05	392.15
397.429	373.17
397.808	390.12
398.186	388.99
398.565	378.59
398.944	377.46
399.323	380.17
399.701	362.32
400.08	398.25
400.458	387.18
400.837	405.94
401.215	391.02
401.594	379.5
401.972	408.42
402.351	388.31
402.729	411.59
403.107	405.48
403.486	401.64
403.864	421.08
404.242	395.77
404.62	417.46
404.999	417.69
405.377	428.31
405.755	415.43
406.133	431.02
406.511	425.37
406.889	421.75
407.267	422.66
407.645	426.05
408.023	438.48
408.401	402.32
408.779	440.06
409.156	462.66
409.534	444.8
409.912	438.48
410.29	449.1
410.667	443.45
411.045	447.52
411.422	474.86
411.8	452.26
412.178	441.64
412.555	454.97
412.933	451.58
413.31	438.25
413.687	461.98
414.065	481.19
414.442	462.66
414.819	467.18
415.197	472.37
415.574	487.06
415.951	452.71
416.328	469.21
416.705	483.67
417.082	490.45
417.46	493.84
417.837	489.1
418.214	492.49
418.591	479.15
418.967	504.46
419.344	508.08
419.721	490
420.098	515.09
420.475	504.92
420.852	502.66
421.228	501.98
421.605	500.62
421.982	523.67
422.358	507.4
422.735	538.36
423.111	544.46
423.488	524.12
423.864	528.42
424.241	541.98
424.617	550.11
424.994	547.17
425.37	542.2
425.746	542.66
426.123	537.46
426.499	542.66
426.875	561.19
427.251	537.91
427.627	562.54
428.003	588.53
428.379	569.77
428.756	578.59
429.132	563.67
429.507	583.11
429.883	554.41
430.259	591.92
430.635	623.78
431.011	596.89
431.387	608.87
431.763	631.01
432.138	616.55
432.514	626.72
432.89	603.67
433.265	619.49
433.641	638.92
434.016	637.57
434.392	640.73
434.767	644.12
435.143	634.63
435.518	637.34
435.894	667.17
436.269	646.16
436.644	660.62
437.02	676.89
437.395	672.6
437.77	675.99
438.145	687.28
438.52	657.45
438.895	680.73
439.271	693.84
439.646	703.1
440.021	698.81
440.395	697.68
440.77	719.37
441.145	717.57
441.52	710.79
441.895	704.68
442.27	733.61
442.645	733.61
443.019	743.78
443.394	736.1
443.769	749.66
444.143	720.96
444.518	740.62
444.892	740.16
445.267	744.23
445.641	734.74
446.016	752.14
446.39	754.85
446.764	763.67
447.139	755.98
447.513	769.99
447.887	777
448.262	778.36
448.636	801.63
449.01	805.47
449.384	804.34
449.758	818.13
450.132	812.03
450.506	794.4
450.88	843.21
451.254	788.52
451.628	838.24
452.002	843.66
452.376	853.16
452.75	837.56
453.123	820.84
453.497	862.19
453.871	856.55
454.244	867.62
454.618	873.95
454.992	880.05
455.365	885.7
455.739	901.52
456.112	937.22
456.486	920.05
456.859	952.81
457.232	924.79
457.606	949.88
457.979	948.97
458.352	974.73
458.725	956.88
459.099	986.03
459.472	984
459.845	983.55
460.218	994.85
460.591	1001.63
460.964	1033.49
461.337	1046.14
461.71	1040.04
462.083	1071.23
462.456	1042.08
462.829	1066.26
463.201	1083.88
463.574	1096.54
463.947	1081.62
464.32	1128.85
464.692	1121.4
465.065	1152.36
465.438	1136.54
465.81	1167.95
466.183	1175.86
466.555	1176.76
466.928	1184.9
467.3	1200.04
467.672	1224.67
468.045	1271.9
468.417	1255.86
468.789	1262.41
469.161	1283.88
469.534	1286.59
469.906	1312.13
470.278	1342.18
470.65	1341.5
471.022	1363.2
471.394	1376.31
471.766	1419.92
472.138	1421.05
472.51	1444.78
472.882	1445.46
473.253	1457.89
473.625	1510.54
473.997	1525
474.369	1546.7
474.74	1569.29
475.112	1598.45
475.484	1603.87
475.855	1618.56
476.227	1692
476.598	1709.63
476.97	1710.53
477.341	1769.29
477.713	1757.76
478.084	1792.11
478.455	1875.73
478.827	1837.54
479.198	1897.42
479.569	1941.94
479.94	1978.55
480.311	1995.95
480.682	2058.55
481.053	2092.9
481.424	2102.39
481.795	2190.52
482.166	2196.62
482.537	2237.07
482.908	2293.34
483.279	2322.5
483.65	2355.94
484.021	2401.36
484.391	2426.22
484.762	2493.56
485.133	2507.35
485.503	2559.1
485.874	2604.97
486.244	2647.91
486.615	2722.03
486.985	2721.13
487.356	2767
487.726	2864.4
488.097	2891.29
488.467	2898.07
488.837	2991.18
489.207	2998.41
489.578	3075.02
489.948	3098.29
490.318	3166.77
490.688	3171.51
491.058	3260.32
491.428	3288.35
491.798	3328.8
492.168	3441.79
492.538	3456.02
492.908	3466.87
493.278	3547.77
493.648	3562.46
494.017	3589.35
494.387	3590.48
494.757	3654.89
495.126	3707.09
495.496	3695.11
495.866	3776.24
496.235	3819.86
496.605	3862.12
496.974	3885.39
497.344	3933.53
497.713	3972.62
498.082	3938.95
498.452	3994.77
498.821	4034.99
499.19	4103.69
499.559	4086.74
499.928	4138.27
500.298	4129.45
500.667	4199.73
501.036	4186.85
501.405	4226.17
501.774	4238.83
502.143	4309.56
502.512	4335.55
502.88	4352.72
503.249	4350.92
503.618	4390.24
503.987	4437.24
504.356	4412.84
504.724	4484.7
505.093	4513.62
505.462	4492.83
505.83	4536.22
506.199	4547.52
506.567	4655.54
506.936	4605.15
507.304	4649.21
507.672	4688.08
508.041	4703.45
508.409	4692.38
508.777	4775.54
509.145	4751.36
509.514	4833.84
509.882	4808.76
510.25	4822.77
510.618	4832.94
510.986	4870.45
511.354	4921.75
511.722	4992.03
512.09	4964.91
512.458	5000.62
512.826	5038.13
513.193	5048.07
513.561	5067.96
513.929	5099.6
514.297	5135.75
514.664	5150.67
515.032	5140.95
515.4	5165.58
515.767	5249.2
516.135	5231.35
516.502	5224.57
516.869	5315.41
517.237	5266.82
517.604	5321.06
517.972	5324
518.339	5396.09
518.706	5377.1
519.073	5351.57
519.44	5364
519.808	5463.43
520.175	5452.13
520.542	5506.14
520.909	5469.76
521.276	5503.65
521.643	5594.5
522.009	5553.82
522.376	5579.58
522.743	5608.06
523.11	5682.86
523.477	5738.22
523.843	5795.17
524.21	5810.09
524.577	5859.13
524.943	5883.08
525.31	5872.23
525.676	5884.44
526.043	5948.84
526.409	5994.04
526.776	5997.65
527.142	6039.69
527.508	5993.13
527.874	6082.62
528.241	6096.41
528.607	6121.27
528.973	6188.83
529.339	6184.31
529.705	6282.17
530.071	6286.46
530.437	6264.31
530.803	6366
531.169	6360.36
531.535	6407.59
531.901	6384.08
532.267	6453.46
532.632	6454.82
532.998	6431.77
533.364	6550.18
533.73	6514.25
534.095	6606.68
534.461	6636.96
534.826	6642.38
535.192	6677.86
535.557	6715.83
535.923	6746.56
536.288	6795.6
536.653	6794.24
537.019	6735.71
537.384	6820.91
537.749	6849.16
538.114	6815.26
538.479	6921.02
538.845	6890.06
539.21	6946.1
539.575	6956.27
539.94	6946.33
540.305	7041.24
540.67	7007.57
541.034	7064.52
541.399	7066.1
541.764	7083.95
542.129	7143.84
542.494	7202.14
542.858	7224.06
543.223	7198.75
543.587	7275.59
543.952	7288.24
544.316	7302.25
544.681	7302.7
545.045	7412.31
545.41	7458.86
545.774	7423.83
546.138	7465.19
546.503	7500.21
546.867	7478.52
547.231	7529.14
547.595	7594
547.959	7558.06
548.324	7574.79
548.688	7632.19
549.052	7657.04
549.416	7695.69
549.779	7722.81
550.143	7792.63
550.507	7781.56
550.871	7800.09
551.235	7847.32
551.599	7884.38
551.962	7904.95
552.326	7895.46
552.689	7943.36
553.053	7948.11
553.417	7978.84
553.78	8019.29
554.143	7975
554.507	8028.56
554.87	8098.39
555.234	8132.51
555.597	8177.26
555.96	8211.38
556.323	8184.71
556.686	8223.36
557.05	8310.81
557.413	8268.55
557.776	8329.57
558.139	8315.78
558.502	8352.85
558.865	8415.22
559.228	8459.06
559.59	8508.1
559.953	8454.54
560.316	8567.3
560.679	8499.96
561.041	8601.65
561.404	8611.6
561.767	8679.16
562.129	8607.98
562.492	8692.27
562.854	8684.14
563.217	8730.46
563.579	8728.43
563.941	8863.11
564.304	8855.66
564.666	8949.89
565.028	8897.01
565.39	8926.62
565.753	8977.91
566.115	9027.18
566.477	9087.06
566.839	9067.63
567.201	9139.72
567.563	9159.83
567.925	9189.89
568.287	9136.33
568.648	9231.01
569.01	9295.87
569.372	9278.92
569.734	9328.41
570.095	9388.75
570.457	9447.28
570.819	9416.77
571.18	9476.88
571.542	9564.11
571.903	9597.56
572.265	9663.09
572.626	9747.61
572.987	9670.78
573.349	9727.72
573.71	9809.98
574.071	9900.38
574.432	9891.34
574.794	10012.69
575.155	10017.43
575.516	10073.03
575.877	10142.85
576.238	10192.12
576.599	10298.33
576.96	10356.63
577.32	10414.03
577.681	10471.43
578.042	10579.45
578.403	10664.87
578.763	10762.95
579.124	10828.26
579.485	10961.82
579.845	11086.78
580.206	11159.55
580.566	11217.85
580.927	11303.28
581.287	11466.89
581.648	11596.6
582.008	11704.17
582.368	11847.44
582.728	11963.82
583.089	12086.08
583.449	12349.58
583.809	12410.59
584.169	12656.69
584.529	12704.6
584.889	12924.93
585.249	13112.49
585.609	13289.66
585.969	13595.19
586.329	13720.84
586.688	13895.3
587.048	14121.06
587.408	14373.93
587.768	14568.95
588.127	14761.26
588.487	14992.44
588.846	15314.47
589.206	15473.11
589.565	15753.33
589.925	16019.99
590.284	16252.3
590.643	16564.38
591.003	16869.68
591.362	17123.69
591.721	17412.72
592.08	17612.94
592.44	17923.44
592.799	18220.61
593.158	18521.39
593.517	18788.96
593.876	19210.41
594.235	19419.67
594.593	19714.35
594.952	20107.34
595.311	20352.98
595.67	20580.55
596.029	21078.61
596.387	21279.29
596.746	21685.6
597.104	21865.71
597.463	22178.24
597.822	22591.57
598.18	22816.65
598.538	23149.52
598.897	23511.77
599.255	23635.16
599.613	24292.31
599.972	24307
600.33	24697.05
600.688	24973.65
601.046	25398.72
601.404	25659.06
601.762	25947.86
602.12	26386.95
602.478	26673.95
602.836	26919.81
603.194	27099.47
603.552	27451.33
603.91	27658.1
604.268	28032.1
604.625	28353.68
604.983	28551.41
605.341	28762.7
605.698	29036.37
606.056	29494.44
606.413	29620.99
606.771	29953.18
607.128	30254.19
607.485	30142.33
607.843	30467.74
608.2	30974.85
608.557	31189.98
608.914	31344.56
609.272	31852.11
609.629	32078.55
609.986	32276.06
610.343	32405.32
610.7	32756.95
611.057	32968.47
611.414	33147.22
611.771	33360.32
612.127	33534.33
612.484	33719.18
612.841	34042.34
613.198	34018.84
613.554	34286.4
613.911	34721.19
614.267	34944.69
614.624	34917.8
614.98	35120.5
615.337	35519.81
615.693	35578.57
616.05	35682.52
616.406	36081.38
616.762	36042.06
617.118	36194.83
617.475	36391.88
617.831	36540.58
618.187	36781.02
618.543	36939.21
618.899	37317.96
619.255	37309.15
619.611	37275.47
619.967	37572.42
620.323	37780.09
620.678	37828.23
621.034	37999.07
621.39	37829.58
621.746	38089.01
622.101	38603.12
622.457	38164.49
622.812	38418.27
623.168	38653.74
623.523	38713.63
623.879	38901.87
624.234	38778.94
624.589	38981.42
624.945	39174.86
625.3	39347.74
625.655	39246.5
626.01	39458.47
626.365	39522.2
626.72	39448.07
627.075	39490.33
627.43	39595.41
627.785	39591.35
628.14	39735.07
628.495	39798.8
628.85	40006.7
629.205	39824.33
629.559	40075.4
629.914	39988.85
630.269	40018.91
630.623	39966.25
630.978	39916.31
631.332	40193.36
631.687	40239.46
632.041	40177.55
632.396	40216.64
632.75	40194.27
633.104	40377.09
633.459	40072.92
633.813	40093.71
634.167	40129.64
634.521	40264.77
634.875	40325.11
635.229	40374.15
635.583	40124.67
635.937	40255.06
636.291	40289.63
636.645	40191.1
636.999	40144.33
637.352	40259.35
637.706	40234.72
638.06	40267.71
638.413	40222.97
638.767	40139.81
639.121	40327.15
639.474	40112.24
639.828	40135.06
640.181	40253.7
640.534	40316.3
640.888	40057.55
641.241	40093.93
641.594	40195.85
641.947	40348.61
642.301	40234.72
642.654	40240.82
643.007	40072.69
643.36	40145
643.713	40159.92
644.066	40286.92
644.419	40110.2
644.771	39811
645.124	39411.92
645.477	39428.86
645.83	39121.75
646.182	39052.83
646.535	38991.59
646.888	39061.42
647.24	38968.99
647.593	39210.57
647.945	38994.98
648.298	38936.67
648.65	38819.61
649.002	38698.49
649.355	38984.13
649.707	38848.77
650.059	39038.82
650.411	39498.47
650.763	39670.21
651.115	39954.95
651.467	39859.81
651.819	39849.87
652.171	39707.05
652.523	39646.49
652.875	39770.78
653.227	39588.41
653.578	39782.08
653.93	39768.74
654.282	39513.38
654.633	39354.29
654.985	39549.09
655.337	39629.09
655.688	39670.44
656.039	39643.1
656.391	39427.73
656.742	39398.36
657.094	39461.63
657.445	39571.69
657.796	39543.89
658.147	39514.06
658.498	39500.27
658.849	39512.7
659.2	39516.55
659.551	39329.43
659.902	39640.38
660.253	39397.45
660.604	39372.59
660.955	39371.46
661.306	39523.1
661.656	39441.97
662.007	39417.34
662.358	39357.91
662.708	39459.37
663.059	39417.34
663.409	39177.57
663.76	39406.49
664.11	39379.15
664.461	39475.64
664.811	39413.95
665.161	39445.59
665.511	39271.35
665.862	39403.78
666.212	39392.48
666.562	39360.39
666.912	39438.81
667.262	39237.91
667.612	39370.56
667.962	39290.56
668.312	39247.17
668.662	39525.81
669.011	39403.78
669.361	39210.11
669.711	39200.17
670.06	39296.89
670.41	39054.64
670.76	39188.64
671.109	39317
671.459	39157.91
671.808	39123.34
672.157	39233.16
672.507	38927.18
672.856	39013.73
673.205	39195.88
673.554	39198.36
673.904	38977.8
674.253	39072.49
674.602	38869.33
674.951	38434.31
675.3	38400.19
675.649	38974.87
675.998	38879.73
676.346	38888.31
676.695	38949.33
677.044	38685.61
677.393	38824.59
677.741	38803.8
678.09	38838.37
678.438	38672.73
678.787	38771.25
679.135	38792.04
679.484	38465.27
679.832	38751.37
680.181	38387.99
680.529	38656
680.877	38626.17
681.225	38337.59
681.573	38581.43
681.922	38364.26
682.27	38182.12
682.618	38342.34
682.966	38133.98
683.314	38330.59
683.661	38056.7
684.009	38043.82
684.357	37838.4
684.705	37971.73
685.053	37960.65
685.4	37848.11
685.748	37723.82
686.095	37595.47
686.443	37617.16
686.79	37595.24
687.138	37523.15
687.485	37627.56
687.832	37459.42
688.18	37475.24
688.527	37299.88
688.874	37253.1
689.221	37166.1
689.568	37003.17
689.915	37008.82
690.262	36941.02
690.609	36907.8
690.956	36722.95
691.303	36714.13
691.65	36666.9
691.997	36569.05
692.344	36425.33
692.69	36351.66
693.037	36455.84
693.383	36142.62
693.73	36143.3
694.077	35997.77
694.423	36145.79
694.769	35919.13
695.116	35869.41
695.462	35758.9
695.808	35602.75
696.155	35624.44
696.501	35439.82
696.847	35437.33
697.193	35229.2
697.539	35340.84
697.885	35024.69
698.231	34996.66
698.577	35032.14
698.923	34899.94
699.269	34838.02
699.614	34519.61
699.96	34523.91
700.306	34560.29
700.651	34330.69
700.997	34380.41
701.342	34329.11
701.688	34220.41
702.033	34229.23
702.379	34119.85
702.724	34014.54
703.069	34181.77
703.415	33710.82
703.76	33725.29
704.105	33732.97
704.45	33567.55
704.795	33458.85
705.14	33227.22
705.485	33224.96
705.83	33086.43
706.175	33164.85
706.52	33189.71
706.865	33110.61
707.209	33012.08
707.554	32842.14
707.899	32842.37
708.243	32687.12
708.588	32761.02
708.932	32415.26
709.277	32368.49
709.621	32409.84
709.966	32162.39
710.31	32347.47
710.654	32170.52
710.998	32150.19
711.342	32100.92
711.687	31938.21
712.031	32013.69
712.375	31818.22
712.719	31866.8
713.063	31748.84
713.407	31815.73
713.75	31598.79
714.094	31737.09
714.438	31490.09
714.782	31592.01
715.125	31345.69
715.469	31401.96
715.812	31292.81
716.156	31060.72
716.499	31250.32
716.843	31193.83
717.186	31041.97
717.53	31089.65
717.873	31242.86
718.216	30946.38
718.559	30881.97
718.902	30668.87
719.246	30794.29
719.589	30630.68
719.932	30529.66
720.275	30469.78
720.617	30515.43
720.96	30413.96
721.303	30404.69
721.646	30513.17
721.989	30197.47
722.331	30449.44
722.674	30232.95
723.016	30190.01
723.359	30220.29
723.701	30145.94
724.044	29831.38
724.386	29780.98
724.729	30072.27
725.071	29942.11
725.413	29849
725.755	29941.2
726.097	29784.37
726.439	29587.99
726.782	29656.92
727.124	29755.67
727.465	29472.74
727.807	29484.49
728.149	29554.55
728.491	29298.74
728.833	29373.76
729.175	29343.03
729.516	29330.37
729.858	29251.28
730.199	29246.76
730.541	29036.37
730.882	29168.57
731.224	29109.59
731.565	28891.29
731.906	29011.74
732.248	29005.41
732.589	28904.17
732.93	28762.03
733.271	28798.86
733.612	28850.39
733.953	28846.54
734.294	28668.7
734.635	28550.51
734.976	28776.72
735.317	28591.64
735.658	28445.42
735.999	28589.15
736.339	28470.73
736.68	28534.01
737.021	28379.44
737.361	28228.93
737.702	28438.19
738.042	28343.51
738.383	28350.51
738.723	28240.91
739.063	28112.78
739.404	28249.27
739.744	28157.75
740.084	28031.65
740.424	28104.87
740.764	28023.29
741.104	28210.85
741.444	27939.22
741.784	27936.96
742.124	27931.77
742.464	27938.55
742.804	27780.36
743.143	27736.52
743.483	27847.47
743.823	27588.27
744.162	27598.89
744.502	27711.43
744.841	27581.72
745.181	27560.02
745.52	27603.64
745.86	27553.24
746.199	27465.34
746.538	27325.68
746.877	27416.75
747.216	27597.99
747.556	27437.32
747.895	27380.82
748.234	27247.94
748.573	27373.59
748.911	27166.14
749.25	27171.79
749.589	27108.74
749.928	27014.28
750.267	27193.25
750.605	27092.24
750.944	27002.52
751.283	26903.32
751.621	27059.47
751.96	26852.25
752.298	26764.79
752.636	26877.1
752.975	26623.78
753.313	26637.56
753.651	26656.77
753.989	26674.17
754.327	26548.07
754.666	26395.08
755.004	26504.23
755.342	26495.42
755.679	26367.51
756.017	26238.48
756.355	26356.44
756.693	26217.91
757.031	26285.03
757.368	26098.37
757.706	26075.54
758.044	25812.5
758.381	25973.62
758.719	25885.27
759.056	25866.74
759.394	25817.92
759.731	25717.59
760.068	25586.97
760.405	25579.29
760.743	25432.85
761.08	25367.77
761.417	25376.8
761.754	25325.96
762.091	25215.68
762.428	25258.16
762.765	25033.76
763.102	25134.78
763.438	24963.48
763.775	24820.43
764.112	24906.08
764.449	24884.39
764.785	24788.12
765.122	24613.66
765.458	24427.68
765.795	24444.63
766.131	24394.46
766.467	24336.61
766.804	24274.01
767.14	24135.93
767.476	24201.47
767.812	24108.36
768.148	24096.61
768.485	23980.91
768.821	23849.84
769.157	23834.7
769.492	23717.64
769.828	23696.4
770.164	23389.06
770.5	23360.81
770.836	23435.84
771.171	23272.68
771.507	23311.1
771.842	23140.71
772.178	23088.05
772.513	23083.76
772.849	22951.11
773.184	22828.4
773.519	22754.27
773.855	22773.48
774.19	22588.63
774.525	22644.9
774.86	22618.23
775.195	22430.44
775.53	22393.61
775.865	22247.17
776.2	22130.11
776.535	22006.05
776.87	21968.08
777.205	21995.65
777.539	21933.05
777.874	21798.59
778.209	21566.74
778.543	21685.15
778.878	21505.95
779.212	21428.21
779.547	21314.99
779.881	21374.42
780.215	21318.15
780.55	21271.15
780.884	21084.71
781.218	21125.39
781.552	21127.42
781.886	20878.62
782.22	20768.56
782.554	20743.48
782.888	20536.03
783.222	20527.89
783.556	20402.47
783.889	20409.25
784.223	20266.88
784.557	20135.36
784.89	20072.54
785.224	20068.24
785.557	20009.04
785.891	19949.6
786.224	19937.85
786.558	19880.45
786.891	19684.07
787.224	19643.85
787.557	19564.98
787.891	19549.39
788.224	19468.94
788.557	19490.86
788.89	19376.74
789.223	19375.83
789.556	19240.47
789.888	19194.37
790.221	19126.35
790.554	18976.97
790.887	18905.56
791.219	18854.49
791.552	18859.01
791.884	18720.48
792.217	18710.54
792.549	18787.15
792.882	18523.2
793.214	18480.04
793.546	18574.72
793.879	18313.94
794.211	18287.73
794.543	18284.56
794.875	18215.64
795.207	18288.4
795.539	18192.13
795.871	18132.93
796.203	17963.89
796.535	17878.02
796.867	17898.81
797.198	17815.42
797.53	17702.66
797.862	17693.16
798.193	17702.66
798.525	17586.27
798.856	17599.16
799.188	17409.56
799.519	17277.13
799.85	17227.64
800.182	17276.23
800.513	17276.45
800.844	17057.7
801.175	17220.86
801.506	17182.67
801.837	17062.67
802.168	17045.27
802.499	16915.56
802.83	16827.88
803.161	16808.67
803.491	16788.33
803.822	16752.62
804.153	16716.92
804.483	16520.99
804.814	16551.05
805.145	16473.31
805.475	16491.61
805.805	16445.51
806.136	16379.75
806.466	16442.8
806.796	16365.29
807.126	16249.59
807.457	16197.61
807.787	16252.98
808.117	16125.3
808.447	16026.99
808.777	16053.21
809.107	15939.99
809.436	15979.09
809.766	15889.82
810.096	15776.6
810.426	15771.18
810.755	15857.05
811.085	15708.81
811.414	15670.17
811.744	15611.64
812.073	15621.35
812.403	15630.39
812.732	15444.64
813.061	15515.82
813.39	15389.95
813.719	15346.56
814.049	15514.46
814.378	15360.12
814.707	15283.96
815.036	15262.27
815.365	15128.26
815.693	14978.43
816.022	15032.9
816.351	15003.07
816.68	14928.94
817.008	15008.72
817.337	14803.98
817.665	14857.08
817.994	14827.48
818.322	14803.75
818.651	14720.81
818.979	14646.01
819.307	14737.99
819.636	14692.57
819.964	14513.36
820.292	14693.24
820.62	14681.72
820.948	14620.25
821.276	14650.53
821.604	14553.36
821.932	14554.49
822.259	14646.47
822.587	14598.56
822.915	14514.04
823.243	14658.44
823.57	14491.89
823.898	14493.02
824.225	14399.47
824.553	14456.41
824.88	14520.37
825.207	14424.55
825.535	14517.43
825.862	14509.75
826.189	14495.28
826.516	14508.39
826.843	14586.58
827.17	14496.64
827.497	14506.81
827.824	14552
828.151	14541.84
828.478	14519.69
828.805	14585
829.131	14444.66
829.458	14438.56
829.785	14381.61
830.111	14420.71
830.438	14471.78
830.764	14513.14
831.09	14503.87
831.417	14345
831.743	14438.34
832.069	14425.68
832.395	14426.13
832.722	14406.02
833.048	14393.14
833.374	14417.09
833.7	14328.73
834.026	14346.81
834.351	14293.93
834.677	14238.57
835.003	14307.72
835.329	14296.64
835.654	14158.57
835.98	14188.17
836.306	14262.29
836.631	14125.12
836.956	14135.74
837.282	14147.5
837.607	14020.27
837.932	14043.09
838.258	14092.36
838.583	14095.75
838.908	13973.71
839.233	13988.86
839.558	14061.4
839.883	13960.61
840.208	13912.47
840.533	13941.4
840.858	13862.76
841.182	13876.99
841.507	13784.34
841.832	13795.64
842.156	13663.67
842.481	13712.7
842.805	13651.24
843.13	13613.05
843.454	13749.77
843.778	13608.75
844.103	13517
844.427	13530.56
844.751	13500.73
845.075	13462.77
845.399	13502.54
845.723	13385.03
846.047	13384.35
846.371	13254.86
846.695	13295.99
847.019	13186.62
847.343	13183.45
847.666	13051.7
847.99	13012.84
848.313	12975.77
848.637	12887.64
848.96	12956.34
849.284	12868.88
849.607	12742.56
849.931	12765.61
850.254	12625.73
850.577	12627.99
850.9	12556.12
851.223	12548.67
851.546	12455.34
851.869	12368.11
852.192	12349.12
852.515	12304.83
852.838	12300.31
853.161	12274.32
853.483	12132.63
853.806	12160.2
854.129	12204.72
854.451	12010.6
854.774	11996.82
855.096	11998.63
855.419	12012.64
855.741	11952.3
856.063	11850.61
856.385	11839.99
856.708	11696.03
857.03	11732.19
857.352	11795.47
857.674	11655.58
857.996	11572.87
858.318	11622.14
858.64	11603.83
858.961	11536.49
859.283	11455.36
859.605	11390.51
859.926	11391.86
860.248	11482.93
860.57	11346.66
860.891	11394.12
861.212	11297.4
861.534	11275.25
861.855	11172.88
862.176	11268.93
862.498	11193.67
862.819	11214.92
863.14	11117.29
863.461	11209.27
863.782	11207.46
864.103	11187.57
864.424	11092.89
864.745	11108.71
865.065	11021.02
865.386	11035.49
865.707	11002.04
866.027	11004.75
866.348	10938.09
866.668	10961.59
866.989	10906
867.309	10869.39
867.63	10856.28
867.95	10911.87
868.27	10831.2
868.59	10856.28
868.91	10818.09
869.23	10821.93
869.55	10776.96
869.87	10785.32
870.19	10759.79
870.51	10737.19
870.83	10739
871.15	10690.19
871.469	10703.29
871.789	10660.81
872.109	10670.3
872.428	10660.58
872.748	10654.25
873.067	10562.96
873.386	10648.6
873.706	10607.93
874.025	10496.74
874.344	10480.25
874.663	10467.59
874.982	10501.94
875.301	10470.53
875.62	10495.16
875.939	10416.75
876.258	10437.08
876.577	10370.19
876.896	10390.53
877.214	10253.59
877.533	10289.97
877.852	10295.17
878.17	10338.33
878.489	10338.78
878.807	10304.43
879.125	10246.13
879.444	10208.84
879.762	10226.92
880.08	10261.27
880.398	10209.75
880.716	10141.95
881.034	10111.22
881.352	10155.96
881.67	10090.43
881.988	10077.32
882.306	10038.9
882.624	10010.65
882.941	10050.65
883.259	9942.41
883.577	9882.52
883.894	9914.84
884.212	9937.44
884.529	9923.65
884.846	9859.7
885.164	9887.49
885.481	9768.4
885.798	9855.4
886.115	9737.67
886.432	9793.94
886.75	9686.82
887.067	9764.56
887.383	9667.16
887.7	9711
888.017	9627.39
888.334	9583.55
888.651	9627.39
888.967	9630.55
889.284	9553.72
889.6	9515.98
889.917	9411.8
890.233	9552.14
890.55	9438.24
890.866	9401.63
891.182	9397.79
891.498	9403.21
891.815	9343.1
892.131	9268.3
892.447	9285.02
892.763	9221.3
893.079	9226.72
893.395	9198.25
893.71	9164.12
894.026	9166.16
894.342	9141.3
894.657	9056.78
894.973	9050.91
895.289	9026.73
895.604	9077.8
895.92	8905.6
896.235	8915.99
896.55	8908.99
896.865	8923.68
897.181	8835.32
897.496	8879.39
897.811	8810.91
898.126	8754.87
898.441	8804.58
898.756	8739.5
899.071	8676.23
899.386	8664.93
899.7	8654.98
900.015	8547.19
900.33	8522.33
900.644	8499.51
900.959	8461.32
901.273	8467.64
901.588	8419.06
901.902	8304.03
902.216	8365.27
902.531	8345.39
902.845	8343.13
903.159	8253.86
903.473	8210.7
903.787	8221.78
904.101	8172.29
904.415	8157.82
904.729	8177.26
905.042	8133.19
905.356	8047.09
905.67	8018.39
905.984	8061.78
906.297	8045.96
906.611	7924.83
906.924	7908.34
907.237	7866.3
907.551	7878.73
907.864	7863.37
908.177	7840.32
908.491	7828.11
908.804	7760.32
909.117	7793.99
909.43	7664.05
909.743	7690.94
910.056	7626.76
910.368	7591.28
910.681	7548.12
910.994	7545.41
911.307	7558.29
911.619	7497.05
911.932	7530.04
912.244	7387.9
912.557	7364.17
912.869	7312.87
913.181	7277.85
913.494	7353.1
913.806	7258.41
914.118	7214.57
914.43	7186.77
914.742	7237.62
915.054	7156.27
915.366	7146.55
915.678	7110.39
915.99	7056.83
916.302	6932.77
916.613	6947.01
916.925	6958.98
917.236	6976.16
917.548	6883.51
917.859	6897.97
918.171	6803.96
918.482	6814.81
918.794	6794.92
919.105	6790.85
919.416	6693.23
919.727	6692.55
920.038	6705.66
920.349	6627.47
920.66	6621.14
920.971	6560.35
921.282	6591.54
921.593	6531.88
921.903	6501.14
922.214	6461.82
922.525	6468.83
922.835	6430.64
923.146	6397.19
923.456	6386.57
923.767	6366.23
924.077	6326.68
924.387	6292.56
924.697	6263.41
925.008	6189.74
925.318	6209.17
925.628	6183.86
925.938	6168.04
926.248	6056.41
926.558	6056.18
926.867	6099.57
927.177	6011.89
927.487	6030.65
927.796	5943.64
928.106	5949.52
928.416	5919.69
928.725	5943.42
929.034	5905.9
929.344	5896.19
929.653	5852.57
929.962	5834.04
930.271	5775.74
930.581	5733.48
930.89	5707.94
931.199	5715.17
931.508	5701.39
931.817	5754.95
932.125	5669.75
932.434	5664.1
932.743	5598.57
933.051	5574.16
933.36	5538.23
933.669	5535.97
933.977	5487.61
934.286	5456.88
934.594	5470.66
934.902	5393.38
935.21	5433.83
935.519	5419.36
935.827	5405.35
936.135	5340.04
936.443	5283.55
936.751	5285.81
937.059	5250.33
937.367	5269.76
937.674	5265.02
937.982	5224.34
938.29	5163.78
938.597	5157.9
938.905	5077.68
939.213	5122.42
939.52	5060.28
939.827	5070.45
940.135	5055.08
940.442	5006.27
940.749	5034.29
941.056	5034.51
941.363	4948.87
941.67	4939.83
941.977	4920.62
942.284	4908.64
942.591	4892.37
942.898	4861.64
943.205	4871.58
943.511	4826.84
943.818	4831.81
944.125	4788.42
944.431	4756.56
944.738	4772.15
945.044	4725.14
945.35	4670.68
945.657	4681.3
945.963	4629.78
946.269	4649.89
946.575	4636.33
946.881	4594.3
947.187	4541.19
947.493	4554.08
947.799	4529.9
948.105	4498.03
948.41	4485.38
948.716	4511.14
949.022	4457.35
949.327	4440.18
949.633	4411.03
949.938	4382.78
950.244	4378.71
950.549	4301.88
950.854	4351.14
951.16	4362.22
951.465	4295.55
951.77	4328.09
952.075	4271.6
952.38	4210.58
952.685	4231.37
952.99	4176.23
953.294	4168.77
953.599	4176.01
953.904	4141.2
954.209	4112.05
954.513	4145.72
954.818	4088.32
955.122	4101.21
955.426	4063.47
955.731	4048.78
956.035	4007.65
956.339	3987.08
956.643	4012.62
956.948	3938.5
957.252	3971.27
957.556	3984.6
957.86	3900.31
958.163	3909.12
958.467	3881.1
958.771	3854.21
959.075	3895.56
959.378	3799.74
959.682	3824.6
959.985	3781.44
960.289	3805.85
960.592	3752.51
960.896	3723.59
961.199	3752.74
961.502	3750.48
961.805	3694.89
962.108	3708.9
962.411	3695.11
962.714	3665.51
963.017	3686.3
963.32	3621.22
963.623	3662.35
963.926	3573.76
964.228	3578.73
964.531	3576.25
964.833	3579.41
965.136	3534.44
965.438	3463.48
965.741	3492.86
966.043	3492.86
966.345	3479.08
966.648	3461.45
966.95	3442.01
967.252	3450.15
967.554	3418.29
967.856	3361.11
968.158	3383.71
968.46	3368.34
968.761	3312.98
969.063	3349.81
969.365	3331.96
969.666	3340.55
969.968	3289.7
970.269	3275.92
970.571	3281.79
970.872	3246.99
971.174	3212.42
971.475	3260.78
971.776	3220.78
972.077	3194.79
972.378	3197.5
972.679	3176.48
972.98	3172.19
973.281	3163.15
973.582	3128.8
973.883	3112.31
974.183	3084.06
974.484	3121.8
974.785	3091.06
975.085	3075.02
975.386	3071.4
975.686	3062.14
975.986	3006.32
976.287	3016.04
976.587	2999.31
976.887	2962.7
977.187	2996.6
977.487	2954.34
977.787	2935.81
978.087	2919.54
978.387	2931.97
978.687	2930.16
978.987	2919.32
979.286	2868.7
979.586	2898.07
979.885	2861.46
980.185	2860.33
980.484	2848.58
980.784	2812.65
981.083	2808.36
981.382	2781.47
981.682	2785.53
981.981	2766.33
982.28	2765.65
982.579	2773.33
982.878	2772.2
983.177	2727.68
983.475	2706.21
983.774	2678.42
984.073	2660.11
984.372	2656.05
984.67	2651.07
984.969	2660.11
985.267	2665.54
985.566	2629.38
985.864	2602.94
986.162	2619.21
986.461	2630.96
986.759	2612.21
987.057	2560.68
987.355	2548.7
987.653	2543.28
987.951	2559.33
988.249	2521.13
988.547	2516.16
988.844	2499.44
989.142	2467.8
989.44	2487.69
989.737	2455.15
990.035	2435.03
990.332	2448.59
990.63	2415.6
990.927	2395.04
991.224	2393.91
991.521	2392.32
991.819	2415.37
992.116	2394.13
992.413	2395.71
992.71	2364.08
993.006	2342.38
993.303	2334.7
993.6	2334.25
993.897	2314.13
994.193	2303.51
994.49	2309.61
994.787	2310.52
995.083	2256.73
995.379	2266.9
995.676	2249.5
995.972	2232.33
996.268	2230.97
996.565	2213.12
996.861	2196.4
997.157	2216.74
997.453	2180.13
997.749	2174.02
998.044	2140.35
998.34	2205.21
998.636	2150.75
998.932	2124.99
999.227	2145.32
999.523	2131.77
999.818	2093.57
1000.114	2072.33
1000.409	2081.15
1000.704	2074.14
1001	2012
1001.295	2022.16
1001.59	2038.21
1001.885	2017.42
1002.18	1999.57
1002.475	1999.11
1002.77	1983.07
1003.065	1969.96
1003.359	1936.06
1003.654	1947.82
1003.949	1941.26
1004.243	1941.94
1004.538	1909.17
1004.832	1922.96
1005.127	1878.21
1005.421	1898.78
1005.715	1911.21
1006.009	1885.22
1006.304	1917.08
1006.598	1869.63
1006.892	1864.88
1007.186	1831.43
1007.48	1833.47
1007.773	1818.55
1008.067	1819.46
1008.361	1788.5
1008.655	1770.87
1008.948	1772.45
1009.242	1749.63
1009.535	1761.61
1009.829	1740.36
1010.122	1719.35
1010.415	1732.68
1010.708	1696.75
1011.001	1700.14
1011.295	1727.26
1011.588	1690.42
1011.881	1702.17
1012.173	1682.29
1012.466	1693.36
1012.759	1654.04
1013.052	1636.19
1013.344	1661.04
1013.637	1602.51
1013.93	1628.05
1014.222	1622.85
1014.514	1607.49
1014.807	1551.44
1015.099	1554.61
1015.391	1554.38
1015.683	1559.35
1015.976	1573.59
1016.268	1519.13
1016.56	1553.02
1016.851	1522.29
1017.143	1512.57
1017.435	1500.37
1017.727	1521.39
1018.018	1468.96
1018.31	1458.34
1018.602	1453.37
1018.893	1451.56
1019.185	1450.2
1019.476	1439.58
1019.767	1429.41
1020.058	1430.09
1020.35	1437.32
1020.641	1386.47
1020.932	1400.26
1021.223	1398.68
1021.514	1369.98
1021.804	1347.61
1022.095	1349.87
1022.386	1342.86
1022.677	1347.83
1022.967	1330.21
1023.258	1300.15
1023.548	1301.05
1023.839	1303.77
1024.129	1289.53
1024.419	1284.33
1024.709	1251.11
1025	1282.97
1025.29	1263.09
1025.58	1256.53
1025.87	1247.72
1026.16	1232.58
1026.449	1234.16
1026.739	1213.6
1027.029	1193.71
1027.319	1195.07
1027.608	1212.47
1027.898	1181.28
1028.187	1175.86
1028.477	1167.95
1028.766	1166.14
1029.055	1138.35
1029.344	1140.61
1029.634	1132.02
1029.923	1139.7
1030.212	1126.14
1030.501	1141.96
1030.79	1119.14
1031.078	1127.05
1031.367	1094.05
1031.656	1093.38
1031.945	1064
1032.233	1093.83
1032.522	1063.32
1032.81	1052.47
1033.099	1056.99
1033.387	1077.56
1033.675	1042.98
1033.963	1031.23
1034.251	1032.59
1034.54	1034.85
1034.828	1014.06
1035.116	1007.73
1035.403	1017.9
1035.691	1002.3
1035.979	977.9
1036.267	1008.41
1036.554	971.8
1036.842	958.24
1037.129	960.72
1037.417	984
1037.704	959.14
1037.992	953.27
1038.279	955.3
1038.566	934.96
1038.853	934.96
1039.14	934.96
