Data from hue_240_FLMS001491_00054.txt Node
Date: Tue Feb 07 16:35:40 GMT 2017
User: dcchb
Spectrometer: FLMS00149
Trigger mode: 0
Integration Time (sec): 2.000000E-2
Scans to average: 10
Electric dark correction enabled: true
Nonlinearity correction enabled: false
Boxcar width: 0
XAxis mode: Wavelengths
Number of Pixels in Spectrum: 2048
>>>>>Begin Spectral Data<<<<<
341.393	-4.49
341.776	-4.49
342.16	-4.49
342.543	-69.57
342.927	-68.9
343.31	-91.04
343.693	-77.03
344.077	-79.74
344.46	-66.18
344.843	-55.79
345.226	-42.23
345.61	-16.47
345.993	3.87
346.376	-6.53
346.759	3.64
347.142	18.78
347.525	47.71
347.908	68.95
348.291	81.16
348.674	88.61
349.057	122.28
349.44	134.71
349.823	138.33
350.206	160.02
350.588	187.59
350.971	217.2
351.354	203.19
351.737	233.69
352.119	247.25
352.502	261.49
352.884	275.95
353.267	271.89
353.65	298.1
354.032	276.41
354.414	298.1
354.797	303.98
355.179	314.6
355.562	304.43
355.944	331.54
356.326	316.86
356.709	323.41
357.091	318.66
357.473	336.06
357.855	335.84
358.238	305.33
358.62	318.66
359.002	331.09
359.384	333.13
359.766	328.16
360.148	339.23
360.53	324.99
360.912	325.22
361.294	320.47
361.676	310.53
362.057	324.31
362.439	314.37
362.821	316.18
363.203	330.19
363.584	323.64
363.966	327.93
364.348	316.63
364.729	322.05
365.111	314.82
365.493	306.46
365.874	318.21
366.256	308.72
366.637	317.31
367.019	301.49
367.4	307.82
367.781	320.92
368.163	301.72
368.544	307.14
368.925	283.64
369.306	320.47
369.688	293.81
370.069	293.13
370.45	315.73
370.831	302.39
371.212	311.88
371.593	313.92
371.974	315.05
372.355	309.85
372.736	302.17
373.117	307.82
373.498	297.2
373.879	332.22
374.26	310.53
374.641	300.13
375.021	322.51
375.402	306.23
375.783	335.16
376.163	312.56
376.544	320.47
376.925	332.22
377.305	291.55
377.686	309.17
378.066	325.44
378.447	337.87
378.827	322.73
379.208	314.82
379.588	307.82
379.968	324.31
380.349	324.77
380.729	329.06
381.109	304.88
381.489	326.57
381.87	330.64
382.25	309.62
382.63	317.53
383.01	335.84
383.39	327.7
383.77	344.43
384.15	336.29
384.53	344.2
384.91	339.91
385.29	343.52
385.67	338.55
386.049	348.27
386.429	352.34
386.809	340.81
387.189	356.86
387.568	334.48
387.948	352.56
388.328	351.21
388.707	342.84
389.087	338.78
389.466	344.2
389.846	367.25
390.225	356.63
390.605	338.55
390.984	352.34
391.363	375.16
391.743	362.28
392.122	364.76
392.501	381.26
392.881	361.15
393.26	371.32
393.639	364.54
394.018	363.41
394.397	360.24
394.776	366.12
395.155	360.47
395.534	374.93
395.913	381.49
396.292	382.17
396.671	369.74
397.05	392.79
397.429	373.35
397.808	392.33
398.186	388.94
398.565	402.28
398.944	397.76
399.323	390.75
399.701	410.19
400.08	388.72
400.458	408.61
400.837	375.16
401.215	395.5
401.594	396.4
401.972	388.04
402.351	435.95
402.729	420.81
403.107	423.52
403.486	417.19
403.864	408.15
404.242	421.03
404.62	436.4
404.999	448.83
405.377	428.27
405.755	439.34
406.133	457.19
406.511	451.09
406.889	452.22
407.267	467.59
407.645	457.19
408.023	458.32
408.401	459
408.779	456.97
409.156	467.36
409.534	477.98
409.912	484.76
410.29	507.59
410.667	503.52
411.045	508.26
411.422	498.55
411.8	502.61
412.178	490.64
412.555	527.47
412.933	515.27
413.31	519.11
413.687	529.96
414.065	539.68
414.442	546
414.819	550.97
415.197	548.71
415.574	568.83
415.951	564.53
416.328	593.01
416.705	561.6
417.082	588.04
417.46	595.49
417.837	600.46
418.214	595.72
418.591	614.93
418.967	614.7
419.344	622.61
419.721	614.93
420.098	614.93
420.475	645.66
420.852	662.84
421.228	678.2
421.605	662.84
421.982	669.39
422.358	683.63
422.735	672.1
423.111	688.37
423.488	715.72
423.864	719.56
424.241	706.68
424.617	723.85
424.994	737.41
425.37	737.86
425.746	748.03
426.123	771.31
426.499	765.43
426.875	771.76
427.251	783.28
427.627	804.98
428.003	811.53
428.379	819.89
428.756	796.17
429.132	839.1
429.507	830.06
429.883	848.59
430.259	825.32
430.635	862.15
431.011	857.41
431.387	904.64
431.763	892.43
432.138	914.58
432.514	933.34
432.89	930.85
433.265	937.4
433.641	969.27
434.016	965.88
434.392	975.14
434.767	967.46
435.143	1017.85
435.518	1017.4
435.894	1019.66
436.269	1043.84
436.644	1068.7
437.02	1051.75
437.395	1071.86
437.77	1112.77
438.145	1140.11
438.52	1137.17
438.895	1155.93
439.271	1143.95
439.646	1188.25
440.021	1178.98
440.395	1168.36
440.77	1194.57
441.145	1207
441.52	1225.31
441.895	1231.63
442.27	1237.06
442.645	1244.29
443.019	1243.61
443.394	1288.36
443.769	1299.43
444.143	1283.61
444.518	1332.87
444.892	1308.02
445.267	1295.59
445.641	1337.62
446.016	1326.1
446.39	1357.28
446.764	1359.09
447.139	1363.16
447.513	1363.61
447.887	1406.32
448.262	1377.39
448.636	1402.25
449.01	1416.26
449.384	1454.68
449.758	1416.26
450.132	1437.5
450.506	1464.85
450.88	1470.05
451.254	1483.83
451.628	1526.32
452.002	1511.63
452.376	1503.72
452.75	1544.39
453.123	1545.52
453.497	1570.16
453.871	1563.38
454.244	1605.64
454.618	1613.09
454.992	1623.04
455.365	1632.75
455.739	1634.56
456.112	1665.52
456.486	1660.1
456.859	1698.97
457.232	1724.05
457.606	1685.18
457.979	1760.21
458.352	1778.74
458.725	1785.74
459.099	1795.91
459.472	1819.64
459.845	1872.3
460.218	1850.6
460.591	1881.79
460.964	1856.48
461.337	1922.01
461.71	1953.2
462.083	1988.9
462.456	1983.93
462.829	1991.61
463.201	2005.17
463.574	2029.13
463.947	2051.05
464.32	2100.54
464.692	2085.85
465.065	2099.86
465.438	2136.92
465.81	2216.02
466.183	2200.2
466.555	2212.63
466.928	2228.22
467.3	2251.95
467.672	2271.15
468.045	2324.03
468.417	2310.25
468.789	2322.68
469.161	2355.9
469.534	2393.41
469.906	2437.7
470.278	2442.22
470.65	2460.3
471.022	2487.42
471.394	2562.9
471.766	2607.19
472.138	2598.38
472.51	2662.78
472.882	2692.84
473.253	2720.63
473.625	2775.55
473.997	2783.46
474.369	2790.24
474.74	2841.08
475.112	2887.41
475.484	2932.83
475.855	2946.39
476.227	2985.49
476.598	3060.51
476.97	3042.43
477.341	3147.97
477.713	3144.13
478.084	3212.15
478.455	3261.64
478.827	3278.36
479.198	3388.19
479.569	3372.37
479.94	3490.33
480.311	3477
480.682	3543.66
481.053	3597.22
481.424	3647.39
481.795	3674.51
482.166	3731
482.537	3749.31
482.908	3844.22
483.279	3850.55
483.65	3927.16
484.021	3990.21
484.391	4034.95
484.762	4034.72
485.133	4085.8
485.503	4126.93
485.874	4197.21
486.244	4229.07
486.615	4322.17
486.985	4328.73
487.356	4421.15
487.726	4423.19
488.097	4497.31
488.467	4511.55
488.837	4617.08
489.207	4613.69
489.578	4709.28
489.948	4729.4
490.318	4787.92
490.688	4806.68
491.058	4876.28
491.428	4915.61
491.798	4963.06
492.168	5033.34
492.538	5085.77
492.908	5143.62
493.278	5218.87
493.648	5196.28
494.017	5251.87
494.387	5260.23
494.757	5291.87
495.126	5328.02
495.496	5340.68
495.866	5407.8
496.235	5465.42
496.605	5476.72
496.974	5513.78
497.344	5544.29
497.713	5561.46
498.082	5599.88
498.452	5631.07
498.821	5615.25
499.19	5637.62
499.559	5747.22
499.928	5727.11
500.298	5739.54
500.667	5802.81
501.036	5776.15
501.405	5871.96
501.774	5786.54
502.143	5864.28
502.512	5894.56
502.88	5914.45
503.249	5956.48
503.618	5969.81
503.987	5978.63
504.356	6059.3
504.724	6027.21
505.093	6017.95
505.462	6048.68
505.83	6057.72
506.199	6073.99
506.567	6181.33
506.936	6175.01
507.304	6246.64
507.672	6255.46
508.041	6211.84
508.409	6273.31
508.777	6297.49
509.145	6348.34
509.514	6324.61
509.882	6353.08
510.25	6360.31
510.618	6385.62
510.986	6419.97
511.354	6454.32
511.722	6492.51
512.09	6506.75
512.458	6569.35
512.826	6598.05
513.193	6527.54
513.561	6544.49
513.929	6585.17
514.297	6651.38
514.664	6654.32
515.032	6613.64
515.4	6675.33
515.767	6727.76
516.135	6704.03
516.502	6634.66
516.869	6753.97
517.237	6726.86
517.604	6704.48
517.972	6752.17
518.339	6822.45
518.706	6742.22
519.073	6829.45
519.44	6846.18
519.808	6836.01
520.175	6864.25
520.542	6878.94
520.909	6882.11
521.276	6871.03
521.643	6965.49
522.009	6991.03
522.376	6933.41
522.743	6970.92
523.11	6971.82
523.477	7018.37
523.843	7033.97
524.21	7104.25
524.577	7146.73
524.943	7158.03
525.31	7175.88
525.676	7138.82
526.043	7164.36
526.409	7213.85
526.776	7261.31
527.142	7276.9
527.508	7278.48
527.874	7203
528.241	7246.17
528.607	7288.88
528.973	7309.44
529.339	7309.44
529.705	7333.62
530.071	7362.77
530.437	7377.69
530.803	7415.65
531.169	7411.36
531.535	7364.58
531.901	7353.51
532.267	7397.57
532.632	7376.33
532.998	7425.82
533.364	7457.46
533.73	7413.62
534.095	7469.89
534.461	7398.48
534.826	7461.3
535.192	7417.91
535.557	7492.03
535.923	7447.29
536.288	7430.57
536.653	7417.46
537.019	7446.16
537.384	7430.57
537.749	7446.84
538.114	7396.67
538.479	7389.44
538.845	7414.52
539.21	7450.68
539.575	7365.94
539.94	7427.18
540.305	7463.79
540.67	7403
541.034	7414.3
541.399	7441.19
541.764	7391.47
542.129	7405.48
542.494	7415.43
542.858	7428.99
543.223	7396.67
543.587	7462.2
543.952	7378.14
544.316	7421.08
544.681	7312.6
545.045	7363.9
545.41	7421.53
545.774	7401.19
546.138	7396.44
546.503	7360.96
546.867	7341.76
547.231	7391.92
547.595	7376.33
547.959	7304.02
548.324	7339.27
548.688	7371.81
549.052	7344.92
549.416	7344.69
549.779	7330.91
550.143	7301.98
550.507	7361.87
550.871	7376.33
551.235	7256.33
551.599	7317.8
551.962	7292.04
552.326	7352.38
552.689	7388.08
553.053	7308.31
553.417	7235.32
553.78	7438.25
554.143	7346.05
554.507	7379.5
554.87	7299.72
555.234	7467.18
555.597	7370.91
555.96	7351.25
556.323	7383.79
556.686	7388.99
557.05	7368.87
557.413	7445.93
557.776	7429.89
558.139	7434.18
558.502	7407.97
558.865	7408.65
559.228	7481.19
559.59	7529.77
559.953	7477.35
560.316	7526.16
560.679	7533.84
561.041	7617.23
561.404	7550.34
561.767	7556.21
562.129	7513.95
562.492	7578.81
562.854	7544.69
563.217	7612.26
563.579	7646.15
563.941	7690.9
564.304	7677.11
564.666	7698.58
565.028	7668.3
565.39	7765.25
565.753	7765.7
566.115	7785.13
566.477	7800.73
566.839	7845.02
567.201	7867.17
567.563	7823.55
567.925	7915.98
568.287	7937.45
568.648	7871.23
569.01	7870.56
569.372	7905.36
569.734	7892.25
570.095	7982.64
570.457	7966.6
570.819	7998.01
571.18	8038.69
571.542	8092.7
571.903	8056.31
572.265	8099.25
572.626	8080.04
572.987	8088.63
573.349	8170.43
573.71	8172.47
574.071	8191
574.432	8251.56
574.794	8258.34
575.155	8289.08
575.516	8192.36
575.877	8312.35
576.238	8266.03
576.599	8373.14
576.96	8346.93
577.32	8365.68
577.681	8350.09
578.042	8386.47
578.403	8400.26
578.763	8353.48
579.124	8413.59
579.485	8442.97
579.845	8469.64
580.206	8448.39
580.566	8463.76
580.927	8474.38
581.287	8493.82
581.648	8502.4
582.008	8513.7
582.368	8570.65
582.728	8593.02
583.089	8564.55
583.449	8540.59
583.809	8613.59
584.169	8597.54
584.529	8583.98
584.889	8637.54
585.249	8565.68
585.609	8530.2
585.969	8668.27
586.329	8655.62
586.688	8688.61
587.048	8597.54
587.408	8629.86
587.768	8646.81
588.127	8680.25
588.487	8666.69
588.846	8737.88
589.206	8637.54
589.565	8704.43
589.925	8761.15
590.284	8714.6
590.643	8703.98
591.003	8773.58
591.362	8795.73
591.721	8766.8
592.08	8820.81
592.44	8795.96
592.799	8799.12
593.158	8787.59
593.517	8784.66
593.876	8795.05
594.235	8865.56
594.593	8781.72
594.952	8863.07
595.311	8793.24
595.67	8854.94
596.029	8946.01
596.387	8869.4
596.746	8965.22
597.104	8863.07
597.463	8887.48
597.822	8945.33
598.18	8916.86
598.538	8871.89
598.897	9016.29
599.255	8834.15
599.613	9009.73
599.972	8976.06
600.33	8927.25
600.688	9017.19
601.046	9016.29
601.404	9010.19
601.762	8996.63
602.12	8990.98
602.478	8989.17
602.836	9029.85
603.194	9013.8
603.552	8967.25
603.91	8950.3
604.268	8986.91
604.625	8960.47
604.983	9019
605.341	9081.15
605.698	9062.61
606.056	9078.43
606.413	9027.14
606.771	9072.11
607.128	9077.98
607.485	9079.79
607.843	9071.2
608.2	9198.66
608.557	9104.42
608.914	9045.44
609.272	9125.21
609.629	9114.82
609.986	9153.91
610.343	9070.98
610.7	9249.95
611.057	9210.63
611.414	9145.1
611.771	9233.91
612.127	9174.02
612.484	9164.76
612.841	9261.48
613.198	9208.83
613.554	9211.76
613.911	9287.47
614.267	9243.18
614.624	9223.06
614.98	9209.05
615.337	9331.76
615.693	9213.12
616.05	9293.12
616.406	9341.25
616.762	9284.98
617.118	9306.45
617.475	9270.07
617.831	9334.25
618.187	9286.34
618.543	9336.51
618.899	9320.91
619.255	9322.49
619.611	9352.1
619.967	9342.83
620.323	9359.78
620.678	9336.51
621.034	9353.68
621.39	9316.17
621.746	9436.16
622.101	9408.37
622.457	9287.24
622.812	9393.68
623.168	9387.58
623.523	9359.56
623.879	9376.73
624.234	9405.2
624.589	9421.02
624.945	9379.67
625.3	9398.65
625.655	9374.02
626.01	9421.7
626.365	9381.25
626.72	9400.91
627.075	9349.16
627.43	9390.97
627.785	9306.45
628.14	9325.88
628.495	9375.6
628.85	9247.92
629.205	9257.19
629.559	9382.38
629.914	9375.37
630.269	9361.36
630.623	9305.32
630.978	9240.24
631.332	9373.12
631.687	9280.24
632.041	9230.29
632.396	9305.77
632.75	9256.28
633.104	9247.24
633.459	9196.85
633.813	9273.68
634.167	9267.58
634.521	9197.98
634.875	9295.6
635.229	9195.27
635.583	9160.24
635.937	9199.79
636.291	9158.43
636.645	9139.22
636.999	9174.7
637.352	9073.46
637.706	9085.67
638.06	9090.41
638.413	9064.65
638.767	9090.18
639.121	9181.48
639.474	9084.08
639.828	9062.61
640.181	9069.85
640.534	9103.29
640.888	9020.36
641.241	9005.22
641.594	8994.59
641.947	9025.1
642.301	8979.68
642.654	9022.16
643.007	8965.89
643.36	9011.32
643.713	8985.78
644.066	8976.52
644.419	8899.68
644.771	8858.1
645.124	8753.92
645.477	8731.55
645.83	8711.21
646.182	8699.46
646.535	8635.96
646.888	8629.41
647.24	8616.98
647.593	8693.36
647.945	8696.52
648.298	8605
648.65	8603.64
649.002	8555.96
649.355	8648.84
649.707	8634.38
650.059	8607.71
650.411	8715.51
650.763	8720.48
651.115	8866.91
651.467	8808.84
651.819	8781.27
652.171	8830.3
652.523	8687.26
652.875	8729.29
653.227	8743.08
653.578	8744.43
653.93	8764.54
654.282	8698.56
654.633	8687.03
654.985	8765
655.337	8746.69
655.688	8718.9
656.039	8754.6
656.391	8710.76
656.742	8690.65
657.094	8697.43
657.445	8720.02
657.796	8791.21
658.147	8722.06
658.498	8738.78
658.849	8767.71
659.2	8683.64
659.551	8717.54
659.902	8763.87
660.253	8720.02
660.604	8773.36
660.955	8764.32
661.306	8797.09
661.656	8780.14
662.007	8760.48
662.358	8757.99
662.708	8727.26
663.059	8755.5
663.409	8717.54
663.76	8794.15
664.11	8756.86
664.461	8773.58
664.811	8733.36
665.161	8763.64
665.511	8722.06
665.862	8765.45
666.212	8750.08
666.562	8695.17
666.912	8735.39
667.262	8749.4
667.612	8683.64
667.962	8717.09
668.312	8641.61
668.662	8760.7
669.011	8780.81
669.361	8713.7
669.711	8671.89
670.06	8737.88
670.41	8712.34
670.76	8675.73
671.109	8708.5
671.459	8657.65
671.808	8663.08
672.157	8687.48
672.507	8641.16
672.856	8597.54
673.205	8682.51
673.554	8658.11
673.904	8666.69
674.253	8627.15
674.602	8616.75
674.951	8537.2
675.3	8486.13
675.649	8630.76
675.998	8547.15
676.346	8623.08
676.695	8611.55
677.044	8574.72
677.393	8539.01
677.741	8549.18
678.09	8544.66
678.438	8520.48
678.787	8563.19
679.135	8509.86
679.484	8464.66
679.832	8462.63
680.181	8473.93
680.529	8462.86
680.877	8401.39
681.225	8415.17
681.573	8489.97
681.922	8445
682.27	8383.54
682.618	8440.48
682.966	8394.61
683.314	8326.81
683.661	8335.4
684.009	8280.26
684.357	8290.88
684.705	8298.79
685.053	8317.32
685.4	8306.93
685.748	8207.27
686.095	8225.57
686.443	8220.15
686.79	8157.33
687.138	8194.62
687.485	8214.05
687.832	8144.9
688.18	8160.94
688.527	8134.05
688.874	8131.11
689.221	8042.53
689.568	8081.62
689.915	8025.35
690.262	7998.91
690.609	8008.86
690.956	7991.23
691.303	7907.16
691.65	7986.03
691.997	7919.37
692.344	7839.6
692.69	7831.91
693.037	7913.04
693.383	7812.25
693.73	7813.38
694.077	7762.76
694.423	7772.93
694.769	7672.59
695.116	7710.56
695.462	7658.58
695.808	7607.96
696.155	7643.9
696.501	7575.42
696.847	7605.93
697.193	7512.83
697.539	7583.33
697.885	7490.9
698.231	7417.46
698.577	7469.21
698.923	7435.09
699.269	7406.39
699.614	7384.92
699.96	7369.78
700.306	7346.05
700.651	7359.61
700.997	7254.53
701.342	7337.01
701.688	7248.2
702.033	7226.28
702.379	7231.93
702.724	7199.39
703.069	7216.79
703.415	7111.03
703.76	7121.2
704.105	7088.43
704.45	7080.07
704.795	7082.1
705.14	7016.79
705.485	7044.81
705.83	7018.83
706.175	7039.84
706.52	6961.2
706.865	6962.56
707.209	6974.31
707.554	6928.21
707.899	6953.97
708.243	6883.69
708.588	6885.5
708.932	6794.2
709.277	6858.15
709.621	6850.47
709.966	6741.55
710.31	6769.79
710.654	6739.06
710.998	6707.2
711.342	6716.46
711.687	6727.31
712.031	6662
712.375	6677.82
712.719	6706.29
713.063	6686.63
713.407	6697.93
713.75	6660.87
714.094	6652.28
714.438	6613.64
714.782	6625.62
715.125	6604.37
715.469	6605.28
715.812	6555.79
716.156	6520.08
716.499	6546.75
716.843	6557.6
717.186	6474.43
717.53	6497.03
717.873	6486.19
718.216	6519.63
718.559	6497.71
718.902	6465.17
719.246	6480.08
719.589	6371.61
719.932	6416.13
720.275	6441.44
720.617	6443.7
720.96	6337.49
721.303	6397.6
721.646	6403.25
721.989	6383.59
722.331	6399.63
722.674	6361.22
723.016	6389.92
723.359	6351.5
723.701	6405.74
724.044	6302.69
724.386	6297.49
724.729	6368
725.071	6315.12
725.413	6318.73
725.755	6368.9
726.097	6257.04
726.439	6281.45
726.782	6290.03
727.124	6316.02
727.465	6296.81
727.807	6212.29
728.149	6294.55
728.491	6247.32
728.833	6277.6
729.175	6210.03
729.516	6236.02
729.858	6205.06
730.199	6196.7
730.541	6244.61
730.882	6161.22
731.224	6218.62
731.565	6202.58
731.906	6229.02
732.248	6201.45
732.589	6208.23
732.93	6143.37
733.271	6131.62
733.612	6211.84
733.953	6190.15
734.294	6188.79
734.635	6191.5
734.976	6195.35
735.317	6130.71
735.658	6195.12
735.999	6112.41
736.339	6168.91
736.68	6166.42
737.021	6220.2
737.361	6215.01
737.702	6224.05
738.042	6165.06
738.383	6236.93
738.723	6188.34
739.063	6107.21
739.404	6209.81
739.744	6231.05
740.084	6182.92
740.424	6204.16
740.764	6245.29
741.104	6211.16
741.444	6139.53
741.784	6200.54
742.124	6249.58
742.464	6184.72
742.804	6209.13
743.143	6226.98
743.483	6217.72
743.823	6268.34
744.162	6218.17
744.502	6311.73
744.841	6298.85
745.181	6330.71
745.52	6318.73
745.86	6315.34
746.199	6358.05
746.538	6389.24
746.877	6432.18
747.216	6462.23
747.556	6500.65
747.895	6492.51
748.234	6500.2
748.573	6531.38
748.911	6537.03
749.25	6561.44
749.589	6575.9
749.928	6632.85
750.267	6718.72
750.605	6721.89
750.944	6753.07
751.283	6749
751.621	6834.2
751.96	6860.19
752.298	6883.46
752.636	6957.81
752.975	7021.76
753.313	7017.24
753.651	7098.15
753.989	7139.5
754.327	7202.1
754.666	7287.07
755.004	7385.6
755.342	7481.87
755.679	7491.13
756.017	7585.59
756.355	7648.64
756.693	7665.82
757.031	7836.66
757.368	7870.33
757.706	7866.71
758.044	7970.67
758.381	8136.09
758.719	8184.9
759.056	8309.87
759.394	8336.31
759.731	8355.51
760.068	8543.98
760.405	8519.58
760.743	8655.85
761.08	8786.69
761.417	8776.75
761.754	8981.71
762.091	9002.5
762.428	9047.93
762.765	9189.62
763.102	9389.61
763.438	9391.87
763.775	9426.9
764.112	9586.67
764.449	9686.1
764.785	9776.04
765.122	9812.65
765.458	9880.45
765.795	9968.81
766.131	10029.82
766.467	10138.97
766.804	10208.35
767.14	10227.56
767.476	10332.19
767.812	10293.54
768.148	10465.29
768.485	10509.81
768.821	10582.57
769.157	10635
769.492	10710.26
769.828	10799.52
770.164	10705.96
770.5	10789.8
770.836	10774.21
771.171	10833.87
771.507	10997.03
771.842	10933.75
772.178	11008.55
772.513	11091.49
772.849	11077.93
773.184	11062.34
773.519	11191.6
773.855	11197.7
774.19	11208.55
774.525	11229.11
774.86	11319.05
775.195	11320.86
775.53	11260.52
775.865	11326.51
776.2	11280.64
776.535	11258.49
776.87	11298.71
777.205	11358.6
777.539	11383.46
777.874	11432.72
778.209	11335.55
778.543	11403.8
778.878	11318.15
779.212	11403.8
779.547	11414.42
779.881	11421.87
780.215	11399.73
780.55	11433.17
780.884	11335.32
781.218	11393.85
781.552	11465.04
781.886	11350.46
782.22	11364.7
782.554	11342.1
782.888	11318.6
783.222	11312.73
783.556	11291.71
783.889	11308.21
784.223	11197.93
784.557	11205.61
784.89	11225.5
785.224	11193.86
785.557	11171.49
785.891	11138.94
786.224	11157.7
786.558	11124.03
786.891	11138.27
787.224	11110.24
787.557	11068.89
787.891	11082.22
788.224	11158.15
788.557	11010.59
788.89	11050.59
789.223	11115.67
789.556	10975.56
789.888	11052.17
790.221	10934.43
790.554	10939.18
790.887	10902.34
791.219	10875.45
791.552	10851.49
791.884	10875.67
792.217	10791.83
792.549	10846.97
792.882	10726.07
793.214	10689.46
793.546	10728.56
793.879	10645.85
794.211	10651.5
794.543	10635
794.875	10610.14
795.207	10649.92
795.539	10661.67
795.871	10617.38
796.203	10536.93
796.535	10480.43
796.867	10563.82
797.198	10435.46
797.53	10457.38
797.862	10426.87
798.193	10434.56
798.525	10386.2
798.856	10383.26
799.188	10270.27
799.519	10246.31
799.85	10204.28
800.182	10226.43
800.513	10195.01
800.844	10145.98
801.175	10184.62
801.506	10165.86
801.837	10121.12
802.168	10065.53
802.499	10118.63
802.83	10034.34
803.161	9996.83
803.491	10097.16
803.822	10001.8
804.153	10030.5
804.483	9923.38
804.814	9881.58
805.145	9855.81
805.475	9819.21
805.805	9811.75
806.136	9823.5
806.466	9810.84
806.796	9833.44
807.126	9777.17
807.457	9657.85
807.787	9797.74
808.117	9680.9
808.447	9591.19
808.777	9703.28
809.107	9707.57
809.436	9613.33
809.766	9644.07
810.096	9522.26
810.426	9548.48
810.755	9540.57
811.085	9461.7
811.414	9523.39
811.744	9423.51
812.073	9442.72
812.403	9405.88
812.732	9351.19
813.061	9415.83
813.39	9295.6
813.719	9316.39
814.049	9348.71
814.378	9348.93
814.707	9288.37
815.036	9294.93
815.365	9242.5
815.693	9157.3
816.022	9188.71
816.351	9182.84
816.68	9140.35
817.008	9145.32
817.337	9063.52
817.665	9047.47
817.994	9100.13
818.322	9027.36
818.651	9029.4
818.979	8951.43
819.307	9049.06
819.636	9069.39
819.964	8977.65
820.292	9046.57
820.62	8969.51
820.948	8922.96
821.276	8963.86
821.604	8969.51
821.932	9008.38
822.259	8988.94
822.587	8916.4
822.915	8889.06
823.243	8948.27
823.57	8940.13
823.898	8944.88
824.225	8926.57
824.553	8903.97
824.88	8897.87
825.207	8955.5
825.535	8932
825.862	8929.74
826.189	8966.8
826.516	8982.16
826.843	8981.04
827.17	8964.54
827.497	8975.61
827.824	8913.47
828.151	8984.88
828.478	8952.79
828.805	8937.42
829.131	8987.59
829.458	8964.76
829.785	8855.39
830.111	8941.49
830.438	9013.35
830.764	8970.19
831.09	8998.66
831.417	8925.67
831.743	8988.94
832.069	8932
832.395	8958.66
832.722	8926.12
833.048	8906.01
833.374	8945.1
833.7	8842.96
834.026	8922.28
834.351	8910.75
834.677	8844.09
835.003	8910.98
835.329	8917.08
835.654	8864.43
835.98	8885.44
836.306	8815.84
836.631	8827.82
836.956	8818.78
837.282	8862.85
837.607	8804.32
837.932	8795.96
838.258	8792.11
838.583	8762.51
838.908	8699.46
839.233	8708.95
839.558	8753.02
839.883	8666.69
840.208	8658.33
840.533	8680.7
840.858	8634.6
841.182	8660.37
841.507	8584.44
841.832	8641.61
842.156	8572.68
842.481	8610.65
842.805	8532.46
843.13	8552.57
843.454	8569.97
843.778	8462.86
844.103	8527.71
844.427	8510.31
844.751	8446.13
845.075	8456.76
845.399	8340.15
845.723	8419.69
846.047	8318
846.371	8270.77
846.695	8308.28
847.019	8283.2
847.343	8170.89
847.666	8233.71
847.99	8128.4
848.313	8106.48
848.637	8111.68
848.96	8067.61
849.284	8065.58
849.607	8047.05
849.931	7984.9
850.254	7941.06
850.577	7873.04
850.9	7842.76
851.223	7844.57
851.546	7779.94
851.869	7767.73
852.192	7840.05
852.515	7718.7
852.838	7659.04
853.161	7667.85
853.483	7654.52
853.806	7614.29
854.129	7647.96
854.451	7546.72
854.774	7571.13
855.096	7452.49
855.419	7479.61
855.741	7449.1
856.063	7433.51
856.385	7430.79
856.708	7367.29
857.03	7355.09
857.352	7369.33
857.674	7339.27
857.996	7286.62
858.318	7301.53
858.64	7302.21
858.961	7273.74
859.283	7194.19
859.605	7237.35
859.926	7246.84
860.248	7217.24
860.57	7144.02
860.891	7216.79
861.212	7181.99
861.534	7118.49
861.855	7076.9
862.176	7137.92
862.498	7115.77
862.819	7078.03
863.14	7075.77
863.461	7062.22
863.782	7005.72
864.103	6994.65
864.424	7023.35
864.745	7051.82
865.065	7010.01
865.386	6927.08
865.707	6960.98
866.027	6924.59
866.348	6956.23
866.668	6926.4
866.989	6942.22
867.309	6885.04
867.63	6859.06
867.95	6970.24
868.27	6853.41
868.59	6807.98
868.91	6850.92
869.23	6819.74
869.55	6798.72
869.87	6818.83
870.19	6831.04
870.51	6842.33
870.83	6856.57
871.15	6813.86
871.469	6815.44
871.789	6803.24
872.109	6760.75
872.428	6768.89
872.748	6794.2
873.067	6702.45
873.386	6807.98
873.706	6743.81
874.025	6675.33
874.344	6671.04
874.663	6645.96
874.982	6667.2
875.301	6662.68
875.62	6644.6
875.939	6654.09
876.258	6653.86
876.577	6634.43
876.896	6598.5
877.214	6564.15
877.533	6580.19
877.852	6562.57
878.17	6550.14
878.489	6567.99
878.807	6533.42
879.125	6502.91
879.444	6536.13
879.762	6498.16
880.08	6532.51
880.398	6478.95
880.716	6475.34
881.034	6447.99
881.352	6441.67
881.67	6431.5
881.988	6422.23
882.306	6371.84
882.624	6436.7
882.941	6339.97
883.259	6301.78
883.577	6307.66
883.894	6365.28
884.212	6313.53
884.529	6280.32
884.846	6313.53
885.164	6248.23
885.481	6278.96
885.798	6282.8
886.115	6210.03
886.432	6261.56
886.75	6236.02
887.067	6204.16
887.383	6142.24
887.7	6216.81
888.017	6150.6
888.334	6201.9
888.651	6152.41
888.967	6077.38
889.284	6096.59
889.6	6104.27
889.917	6019.08
890.233	6065.18
890.55	6055.91
890.866	5983.83
891.182	5955.35
891.498	6006.65
891.815	5930.72
892.131	5961.91
892.447	5958.97
892.763	5939.99
893.079	5872.87
893.395	5829.03
893.71	5837.61
894.026	5808.46
894.342	5770.5
894.657	5826.32
894.973	5794.68
895.289	5770.05
895.604	5785.19
895.92	5782.7
896.235	5737.96
896.55	5722.36
896.865	5712.65
897.181	5642.37
897.496	5668.35
897.811	5699.54
898.126	5637.17
898.441	5592.42
898.756	5589.03
899.071	5558.75
899.386	5579.54
899.7	5551.97
900.015	5499.77
900.33	5494.12
900.644	5491.41
900.959	5435.37
901.273	5485.53
901.588	5421.58
901.902	5399.66
902.216	5362.83
902.531	5357.4
902.845	5323.28
903.159	5288.7
903.473	5270.17
903.787	5257.52
904.101	5266.33
904.415	5286.22
904.729	5213.68
905.042	5226.11
905.356	5180.68
905.67	5206.67
905.984	5130.74
906.297	5128.03
906.611	5081.25
906.924	5099.56
907.237	5095.71
907.551	5094.81
907.864	5061.14
908.177	4999.44
908.491	5021.37
908.804	4961.93
909.117	4989.28
909.43	4900.01
909.743	4904.98
910.056	4915.38
910.368	4875.15
910.681	4879.9
910.994	4860.92
911.307	4817.53
911.619	4791.99
911.932	4819.11
912.244	4744.76
912.557	4759.23
912.869	4720.13
913.181	4699.57
913.494	4714.48
913.806	4660.47
914.118	4657.98
914.43	4664.99
914.742	4623.86
915.054	4631.54
915.366	4606.01
915.678	4589.74
915.99	4585.22
916.302	4489.85
916.613	4544.77
916.925	4490.31
917.236	4465.22
917.548	4443.75
917.859	4474.94
918.171	4408.5
918.482	4430.19
918.794	4392.68
919.105	4381.61
919.416	4354.72
919.727	4371.66
920.038	4363.08
920.349	4322.4
920.66	4333.7
920.971	4305.23
921.282	4250.31
921.593	4251.44
921.903	4240.37
922.214	4267.03
922.525	4239.46
922.835	4203.76
923.146	4176.87
923.456	4157.66
923.767	4162.4
924.077	4154.5
924.387	4144.55
924.697	4065.68
925.008	4102.97
925.318	4029.98
925.628	4054.38
925.938	4004.89
926.248	4012.8
926.558	4002.63
926.867	3965.35
927.177	3953.82
927.487	3892.58
927.796	3909.76
928.106	3881.96
928.416	3875.86
928.725	3895.52
929.034	3837.89
929.344	3844.45
929.653	3868.18
929.962	3770.78
930.271	3782.3
930.581	3791.12
930.89	3733.26
931.199	3739.82
931.508	3759.7
931.817	3734.39
932.125	3721.06
932.434	3700.95
932.743	3652.59
933.051	3689.2
933.36	3630.22
933.669	3601.74
933.977	3589.54
934.286	3594.96
934.594	3596.54
934.902	3573.95
935.21	3566.71
935.519	3536.66
935.827	3537.56
936.135	3492.37
936.443	3534.85
936.751	3459.37
937.059	3504.12
937.367	3467.51
937.674	3460.05
937.982	3433.38
938.29	3426.83
938.597	3439.94
938.905	3365.36
939.213	3374.18
939.52	3366.49
939.827	3373.5
940.135	3359.49
940.442	3335.99
940.749	3351.8
941.056	3301.86
941.363	3281.75
941.67	3281.3
941.977	3270.9
942.284	3228.42
942.591	3231.13
942.898	3242.43
943.205	3235.88
943.511	3221.86
943.818	3205.59
944.125	3199.72
944.431	3161.53
944.738	3152.04
945.044	3158.14
945.35	3150.23
945.657	3102.77
945.963	3062.55
946.269	3080.17
946.575	3027.97
946.881	3037.69
947.187	3082.43
947.493	3044.24
947.799	3059.38
948.105	3035.2
948.41	3012.6
948.716	3017.35
949.022	2981.87
949.327	2947.97
949.633	2945.26
949.938	2973.96
950.244	2911.59
950.549	2939.61
950.854	2877.47
951.16	2912.49
951.465	2855.09
951.77	2883.79
952.075	2868.43
952.38	2817.81
952.685	2847.41
952.99	2815.55
953.294	2836.56
953.599	2814.64
953.904	2773.51
954.209	2755.89
954.513	2802.44
954.818	2782.33
955.122	2763.12
955.426	2713.4
955.731	2700.3
956.035	2711.6
956.339	2680.64
956.643	2718.15
956.948	2663.46
957.252	2670.24
957.556	2637.7
957.86	2643.8
958.163	2618.94
958.467	2638.83
958.771	2601.99
959.075	2611.03
959.378	2587.08
959.682	2595.44
959.985	2590.24
960.289	2556.8
960.592	2554.31
960.896	2545.95
961.199	2511.83
961.502	2527.42
961.805	2507.31
962.108	2489.23
962.411	2519.28
962.714	2431.38
963.017	2474.54
963.32	2499.4
963.623	2468.21
963.926	2433.18
964.228	2412.39
964.531	2406.29
964.833	2442
965.136	2413.98
965.438	2368.33
965.741	2382.34
966.043	2368.33
966.345	2352.51
966.648	2364.03
966.95	2386.63
967.252	2366.75
967.554	2332.85
967.856	2334.43
968.158	2322.23
968.46	2286.07
968.761	2270.93
969.063	2293.98
969.365	2268.67
969.666	2257.6
969.968	2240.2
970.269	2239.07
970.571	2218.73
970.872	2239.07
971.174	2195.45
971.475	2202.91
971.776	2182.57
972.077	2158.84
972.378	2186.86
972.679	2163.81
972.98	2161.1
973.281	2148.22
973.582	2167.2
973.883	2113.42
974.183	2141.21
974.484	2117.49
974.785	2133.76
975.085	2103.02
975.386	2092.63
975.686	2083.14
975.986	2078.62
976.287	2066.87
976.587	2049.47
976.887	2041.1
977.187	2039.07
977.487	2025.74
977.787	2063.7
978.087	2010.14
978.387	2004.27
978.687	1997.94
978.987	2006.3
979.286	1996.81
979.586	1966.3
979.885	1956.59
980.185	1943.48
980.484	1952.07
980.784	1949.36
981.083	1941.45
981.382	1903.03
981.682	1901.9
981.981	1905.74
982.28	1903.03
982.579	1903.03
982.878	1925.18
983.177	1877.49
983.475	1860.09
983.774	1868.91
984.073	1863.93
984.372	1862.35
984.67	1847.44
984.969	1836.36
985.267	1821.45
985.566	1823.71
985.864	1815.57
986.162	1816.25
986.461	1793.65
986.759	1771.06
987.057	1778.51
987.355	1756.14
987.653	1764.5
987.951	1762.69
988.249	1733.09
988.547	1748
988.844	1711.4
989.142	1730.6
989.44	1704.16
989.737	1720.21
990.035	1703.71
990.332	1683.15
990.63	1707.33
990.927	1685.63
991.224	1681.34
991.521	1670.72
991.819	1642.47
992.116	1649.7
992.413	1661.68
992.71	1646.99
993.006	1630.72
993.303	1613.55
993.6	1659.19
993.897	1611.51
994.193	1582.36
994.49	1607.9
994.787	1587.11
995.083	1587.33
995.379	1594.11
995.676	1589.14
995.972	1569.48
996.268	1548.91
996.565	1560.21
996.861	1566.99
997.157	1549.37
997.453	1531.97
997.749	1504.4
998.044	1529.71
998.34	1522.25
998.636	1514.79
998.932	1494.45
999.227	1479.09
999.523	1488.58
999.818	1462.59
1000.114	1490.84
1000.409	1481.12
1000.704	1474.57
1001	1464.4
1001.295	1465.53
1001.59	1443.38
1001.885	1430.95
1002.18	1397.96
1002.475	1435.02
1002.77	1422.59
1003.065	1418.97
1003.359	1406.09
1003.654	1380.1
1003.949	1374.46
1004.243	1361.8
1004.538	1376.26
1004.832	1372.2
1005.127	1353.89
1005.421	1355.25
1005.715	1346.89
1006.009	1340.33
1006.304	1335.13
1006.598	1327.22
1006.892	1317.96
1007.186	1292.2
1007.48	1309.82
1007.773	1300.79
1008.067	1289.71
1008.361	1252.65
1008.655	1241.13
1008.948	1285.42
1009.242	1226.21
1009.535	1260.11
1009.829	1244.06
1010.122	1231.86
1010.415	1217.62
1010.708	1205.65
1011.001	1195.93
1011.295	1186.21
1011.588	1223.05
1011.881	1210.39
1012.173	1192.99
1012.466	1183.05
1012.759	1180.56
1013.052	1195.93
1013.344	1161.13
1013.637	1176.72
1013.93	1157.06
1014.222	1144.63
1014.514	1167.91
1014.807	1138.98
1015.099	1119.77
1015.391	1116.38
1015.683	1119.09
1015.976	1115.71
1016.268	1103.73
1016.56	1108.7
1016.851	1093.11
1017.143	1099.89
1017.435	1085.2
1017.727	1076.61
1018.018	1083.39
1018.31	1055.14
1018.602	1079.1
1018.893	1036.39
1019.185	1050.62
1019.476	1038.19
1019.767	1040.9
1020.058	1036.84
1020.35	1035.26
1020.641	1035.48
1020.932	1037.74
1021.223	1004.07
1021.514	1005.43
1021.804	983.28
1022.095	970.62
1022.386	976.5
1022.677	1007.23
1022.967	974.69
1023.258	931.76
1023.548	951.87
1023.839	943.05
1024.129	965.88
1024.419	945.99
1024.709	963.17
1025	943.73
1025.29	926.33
1025.58	934.92
1025.87	900.8
1026.16	884.75
1026.449	912.55
1026.739	934.24
1027.029	902.83
1027.319	891.08
1027.608	877.07
1027.898	914.81
1028.187	875.94
1028.477	868.48
1028.766	861.25
1029.055	858.99
1029.344	879.33
1029.634	880.23
1029.923	844.75
1030.212	862.6
1030.501	835.26
1030.79	836.39
1031.078	835.71
1031.367	832.32
1031.656	816.28
1031.945	823.51
1032.233	811.08
1032.522	802.04
1032.81	814.47
1033.099	791.19
1033.387	793.45
1033.675	818.09
1033.963	797.75
1034.251	768.82
1034.54	787.8
1034.828	797.97
1035.116	787.8
1035.403	805.88
1035.691	755.04
1035.979	745.55
1036.267	754.81
1036.554	748.71
1036.842	742.16
1037.129	738.54
1037.417	715.49
1037.704	720.46
1037.992	736.28
1038.279	738.31
1038.566	742.38
1038.853	742.38
1039.14	742.38
