Data from hue_90_FLMS001491_26.txt Node
Date: Mon Feb 06 15:24:54 GMT 2017
User: dcchb
Spectrometer: FLMS00149
Trigger mode: 0
Integration Time (sec): 2.000000E-2
Scans to average: 10
Electric dark correction enabled: true
Nonlinearity correction enabled: false
Boxcar width: 0
XAxis mode: Wavelengths
Number of Pixels in Spectrum: 2048
>>>>>Begin Spectral Data<<<<<
341.393	-3.53
341.776	-3.53
342.16	-3.53
342.543	-67.71
342.927	-95.51
343.31	-72
343.693	-70.87
344.077	-74.26
344.46	-63.19
344.843	-33.81
345.226	-30.42
345.61	-28.62
345.993	-38.11
346.376	13.64
346.759	3.02
347.142	38.28
347.525	42.34
347.908	44.38
348.291	73.98
348.674	89.57
349.057	106.07
349.44	122.34
349.823	139.97
350.206	174.77
350.588	189.46
350.971	212.96
351.354	201.21
351.737	252.73
352.119	249.57
352.502	256.8
352.884	261.55
353.267	263.58
353.65	287.53
354.032	282.34
354.414	301.77
354.797	307.2
355.179	311.49
355.562	322.34
355.944	319.85
356.326	328.89
356.709	313.75
357.091	332.05
357.473	342
357.855	334.54
358.238	337.03
358.62	342.22
359.002	345.16
359.384	342
359.766	337.48
360.148	333.64
360.53	326.86
360.912	318.27
361.294	329.79
361.676	327.76
362.057	319.17
362.439	329.12
362.821	337.48
363.203	327.53
363.584	312.62
363.966	316.23
364.348	330.47
364.729	331.6
365.111	309.23
365.493	307.42
365.874	322.79
366.256	315.56
366.637	320.98
367.019	319.85
367.4	294.09
367.781	315.56
368.163	308.1
368.544	315.33
368.925	323.92
369.306	310.36
369.688	326.18
370.069	328.66
370.45	308.33
370.831	314.43
371.212	315.33
371.593	338.83
371.974	311.26
372.355	288.44
372.736	299.06
373.117	297.03
373.498	323.01
373.879	313.3
374.26	298.61
374.641	326.86
375.021	302.45
375.402	328.44
375.783	317.14
376.163	331.83
376.544	330.02
376.925	325.05
377.305	326.18
377.686	323.69
378.066	340.41
378.447	332.51
378.827	318.49
379.208	312.39
379.588	338.38
379.968	340.64
380.349	348.1
380.729	312.62
381.109	321.88
381.489	328.44
381.87	343.8
382.25	355.1
382.63	344.26
383.01	353.3
383.39	348.1
383.77	337.7
384.15	335.67
384.53	344.03
384.91	359.17
385.29	355.56
385.67	357.36
386.049	339.51
386.429	345.84
386.809	344.48
387.189	353.75
387.568	372.96
387.948	368.44
388.328	356.69
388.707	353.07
389.087	344.48
389.466	370.47
389.846	365.95
390.225	393.75
390.605	372.28
390.984	368.89
391.363	380.19
391.743	372.28
392.122	378.61
392.501	373.86
392.881	363.92
393.26	369.11
393.639	377.93
394.018	380.87
394.397	394.42
394.776	365.95
395.155	404.82
395.534	400.75
395.913	377.93
396.292	387.87
396.671	384.93
397.05	398.27
397.429	379.28
397.808	391.26
398.186	394.42
398.565	396.46
398.944	382.9
399.323	429.23
399.701	400.53
400.08	415.89
400.458	410.7
400.837	403.24
401.215	427.87
401.594	417.7
401.972	405.5
402.351	425.16
402.729	404.59
403.107	412.96
403.486	439.85
403.864	410.92
404.242	426.06
404.62	404.82
404.999	429.45
405.377	430.81
405.755	412.28
406.133	446.63
406.511	457.7
406.889	431.71
407.267	454.54
407.645	445.72
408.023	425.38
408.401	441.66
408.779	455.67
409.156	452.95
409.534	431.49
409.912	443.24
410.29	456.12
410.667	465.16
411.045	472.39
411.422	485.27
411.8	450.92
412.178	470.13
412.555	474.65
412.933	483.91
413.31	478.72
413.687	506.06
414.065	524.59
414.442	488.21
414.819	483.46
415.197	527.08
415.574	516.91
415.951	510.13
416.328	514.42
416.705	511.48
417.082	536.12
417.46	532.95
417.837	517.81
418.214	548.09
418.591	532.95
418.967	546.74
419.344	556.23
419.721	528.66
420.098	538.6
420.475	543.35
420.852	551.71
421.228	548.77
421.605	572.27
421.982	557.58
422.358	560.97
422.735	580.86
423.111	551.93
423.488	564.36
423.864	610.01
424.241	593.06
424.617	596.23
424.994	609.79
425.37	617.7
425.746	627.86
426.123	623.8
426.499	619.96
426.875	626.96
427.251	631.03
427.627	620.18
428.003	617.7
428.379	630.12
428.756	643.91
429.132	659.5
429.507	656.56
429.883	654.08
430.259	667.64
430.635	678.03
431.011	674.87
431.387	683.68
431.763	693.17
432.138	698.6
432.514	702.44
432.89	720.29
433.265	708.54
433.641	723
434.016	721.42
434.392	714.19
434.767	732.72
435.143	758.03
435.518	766.17
435.894	730.69
436.269	769.56
436.644	742.21
437.02	774.08
437.395	760.06
437.77	784.47
438.145	793.06
438.52	818.14
438.895	797.13
439.271	810.91
439.646	821.53
440.021	835.09
440.395	821.98
440.77	824.7
441.145	854.3
441.52	826.28
441.895	840.97
442.27	847.75
442.645	861.76
443.019	867.63
443.394	838.93
443.769	880.97
444.143	900.17
444.518	883.9
444.892	904.02
445.267	893.17
445.641	903.11
446.016	906.5
446.39	913.06
446.764	929.1
447.139	918.93
447.513	911.02
447.887	932.26
448.262	942.43
448.636	932.26
449.01	954.18
449.384	953.05
449.758	960.29
450.132	973.17
450.506	981.08
450.88	1008.65
451.254	993.96
451.628	981.98
452.002	1038.02
452.376	1017.91
452.75	1024.92
453.123	1040.96
453.497	1069.21
453.871	1050.68
454.244	1089.1
454.618	1080.28
454.992	1086.84
455.365	1115.31
455.739	1117.12
456.112	1140.85
456.486	1129.09
456.859	1150.79
457.232	1178.58
457.606	1184.01
457.979	1163.44
458.352	1191.47
458.725	1252.48
459.099	1210.45
459.472	1279.6
459.845	1253.84
460.218	1299.94
460.591	1275.53
460.964	1303.55
461.337	1333.16
461.71	1327.28
462.083	1357.79
462.456	1356.21
462.829	1348.98
463.201	1420.16
463.574	1402.53
463.947	1428.07
464.32	1447.96
464.692	1489.99
465.065	1487.73
465.438	1492.7
465.81	1539.25
466.183	1560.27
466.555	1593.04
466.928	1624.22
467.3	1604.56
467.672	1634.39
468.045	1643.88
468.417	1687.27
468.789	1690.44
469.161	1733.82
469.534	1752.58
469.906	1819.47
470.278	1810.21
470.65	1827.83
471.022	1899.7
471.394	1918.68
471.766	1947.38
472.138	2008.62
472.51	2042.29
472.882	2074.38
473.253	2121.61
473.625	2119.35
473.997	2214.72
474.369	2256.97
474.74	2298.78
475.112	2341.72
475.484	2400.93
475.855	2449.06
476.227	2495.16
476.598	2549.17
476.97	2597.98
477.341	2649.96
477.713	2708.49
478.084	2803.4
478.455	2864.64
478.827	2929.05
479.198	3016.73
479.569	3023.73
479.94	3169.49
480.311	3228.47
480.682	3334.01
481.053	3425.08
481.424	3524.06
481.795	3623.72
482.166	3704.62
482.537	3783.71
482.908	3874.79
483.279	3964.73
483.65	4063.48
484.021	4151.61
484.391	4282.68
484.762	4363.81
485.133	4432.74
485.503	4539.4
485.874	4685.39
486.244	4770.81
486.615	4922.44
486.985	5042.66
487.356	5195.43
487.726	5269.1
488.097	5399.72
488.467	5459.15
488.837	5630.9
489.207	5785.92
489.578	5920.83
489.948	6029.76
490.318	6153.82
490.688	6204.44
491.058	6409.18
491.428	6558.33
491.798	6651.21
492.168	6839.9
492.538	6881.03
492.908	7055.49
493.278	7168.26
493.648	7308.37
494.017	7419.32
494.387	7637.85
494.757	7665.65
495.126	7846.43
495.496	7890.72
495.866	7999.87
496.235	8180.21
496.605	8257.27
496.974	8383.37
497.344	8474.66
497.713	8594.89
498.082	8707.43
498.452	8860.42
498.821	8980.41
499.19	8981.32
499.559	9183.12
499.928	9256.11
500.298	9311.48
500.667	9501.76
501.036	9548.08
501.405	9593.73
501.774	9714.86
502.143	9857.9
502.512	9900.39
502.88	9997.79
503.249	9976.32
503.618	10179.48
503.987	10253.15
504.356	10334.95
504.724	10440.04
505.093	10423.99
505.462	10524.33
505.83	10624.44
506.199	10679.13
506.567	10786.02
506.936	10820.14
507.304	11048.83
507.672	11058.78
508.041	11116.63
508.409	11209.51
508.777	11223.29
509.145	11346.23
509.514	11326.11
509.882	11420.12
510.25	11450.86
510.618	11493.34
510.986	11597.07
511.354	11668.93
511.722	11817.4
512.09	11925.19
512.458	11871.64
512.826	11997.28
513.193	12022.82
513.561	12061.69
513.929	12096.04
514.297	12195.7
514.664	12246.09
515.032	12291.29
515.4	12361.34
515.767	12447.89
516.135	12386.65
516.502	12317.73
516.869	12669.58
517.237	12536.7
517.604	12552.52
517.972	12612.86
518.339	12701.9
518.706	12670.03
519.073	12766.98
519.44	12831.16
519.808	12898.73
520.175	12838.62
520.542	12992.51
520.909	13059.18
521.276	12966.07
521.643	13148.89
522.009	13088.33
522.376	13150.7
522.743	13230.02
523.11	13221.43
523.477	13392.95
523.843	13329.68
524.21	13518.83
524.577	13522.22
524.943	13498.71
525.31	13538.26
525.676	13629.78
526.043	13637.01
526.409	13695.77
526.776	13729.44
527.142	13751.59
527.508	13801.76
527.874	13933.28
528.241	13892.83
528.607	13814.86
528.973	13906.16
529.339	13946.38
529.705	13971.69
530.071	14048.3
530.437	14035.2
530.803	14066.38
531.169	13988.19
531.535	14052.14
531.901	14002.65
532.267	14029.09
532.632	14055.76
532.998	14053.05
533.364	14142.09
533.73	14052.6
534.095	14133.95
534.461	14089.88
534.826	14161.29
535.192	14071.35
535.557	14103.89
535.923	14032.26
536.288	14032.03
536.653	14161.52
537.019	14020.96
537.384	14008.08
537.749	14057.12
538.114	13995.87
538.479	13975.08
538.845	13945.25
539.21	13927.4
539.575	14064.12
539.94	13908.87
540.305	13942.99
540.67	13900.28
541.034	13942.09
541.399	13922.88
541.764	13939.15
542.129	13931.02
542.494	13804.69
542.858	13859.83
543.223	13856.22
543.587	13853.28
543.952	13772.6
544.316	13809.44
544.681	13732.38
545.045	13679.73
545.41	13818.48
545.774	13675.21
546.138	13675.43
546.503	13714.98
546.867	13519.5
547.231	13646.51
547.595	13630.01
547.959	13649.67
548.324	13563.34
548.688	13512.72
549.052	13511.82
549.416	13534.42
549.779	13434.76
550.143	13451.71
550.507	13509.56
550.871	13535.32
551.235	13472.05
551.599	13419.17
551.962	13486.28
552.326	13392.95
552.689	13498.71
553.053	13382.11
553.417	13326.74
553.78	13485.15
554.143	13364.93
554.507	13414.87
554.87	13366.74
555.234	13380.98
555.597	13281.09
555.96	13267.08
556.323	13323.58
556.686	13314.31
557.05	13271.15
557.413	13301.43
557.776	13284.03
558.139	13300.53
558.502	13442.44
558.865	13265.05
559.228	13368.32
559.59	13376
559.953	13288.1
560.316	13395.89
560.679	13343.91
561.041	13398.83
561.404	13383.01
561.767	13391.37
562.129	13423.01
562.492	13543.23
562.854	13482.22
563.217	13407.42
563.579	13480.86
563.941	13537.58
564.304	13550.01
564.666	13647.86
565.028	13582.55
565.39	13555.89
565.753	13644.47
566.115	13576.68
566.477	13653.51
566.839	13651.7
567.201	13684.7
567.563	13613.29
567.925	13705.04
568.287	13739.84
568.648	13681.53
569.01	13753.85
569.372	13845.82
569.734	13808.99
570.095	13819.61
570.457	13924.46
570.819	13876.33
571.18	13859.38
571.542	13910.68
571.903	13985.48
572.265	13960.17
572.626	13970.56
572.987	13971.92
573.349	14049.88
573.71	14015.76
574.071	14015.99
574.432	14022.31
574.794	14042.2
575.155	14151.13
575.516	13988.42
575.877	14077.45
576.238	14138.92
576.599	14042.65
576.96	14092.82
577.32	14073.16
577.681	14151.58
578.042	14227.73
578.403	14130.79
578.763	14139.37
579.124	14227.06
579.485	14200.16
579.845	14229.09
580.206	14132.59
580.566	14205.13
580.927	14191.35
581.287	14213.72
581.648	14180.95
582.008	14222.31
582.368	14175.98
582.728	14200.62
583.089	14185.47
583.449	14137.57
583.809	14146.61
584.169	14151.58
584.529	14063.9
584.889	14253.72
585.249	14114.29
585.609	14130.79
585.969	14140.96
586.329	14111.58
586.688	14111.8
587.048	14179.82
587.408	14084.46
587.768	14119.26
588.127	14060.28
588.487	14048.53
588.846	14084.46
589.206	14043.78
589.565	14088.98
589.925	14055.99
590.284	14055.08
590.643	14094.4
591.003	14129.66
591.362	14062.09
591.721	14034.29
592.08	13999.26
592.44	13996.1
592.799	14092.82
593.158	14037.91
593.517	14004.24
593.876	13971.02
594.235	14076.55
594.593	14033.16
594.952	13967.63
595.311	13910.68
595.67	14043.78
596.029	14117
596.387	14159.03
596.746	14105.93
597.104	14000.85
597.463	13942.09
597.822	13997.46
598.18	13885.82
598.538	13982.54
598.897	14031.35
599.255	13905.03
599.613	14076.1
599.972	13973.73
600.33	13931.02
600.688	13952.49
601.046	13909.55
601.404	14049.43
601.762	13925.37
602.12	14013.95
602.478	13930.57
602.836	13941.64
603.194	13870.45
603.552	13993.62
603.91	13943.45
604.268	13964.69
604.625	13936.67
604.983	13964.01
605.341	13894.41
605.698	13999.72
606.056	14125.14
606.413	14116.1
606.771	14084.69
607.128	14040.17
607.485	13951.81
607.843	13986.84
608.2	14020.73
608.557	14093.05
608.914	14050.79
609.272	14076.1
609.629	14064.35
609.986	14126.27
610.343	14025.93
610.7	14128.53
611.057	14180.28
611.414	14154.97
611.771	14085.14
612.127	14149.54
612.484	14131.69
612.841	14239.94
613.198	14162.2
613.554	14160.84
613.911	14277.9
614.267	14243.1
614.624	14263.66
614.98	14259.14
615.337	14291.46
615.693	14324
616.05	14198.13
616.406	14330.33
616.762	14248.52
617.118	14312.25
617.475	14220.95
617.831	14427.28
618.187	14363.55
618.543	14388.41
618.899	14443.77
619.255	14390.89
619.611	14401.97
619.967	14446.26
620.323	14473.6
620.678	14418.91
621.034	14380.27
621.39	14389.08
621.746	14355.41
622.101	14519.03
622.457	14468.63
622.812	14345.7
623.168	14421.85
623.523	14422.08
623.879	14453.94
624.234	14387.05
624.589	14448.07
624.945	14433.38
625.3	14437.67
625.655	14411.68
626.01	14455.52
626.365	14465.92
626.72	14497.1
627.075	14437.9
627.43	14430.89
627.785	14376.88
628.14	14388.86
628.495	14499.36
628.85	14428.18
629.205	14383.89
629.559	14426.6
629.914	14393.38
630.269	14423.66
630.623	14410.78
630.978	14303.44
631.332	14415.52
631.687	14373.27
632.041	14276.32
632.396	14295.08
632.75	14204.68
633.104	14228.41
633.459	14243.55
633.813	14203.1
634.167	14255.76
634.521	14280.84
634.875	14186.38
635.229	14121.52
635.583	14047.62
635.937	14057.79
636.291	14099.83
636.645	14106.15
636.999	14130.33
637.352	14086.95
637.706	14043.56
638.06	14071.13
638.413	14045.37
638.767	14008.3
639.121	13935.99
639.474	13913.84
639.828	13878.59
640.181	13904.13
640.534	13958.59
640.888	13840.17
641.241	13796.78
641.594	13833.17
641.947	13847.18
642.301	13856.67
642.654	13904.35
643.007	13813.96
643.36	13823.45
643.713	13822.32
644.066	13930.57
644.419	13836.33
644.771	13674.98
645.124	13597.69
645.477	13529.9
645.83	13498.49
646.182	13411.71
646.535	13390.47
646.888	13413.07
647.24	13279.28
647.593	13420.75
647.945	13393.86
648.298	13286.52
648.65	13230.47
649.002	13331.94
649.355	13328.32
649.707	13264.59
650.059	13323.35
650.411	13485.61
650.763	13459.39
651.115	13628.88
651.467	13577.35
651.819	13550.91
652.171	13679.95
652.523	13613.29
652.875	13706.17
653.227	13546.4
653.578	13640.18
653.93	13556.56
654.282	13588.65
654.633	13545.04
654.985	13554.98
655.337	13483.12
655.688	13552.04
656.039	13635.88
656.391	13510.69
656.742	13525.15
657.094	13558.82
657.445	13626.62
657.796	13557.24
658.147	13507.07
658.498	13499.84
658.849	13582.1
659.2	13484.02
659.551	13510.46
659.902	13522.44
660.253	13526.73
660.604	13576
660.955	13517.24
661.306	13547.53
661.656	13539.62
662.007	13547.07
662.358	13609.44
662.708	13530.35
663.059	13536.23
663.409	13548.88
663.76	13572.16
664.11	13647.18
664.461	13520.41
664.811	13579.61
665.161	13584.13
665.511	13625.49
665.862	13607.18
666.212	13654.19
666.562	13754.75
666.912	13562.67
667.262	13724.24
667.612	13586.17
667.962	13652.38
668.312	13594.3
668.662	13622.1
669.011	13598.37
669.361	13514.08
669.711	13507.53
670.06	13465.95
670.41	13457.13
670.76	13503.91
671.109	13543.23
671.459	13519.96
671.808	13453.97
672.157	13513.4
672.507	13394.31
672.856	13422.78
673.205	13483.35
673.554	13493.52
673.904	13407.64
674.253	13529.67
674.602	13371.26
674.951	13230.47
675.3	13198.38
675.649	13439.96
675.998	13415.55
676.346	13430.47
676.695	13403.8
677.044	13292.62
677.393	13332.39
677.741	13354.76
678.09	13319.96
678.438	13252.17
678.787	13289.23
679.135	13395.89
679.484	13157.48
679.832	13299.17
680.181	13266.63
680.529	13240.87
680.877	13096.92
681.225	13194.54
681.573	13231.6
681.922	13162.45
682.27	13043.13
682.618	13058.72
682.966	12958.84
683.314	13048.33
683.661	12960.42
684.009	13018.73
684.357	12924.04
684.705	12876.58
685.053	12856.24
685.4	12790.03
685.748	12804.95
686.095	12826.19
686.443	12732.86
686.79	12677.72
687.138	12732.63
687.485	12697.6
687.832	12651.96
688.18	12687.43
688.527	12583.48
688.874	12657.61
689.221	12531.05
689.568	12482.02
689.915	12433.66
690.262	12498.06
690.609	12423.94
690.956	12399.08
691.303	12413.54
691.65	12268.46
691.997	12340.55
692.344	12231.85
692.69	12171.74
693.037	12211.52
693.383	12066.89
693.73	12107.11
694.077	12047
694.423	11996.83
694.769	11997.06
695.116	11854.69
695.462	11909.38
695.808	11853.78
696.155	11859.89
696.501	11727.01
696.847	11691.08
697.193	11637.07
697.539	11728.36
697.885	11585.32
698.231	11545.32
698.577	11516.84
698.923	11495.38
699.269	11449.73
699.614	11349.62
699.96	11352.55
700.306	11380.58
700.651	11348.26
700.997	11251.77
701.342	11216.96
701.688	11217.42
702.033	11186.68
702.379	11152.56
702.724	11052.68
703.069	11126.8
703.415	10967.48
703.76	10972.23
704.105	10991.66
704.45	10975.62
704.795	10857.2
705.14	10877.99
705.485	10843.19
705.83	10777.65
706.175	10843.64
706.52	10782.17
706.865	10650.88
707.209	10674.15
707.554	10681.84
707.899	10683.19
708.243	10567.04
708.588	10576.08
708.932	10455.86
709.277	10470.54
709.621	10502.86
709.966	10452.92
710.31	10396.87
710.654	10329.08
710.998	10424.44
711.342	10382.18
711.687	10336.54
712.031	10280.04
712.375	10151.91
712.719	10222.87
713.063	10244.79
713.407	10249.76
713.75	10155.75
714.094	10149.42
714.438	10113.04
714.782	10141.74
715.125	10122.3
715.469	10134.73
715.812	10031.01
716.156	10072.59
716.499	9945.59
716.843	9981.97
717.186	9957.79
717.53	9936.77
717.873	9947.39
718.216	9911.01
718.559	9948.3
718.902	9866.27
719.246	9871.24
719.589	9829.2
719.932	9800.73
720.275	9747.4
720.617	9805.02
720.96	9803.44
721.303	9791.24
721.646	9772.03
721.989	9722.99
722.331	9755.31
722.674	9740.39
723.016	9775.19
723.359	9765.7
723.701	9726.38
724.044	9641.19
724.386	9575.65
724.729	9625.14
725.071	9583.79
725.413	9653.39
725.755	9667.4
726.097	9618.14
726.439	9553.51
726.782	9527.07
727.124	9587.4
727.465	9606.16
727.807	9563.68
728.149	9592.83
728.491	9549.66
728.833	9601.19
729.175	9551.92
729.516	9455.2
729.858	9462.66
730.199	9541.53
730.541	9536.78
730.882	9534.3
731.224	9511.25
731.565	9459.05
731.906	9423.79
732.248	9472.83
732.589	9422.66
732.93	9440.74
733.271	9472.6
733.612	9487.29
733.953	9495.88
734.294	9393.06
734.635	9426.73
734.976	9494.3
735.317	9343.12
735.658	9353.51
735.999	9417.69
736.339	9380.18
736.68	9497.91
737.021	9422.66
737.361	9458.59
737.702	9404.13
738.042	9482.1
738.383	9460.85
738.723	9531.13
739.063	9405.49
739.404	9476.67
739.744	9428.54
740.084	9417.46
740.424	9446.39
740.764	9384.92
741.104	9510.34
741.444	9447.52
741.784	9423.57
742.124	9532.94
742.464	9492.94
742.804	9539.49
743.143	9526.61
743.483	9596.44
743.823	9628.76
744.162	9590.57
744.502	9662.2
744.841	9565.71
745.181	9635.76
745.52	9663.33
745.86	9751.24
746.199	9739.94
746.538	9774.97
746.877	9866.94
747.216	9850.67
747.556	9848.64
747.895	9908.07
748.234	9895.64
748.573	9982.87
748.911	9971.12
749.25	10098.58
749.589	10064.45
749.928	10150.55
750.267	10261.74
750.605	10275.97
750.944	10231.68
751.283	10357.1
751.621	10406.36
751.96	10545.12
752.298	10635.51
752.636	10696.75
752.975	10732.23
753.313	10848.39
753.651	10995.73
753.989	10951.21
754.327	11095.39
754.666	11073.24
755.004	11312.33
755.342	11433.91
755.679	11408.37
756.017	11512.55
756.355	11728.36
756.693	11709.61
757.031	11968.81
757.368	11995.25
757.706	12122.7
758.044	12233.89
758.381	12351.62
758.719	12485.18
759.056	12577.16
759.394	12769.69
759.731	12830.93
760.068	12982.12
760.405	13020.31
760.743	13226.4
761.08	13422.78
761.417	13463.01
761.754	13611.7
762.091	13861.64
762.428	13855.54
762.765	13987.97
763.102	14103.89
763.438	14296.21
763.775	14350.22
764.112	14418.46
764.449	14662.98
764.785	14762.86
765.122	14864.78
765.458	15017.32
765.795	15128.95
766.131	15261.6
766.467	15384.31
766.804	15492.11
767.14	15612.33
767.476	15737.52
767.812	15862.04
768.148	15948.14
768.485	15989.27
768.821	16041.47
769.157	16222.71
769.492	16333.67
769.828	16420.22
770.164	16377.73
770.5	16499.54
770.836	16638.29
771.171	16636.71
771.507	16708.35
771.842	16711.28
772.178	16892.75
772.513	16985.17
772.849	17009.81
773.184	16992.63
773.519	17081.22
773.855	17178.39
774.19	17179.07
774.525	17269.69
774.86	17339.06
775.195	17339.97
775.53	17368.67
775.865	17416.58
776.2	17279.18
776.535	17359.85
776.87	17440.98
777.205	17458.16
777.539	17454.54
777.874	17524.6
778.209	17418.16
778.543	17460.87
778.878	17512.39
779.212	17566.85
779.547	17486.86
779.881	17615.67
780.215	17563.69
780.55	17677.81
780.884	17609.34
781.218	17601.88
781.552	17586.29
781.886	17545.84
782.22	17490.47
782.554	17460.42
782.888	17371.38
783.222	17427.65
783.556	17433.07
783.889	17381.55
784.223	17300.42
784.557	17297.71
784.89	17466.07
785.224	17303.13
785.557	17330.48
785.891	17309.01
786.224	17237.6
786.558	17318.5
786.891	17208.45
787.224	17186.3
787.557	17069.01
787.891	17090.03
788.224	17171.61
788.557	17207.54
788.89	17064.27
789.223	17093.65
789.556	17105.4
789.888	17076.47
790.221	16905.85
790.554	16869.7
790.887	16824.73
791.219	16839.19
791.552	16834.67
791.884	16770.04
792.217	16805.97
792.549	16753.09
792.882	16633.09
793.214	16568.01
793.546	16736.82
793.879	16448.69
794.211	16452.76
794.543	16613.21
794.875	16406.43
795.207	16516.71
795.539	16450.95
795.871	16371.41
796.203	16179.09
796.535	16215.93
796.867	16194.01
797.198	16165.08
797.53	16221.81
797.862	16099.32
798.193	16123.05
798.525	16092.09
798.856	16077.63
799.188	15890.29
799.519	15885.99
799.85	15832.21
800.182	15896.16
800.513	15823.17
800.844	15784.98
801.175	15721.25
801.506	15768.71
801.837	15640.58
802.168	15590.41
802.499	15604.87
802.83	15530.07
803.161	15442.62
803.491	15491.2
803.822	15463.18
804.153	15336.86
804.483	15328.5
804.814	15338.89
805.145	15275.84
805.475	15349.29
805.805	15276.97
806.136	15210.53
806.466	15188.84
806.796	15082.63
807.126	15045.56
807.457	15028.84
807.787	15061.84
808.117	15005.57
808.447	14955.62
808.777	14881.73
809.107	14872.69
809.436	14838.34
809.766	14856.42
810.096	14903.42
810.426	14747.72
810.755	14718.57
811.085	14732.8
811.414	14731.45
811.744	14608.97
812.073	14521.74
812.403	14492.81
812.732	14461.17
813.061	14483.32
813.39	14325.81
813.719	14381.18
814.049	14479.25
814.378	14350.89
814.707	14296.66
815.036	14276.77
815.365	14255.76
815.693	14134.85
816.022	14221.41
816.351	14135.31
816.68	14055.08
817.008	14122.65
817.337	13973.05
817.665	14017.12
817.994	13964.01
818.322	13990.45
818.651	13912.94
818.979	13863.45
819.307	13967.18
819.636	13891.7
819.964	13799.5
820.292	13900.74
820.62	13839.04
820.948	13762.43
821.276	13926.5
821.604	13758.14
821.932	13849.66
822.259	13859.16
822.587	13852.15
822.915	13827.52
823.243	13825.94
823.57	13765.82
823.898	13807.41
824.225	13816.44
824.553	13831.13
824.88	13761.98
825.207	13762.43
825.535	13740.51
825.862	13783.9
826.189	13746.84
826.516	13837.69
826.843	13807.63
827.17	13745.03
827.497	13845.14
827.824	13844.01
828.151	13782.77
828.478	13699.61
828.805	13815.31
829.131	13755.66
829.458	13726.73
829.785	13709.55
830.111	13771.93
830.438	13781.19
830.764	13838.82
831.09	13773.06
831.417	13766.5
831.743	13806.95
832.069	13818.25
832.395	13671.36
832.722	13795.65
833.048	13748.2
833.374	13779.84
833.7	13631.82
834.026	13704.36
834.351	13649.9
834.677	13679.5
835.003	13714.3
835.329	13637.47
835.654	13665.26
835.98	13570.12
836.306	13606.96
836.631	13630.91
836.956	13524.7
837.282	13551.37
837.607	13519.96
837.932	13498.94
838.258	13506.85
838.583	13541.65
838.908	13367.64
839.233	13398.15
839.558	13418.26
839.883	13405.83
840.208	13303.69
840.533	13300.53
840.858	13283.58
841.182	13346.17
841.507	13327.42
841.832	13163.35
842.156	13132.85
842.481	13159.74
842.805	13139.4
843.13	13191.6
843.454	13151.6
843.778	13039.74
844.103	13030.48
844.427	13005.39
844.751	13063.02
845.075	13023.02
845.399	12908.45
845.723	12844.04
846.047	12957.26
846.371	12752.52
846.695	12791.16
847.019	12650.37
847.343	12621.67
847.666	12500.77
847.99	12497.61
848.313	12504.16
848.637	12455.12
848.96	12418.29
849.284	12287.22
849.607	12298.07
849.931	12245.64
850.254	12139.43
850.577	11989.83
850.9	12026.66
851.223	11967.91
851.546	11918.64
851.869	11868.93
852.192	11934.01
852.515	11788.93
852.838	11834.58
853.161	11745.09
853.483	11771.53
853.806	11702.38
854.129	11656.28
854.451	11584.19
854.774	11532.21
855.096	11489.05
855.419	11451.08
855.741	11447.02
856.063	11426
856.385	11356.17
856.708	11336.51
857.03	11296.96
857.352	11342.16
857.674	11244.08
857.996	11187.81
858.318	11127.7
858.64	11134.93
858.961	11155.5
859.283	11027.14
859.605	11020.81
859.926	11053.35
860.248	10997.76
860.57	11014.26
860.891	10967.25
861.212	10923.41
861.534	10862.85
861.855	10894.94
862.176	10837.31
862.498	10940.59
862.819	10799.12
863.14	10739.92
863.461	10743.31
863.782	10760.71
864.103	10742.18
864.424	10671.44
864.745	10626.47
865.065	10689.75
865.386	10613.82
865.707	10641.84
866.027	10630.99
866.348	10597.55
866.668	10552.8
866.989	10482.07
867.309	10443.2
867.63	10495.85
867.95	10491.79
868.27	10417.66
868.59	10407.95
868.91	10477.1
869.23	10400.49
869.55	10322.07
869.87	10446.82
870.19	10366.59
870.51	10396.87
870.83	10358.23
871.15	10313.03
871.469	10354.16
871.789	10345.12
872.109	10303.09
872.428	10225.13
872.748	10296.31
873.067	10274.16
873.386	10264.67
873.706	10262.41
874.025	10101.74
874.344	10175.41
874.663	10158.46
874.982	10211.12
875.301	10093.15
875.62	10124.34
875.939	10088.18
876.258	10054.06
876.577	10045.47
876.896	10017
877.214	9985.36
877.533	10050.22
877.852	9968.18
878.17	9990.56
878.489	9949.43
878.807	9985.81
879.125	9882.31
879.444	9875.76
879.762	9879.15
880.08	9846.15
880.398	9780.39
880.716	9857.45
881.034	9780.84
881.352	9823.78
881.67	9799.15
881.988	9784.69
882.306	9729.55
882.624	9704.91
882.941	9640.96
883.259	9626.72
883.577	9619.04
883.894	9606.39
884.212	9547.4
884.529	9626.27
884.846	9503.56
885.164	9484.81
885.481	9421.31
885.798	9449.78
886.115	9403.45
886.432	9390.12
886.75	9391.93
887.067	9415.43
887.383	9315.55
887.7	9331.82
888.017	9283.23
888.334	9329.1
888.651	9246.85
888.967	9213.18
889.284	9260.18
889.6	9241.2
889.917	9150.58
890.233	9201.42
890.55	9112.61
890.866	9078.49
891.182	9071.71
891.498	9025.84
891.815	9027.42
892.131	9012.5
892.447	9019.73
892.763	8984.71
893.079	8874.43
893.395	8843.69
893.71	8840.08
894.026	8844.82
894.342	8869.46
894.657	8790.36
894.973	8739.06
895.289	8722.12
895.604	8758.27
895.92	8653.87
896.235	8663.13
896.55	8584.04
896.865	8551.95
897.181	8527.32
897.496	8507.21
897.811	8480.99
898.126	8508.79
898.441	8398.96
898.756	8396.7
899.071	8359.64
899.386	8305.63
899.7	8312.86
900.015	8272.64
900.33	8186.76
900.644	8128.68
900.959	8250.04
901.273	8166.65
901.588	8150.83
901.902	8106.99
902.216	8004.85
902.531	8059.99
902.845	7991.06
903.159	7979.76
903.473	7903.38
903.787	7875.81
904.101	7924.17
904.415	7885.98
904.729	7810.05
905.042	7799.65
905.356	7749.26
905.67	7686.44
905.984	7688.47
906.297	7667
906.611	7617.74
906.924	7603.73
907.237	7548.36
907.551	7528.7
907.864	7469.72
908.177	7465.43
908.491	7486.44
908.804	7403.05
909.117	7415.03
909.43	7331.87
909.743	7326.67
910.056	7304.53
910.368	7273.79
910.681	7216.62
910.994	7184.53
911.307	7191.08
911.619	7136.85
911.932	7169.39
912.244	7053.68
912.557	7078.09
912.869	7037.64
913.181	7064.76
913.494	6976.62
913.806	6958.32
914.118	6947.47
914.43	6855.5
914.742	6841.71
915.054	6827.25
915.366	6791.54
915.678	6766.23
915.99	6740.47
916.302	6680.14
916.613	6693.69
916.925	6677.2
917.236	6656.86
917.548	6615.28
917.859	6657.76
918.171	6573.02
918.482	6547.03
918.794	6506.81
919.105	6521.5
919.416	6414.38
919.727	6431.78
920.038	6389.3
920.349	6407.37
920.66	6434.49
920.971	6305.23
921.282	6346.58
921.593	6287.38
921.903	6253.93
922.214	6222.97
922.525	6194.27
922.835	6227.72
923.146	6206.7
923.456	6130.77
923.767	6136.42
924.077	6057.55
924.387	6086.93
924.697	6005.8
925.008	6064.78
925.318	5941.17
925.628	5939.82
925.938	5961.06
926.248	5879.48
926.558	5894.62
926.867	5857.33
927.177	5841.97
927.487	5837.67
927.796	5801.06
928.106	5778.69
928.416	5756.54
928.725	5703.66
929.034	5683.78
929.344	5704.34
929.653	5634.74
929.962	5608.52
930.271	5655.3
930.581	5555.64
930.89	5563.33
931.199	5552.93
931.508	5516.78
931.817	5502.76
932.125	5447.4
932.434	5468.42
932.743	5405.82
933.051	5421.19
933.36	5393.84
933.669	5364.24
933.977	5330.57
934.286	5337.35
934.594	5338.93
934.902	5262.32
935.21	5259.38
935.519	5267.06
935.827	5190
936.135	5251.25
936.443	5151.81
936.751	5119.72
937.059	5127.86
937.367	5082.89
937.674	5080.18
937.982	5066.84
938.29	5049.44
938.597	5027.3
938.905	5013.96
939.213	4915.66
939.52	4945.72
939.827	4962.21
940.135	4877.7
940.442	4897.13
940.749	4866.17
941.056	4884.93
941.363	4771.48
941.67	4793.18
941.977	4787.98
942.284	4756.57
942.591	4754.76
942.898	4738.94
943.205	4716.8
943.511	4669.11
943.818	4715.89
944.125	4627.53
944.431	4620.3
944.738	4604.71
945.044	4587.08
945.35	4581.21
945.657	4524.26
945.963	4510.25
946.269	4474.77
946.575	4493.3
946.881	4462.79
947.187	4456.24
947.493	4394.32
947.799	4398.61
948.105	4328.56
948.41	4367.65
948.716	4378.5
949.022	4358.39
949.327	4304.6
949.633	4301.67
949.938	4281.55
950.244	4274.55
950.549	4261.22
950.854	4233.87
951.16	4201.1
951.465	4156.81
951.77	4157.49
952.075	4093.76
952.38	4123.82
952.685	4163.14
952.99	4111.84
953.294	4110.03
953.599	4089.02
953.904	4062.8
954.209	4050.6
954.513	4023.03
954.818	3999.3
955.122	3964.27
955.426	4010.6
955.731	3953.43
956.035	3947.78
956.339	3923.15
956.643	3891.51
956.948	3908
957.252	3862.81
957.556	3856.48
957.86	3808.57
958.163	3837.72
958.467	3811.51
958.771	3804.96
959.075	3781.23
959.378	3758.4
959.682	3788.46
959.985	3692.87
960.289	3709.82
960.592	3706.43
960.896	3684.28
961.199	3653.32
961.502	3647.22
961.805	3657.39
962.108	3621.46
962.411	3615.13
962.714	3593.44
963.017	3578.52
963.32	3585.53
963.623	3507.34
963.926	3538.75
964.228	3545.98
964.531	3521.8
964.833	3481.8
965.136	3464.63
965.438	3447.23
965.741	3428.7
966.043	3421.69
966.345	3400.45
966.648	3438.86
966.95	3374.69
967.252	3344.4
967.554	3321.58
967.856	3353.67
968.158	3320.22
968.46	3265.31
968.761	3264.86
969.063	3287.23
969.365	3204.29
969.666	3253.78
969.968	3167.69
970.269	3228.25
970.571	3218.53
970.872	3212.88
971.174	3154.35
971.475	3171.53
971.776	3164.3
972.077	3125.43
972.378	3136.5
972.679	3119.1
972.98	3089.95
973.281	3080.91
973.582	3072.09
973.883	3075.71
974.183	3077.74
974.484	3027.58
974.785	2991.42
975.085	3036.62
975.386	2970.18
975.686	2944.19
975.986	2974.92
976.287	2923.17
976.587	2900.12
976.887	2925.21
977.187	2918.88
977.487	2937.86
977.787	2854.02
978.087	2867.35
978.387	2850.86
978.687	2862.83
978.987	2864.87
979.286	2843.85
979.586	2796.17
979.885	2789.62
980.185	2788.26
980.484	2792.1
980.784	2743.97
981.083	2722.05
981.382	2717.08
981.682	2729.05
981.981	2724.08
982.28	2709.39
982.579	2684.99
982.878	2694.7
983.177	2666.91
983.475	2660.35
983.774	2609.51
984.073	2622.16
984.372	2620.81
984.67	2601.15
984.969	2580.58
985.267	2625.78
985.566	2604.08
985.864	2567.47
986.162	2558.89
986.461	2510.53
986.759	2508.04
987.057	2543.75
987.355	2534.26
987.653	2485.22
987.951	2449.29
988.249	2447.93
988.547	2445.9
988.844	2436.18
989.142	2432.79
989.44	2418.55
989.737	2383.75
990.035	2389.4
990.332	2356.86
990.63	2347.59
990.927	2412
991.224	2402.96
991.521	2327.26
991.819	2370.64
992.116	2343.75
992.413	2300.59
992.71	2306.01
993.006	2298.78
993.303	2288.61
993.6	2284.54
993.897	2285.9
994.193	2253.81
994.49	2248.61
994.787	2254.94
995.083	2248.61
995.379	2230.53
995.676	2208.16
995.972	2175.62
996.268	2154.6
996.565	2189.86
996.861	2146.69
997.157	2169.52
997.453	2136.98
997.749	2140.14
998.044	2105.79
998.34	2122.29
998.636	2107.6
998.932	2088.17
999.227	2085.45
999.523	2074.38
999.818	2021.5
1000.114	2026.02
1000.409	2049.07
1000.704	2039.81
1001	1998.45
1001.295	1971.33
1001.59	1998.9
1001.885	2000.03
1002.18	1977.21
1002.475	1989.41
1002.77	1968.39
1003.065	1930.2
1003.359	1887.49
1003.654	1907.83
1003.949	1887.04
1004.243	1895.85
1004.538	1889.3
1004.832	1885.91
1005.127	1888.4
1005.421	1836.87
1005.715	1845.23
1006.009	1832.58
1006.304	1842.97
1006.598	1809.08
1006.892	1802.52
1007.186	1826.25
1007.48	1780.83
1007.773	1778.57
1008.067	1754.39
1008.361	1757.55
1008.655	1732.47
1008.948	1740.6
1009.242	1738.8
1009.535	1708.51
1009.829	1706.93
1010.122	1695.41
1010.415	1675.75
1010.708	1663.09
1011.001	1674.17
1011.295	1660.83
1011.588	1641.85
1011.881	1629.87
1012.173	1613.6
1012.466	1584.9
1012.759	1613.83
1013.052	1604.11
1013.344	1594.39
1013.637	1585.13
1013.93	1527.95
1014.222	1551.23
1014.514	1565.69
1014.807	1533.38
1015.099	1501.51
1015.391	1517.11
1015.683	1548.29
1015.976	1522.76
1016.268	1488.18
1016.56	1495.19
1016.851	1494.96
1017.143	1470.78
1017.435	1448.63
1017.727	1417
1018.018	1441.4
1018.31	1445.92
1018.602	1431.69
1018.893	1429.65
1019.185	1392.82
1019.476	1416.09
1019.767	1392.59
1020.058	1404.12
1020.35	1325.47
1020.641	1358.02
1020.932	1355.08
1021.223	1343.78
1021.514	1341.97
1021.804	1296.1
1022.095	1314.4
1022.386	1326.15
1022.677	1309.43
1022.967	1282.54
1023.258	1288.41
1023.548	1287.51
1023.839	1247.96
1024.129	1247.74
1024.419	1260.16
1024.709	1228.08
1025	1251.8
1025.29	1235.76
1025.58	1216.55
1025.87	1203.89
1026.16	1190.11
1026.449	1200.51
1026.739	1206.15
1027.029	1208.41
1027.319	1178.13
1027.608	1179.94
1027.898	1177.23
1028.187	1144.24
1028.477	1148.98
1028.766	1113.28
1029.055	1119.83
1029.344	1122.99
1029.634	1107.17
1029.923	1123.45
1030.212	1081.86
1030.501	1111.47
1030.79	1128.42
1031.078	1088.42
1031.367	1069.89
1031.656	1083.45
1031.945	1062.43
1032.233	1044.58
1032.522	1047.74
1032.81	1031.24
1033.099	1050
1033.387	1040.28
1033.675	1009.55
1033.963	1041.41
1034.251	1016.56
1034.54	993.05
1034.828	976.56
1035.116	982.88
1035.403	975.43
1035.691	1008.65
1035.979	996.44
1036.267	967.74
1036.554	944.69
1036.842	948.53
1037.129	954.18
1037.417	944.01
1037.704	938.37
1037.992	920.06
1038.279	925.94
1038.566	911.7
1038.853	911.7
1039.14	911.7
