Data from hue_250_FLMS001491_00096.txt Node
Date: Tue Feb 07 16:01:46 GMT 2017
User: dcchb
Spectrometer: FLMS00149
Trigger mode: 0
Integration Time (sec): 2.000000E-2
Scans to average: 10
Electric dark correction enabled: true
Nonlinearity correction enabled: false
Boxcar width: 0
XAxis mode: Wavelengths
Number of Pixels in Spectrum: 2048
>>>>>Begin Spectral Data<<<<<
341.393	-29.17
341.776	-29.17
342.16	-29.17
342.543	-66.23
342.927	-75.49
343.31	-56.96
343.693	-78.88
344.077	-52.67
344.46	-71.88
344.843	-44.08
345.226	-40.47
345.61	-32.1
345.993	-14.48
346.376	-13.57
346.759	19.65
347.142	27.33
347.525	39.31
347.908	73.43
348.291	58.29
348.674	72.3
349.057	114.79
349.44	116.37
349.823	153.65
350.206	181.45
350.588	187.78
350.971	218.51
351.354	221.67
351.737	233.88
352.119	238.4
352.502	247.21
352.884	273.65
353.267	289.47
353.65	271.39
354.032	298.51
354.414	293.76
354.797	297.83
355.179	323.14
355.562	319.07
355.944	322.92
356.326	316.59
356.709	312.29
357.091	319.75
357.473	348.9
357.855	353.42
358.238	315.68
358.62	333.08
359.002	348.68
359.384	316.36
359.766	316.59
360.148	348.23
360.53	327.89
360.912	305.06
361.294	331.05
361.676	308.9
362.057	330.37
362.439	327.43
362.821	346.19
363.203	307.32
363.584	329.02
363.966	342.35
364.348	293.76
364.729	328.11
365.111	303.03
365.493	307.1
365.874	323.59
366.256	307.55
366.637	280.43
367.019	323.82
367.4	316.36
367.781	310.49
368.163	302.8
368.544	284.95
368.925	297.38
369.306	319.07
369.688	310.71
370.069	330.15
370.45	279.53
370.831	322.46
371.212	310.03
371.593	302.58
371.974	319.98
372.355	316.81
372.736	335.12
373.117	308.45
373.498	312.52
373.879	319.98
374.26	291.73
374.641	295.35
375.021	306.64
375.402	310.03
375.783	316.36
376.163	317.27
376.544	308.23
376.925	328.56
377.305	302.12
377.686	318.85
378.066	309.36
378.447	323.59
378.827	327.21
379.208	319.75
379.588	321.79
379.968	306.19
380.349	324.95
380.729	316.14
381.109	341.45
381.489	294.67
381.87	334.44
382.25	327.21
382.63	333.31
383.01	320.2
383.39	321.79
383.77	334.44
384.15	309.58
384.53	348.45
384.91	317.04
385.29	350.49
385.67	334.89
386.049	356.59
386.429	330.37
386.809	341.22
387.189	323.59
387.568	336.02
387.948	345.06
388.328	329.47
388.707	337.6
389.087	354.78
389.466	364.04
389.846	371.28
390.225	349.36
390.605	367.89
390.984	348.9
391.363	366.53
391.743	353.2
392.122	351.62
392.501	382.35
392.881	362.69
393.26	378.28
393.639	371.05
394.018	386.19
394.397	374.67
394.776	367.89
395.155	360.43
395.534	386.64
395.913	360.2
396.292	364.72
396.671	366.76
397.05	372.86
397.429	380.09
397.808	379.18
398.186	386.42
398.565	382.12
398.944	384.16
399.323	410.37
399.701	393.87
400.08	392.74
400.458	385.74
400.837	403.37
401.215	399.3
401.594	415.57
401.972	405.62
402.351	420.09
402.729	397.49
403.107	394.33
403.486	422.35
403.864	408.56
404.242	396.13
404.62	424.38
404.999	434.55
405.377	425.06
405.755	439.97
406.133	419.86
406.511	445.4
406.889	435.23
407.267	473.87
407.645	465.28
408.023	471.16
408.401	461.67
408.779	437.04
409.156	489.24
409.534	475.91
409.912	516.81
410.29	486.07
410.667	477.49
411.045	501.89
411.422	481.56
411.8	513.64
412.178	497.15
412.555	505.51
412.933	530.59
413.31	540.08
413.687	541.21
414.065	536.92
414.442	548.67
414.819	571.5
415.197	553.64
415.574	556.81
415.951	567.88
416.328	587.09
416.705	595
417.082	569.46
417.46	595.9
417.837	611.95
418.214	599.29
418.591	619.4
418.967	638.61
419.344	623.92
419.721	621.66
420.098	615.79
420.475	649.91
420.852	660.53
421.228	671.61
421.605	662.34
421.982	677.71
422.358	695.79
422.735	706.63
423.111	668.22
423.488	727.42
423.864	736.46
424.241	760.87
424.617	738.27
424.994	761.55
425.37	788.67
425.746	771.94
426.123	761.1
426.499	781.21
426.875	815.56
427.251	803.35
427.627	835.67
428.003	823.24
428.379	832.51
428.756	836.57
429.132	832.73
429.507	885.84
429.883	883.13
430.259	858.04
430.635	892.17
431.011	875.22
431.387	929
431.763	910.92
432.138	949.34
432.514	957.93
432.89	943.92
433.265	1006.06
433.641	993.41
434.016	997.93
434.392	1027.08
434.767	1039.51
435.143	1045.38
435.518	1057.59
435.894	1074.76
436.269	1088.09
436.644	1096
437.02	1127.41
437.395	1137.36
437.77	1146.4
438.145	1183.01
438.52	1177.13
438.895	1207.41
439.271	1190.92
439.646	1248.09
440.021	1238.37
440.395	1240.86
440.77	1244.02
441.145	1259.39
441.52	1285.38
441.895	1315.66
442.27	1315.21
442.645	1329.22
443.019	1323.57
443.394	1318.14
443.769	1379.38
444.143	1321.76
444.518	1369.89
444.892	1387.75
445.267	1388.42
445.641	1418.48
446.016	1413.28
446.39	1438.82
446.764	1459.16
447.139	1451.02
447.513	1452.15
447.887	1465.48
448.262	1457.57
448.636	1447.18
449.01	1498.03
449.384	1521.3
449.758	1521.75
450.132	1543
450.506	1544.8
450.88	1553.62
451.254	1545.26
451.628	1558.81
452.002	1610.11
452.376	1617.8
452.75	1608.53
453.123	1611.24
453.497	1632.94
453.871	1642.43
454.244	1690.34
454.618	1681.3
454.992	1720.84
455.365	1707.96
455.739	1769.43
456.112	1747.06
456.486	1785.7
456.859	1815.76
457.232	1785.48
457.606	1801.29
457.979	1856.89
458.352	1908.64
458.725	1917
459.099	1929.43
459.472	1945.02
459.845	1971.69
460.218	1995.19
460.591	1985.02
460.964	2002.42
461.337	2032.47
461.71	2052.81
462.083	2082.42
462.456	2109.08
462.829	2104.11
463.201	2150.89
463.574	2126.71
463.947	2204
464.32	2204
464.692	2210.78
465.065	2266.59
465.438	2274.5
465.81	2294.16
466.183	2327.38
466.555	2389.98
466.928	2379.81
467.3	2384.1
467.672	2399.47
468.045	2476.08
468.417	2471.33
468.789	2487.15
469.161	2522.18
469.534	2530.54
469.906	2556.98
470.278	2589.07
470.65	2641.27
471.022	2694.6
471.394	2688.73
471.766	2754.94
472.138	2735.06
472.51	2784.55
472.882	2846.24
473.253	2899.8
473.625	2889.63
473.997	2971.21
474.369	3010.53
474.74	3020.47
475.112	3041.26
475.484	3122.62
475.855	3140.92
476.227	3173.91
476.598	3266.57
476.97	3260.24
477.341	3343.4
477.713	3375.04
478.084	3383.85
478.455	3479.44
478.827	3479.89
479.198	3556.95
479.569	3582.26
479.94	3672.21
480.311	3702.94
480.682	3720.79
481.053	3835.59
481.424	3888.25
481.795	3908.13
482.166	3932.54
482.537	4029.94
482.908	4064.96
483.279	4101.8
483.65	4156.94
484.021	4230.38
484.391	4246.2
484.762	4330.27
485.133	4301.57
485.503	4376.59
485.874	4470.15
486.244	4491.62
486.615	4557.38
486.985	4609.81
487.356	4636.93
487.726	4721.22
488.097	4793.08
488.467	4774.78
488.837	4864.49
489.207	4943.58
489.578	5005.28
489.948	5006.86
490.318	5087.31
490.688	5123.02
491.058	5157.59
491.428	5217.02
491.798	5283.24
492.168	5392.61
492.538	5353.07
492.908	5433.06
493.278	5465.6
493.648	5453.85
494.017	5546.51
494.387	5544.25
494.757	5613.17
495.126	5667.41
495.496	5652.27
495.866	5653.17
496.235	5738.14
496.605	5758.7
496.974	5823.79
497.344	5829.66
497.713	5886.61
498.082	5910.56
498.452	5966.16
498.821	5977.68
499.19	6010.22
499.559	6028.08
499.928	6060.39
500.298	6067.4
500.667	6214.74
501.036	6100.62
501.405	6171.58
501.774	6180.84
502.143	6218.81
502.512	6250.89
502.88	6285.47
503.249	6267.39
503.618	6290.22
503.987	6312.14
504.356	6375.86
504.724	6365.02
505.093	6448.18
505.462	6438.69
505.83	6445.69
506.199	6421.29
506.567	6473.26
506.936	6512.81
507.304	6535.86
507.672	6546.48
508.041	6617.89
508.409	6639.81
508.777	6659.47
509.145	6706.48
509.514	6652.92
509.882	6667.16
510.25	6709.87
510.618	6722.07
510.986	6781.73
511.354	6782.63
511.722	6888.17
512.09	6869.18
512.458	6813.14
512.826	6869.41
513.193	6873.7
513.561	6846.59
513.929	6936.75
514.297	6988.73
514.664	6984.21
515.032	7006.81
515.4	7030.76
515.767	7010.65
516.135	6997.77
516.502	7054.94
516.869	7077.99
517.237	7071.66
517.604	7009.29
517.972	7120.02
518.339	7137.88
518.706	7113.7
519.073	7112.57
519.44	7147.59
519.808	7199.34
520.175	7194.82
520.542	7221.04
520.909	7265.33
521.276	7254.26
521.643	7250.19
522.009	7295.39
522.376	7303.75
522.743	7329.51
523.11	7403.86
523.477	7417.42
523.843	7367.02
524.21	7454.48
524.577	7512.56
524.943	7479.79
525.31	7470.98
525.676	7558.43
526.043	7587.36
526.409	7544.65
526.776	7573.35
527.142	7606.57
527.508	7612.44
527.874	7646.34
528.241	7583.74
528.607	7613.35
528.973	7649.73
529.339	7637.3
529.705	7706.9
530.071	7626.9
530.437	7671.65
530.803	7735.83
531.169	7712.55
531.535	7626.45
531.901	7712.55
532.267	7685.43
532.632	7687.02
532.998	7763.85
533.364	7776.05
533.73	7771.98
534.095	7726.56
534.461	7687.24
534.826	7739.67
535.192	7745.32
535.557	7814.24
535.923	7726.79
536.288	7826.67
536.653	7736.96
537.019	7720.91
537.384	7766.11
537.749	7787.13
538.114	7743.96
538.479	7731.53
538.845	7699.44
539.21	7706
539.575	7666.9
539.94	7674.81
540.305	7719.33
540.67	7664.64
541.034	7668.94
541.399	7674.36
541.764	7671.87
542.129	7688.82
542.494	7670.29
542.858	7689.28
543.223	7697.41
543.587	7684.98
543.952	7621.93
544.316	7658.77
544.681	7635.27
545.045	7667.81
545.41	7648.37
545.774	7671.87
546.138	7634.81
546.503	7599.79
546.867	7580.58
547.231	7623.06
547.595	7633.91
547.959	7620.58
548.324	7609.28
548.688	7601.82
549.052	7611.76
549.416	7599.79
549.779	7529.96
550.143	7574.7
550.507	7588.26
550.871	7573.12
551.235	7519.11
551.599	7593.91
551.962	7530.41
552.326	7501.26
552.689	7572.44
553.053	7551.88
553.417	7483.4
553.78	7621.25
554.143	7544.42
554.507	7563.18
554.87	7583.74
555.234	7531.77
555.597	7517.08
555.96	7547.36
556.323	7537.41
556.686	7495.61
557.05	7588.03
557.413	7564.76
557.776	7549.84
558.139	7554.82
558.502	7560.01
558.865	7559.11
559.228	7577.41
559.59	7612.89
559.953	7541.48
560.316	7621.48
560.679	7643.17
561.041	7638.66
561.404	7675.72
561.767	7671.87
562.129	7617.41
562.492	7663.06
562.854	7672.78
563.217	7751.42
563.579	7673.23
563.941	7720.01
564.304	7710.52
564.666	7764.75
565.028	7811.98
565.39	7816.28
565.753	7795.26
566.115	7758.43
566.477	7837.52
566.839	7828.03
567.201	7906.9
567.563	7884.3
567.925	7945.77
568.287	7901.25
568.648	7900.57
569.01	7911.42
569.372	8026.22
569.734	7935.6
570.095	8033.45
570.457	8018.98
570.819	8069.6
571.18	8104.63
571.542	8060.79
571.903	8059.43
572.265	8100.11
572.626	8081.58
572.987	8103.28
573.349	8150.05
573.71	8125.42
574.071	8145.76
574.432	8270.73
574.794	8235.25
575.155	8294.46
575.516	8206.78
575.877	8261.46
576.238	8237.96
576.599	8319.99
576.96	8237.28
577.32	8279.09
577.681	8346.89
578.042	8405.41
578.403	8422.59
578.763	8407.9
579.124	8399.77
579.485	8423.72
579.845	8518.63
580.206	8439.31
580.566	8427.56
580.927	8480.89
581.287	8482.93
581.648	8414.91
582.008	8525.64
582.368	8559.99
582.728	8541.91
583.089	8606.09
583.449	8590.95
583.809	8607.44
584.169	8562.25
584.529	8565.18
584.889	8677.72
585.249	8603.83
585.609	8582.81
585.969	8624.17
586.329	8606.77
586.688	8698.74
587.048	8639.31
587.408	8661.91
587.768	8695.58
588.127	8673.2
588.487	8719.76
588.846	8728.8
589.206	8727.89
589.565	8732.64
589.925	8767.44
590.284	8705.29
590.643	8754.78
591.003	8833.43
591.362	8855.35
591.721	8854.22
592.08	8863.26
592.44	8876.81
592.799	8921.33
593.158	8853.31
593.517	8885.85
593.876	8919.98
594.235	8875.68
594.593	8846.31
594.952	8838.62
595.311	8863.71
595.67	8893.09
596.029	8981.22
596.387	8880.43
596.746	8943.93
597.104	8957.26
597.463	8910.03
597.822	8938.96
598.18	8918.4
598.538	8881.33
598.897	8993.42
599.255	8844.27
599.613	9018.73
599.972	9008.79
600.33	9004.49
600.688	8909.13
601.046	8936.93
601.404	9016.47
601.762	9012.4
602.12	9099.86
602.478	9042.46
602.836	9027.77
603.194	8962.46
603.552	9009.92
603.91	9034.78
604.268	9030.93
604.625	9031.61
604.983	9021.9
605.341	9040.65
605.698	9086.07
606.056	9098.73
606.413	8991.39
606.771	9067.32
607.128	9139.86
607.485	9053.08
607.843	9021.9
608.2	9114.77
608.557	9144.15
608.914	9140.76
609.272	9160.42
609.629	9128.33
609.986	9168.11
610.343	9121.1
610.7	9223.02
611.057	9181.89
611.414	9209.91
611.771	9243.13
612.127	9192.06
612.484	9188.67
612.841	9221.44
613.198	9203.81
613.554	9215.11
613.911	9253.75
614.267	9258.73
614.624	9234.09
614.98	9189.57
615.337	9314.09
615.693	9281.1
616.05	9250.36
616.406	9292.85
616.762	9252.85
617.118	9306.18
617.475	9297.14
617.831	9331.72
618.187	9333.3
618.543	9356.58
618.899	9345.28
619.255	9344.82
619.611	9319.51
619.967	9346.18
620.323	9419.63
620.678	9372.17
621.034	9351.83
621.39	9341.21
621.746	9378.72
622.101	9441.09
622.457	9356.35
622.812	9419.17
623.168	9402.22
623.523	9392.96
623.879	9461.88
624.234	9330.14
624.589	9410.81
624.945	9367.88
625.3	9403.58
625.655	9418.04
626.01	9412.85
626.365	9410.36
626.72	9372.17
627.075	9334.43
627.43	9390.25
627.785	9347.31
628.14	9363.81
628.495	9392.73
628.85	9392.28
629.205	9322.68
629.559	9363.36
629.914	9366.07
630.269	9350.7
630.623	9221.89
630.978	9268.22
631.332	9312.96
631.687	9369.68
632.041	9322.23
632.396	9320.87
632.75	9272.28
633.104	9255.79
633.459	9270.48
633.813	9201.55
634.167	9230.7
634.521	9249.46
634.875	9253.08
635.229	9183.93
635.583	9150.25
635.937	9148.9
636.291	9103.93
636.645	9129.69
636.999	9152.06
637.352	9190.48
637.706	9164.72
638.06	9111.38
638.413	9131.72
638.767	9055.12
639.121	9089.92
639.474	9055.34
639.828	9000.43
640.181	9020.31
640.534	9036.58
640.888	8966.76
641.241	9010.37
641.594	8996.36
641.947	9009.01
642.301	8967.89
642.654	8959.52
643.007	8990.03
643.36	8895.57
643.713	8918.17
644.066	8932.86
644.419	8934.89
644.771	8845.63
645.124	8797.49
645.477	8781.68
645.83	8786.87
646.182	8703.71
646.535	8634.79
646.888	8665.07
647.24	8635.01
647.593	8665.75
647.945	8587.56
648.298	8606.77
648.65	8601.34
649.002	8636.82
649.355	8677.05
649.707	8620.32
650.059	8616.48
650.411	8748.68
650.763	8780.09
651.115	8861.45
651.467	8807.44
651.819	8861.67
652.171	8822.13
652.523	8759.98
652.875	8791.62
653.227	8792.3
653.578	8812.18
653.93	8796.14
654.282	8769.25
654.633	8717.5
654.985	8770.6
655.337	8777.16
655.688	8797.49
656.039	8778.96
656.391	8719.76
656.742	8729.02
657.094	8740.55
657.445	8808.57
657.796	8802.69
658.147	8823.71
658.498	8745.07
658.849	8724.05
659.2	8771.05
659.551	8778.51
659.902	8797.72
660.253	8783.26
660.604	8771.51
660.955	8737.16
661.306	8785.74
661.656	8809.47
662.007	8770.6
662.358	8791.17
662.708	8741.9
663.059	8827.78
663.409	8777.83
663.76	8841.79
664.11	8810.83
664.461	8788
664.811	8837.49
665.161	8806.53
665.511	8713.66
665.862	8790.94
666.212	8841.79
666.562	8867.78
666.912	8748.68
667.262	8777.38
667.612	8693.77
667.962	8794.56
668.312	8778.06
668.662	8836.59
669.011	8745.07
669.361	8796.36
669.711	8746.65
670.06	8741.68
670.41	8745.52
670.76	8745.52
671.109	8761.34
671.459	8709.14
671.808	8673.66
672.157	8729.7
672.507	8706.65
672.856	8699.87
673.205	8630.27
673.554	8744.84
673.904	8670.72
674.253	8737.16
674.602	8683.15
674.951	8575.13
675.3	8465.07
675.649	8661.91
675.998	8594.11
676.346	8639.53
676.695	8584.62
677.044	8577.84
677.393	8604.28
677.741	8593.21
678.09	8645.18
678.438	8556.6
678.787	8521.34
679.135	8534
679.484	8548.24
679.832	8487.22
680.181	8499.2
680.529	8589.36
680.877	8517.05
681.225	8490.61
681.573	8556.6
681.922	8470.27
682.27	8446.32
682.618	8416.94
682.966	8425.3
683.314	8379.65
683.661	8398.64
684.009	8300.56
684.357	8339.43
684.705	8311.41
685.053	8287.45
685.4	8274.8
685.748	8248.58
686.095	8278.64
686.443	8223.27
686.79	8224.63
687.138	8197.28
687.485	8217.17
687.832	8165.42
688.18	8202.48
688.527	8112.54
688.874	8159.09
689.221	8155.7
689.568	8123.16
689.915	8054.69
690.262	8059.66
690.609	7993.9
690.956	7970.85
691.303	8037.74
691.65	7959.32
691.997	7935.37
692.344	7901.02
692.69	7893.79
693.037	7915.48
693.383	7840.46
693.73	7830.74
694.077	7785.77
694.423	7779.44
694.769	7711.2
695.116	7719.1
695.462	7695.83
695.808	7661.25
696.155	7700.12
696.501	7594.14
696.847	7600.24
697.193	7515.27
697.539	7524.53
697.885	7408.6
698.231	7450.41
698.577	7538.77
698.923	7456.51
699.269	7375.16
699.614	7328.61
699.96	7404.54
700.306	7342.84
700.651	7292.22
700.997	7291.77
701.342	7273.47
701.688	7178.78
702.033	7239.34
702.379	7231.43
702.724	7132
703.069	7146.69
703.415	7122.51
703.76	7108.27
704.105	7074.38
704.45	7113.25
704.795	7028.73
705.14	7005.23
705.485	7006.13
705.83	7024.43
706.175	6950.76
706.52	6912.57
706.865	6944.44
707.209	6899.01
707.554	6797.32
707.899	6863.99
708.243	6817.43
708.588	6833.25
708.932	6769.98
709.277	6798.68
709.621	6853.36
709.966	6724.1
710.31	6708.51
710.654	6634.16
710.998	6657.21
711.342	6656.99
711.687	6662.18
712.031	6690.43
712.375	6563.66
712.719	6643.2
713.063	6568.63
713.407	6615.41
713.75	6553.03
714.094	6604.33
714.438	6560.04
714.782	6569.76
715.125	6504.45
715.469	6495.86
715.812	6484.34
716.156	6472.58
716.499	6427.61
716.843	6464.45
717.186	6424.22
717.53	6488.4
717.873	6411.57
718.216	6425.35
718.559	6348.07
718.902	6341.29
719.246	6358.46
719.589	6373.15
719.932	6336.99
720.275	6387.39
720.617	6315.75
720.96	6351.46
721.303	6362.3
721.646	6312.81
721.989	6254.74
722.331	6338.58
722.674	6268.52
723.016	6279.82
723.359	6322.31
723.701	6278.24
724.044	6308.29
724.386	6217
724.729	6261.29
725.071	6214.06
725.413	6217.9
725.755	6209.99
726.097	6222.2
726.439	6181.97
726.782	6176.77
727.124	6176.55
727.465	6234.85
727.807	6212.48
728.149	6130.67
728.491	6167.73
728.833	6202.31
729.175	6172.48
729.516	6167.73
729.858	6170.22
730.199	6157.79
730.541	6191.91
730.882	6131.58
731.224	6117.79
731.565	6111.69
731.906	6089.09
732.248	6163.44
732.589	6148.52
732.93	6076.44
733.271	6143.55
733.612	6146.94
733.953	6105.59
734.294	6134.06
734.635	6107.17
734.976	6142.42
735.317	6130.22
735.658	6058.13
735.999	6099.26
736.339	6132.71
736.68	6071.24
737.021	6137.9
737.361	6096.77
737.702	6118.24
738.042	6130.9
738.383	6128.64
738.723	6148.98
739.063	6133.61
739.404	6170.45
739.744	6167.28
740.084	6115.08
740.424	6116.66
740.764	6187.17
741.104	6192.37
741.444	6204.57
741.784	6192.14
742.124	6193.5
742.464	6176.09
742.804	6167.51
743.143	6169.32
743.483	6261.06
743.823	6200.5
744.162	6206.15
744.502	6220.84
744.841	6224.91
745.181	6289.76
745.52	6288.18
745.86	6328.41
746.199	6336.32
746.538	6375.64
746.877	6399.82
747.216	6466.26
747.556	6412.7
747.895	6525.24
748.234	6521.17
748.573	6511.68
748.911	6578.34
749.25	6650.43
749.589	6663.77
749.928	6725.01
750.267	6762.29
750.605	6717.55
750.944	6846.59
751.283	6863.76
751.621	6929.07
751.96	6918
752.298	7055.39
752.636	7100.14
752.975	7143.98
753.313	7128.61
753.651	7224.43
753.989	7260.81
754.327	7348.72
754.666	7465.55
755.004	7546.68
755.342	7596.62
755.679	7734.02
756.017	7759.56
756.355	7857.41
756.693	7868.48
757.031	8063.95
757.368	8134.46
757.706	8215.36
758.044	8296.04
758.381	8382.36
758.719	8438.63
759.056	8598.86
759.394	8657.61
759.731	8710.49
760.068	8803.82
760.405	8958.17
760.743	9033.65
761.08	9171.5
761.417	9182.57
761.754	9273.19
762.091	9453.75
762.428	9456.91
762.765	9638.6
763.102	9742.78
763.438	9826.85
763.775	9947.52
764.112	10045.82
764.449	10101.87
764.785	10211.47
765.122	10237.46
765.458	10299.38
765.795	10509.09
766.131	10587.96
766.467	10644.45
766.804	10657.56
767.14	10745.01
767.476	10893.71
767.812	10940.49
768.148	10993.82
768.485	11125.57
768.821	11121.05
769.157	11212.12
769.492	11211.44
769.828	11371.66
770.164	11353.36
770.5	11367.37
770.836	11533.69
771.171	11496.63
771.507	11599.68
771.842	11595.61
772.178	11624.76
772.513	11746.34
772.849	11773.91
773.184	11761.94
773.519	11825.66
773.855	11838.77
774.19	11884.87
774.525	11890.29
774.86	11942.72
775.195	12042.38
775.53	12004.64
775.865	11969.61
776.2	12057.97
776.535	11989.95
776.87	12050.06
777.205	11984.76
777.539	12099.55
777.874	12117.41
778.209	12120.35
778.543	12082.61
778.878	12108.82
779.212	12120.57
779.547	12055.26
779.881	12161.93
780.215	12085.54
780.55	12181.36
780.884	12156.95
781.218	12171.87
781.552	12174.81
781.886	12145.43
782.22	12168.93
782.554	12054.36
782.888	11951.99
783.222	12031.31
783.556	12010.07
783.889	12051.65
784.223	11886.9
784.557	11980.46
784.89	12039.9
785.224	11994.47
785.557	11954.7
785.891	11913.34
786.224	11916.28
786.558	11954.47
786.891	11846
787.224	11818.43
787.557	11894.81
787.891	11830.41
788.224	11838.54
788.557	11787.02
788.89	11883.52
789.223	11827.47
789.556	11742.5
789.888	11708.15
790.221	11629.28
790.554	11645.33
790.887	11611.66
791.219	11636.29
791.552	11604.2
791.884	11596.52
792.217	11579.57
792.549	11514.03
792.882	11474.26
793.214	11472.45
793.546	11551.55
793.879	11428.39
794.211	11357.2
794.543	11409.4
794.875	11334.6
795.207	11450.98
795.539	11308.16
795.871	11327.15
796.203	11282.85
796.535	11156.3
796.867	11215.96
797.198	11142.52
797.53	11195.62
797.862	11109.52
798.193	11115.63
798.525	11069.98
798.856	11034.5
799.188	10970.09
799.519	10950.21
799.85	10911.79
800.182	10928.96
800.513	10940.94
800.844	10883.09
801.175	10914.5
801.506	10862.3
801.837	10846.71
802.168	10825.46
802.499	10764
802.83	10672.47
803.161	10752.25
803.491	10748.86
803.822	10681.51
804.153	10658.01
804.483	10587.73
804.814	10585.24
805.145	10596.77
805.475	10555.19
805.805	10474.51
806.136	10470.45
806.466	10538.69
806.796	10483.1
807.126	10383.89
807.457	10352.48
807.787	10362.2
808.117	10350.45
808.447	10287.85
808.777	10385.93
809.107	10267.29
809.436	10278.36
809.766	10274.07
810.096	10201.3
810.426	10184.35
810.755	10227.51
811.085	10239.94
811.414	10143
811.744	10054.86
812.073	10073.62
812.403	10107.74
812.732	10034.3
813.061	10063.68
813.39	9995.2
813.719	9967.18
814.049	10001.3
814.378	9987.07
814.707	9943
815.036	9922.44
815.365	9922.21
815.693	9816.9
816.022	9867.75
816.351	9813.74
816.68	9762.22
817.008	9867.75
817.337	9647.87
817.665	9712.95
817.994	9718.37
818.322	9682.44
818.651	9646.74
818.979	9590.47
819.307	9683.12
819.636	9671.37
819.964	9572.16
820.292	9634.76
820.62	9624.37
820.948	9620.98
821.276	9655.1
821.604	9554.76
821.932	9648.55
822.259	9639.51
822.587	9619.17
822.915	9514.99
823.243	9509.57
823.57	9593.18
823.898	9576.01
824.225	9500.08
824.553	9546.18
824.88	9520.41
825.207	9522.9
825.535	9551.83
825.862	9565.38
826.189	9591.37
826.516	9573.52
826.843	9642.22
827.17	9496.69
827.497	9547.08
827.824	9543.46
828.151	9588.21
828.478	9562.45
828.805	9618.49
829.131	9553.41
829.458	9585.72
829.785	9580.3
830.111	9595.67
830.438	9574.88
830.764	9550.92
831.09	9590.47
831.417	9552.5
831.743	9517.7
832.069	9552.96
832.395	9498.04
832.722	9568.55
833.048	9563.12
833.374	9563.58
833.7	9464.37
834.026	9538.94
834.351	9487.19
834.677	9487.19
835.003	9479.96
835.329	9517.48
835.654	9464.37
835.98	9436.35
836.306	9482.9
836.631	9423.01
836.956	9450.13
837.282	9422.56
837.607	9335.56
837.932	9379.4
838.258	9423.47
838.583	9385.5
838.908	9309.12
839.233	9365.84
839.558	9309.57
839.883	9327.65
840.208	9266.18
840.533	9236.58
840.858	9267.09
841.182	9229.12
841.507	9291.27
841.832	9208.78
842.156	9218.73
842.481	9163.81
842.805	9139.63
843.13	9144.15
843.454	9137.82
843.778	9123.36
844.103	9089.46
844.427	9010.82
844.751	9110.71
845.075	9028.45
845.399	8989.81
845.723	8952.52
846.047	9028
846.371	8939.41
846.695	8848.34
847.019	8809.02
847.343	8780.32
847.666	8746.87
847.99	8739.87
848.313	8676.59
848.637	8636.37
848.96	8636.82
849.284	8595.24
849.607	8526.09
849.931	8504.4
850.254	8434.34
850.577	8386.21
850.9	8377.39
851.223	8358.86
851.546	8312.76
851.869	8231.41
852.192	8381.01
852.515	8227.57
852.838	8219.66
853.161	8312.31
853.483	8181.01
853.806	8134.91
854.129	8109.15
854.451	8121.13
854.774	8050.4
855.096	8075.48
855.419	8003.39
855.741	8035.48
856.063	7978.76
856.385	7941.7
856.708	7923.17
857.03	7888.82
857.352	7924.98
857.674	7812.66
857.996	7856.73
858.318	7814.7
858.64	7812.21
858.961	7786.22
859.283	7796.17
859.605	7748.03
859.926	7693.12
860.248	7731.08
860.57	7710.74
860.891	7671.65
861.212	7625.55
861.534	7637.75
861.855	7587.81
862.176	7626.9
862.498	7631.42
862.819	7609.96
863.14	7525.89
863.461	7503.97
863.782	7431.65
864.103	7499.68
864.424	7501.03
864.745	7553.69
865.065	7495.16
865.386	7458.09
865.707	7431.88
866.027	7439.11
866.348	7452.67
866.668	7416.51
866.989	7352.79
867.309	7384.88
867.63	7373.35
867.95	7404.54
868.27	7335.39
868.59	7354.82
868.91	7378.77
869.23	7284.99
869.55	7302.62
869.87	7265.56
870.19	7302.84
870.51	7262.39
870.83	7233.69
871.15	7214.49
871.469	7216.07
871.789	7273.69
872.109	7204.99
872.428	7148.5
872.748	7237.76
873.067	7233.02
873.386	7185.11
873.706	7131.32
874.025	7137.65
874.344	7100.14
874.663	7144.2
874.982	7106.24
875.301	7153.24
875.62	7136.75
875.939	7100.59
876.258	7078.22
876.577	7028.5
876.896	7023.53
877.214	6993.25
877.533	7026.47
877.852	7028.5
878.17	7016.3
878.489	7019.01
878.807	6968.84
879.125	6927.04
879.444	6973.81
879.762	6901.05
880.08	6974.04
880.398	6901.73
880.716	6907.83
881.034	6932.91
881.352	6882.29
881.67	6870.77
881.988	6847.72
882.306	6839.13
882.624	6803.42
882.941	6788.96
883.259	6778.34
883.577	6776.76
883.894	6760.03
884.212	6719.58
884.529	6798.45
884.846	6692.47
885.164	6659.92
885.481	6670.54
885.798	6721.84
886.115	6602.3
886.432	6633.71
886.75	6585.8
887.067	6587.16
887.383	6606.37
887.7	6577.21
888.017	6578.12
888.334	6567.72
888.651	6503.09
888.967	6497.44
889.284	6508.74
889.6	6444.34
889.917	6435.3
890.233	6448.63
890.55	6405.47
890.866	6450.21
891.182	6366.6
891.498	6344.45
891.815	6334.73
892.131	6301.97
892.447	6328.18
892.763	6255.41
893.079	6291.8
893.395	6280.05
893.71	6287.5
894.026	6201.4
894.342	6233.04
894.657	6185.36
894.973	6187.17
895.289	6182.42
895.604	6130.67
895.92	6104.68
896.235	6037.79
896.55	6038.02
896.865	6030.11
897.181	5999.6
897.496	6037.12
897.811	5992.82
898.126	5974.52
898.441	6003.22
898.756	5955.54
899.071	5940.85
899.386	5875.76
899.7	5858.36
900.015	5834.41
900.33	5789.66
900.644	5806.61
900.959	5777.24
901.273	5722.1
901.588	5773.62
901.902	5745.82
902.216	5726.61
902.531	5690.91
902.845	5699.72
903.159	5619.95
903.473	5600.52
903.787	5604.58
904.101	5578.6
904.415	5531.82
904.729	5545.6
905.042	5530.24
905.356	5519.16
905.67	5487.75
905.984	5513.06
906.297	5469.9
906.611	5416.11
906.924	5397.81
907.237	5421.76
907.551	5383.35
907.864	5396.91
908.177	5306.96
908.491	5337.02
908.804	5318.72
909.117	5259.73
909.43	5266.51
909.743	5247.98
910.056	5192.84
910.368	5194.2
910.681	5177.7
910.994	5179.06
911.307	5155.33
911.619	5138.83
911.932	5087.08
912.244	5056.35
912.557	5054.54
912.869	5007.99
913.181	5000.31
913.494	4998.27
913.806	4956.01
914.118	4912.85
914.43	4850.48
914.742	4884.15
915.054	4840.76
915.366	4864.94
915.678	4844.83
915.99	4842.34
916.302	4775.23
916.613	4767.32
916.925	4777.49
917.236	4756.24
917.548	4779.52
917.859	4747.88
918.171	4674.44
918.482	4657.72
918.794	4652.07
919.105	4657.72
919.416	4590.6
919.727	4593.54
920.038	4617.04
920.349	4526.42
920.66	4514.9
920.971	4521.45
921.282	4537.49
921.593	4501.34
921.903	4515.12
922.214	4490.94
922.525	4502.69
922.835	4421.56
923.146	4382.24
923.456	4411.62
923.767	4399.42
924.077	4363.49
924.387	4342.24
924.697	4331.17
925.008	4293.88
925.318	4334.79
925.628	4275.35
925.938	4311.96
926.248	4294.11
926.558	4221.34
926.867	4221.57
927.177	4224.73
927.487	4198.07
927.796	4133.21
928.106	4174.34
928.416	4168.24
928.725	4116.71
929.034	4118.52
929.344	4121.23
929.653	4099.54
929.962	4021.58
930.271	4022.48
930.581	4061.57
930.89	4000.78
931.199	3984.06
931.508	3968.02
931.817	3961.24
932.125	3972.76
932.434	3922.59
932.743	3932.76
933.051	3891.18
933.36	3905.42
933.669	3832.88
933.977	3828.59
934.286	3850.73
934.594	3832.65
934.902	3763.95
935.21	3767.8
935.519	3766.21
935.827	3738.19
936.135	3711.3
936.443	3692.32
936.751	3690.28
937.059	3692.54
937.367	3654.35
937.674	3689.61
937.982	3649.83
938.29	3604.18
938.597	3646.44
938.905	3587.46
939.213	3569.16
939.52	3587.46
939.827	3575.03
940.135	3512.89
940.442	3570.74
940.749	3529.38
941.056	3538.65
941.363	3477.41
941.67	3485.77
941.977	3433.57
942.284	3436.96
942.591	3441.03
942.898	3440.12
943.205	3430.4
943.511	3357.41
943.818	3377.52
944.125	3322.61
944.431	3329.62
944.738	3315.6
945.044	3295.49
945.35	3300.69
945.657	3276.06
945.963	3296.17
946.269	3254.14
946.575	3247.81
946.881	3222.05
947.187	3201.94
947.493	3217.75
947.799	3203.29
948.105	3194.03
948.41	3149.28
948.716	3167.36
949.022	3126.68
949.327	3109.73
949.633	3112.22
949.938	3130.3
950.244	3124.2
950.549	3080.13
950.854	3076.52
951.16	3023.64
951.465	3047.36
951.77	3071.77
952.075	2994.94
952.38	3008.72
952.685	2992.9
952.99	2973.69
953.294	2977.99
953.599	2945.22
953.904	2959
954.209	2895.73
954.513	2923.75
954.818	2913.81
955.122	2912.9
955.426	2888.95
955.731	2871.55
956.035	2846.01
956.339	2838.56
956.643	2845.33
956.948	2814.15
957.252	2840.36
957.556	2782.06
957.86	2791.78
958.163	2782.74
958.467	2754.26
958.771	2745.22
959.075	2788.16
959.378	2717.65
959.682	2717.88
959.985	2711.55
960.289	2716.75
960.592	2677.88
960.896	2685.34
961.199	2628.62
961.502	2675.85
961.805	2629.3
962.108	2644.66
962.411	2625.91
962.714	2603.99
963.017	2590.2
963.32	2591.33
963.623	2592.91
963.926	2612.57
964.228	2563.31
964.531	2553.14
964.833	2566.7
965.136	2496.19
965.438	2534.38
965.741	2489.19
966.043	2469.3
966.345	2499.81
966.648	2462.29
966.95	2492.8
967.252	2456.42
967.554	2470.66
967.856	2437.66
968.158	2434.72
968.46	2418.23
968.761	2413.48
969.063	2381.39
969.365	2371.67
969.666	2370.55
969.968	2364.22
970.269	2357.89
970.571	2366.93
970.872	2352.69
971.174	2344.56
971.475	2337.1
971.776	2325.35
972.077	2281.96
972.378	2300.04
972.679	2279.25
972.98	2281.51
973.281	2272.02
973.582	2219.36
973.883	2219.36
974.183	2261.62
974.484	2232.47
974.785	2226.14
975.085	2186.82
975.386	2225.46
975.686	2185.92
975.986	2206.26
976.287	2169.65
976.587	2163.77
976.887	2169.87
977.187	2156.54
977.487	2159.03
977.787	2122.87
978.087	2120.38
978.387	2112.47
978.687	2108.41
978.987	2110.44
979.286	2067.05
979.586	2070.21
979.885	2058.91
980.185	2065.47
980.484	2031.12
980.784	2000.16
981.083	2029.09
981.382	2021.85
981.682	2005.36
981.981	2013.04
982.28	1957.67
982.579	1987.96
982.878	2017.11
983.177	1968.52
983.475	1936.66
983.774	1952.25
984.073	1943.89
984.372	1925.13
984.67	1928.3
984.969	1930.1
985.267	1903.44
985.566	1893.5
985.864	1894.17
986.162	1914.51
986.461	1866.83
986.759	1892.82
987.057	1879.71
987.355	1858.24
987.653	1841.29
987.951	1824.12
988.249	1827.73
988.547	1832.71
988.844	1833.38
989.142	1807.4
989.44	1771.46
989.737	1763.33
990.035	1780.73
990.332	1782.99
990.63	1769.88
990.927	1764.46
991.224	1775.98
991.521	1757.68
991.819	1726.27
992.116	1723.1
992.413	1726.95
992.71	1722.88
993.006	1696.89
993.303	1725.82
993.6	1697.34
993.897	1681.07
994.193	1687.85
994.49	1650.34
994.787	1676.33
995.083	1623.67
995.379	1653.28
995.676	1634.52
995.972	1629.77
996.268	1618.7
996.565	1634.97
996.861	1635.2
997.157	1626.61
997.453	1610.11
997.749	1587.74
998.044	1582.09
998.34	1554.75
998.636	1559.49
998.932	1570.79
999.227	1576.44
999.523	1553.17
999.818	1552.49
1000.114	1517.69
1000.409	1527.4
1000.704	1503
1001	1518.36
1001.295	1478.82
1001.59	1498.93
1001.885	1497.8
1002.18	1478.37
1002.475	1461.64
1002.77	1454.86
1003.065	1460.96
1003.359	1450.12
1003.654	1459.83
1003.949	1443.34
1004.243	1460.51
1004.538	1416.9
1004.832	1435.88
1005.127	1398.37
1005.421	1403.11
1005.715	1377.35
1006.009	1371.93
1006.304	1376.22
1006.598	1395.43
1006.892	1377.8
1007.186	1352.72
1007.48	1345.94
1007.773	1327.86
1008.067	1332.61
1008.361	1345.04
1008.655	1321.31
1008.948	1332.38
1009.242	1313.17
1009.535	1306.62
1009.829	1323.34
1010.122	1277.01
1010.415	1261.65
1010.708	1284.25
1011.001	1254.42
1011.295	1255.09
1011.588	1235.21
1011.881	1256
1012.173	1230.69
1012.466	1272.72
1012.759	1217.58
1013.052	1221.42
1013.344	1205.6
1013.637	1198.82
1013.93	1186.85
1014.222	1188.2
1014.514	1203.57
1014.807	1182.1
1015.099	1191.82
1015.391	1186.85
1015.683	1173.29
1015.976	1165.6
1016.268	1132.39
1016.56	1154.98
1016.851	1142.55
1017.143	1124.93
1017.435	1135.1
1017.727	1159.28
1018.018	1129
1018.31	1117.24
1018.602	1097.13
1018.893	1112.05
1019.185	1064.59
1019.476	1081.99
1019.767	1072.95
1020.058	1080.18
1020.35	1069.34
1020.641	1075.21
1020.932	1055.78
1021.223	1027.3
1021.514	1035.66
1021.804	1019.39
1022.095	1021.43
1022.386	1025.27
1022.677	1020.98
1022.967	1021.43
1023.258	999.51
1023.548	999.28
1023.839	1023.01
1024.129	1013.07
1024.419	993.63
1024.709	969
1025	980.75
1025.29	975.78
1025.58	974.88
1025.87	957.7
1026.16	945.05
1026.449	942.33
1026.739	945.72
1027.029	918.61
1027.319	921.77
1027.608	893.3
1027.898	919.28
1028.187	930.13
1028.477	896.91
1028.766	907.76
1029.055	886.29
1029.344	916.35
1029.634	904.59
1029.923	864.37
1030.212	888.1
1030.501	873.86
1030.79	860.53
1031.078	852.39
1031.367	838.38
1031.656	856.01
1031.945	853.97
1032.233	842.22
1032.522	827.76
1032.81	837.25
1033.099	832.05
1033.387	809
1033.675	814.88
1033.963	834.09
1034.251	824.82
1034.54	790.47
1034.828	794.77
1035.116	806.29
1035.403	804.26
1035.691	790.7
1035.979	805.61
1036.267	755.22
1036.554	792.73
1036.842	756.8
1037.129	761.55
1037.417	763.58
1037.704	752.96
1037.992	777.59
1038.279	743.47
1038.566	737.14
1038.853	737.14
1039.14	737.14
