Data from hue_280_FLMS001491_00062.txt Node
Date: Tue Feb 07 15:55:35 GMT 2017
User: dcchb
Spectrometer: FLMS00149
Trigger mode: 0
Integration Time (sec): 2.000000E-2
Scans to average: 10
Electric dark correction enabled: true
Nonlinearity correction enabled: false
Boxcar width: 0
XAxis mode: Wavelengths
Number of Pixels in Spectrum: 2048
>>>>>Begin Spectral Data<<<<<
341.393	-4.28
341.776	-4.28
342.16	-4.28
342.543	-65.97
342.927	-62.36
343.31	-87.22
343.693	-93.99
344.077	-69.36
344.46	-59.65
344.843	-55.8
345.226	-50.38
345.61	-7.67
345.993	-22.58
346.376	18.77
346.759	28.26
347.142	35.72
347.525	42.5
347.908	63.52
348.291	67.81
348.674	76.4
349.057	113.68
349.44	107.58
349.823	151.87
350.206	170.41
350.588	175.6
350.971	224.42
351.354	206.56
351.737	244.75
352.119	247.24
352.502	280.01
352.884	262.15
353.267	280.91
353.65	288.82
354.032	273.91
354.414	305.77
354.797	307.8
355.179	301.25
355.562	307.35
355.944	330.17
356.326	312.32
356.709	334.47
357.091	310.97
357.473	342.15
357.855	330.85
358.238	342.6
358.62	340.12
359.002	310.74
359.384	336.95
359.766	330.85
360.148	335.82
360.53	323.85
360.912	301.25
361.294	321.14
361.676	316.16
362.057	314.81
362.439	340.8
362.821	328.14
363.203	327.24
363.584	296.28
363.966	299.44
364.348	314.81
364.729	318.88
365.111	321.36
365.493	324.3
365.874	320.46
366.256	318.65
366.637	310.06
367.019	302.61
367.4	307.58
367.781	320.23
368.163	316.16
368.544	306.67
368.925	304.64
369.306	303.51
369.688	331.53
370.069	325.43
370.45	304.64
370.831	301.7
371.212	310.29
371.593	294.47
371.974	299.89
372.355	309.84
372.736	305.77
373.117	331.76
373.498	323.4
373.879	291.98
374.26	309.84
374.641	317.75
375.021	288.59
375.402	316.16
375.783	308.03
376.163	341.02
376.544	324.53
376.925	339.89
377.305	333.34
377.686	306.45
378.066	324.98
378.447	320.91
378.827	322.04
379.208	308.25
379.588	318.42
379.968	319.33
380.349	324.07
380.729	326.79
381.109	337.18
381.489	327.01
381.87	329.95
382.25	329.72
382.63	325.2
383.01	340.57
383.39	333.79
383.77	332.66
384.15	360.91
384.53	365.2
384.91	344.19
385.29	331.98
385.67	353.9
386.049	331.3
386.429	340.34
386.809	354.13
387.189	347.8
387.568	344.41
387.948	347.8
388.328	348.48
388.707	350.74
389.087	348.25
389.466	368.14
389.846	369.04
390.225	378.76
390.605	360
390.984	370.17
391.363	392.09
391.743	353.9
392.122	395.26
392.501	362.94
392.881	380.8
393.26	358.65
393.639	384.64
394.018	371.98
394.397	377.63
394.776	374.47
395.155	380.8
395.534	363.17
395.913	386.44
396.292	368.37
396.671	377.18
397.05	391.42
397.429	370.63
397.808	383.51
398.186	391.19
398.565	392.09
398.944	399.1
399.323	399.78
399.701	400.68
400.08	401.59
400.458	419.66
400.837	388.93
401.215	408.36
401.594	405.88
401.972	414.47
402.351	413.34
402.729	411.3
403.107	402.49
403.486	428.7
403.864	419.44
404.242	408.82
404.62	434.58
404.999	443.84
405.377	434.35
405.755	436.61
406.133	443.39
406.511	449.49
406.889	448.59
407.267	447.69
407.645	458.76
408.023	469.61
408.401	437.29
408.779	473.67
409.156	449.27
409.534	485.88
409.912	506.89
410.29	484.75
410.667	490.4
411.045	511.64
411.422	520.9
411.8	510.74
412.178	517.06
412.555	531.98
412.933	501.7
413.31	547.8
413.687	519.1
414.065	543.05
414.442	564.52
414.819	585.08
415.197	575.14
415.574	592.31
415.951	568.81
416.328	598.64
416.705	585.31
417.082	610.17
417.46	617.4
417.837	617.17
418.214	600.9
418.591	609.04
418.967	615.59
419.344	626.66
419.721	658.08
420.098	656.72
420.475	674.35
420.852	642.94
421.228	694.69
421.605	685.65
421.982	707.57
422.358	695.36
422.735	704.18
423.111	725.87
423.488	736.27
423.864	731.97
424.241	766.1
424.617	762.03
424.994	750.95
425.37	750.5
425.746	769.94
426.123	807
426.499	784.4
426.875	797.06
427.251	814.23
427.627	843.83
428.003	838.18
428.379	872.31
428.756	849.94
429.132	837.73
429.507	876.83
429.883	860.1
430.259	886.32
430.635	899.2
431.011	932.42
431.387	921.8
431.763	924.06
432.138	959.76
432.514	945.98
432.89	972.19
433.265	1014.22
433.641	988.24
434.016	1019.87
434.392	1032.3
434.767	1057.61
435.143	1030.5
435.518	1064.39
435.894	1074.56
436.269	1068.91
436.644	1086.31
437.02	1111.17
437.395	1130.83
437.77	1124.05
438.145	1142.36
438.52	1153.2
438.895	1158.18
439.271	1185.97
439.646	1213.77
440.021	1221.22
440.395	1213.77
440.77	1220.55
441.145	1237.27
441.52	1242.69
441.895	1272.98
442.27	1277.49
442.645	1239.3
443.019	1253.99
443.394	1282.92
443.769	1302.58
444.143	1283.37
444.518	1319.3
444.892	1313.2
445.267	1336.93
445.641	1340.54
446.016	1345.29
446.39	1341
446.764	1335.35
447.139	1319.98
447.513	1367.89
447.887	1347.78
448.262	1375.12
448.636	1388.23
449.01	1399.3
449.384	1379.19
449.758	1416.47
450.132	1417.83
450.506	1392.97
450.88	1412.18
451.254	1412.41
451.628	1447.66
452.002	1462.12
452.376	1425.51
452.75	1466.42
453.123	1448.79
453.497	1510.26
453.871	1496.02
454.244	1520.43
454.618	1549.8
454.992	1555
455.365	1535.34
455.739	1568.11
456.112	1617.82
456.486	1599.52
456.859	1587.32
457.232	1615.79
457.606	1643.81
457.979	1644.94
458.352	1679.52
458.725	1682
459.099	1680.65
459.472	1688.56
459.845	1752.74
460.218	1749.35
460.591	1750.93
460.964	1751.61
461.337	1780.98
461.71	1785.5
462.083	1830.25
462.456	1816.24
462.829	1837.03
463.201	1840.64
463.574	1815.56
463.947	1892.17
464.32	1901.89
464.692	1922.68
465.065	1924.71
465.438	1931.04
465.81	1955.67
466.183	1970.36
466.555	2008.55
466.928	2053.97
467.3	2038.83
467.672	2004.93
468.045	2082.45
468.417	2084.93
468.789	2093.52
469.161	2118.6
469.534	2127.87
469.906	2170.13
470.278	2175.32
470.65	2187.08
471.022	2241.31
471.394	2281.08
471.766	2274.98
472.138	2314.53
472.51	2345.49
472.882	2326.73
473.253	2406.28
473.625	2365.38
473.997	2443.79
474.369	2435.66
474.74	2422.78
475.112	2510.91
475.484	2520.85
475.855	2556.78
476.227	2540.96
476.598	2647.18
476.97	2648.53
477.341	2657.57
477.713	2699.15
478.084	2665.03
478.455	2780.28
478.827	2805.36
479.198	2825.48
479.569	2833.84
479.94	2878.36
480.311	2901.63
480.682	2951.57
481.053	3028.41
481.424	3047.17
481.795	3094.62
482.166	3109.54
482.537	3131.23
482.908	3154.73
483.279	3215.97
483.65	3253.04
484.021	3281.51
484.391	3301.85
484.762	3299.14
485.133	3352.24
485.503	3368.97
485.874	3459.81
486.244	3445.12
486.615	3546.81
486.985	3541.16
487.356	3608.05
487.726	3580.71
488.097	3654.38
488.467	3696.41
488.837	3732.12
489.207	3798.33
489.578	3787.03
489.948	3793.13
490.318	3858.67
490.688	3876.52
491.058	3952.45
491.428	3963.53
491.798	3977.54
492.168	4004.2
492.538	4041.04
492.908	4092.11
493.278	4079.68
493.648	4128.49
494.017	4149.28
494.387	4194.48
494.757	4212.11
495.126	4253.91
495.496	4254.14
495.866	4273.35
496.235	4331.43
496.605	4365.78
496.974	4359.22
497.344	4374.81
497.713	4413.23
498.082	4409.84
498.452	4447.13
498.821	4433.8
499.19	4443.97
499.559	4507.92
499.928	4474.25
500.298	4490.07
500.667	4563.28
501.036	4547.01
501.405	4559.89
501.774	4564.64
502.143	4603.96
502.512	4654.81
502.88	4655.26
503.249	4656.84
503.618	4677.86
503.987	4659.55
504.356	4721.47
504.724	4709.49
505.093	4761.47
505.462	4738.87
505.83	4764.18
506.199	4804.86
506.567	4780
506.936	4824.97
507.304	4873.78
507.672	4895.48
508.041	4891.86
508.409	4911.98
508.777	4949.71
509.145	5007.34
509.514	4936.16
509.882	4964.4
510.25	4984.74
510.618	5012.31
510.986	4969.6
511.354	5032.2
511.722	4976.15
512.09	5051.86
512.458	5048.02
512.826	5068.81
513.193	5130.05
513.561	5103.38
513.929	5109.03
514.297	5151.07
514.664	5160.1
515.032	5195.58
515.4	5196.94
515.767	5256.15
516.135	5231.97
516.502	5191.97
516.869	5250.95
517.237	5221.35
517.604	5194.68
517.972	5228.58
518.339	5289.82
518.706	5254.79
519.073	5299.08
519.44	5316.48
519.808	5355.35
520.175	5353.09
520.542	5389.7
520.909	5422.24
521.276	5368.46
521.643	5430.61
522.009	5470.6
522.376	5446.42
522.743	5455.92
523.11	5464.05
523.477	5528.68
523.843	5520.09
524.21	5610.94
524.577	5625.18
524.943	5619.08
525.31	5612.75
525.676	5722.8
526.043	5644.84
526.409	5675.12
526.776	5720.99
527.142	5747.66
527.508	5768.9
527.874	5796.7
528.241	5798.96
528.607	5814.55
528.973	5812.29
529.339	5884.61
529.705	5885.28
530.071	5948.78
530.437	5946.3
530.803	5925.28
531.169	5915.56
531.535	5919.86
531.901	5932.06
532.267	5998.5
532.632	6039.4
532.998	6025.17
533.364	6056.35
533.73	6001.21
534.095	6108.78
534.461	6067.2
534.826	6125.95
535.192	6079.63
535.557	6109.46
535.923	6145.62
536.288	6143.81
536.653	6193.75
537.019	6108.55
537.384	6189
537.749	6147.88
538.114	6213.64
538.479	6240.53
538.845	6224.26
539.21	6219.29
539.575	6212.96
539.94	6263.35
540.305	6260.87
540.67	6294.76
541.034	6315.78
541.399	6321.66
541.764	6311.49
542.129	6359.62
542.494	6357.81
542.858	6400.3
543.223	6401.43
543.587	6487.3
543.952	6408.21
544.316	6448.66
544.681	6392.39
545.045	6397.59
545.41	6455.44
545.774	6412.73
546.138	6467.87
546.503	6474.42
546.867	6470.8
547.231	6550.58
547.595	6494.76
547.959	6581.76
548.324	6566.62
548.688	6530.01
549.052	6614.08
549.416	6588.99
549.779	6494.31
550.143	6560.75
550.507	6638.03
550.871	6579.95
551.235	6609.33
551.599	6676.22
551.962	6631.48
552.326	6618.37
552.689	6672.83
553.053	6597.58
553.417	6656.56
553.78	6718.03
554.143	6690.23
554.507	6761.42
554.87	6739.5
555.234	6774.98
555.597	6752.38
555.96	6834.41
556.323	6869.21
556.686	6805.26
557.05	6838.93
557.413	6852.49
557.776	6847.29
558.139	6836.9
558.502	6894.52
558.865	6892.26
559.228	6894.07
559.59	6924.35
559.953	6982.43
560.316	6986.05
560.679	6997.12
561.041	7017.23
561.404	7038.25
561.767	7108.53
562.129	7028.98
562.492	7126.15
562.854	7120.05
563.217	7156.66
563.579	7149.2
563.941	7158.7
564.304	7190.11
564.666	7253.16
565.028	7253.61
565.39	7297
565.753	7311.91
566.115	7327.51
566.477	7360.72
566.839	7431.01
567.201	7354.17
567.563	7443.43
567.925	7501.51
568.287	7398.46
568.648	7495.86
569.01	7453.38
569.372	7567.5
569.734	7530.89
570.095	7608.4
570.457	7640.27
570.819	7681.39
571.18	7587.84
571.542	7695.63
571.903	7734.73
572.265	7728.62
572.626	7806.36
572.987	7777.89
573.349	7900.15
573.71	7888.62
574.071	7920.94
574.432	7881.84
574.794	7921.84
575.155	7950.99
575.516	7943.76
575.877	8027.83
576.238	8064.43
576.599	8105.56
576.96	8106.69
577.32	8127.71
577.681	8184.88
578.042	8190.08
578.403	8226.69
578.763	8282.28
579.124	8348.5
579.485	8405.89
579.845	8420.58
580.206	8437.08
580.566	8506.01
580.927	8484.54
581.287	8594.36
581.648	8553.46
582.008	8681.14
582.368	8695.15
582.728	8759.78
583.089	8684.31
583.449	8800.69
583.809	8894.47
584.169	8916.39
584.529	8979.21
584.889	9051.3
585.249	9065.09
585.609	9125.42
585.969	9348.69
586.329	9255.36
586.688	9356.38
587.048	9404.74
587.408	9414.68
587.768	9449.71
588.127	9533.32
588.487	9524.96
588.846	9714.33
589.206	9682.92
589.565	9851.05
589.925	9826.65
590.284	9911.62
590.643	10017.15
591.003	9988
591.362	10111.61
591.721	10137.6
592.08	10273.87
592.44	10322
592.799	10395.67
593.158	10412.4
593.517	10494.88
593.876	10540.3
594.235	10583.24
594.593	10629.34
594.952	10690.81
595.311	10681.54
595.67	10868.65
596.029	10967.18
596.387	10952.04
596.746	11066.62
597.104	11051.47
597.463	11127.63
597.822	11201.3
598.18	11258.48
598.538	11270.9
598.897	11338.47
599.255	11368.53
599.613	11552.48
599.972	11527.62
600.33	11551.12
600.688	11610.1
601.046	11760.38
601.404	11754.96
601.762	11768.74
602.12	11827.05
602.478	11948.4
602.836	12027.27
603.194	11933.49
603.552	12031.11
603.91	12031.56
604.268	12084.44
604.625	12111.33
604.983	12216.87
605.341	12200.15
605.698	12272.23
606.056	12377.09
606.413	12282.18
606.771	12379.58
607.128	12335.73
607.485	12432.23
607.843	12412.57
608.2	12562.4
608.557	12610.53
608.914	12533.47
609.272	12599.46
609.629	12659.12
609.986	12691.43
610.343	12721.94
610.7	12806.46
611.057	12872.67
611.414	12796.06
611.771	12836.96
612.127	12932.56
612.484	12831.54
612.841	12951.09
613.198	12922.16
613.554	12967.81
613.911	13036.73
614.267	13015.49
614.624	12996.06
614.98	13048.94
615.337	13173.45
615.693	13193.79
616.05	13148.82
616.406	13216.16
616.762	13159.67
617.118	13260.68
617.475	13249.16
617.831	13342.26
618.187	13312.21
618.543	13301.36
618.899	13470.39
619.255	13436.5
619.611	13383.84
619.967	13438.53
620.323	13523.95
620.678	13461.58
621.034	13408.48
621.39	13445.76
621.746	13476.04
622.101	13613.44
622.457	13501.35
622.812	13517.85
623.168	13553.78
623.523	13616.15
623.879	13675.13
624.234	13595.36
624.589	13607.57
624.945	13584.06
625.3	13730.73
625.655	13641.24
626.01	13679.2
626.365	13645.98
626.72	13648.24
627.075	13628.58
627.43	13665.87
627.785	13602.14
628.14	13647.34
628.495	13730.27
628.85	13597.17
629.205	13636.72
629.559	13719.88
629.914	13638.75
630.269	13661.12
630.623	13579.54
630.978	13652.99
631.332	13643.95
631.687	13620.9
632.041	13563.5
632.396	13607.34
632.75	13578.64
633.104	13561.01
633.459	13464.29
633.813	13438.98
634.167	13537.96
634.521	13537.96
634.875	13517.85
635.229	13555.36
635.583	13468.13
635.937	13448.47
636.291	13465.2
636.645	13498.87
636.999	13418.64
637.352	13499.77
637.706	13340.68
638.06	13460.9
638.413	13457.06
638.767	13391.53
639.121	13351.53
639.474	13377.97
639.828	13350.17
640.181	13318.99
640.534	13318.76
640.888	13375.71
641.241	13286.67
641.594	13302.26
641.947	13356.95
642.301	13279.21
642.654	13321.02
643.007	13435.37
643.36	13245.99
643.713	13222.49
644.066	13296.16
644.419	13254.35
644.771	13210.97
645.124	13011.88
645.477	13035.6
645.83	12982.95
646.182	12867.25
646.535	12906.12
646.888	12930.75
647.24	12843.07
647.593	12969.84
647.945	12868.83
648.298	12857.08
648.65	12825.21
649.002	12850.98
649.355	12818.89
649.707	12836.96
650.059	12906.57
650.411	13076.96
650.763	13111.31
651.115	13243.73
651.467	13205.54
651.819	13149.95
652.171	13170.52
652.523	13120.8
652.875	13093.91
653.227	13025.21
653.578	13167.35
653.93	13153.57
654.282	13130.74
654.633	12986.57
654.985	13140.69
655.337	13094.36
655.688	13145.43
656.039	13257.07
656.391	13094.36
656.742	13090.52
657.094	13214.36
657.445	13209.16
657.796	13217.75
658.147	13167.58
658.498	13243.51
658.849	13202.38
659.2	13203.06
659.551	13237.41
659.902	13308.14
660.253	13079.22
660.604	13275.15
660.955	13185.88
661.306	13235.37
661.656	13248.93
662.007	13245.09
662.358	13218.2
662.708	13244.64
663.059	13219.78
663.409	13201.25
663.76	13353.11
664.11	13287.8
664.461	13269.04
664.811	13260.91
665.161	13292.32
665.511	13244.19
665.862	13286.22
666.212	13261.59
666.562	13304.98
666.912	13210.74
667.262	13275.37
667.612	13252.1
667.962	13295.48
668.312	13293
668.662	13378.87
669.011	13270.4
669.361	13168.48
669.711	13283.73
670.06	13223.62
670.41	13234.69
670.76	13221.81
671.109	13174.13
671.459	13252.1
671.808	13202.15
672.157	13293.22
672.507	13162.61
672.856	13193.79
673.205	13219.1
673.554	13237.18
673.904	13149.5
674.253	13293.45
674.602	13228.59
674.951	13052.55
675.3	12920.8
675.649	13198.09
675.998	13039.22
676.346	13118.09
676.695	13124.87
677.044	13053
677.393	13067.47
677.741	13092.33
678.09	13094.59
678.438	13014.36
678.787	12983.4
679.135	13065.21
679.484	13014.14
679.832	12873.57
680.181	12850.75
680.529	12897.08
680.877	12863.4
681.225	12862.5
681.573	13013.46
681.922	12819.34
682.27	12776.18
682.618	12755.16
682.966	12878.55
683.314	12846.46
683.661	12760.13
684.009	12736.18
684.357	12662.73
684.705	12691.43
685.053	12667.25
685.4	12563.75
685.748	12660.02
686.095	12549.06
686.443	12590.87
686.79	12524.43
687.138	12556.75
687.485	12594.94
687.832	12437.88
688.18	12406.47
688.527	12371.89
688.874	12359.92
689.221	12227.72
689.568	12302.29
689.915	12272.69
690.262	12220.48
690.609	12193.14
690.956	12178
691.303	12025.01
691.65	12072.92
691.997	12125.12
692.344	12039.02
692.69	11947.04
693.037	11935.97
693.383	11795.64
693.73	11867.5
694.077	11835.18
694.423	11746.15
694.769	11773.72
695.116	11721.29
695.462	11655.98
695.808	11645.58
696.155	11614.4
696.501	11514.51
696.847	11547.96
697.193	11398.58
697.539	11465.48
697.885	11387.74
698.231	11350
698.577	11310.23
698.923	11348.64
699.269	11286.95
699.614	11164.47
699.96	11164.92
700.306	11105.03
700.651	11126.28
700.997	10944.13
701.342	11018.48
701.688	11020.74
702.033	10890.35
702.379	10888.99
702.724	10887.41
703.069	10858.71
703.415	10762.89
703.76	10774.65
704.105	10790.24
704.45	10655.1
704.795	10634.54
705.14	10573.52
705.485	10561.32
705.83	10451.04
706.175	10488.1
706.52	10484.48
706.865	10421.21
707.209	10435.22
707.554	10340.76
707.899	10387.31
708.243	10315.45
708.588	10252.63
708.932	10217.37
709.277	10230.93
709.621	10237.94
709.966	10198.84
710.31	10140.31
710.654	10107.32
710.998	10098.28
711.342	10089.01
711.687	10055.12
712.031	10031.61
712.375	9974.44
712.719	10070.03
713.063	9997.27
713.407	10034.55
713.75	9918.4
714.094	9859.19
714.438	9910.71
714.782	9891.28
715.125	9837.04
715.469	9870.49
715.812	9723.15
716.156	9737.61
716.499	9752.53
716.843	9789.59
717.186	9681.34
717.53	9833.43
717.873	9715.69
718.216	9721.79
718.559	9619.42
718.902	9680.89
719.246	9630.27
719.589	9600.89
719.932	9651.96
720.275	9616.94
720.617	9568.12
720.96	9597.5
721.303	9531.29
721.646	9571.97
721.989	9495.36
722.331	9542.81
722.674	9530.16
723.016	9527.9
723.359	9518.41
723.701	9538.29
724.044	9468.69
724.386	9424.4
724.729	9550.27
725.071	9421.24
725.413	9458.07
725.755	9449.03
726.097	9387.11
726.439	9421.69
726.782	9416.49
727.124	9443.83
727.465	9394.12
727.807	9422.37
728.149	9373.1
728.491	9347.79
728.833	9465.3
729.175	9291.3
729.516	9324.06
729.858	9343.27
730.199	9336.94
730.541	9325.42
730.882	9313.67
731.224	9370.62
731.565	9291.97
731.906	9323.16
732.248	9292.65
732.589	9334.01
732.93	9321.58
733.271	9319.54
733.612	9290.39
733.953	9314.8
734.294	9315.93
734.635	9324.29
734.976	9347.11
735.317	9275.25
735.658	9280
735.999	9300.79
736.339	9329.94
736.68	9430.27
737.021	9345.53
737.361	9289.71
737.702	9379.65
738.042	9326.77
738.383	9328.36
738.723	9404.29
739.063	9380.56
739.404	9408.13
739.744	9401.57
740.084	9385.08
740.424	9371.29
740.764	9432.76
741.104	9481.12
741.444	9374.68
741.784	9400.9
742.124	9553.66
742.464	9466.21
742.804	9512.53
743.143	9547.33
743.483	9548.92
743.823	9537.39
744.162	9562.47
744.502	9558.63
744.841	9624.17
745.181	9634.11
745.52	9711.62
745.86	9718.4
746.199	9738.29
746.538	9796.82
746.877	9823.26
747.216	9900.77
747.556	9914.33
747.895	9986.42
748.234	10006.53
748.573	10019.86
748.911	10098.51
749.25	10113.87
749.589	10219.18
749.928	10278.84
750.267	10353.19
750.605	10386.63
750.944	10465.28
751.283	10505.05
751.621	10710.47
751.96	10750.69
752.298	10781.65
752.636	10923.34
752.975	10919.73
753.313	11020.97
753.651	11200.85
753.989	11229.32
754.327	11434.74
754.666	11432.71
755.004	11585.25
755.342	11740.72
755.679	11883.09
756.017	11886.48
756.355	12126.25
756.693	12140.49
757.031	12340.48
757.368	12441.72
757.706	12476.3
758.044	12592.45
758.381	12787.25
758.719	12916.28
759.056	13163.74
759.394	13102.27
759.731	13310.85
760.068	13408.93
760.405	13483.5
760.743	13660.9
761.08	13815.24
761.417	13986.09
761.754	14130.49
762.091	14211.62
762.428	14303.14
762.765	14470.59
763.102	14610.48
763.438	14758.27
763.775	14905.38
764.112	14919.62
764.449	15155.55
764.785	15251.14
765.122	15273.74
765.458	15360.74
765.795	15543.79
766.131	15648.19
766.467	15771.8
766.804	15814.74
767.14	15952.59
767.476	16092.02
767.812	16082.98
768.148	16236.65
768.485	16262.64
768.821	16386.02
769.157	16545.12
769.492	16518.9
769.828	16675.06
770.164	16642.06
770.5	16656.53
770.836	16872.79
771.171	16779.23
771.507	16913.47
771.842	16982.62
772.178	16974.48
772.513	17095.38
772.849	17124.08
773.184	17168.15
773.519	17318.2
773.855	17202.95
774.19	17221.03
774.525	17229.62
774.86	17353
775.195	17402.72
775.53	17409.5
775.865	17376.96
776.2	17297.86
776.535	17288.37
776.87	17459.89
777.205	17397.75
777.539	17437.52
777.874	17422.61
778.209	17334.47
778.543	17424.41
778.878	17390.97
779.212	17388.03
779.547	17368.15
779.881	17526.56
780.215	17387.13
780.55	17436.62
780.884	17335.15
781.218	17463.28
781.552	17351.87
781.886	17265.55
782.22	17317.07
782.554	17348.71
782.888	17121.37
783.222	17090.19
783.556	17112.33
783.889	17217.19
784.223	17088.15
784.557	17137.64
784.89	17157.98
785.224	17033.92
785.557	17062.16
785.891	17161.6
786.224	16942.39
786.558	16951.21
786.891	16931.32
787.224	16880.02
787.557	16915.28
787.891	16965.67
788.224	16837.31
788.557	16855.39
788.89	16771.32
789.223	16773.36
789.556	16628.5
789.888	16737.2
790.221	16654.94
790.554	16480.94
790.887	16451.11
791.219	16529.3
791.552	16565.68
791.884	16419.47
792.217	16324.56
792.549	16357.1
792.882	16312.81
793.214	16216.54
793.546	16320.71
793.879	16164.79
794.211	16126.82
794.543	16194.39
794.875	16084.79
795.207	16137.89
795.539	16040.04
795.871	16082.53
796.203	16003.21
796.535	15788.3
796.867	15839.6
797.198	15805.47
797.53	15847.28
797.862	15718.7
798.193	15795.31
798.525	15581.53
798.856	15674.86
799.188	15421.98
799.519	15475.31
799.85	15428.99
800.182	15394.86
800.513	15415.65
800.844	15310.57
801.175	15435.31
801.506	15336.79
801.837	15254.08
802.168	15266.96
802.499	15140.63
802.83	15135.66
803.161	15043.69
803.491	15054.08
803.822	15059.96
804.153	15038.94
804.483	14864.93
804.814	14842.34
805.145	14827.42
805.475	14907.42
805.805	14782.45
806.136	14801.88
806.466	14758.95
806.796	14759.4
807.126	14629.23
807.457	14650.93
807.787	14637.37
808.117	14570.93
808.447	14525.51
808.777	14620.42
809.107	14401.44
809.436	14416.13
809.766	14494.1
810.096	14456.58
810.426	14309.69
810.755	14325.29
811.085	14304.95
811.414	14264.27
811.744	14212.75
812.073	14150.38
812.403	14168.68
812.732	14079.64
813.061	14102.92
813.39	14078.51
813.719	14003.49
814.049	14039.42
814.378	14076.93
814.707	13956.71
815.036	13925.52
815.365	13769.6
815.693	13768.01
816.022	13759.88
816.351	13790.39
816.68	13678.75
817.008	13785.19
817.337	13600.11
817.665	13591.3
817.994	13636.49
818.322	13584.06
818.651	13528.02
818.979	13496.61
819.307	13556.72
819.636	13460.23
819.964	13424.07
820.292	13587
820.62	13430.4
820.948	13401.92
821.276	13485.08
821.604	13420
821.932	13409.15
822.259	13405.76
822.587	13377.74
822.915	13340
823.243	13415.03
823.57	13411.19
823.898	13342.71
824.225	13365.54
824.553	13314.47
824.88	13365.31
825.207	13427.01
825.535	13300.68
825.862	13384.07
826.189	13355.37
826.516	13310.62
826.843	13477.17
827.17	13432.66
827.497	13436.95
827.824	13412.54
828.151	13435.14
828.478	13445.31
828.805	13425.65
829.131	13418.87
829.458	13352.21
829.785	13321.47
830.111	13314.92
830.438	13350.4
830.764	13365.99
831.09	13408.02
831.417	13240.57
831.743	13403.05
832.069	13352.88
832.395	13308.59
832.722	13347.69
833.048	13247.35
833.374	13336.39
833.7	13291.87
834.026	13222.27
834.351	13267.46
834.677	13190.85
835.003	13323.05
835.329	13283.96
835.654	13214.36
835.98	13110.63
836.306	13179.33
836.631	13206.45
836.956	13173.68
837.282	13210.97
837.607	13115.15
837.932	13150.63
838.258	13100.23
838.583	13138.2
838.908	13111.53
839.233	13120.12
839.558	12945.44
839.883	12966.23
840.208	13031.31
840.533	12880.35
840.858	12974.36
841.182	12906.57
841.507	12874.93
841.832	12905.66
842.156	12795.61
842.481	12793.12
842.805	12829.51
843.13	12837.19
843.454	12745.67
843.778	12620.93
844.103	12607.37
844.427	12562.85
844.751	12575.5
845.075	12557.42
845.399	12542.96
845.723	12432.23
846.047	12402.17
846.371	12367.6
846.695	12336.19
847.019	12281.05
847.343	12197.89
847.666	12175.06
847.99	12111.79
848.313	12090.54
848.637	11975.74
848.96	11998.79
849.284	11892.36
849.607	11918.8
849.931	11849.42
850.254	11752.93
850.577	11750.67
850.9	11620.73
851.223	11638.8
851.546	11562.42
851.869	11513.16
852.192	11627.51
852.515	11454.18
852.838	11426.61
853.161	11387.06
853.483	11382.77
853.806	11328.76
854.129	11275.65
854.451	11236.1
854.774	11188.19
855.096	11187.29
855.419	11160.62
855.741	11117.01
856.063	11089.89
856.385	10994.75
856.708	11058.25
857.03	10984.36
857.352	10956.34
857.674	10878.37
857.996	10825.04
858.318	10744.36
858.64	10810.35
858.961	10747.75
859.283	10745.95
859.605	10694.65
859.926	10656.23
860.248	10634.76
860.57	10599.51
860.891	10621.43
861.212	10582.56
861.534	10628.21
861.855	10523.13
862.176	10486.74
862.498	10469.8
862.819	10530.58
863.14	10432.96
863.461	10464.37
863.782	10429.57
864.103	10485.39
864.424	10341.44
864.745	10419.63
865.065	10277.94
865.386	10303.92
865.707	10221.44
866.027	10324.71
866.348	10269.8
866.668	10264.15
866.989	10219.63
867.309	10107.77
867.63	10187.09
867.95	10165.62
868.27	10062.8
868.59	10173.98
868.91	10089.47
869.23	10141.67
869.55	9993.65
869.87	10046.53
870.19	10054.89
870.51	9988
870.83	10051.5
871.15	9942.8
871.469	9948.23
871.789	9969.47
872.109	10032.74
872.428	9878.62
872.748	9917.72
873.067	9876.14
873.386	9935.8
873.706	9847.66
874.025	9868.46
874.344	9837.27
874.663	9835.01
874.982	9804.28
875.301	9786.2
875.62	9773.32
875.939	9764.5
876.258	9807.44
876.577	9679.31
876.896	9708.23
877.214	9686.54
877.533	9659.2
877.852	9697.84
878.17	9758.4
878.489	9671.62
878.807	9714.33
879.125	9584.85
879.444	9538.29
879.762	9512.76
880.08	9577.84
880.398	9467.56
880.716	9553.66
881.034	9480.89
881.352	9515.7
881.67	9413.1
881.988	9475.47
882.306	9416.72
882.624	9400.22
882.941	9321.35
883.259	9344.85
883.577	9280.22
883.894	9314.35
884.212	9284.97
884.529	9276.38
884.846	9313.22
885.164	9217.4
885.481	9211.3
885.798	9232.54
886.115	9074.58
886.432	9100.34
886.75	9104.86
887.067	9116.84
887.383	9050.4
887.7	9012.88
888.017	9006.11
888.334	9080.68
888.651	8997.29
888.967	8925.88
889.284	8892.89
889.6	8889.5
889.917	8843.62
890.233	8874.36
890.55	8841.14
890.866	8899.89
891.182	8813.12
891.498	8766.56
891.815	8682.05
892.131	8704.64
892.447	8667.81
892.763	8631.43
893.079	8667.36
893.395	8581.26
893.71	8519.34
894.026	8511.2
894.342	8539.22
894.657	8445.67
894.973	8483.86
895.289	8439.11
895.604	8423.52
895.92	8366.12
896.235	8360.25
896.55	8324.09
896.865	8299
897.181	8298.55
897.496	8273.24
897.811	8254.49
898.126	8165.9
898.441	8198.67
898.756	8232.11
899.071	8092
899.386	8103.98
899.7	8087.94
900.015	8000.03
900.33	7928.62
900.644	7974.95
900.959	7952.57
901.273	7894.04
901.588	7861.95
901.902	7813.37
902.216	7745.57
902.531	7796.42
902.845	7738.79
903.159	7756.42
903.473	7653.15
903.787	7635.75
904.101	7618.57
904.415	7551.23
904.729	7602.3
905.042	7567.05
905.356	7492.25
905.67	7473.04
905.984	7482.53
906.297	7458.12
906.611	7450.21
906.924	7350.1
907.237	7362.53
907.551	7303.78
907.864	7297.45
908.177	7321.18
908.491	7272.59
908.804	7172.71
909.117	7194.63
909.43	7122.54
909.743	7113.05
910.056	7094.06
910.368	7091.35
910.681	6980.17
910.994	7014.97
911.307	6957.8
911.619	6934.07
911.932	6931.36
912.244	6859.27
912.557	6895.2
912.869	6807.97
913.181	6783.34
913.494	6798.71
913.806	6767.75
914.118	6722.32
914.43	6692.72
914.742	6668.09
915.054	6660.86
915.366	6639.84
915.678	6647.97
915.99	6538.6
916.302	6502.89
916.613	6528.2
916.925	6491.82
917.236	6492.95
917.548	6406.17
917.859	6372.73
918.171	6381.99
918.482	6311.71
918.794	6353.29
919.105	6328.89
919.416	6163.02
919.727	6241.66
920.038	6215.44
920.349	6174.99
920.66	6190.59
920.971	6150.81
921.282	6133.86
921.593	6056.13
921.903	6083.92
922.214	6055.45
922.525	6028.1
922.835	5960.31
923.146	5946.07
923.456	5946.07
923.767	5933.64
924.077	5901.33
924.387	5912.63
924.697	5798.96
925.008	5825.17
925.318	5770.71
925.628	5740.88
925.938	5743.37
926.248	5689.36
926.558	5691.62
926.867	5702.01
927.177	5626.76
927.487	5614.33
927.796	5606.19
928.106	5560.55
928.416	5499.3
928.725	5556.48
929.034	5491.62
929.344	5476.03
929.653	5515.58
929.962	5479.64
930.271	5408.91
930.581	5410.49
930.89	5344.96
931.199	5330.95
931.508	5290.27
931.817	5325.3
932.125	5297.05
932.434	5326.2
932.743	5252.76
933.051	5225.19
933.36	5219.76
933.669	5161.23
933.977	5153.55
934.286	5143.38
934.594	5123.5
934.902	5099.77
935.21	5092.08
935.519	5082.37
935.827	5054.57
936.135	5039.66
936.443	4942.03
936.751	4964.18
937.059	4975.02
937.367	4955.14
937.674	4909.26
937.982	4900.45
938.29	4845.54
938.597	4858.42
938.905	4833.79
939.213	4785.2
939.52	4799.21
939.827	4805.31
940.135	4728.7
940.442	4714.24
940.749	4747.23
941.056	4704.98
941.363	4666.33
941.67	4643.51
941.977	4593.11
942.284	4591.08
942.591	4587.46
942.898	4568.48
943.205	4567.8
943.511	4526.45
943.818	4526.45
944.125	4488.48
944.431	4449.39
944.738	4451.87
945.044	4431.76
945.35	4439.45
945.657	4394.7
945.963	4390.63
946.269	4371.88
946.575	4317.19
946.881	4301.37
947.187	4264.76
947.493	4298.88
947.799	4271.31
948.105	4234.93
948.41	4203.52
948.716	4252.33
949.022	4174.59
949.327	4173.92
949.633	4135.27
949.938	4145.22
950.244	4136.4
950.549	4112.9
950.854	4074.71
951.16	4086.01
951.465	4011.21
951.77	3992.45
952.075	3999.91
952.38	4001.94
952.685	4032.9
952.99	3985.22
953.294	3896.63
953.599	3898.89
953.904	3894.6
954.209	3891.21
954.513	3880.36
954.818	3849.4
955.122	3818.67
955.426	3832.23
955.731	3768.28
956.035	3794.94
956.339	3805.56
956.643	3815.96
956.948	3714.72
957.252	3686.02
957.556	3740.93
957.86	3660.71
958.163	3683.08
958.467	3679.01
958.771	3650.77
959.075	3626.81
959.378	3611.44
959.682	3610.54
959.985	3580.94
960.289	3563.08
960.592	3610.99
960.896	3570.09
961.199	3566.47
961.502	3501.84
961.805	3521.5
962.108	3466.82
962.411	3494.84
962.714	3480.83
963.017	3449.87
963.32	3448.74
963.623	3424.78
963.926	3418
964.228	3402.86
964.531	3338.01
964.833	3335.29
965.136	3340.94
965.438	3341.4
965.741	3304.56
966.043	3311.79
966.345	3285.35
966.648	3264.79
966.95	3263.21
967.252	3231.12
967.554	3208.97
967.856	3201.51
968.158	3199.7
968.46	3189.76
968.761	3142.3
969.063	3160.38
969.365	3149.76
969.666	3139.59
969.968	3095.98
970.269	3119.93
970.571	3107.96
970.872	3046.94
971.174	3074.74
971.475	3046.26
971.776	3072.02
972.077	3040.16
972.378	3041.74
972.679	3022.53
972.98	2980.27
973.281	2965.36
973.582	2987.28
973.883	2900.73
974.183	2952.93
974.484	2930.33
974.785	2900.95
975.085	2898.69
975.386	2895.31
975.686	2879.94
975.986	2865.25
976.287	2905.25
976.587	2828.64
976.887	2810.79
977.187	2801.3
977.487	2800.17
977.787	2809.43
978.087	2811.01
978.387	2747.29
978.687	2727.85
978.987	2705.48
979.286	2726.04
979.586	2730.11
979.885	2695.54
980.185	2677.46
980.484	2687.4
980.784	2658.25
981.083	2618.7
981.382	2652.37
981.682	2610.57
981.981	2618.02
982.28	2587.29
982.579	2574.41
982.878	2570.79
983.177	2541.19
983.475	2560.62
983.774	2519.72
984.073	2536.44
984.372	2487.63
984.67	2477.92
984.969	2514.75
985.267	2453.96
985.566	2469.33
985.864	2482.66
986.162	2454.19
986.461	2438.82
986.759	2448.09
987.057	2393.4
987.355	2416
987.653	2421.19
987.951	2404.7
988.249	2377.13
988.547	2378.48
988.844	2390.46
989.142	2330.35
989.44	2289.9
989.737	2313.63
990.035	2324.7
990.332	2312.27
990.63	2255.1
990.927	2264.14
991.224	2289.9
991.521	2231.37
991.819	2251.03
992.116	2251.25
992.413	2260.75
992.71	2193.63
993.006	2203.12
993.303	2204.48
993.6	2209.9
993.897	2196.34
994.193	2148.88
994.49	2173.52
994.787	2142.78
995.083	2144.36
995.379	2126.29
995.676	2069.34
995.972	2085.83
996.268	2098.94
996.565	2070.24
996.861	2088.77
997.157	2044.03
997.453	2051.03
997.749	2028.66
998.044	2031.37
998.34	1999.96
998.636	2027.31
998.932	2028.44
999.227	2012.62
999.523	1982.56
999.818	1961.32
1000.114	1971.94
1000.409	1938.95
1000.704	1937.59
1001	1949.57
1001.295	1950.47
1001.59	1907.76
1001.885	1906.18
1002.18	1888.1
1002.475	1879.96
1002.77	1875.9
1003.065	1843.13
1003.359	1870.93
1003.654	1827.99
1003.949	1842.45
1004.243	1853.98
1004.538	1834.99
1004.832	1800.64
1005.127	1802
1005.421	1791.38
1005.715	1797.03
1006.009	1759.52
1006.304	1757.48
1006.598	1736.47
1006.892	1739.86
1007.186	1729.46
1007.48	1703.25
1007.773	1751.15
1008.067	1703.02
1008.361	1681.78
1008.655	1693.53
1008.948	1690.14
1009.242	1624.38
1009.535	1633.19
1009.829	1650.59
1010.122	1654.21
1010.415	1636.81
1010.708	1638.16
1011.001	1611.5
1011.295	1573.98
1011.588	1575.57
1011.881	1586.19
1012.173	1550.26
1012.466	1570.59
1012.759	1522.23
1013.052	1542.57
1013.344	1546.87
1013.637	1503.7
1013.93	1516.58
1014.222	1499.64
1014.514	1484.95
1014.807	1485.4
1015.099	1496.25
1015.391	1451.05
1015.683	1433.2
1015.976	1463.25
1016.268	1432.97
1016.56	1445.85
1016.851	1435
1017.143	1428
1017.435	1388.68
1017.727	1420.99
1018.018	1396.81
1018.31	1368.57
1018.602	1385.06
1018.893	1381.67
1019.185	1352.52
1019.476	1357.72
1019.767	1348
1020.058	1342.35
1020.35	1327.66
1020.641	1327.66
1020.932	1305.06
1021.223	1279.53
1021.514	1286.53
1021.804	1258.29
1022.095	1272.52
1022.386	1260.09
1022.677	1253.31
1022.967	1270.49
1023.258	1261.68
1023.548	1233.88
1023.839	1229.13
1024.129	1201.34
1024.419	1243.37
1024.709	1202.47
1025	1223.71
1025.29	1192.98
1025.58	1166.76
1025.87	1177.61
1026.16	1138.29
1026.449	1174.45
1026.739	1150.94
1027.029	1124.5
1027.319	1130.15
1027.608	1123.37
1027.898	1120.44
1028.187	1108.46
1028.477	1104.84
1028.766	1138.74
1029.055	1093.32
1029.344	1080.89
1029.634	1086.31
1029.923	1093.77
1030.212	1055.58
1030.501	1063.26
1030.79	1071.17
1031.078	1045.86
1031.367	1065.07
1031.656	1017.61
1031.945	1011.96
1032.233	1008.35
1032.522	1019.65
1032.81	1026.43
1033.099	994.79
1033.387	990.04
1033.675	994.34
1033.963	988.01
1034.251	958.18
1034.54	955.47
1034.828	973.1
1035.116	957.5
1035.403	947.56
1035.691	945.07
1035.979	939.65
1036.267	936.94
1036.554	933.32
1036.842	908.46
1037.129	924.74
1037.417	886.54
1037.704	920.67
1037.992	924.06
1038.279	897.17
1038.566	898.3
1038.853	898.3
1039.14	898.3
