Data from hue_250_FLMS001491_00084.txt Node
Date: Tue Feb 07 16:01:35 GMT 2017
User: dcchb
Spectrometer: FLMS00149
Trigger mode: 0
Integration Time (sec): 2.000000E-2
Scans to average: 10
Electric dark correction enabled: true
Nonlinearity correction enabled: false
Boxcar width: 0
XAxis mode: Wavelengths
Number of Pixels in Spectrum: 2048
>>>>>Begin Spectral Data<<<<<
341.393	-25.07
341.776	-25.07
342.16	-25.07
342.543	-69.36
342.927	-50.38
343.31	-71.17
343.693	-62.13
344.077	-67.55
344.46	-73.88
344.843	-59.65
345.226	-38.4
345.61	-32.98
345.993	-13.77
346.376	9.05
346.759	-3.83
347.142	27.13
347.525	44.08
347.908	58.77
348.291	68.49
348.674	98.54
349.057	117.3
349.44	126.11
349.823	135.6
350.206	154.13
350.588	174.92
350.971	200.91
351.354	197.52
351.737	215.6
352.119	219.9
352.502	239.78
352.884	250.18
353.267	270.29
353.65	273
354.032	263.51
354.414	280.23
354.797	288.59
355.179	304.19
355.562	302.83
355.944	311.42
356.326	310.97
356.709	297.86
357.091	315.94
357.473	328.14
357.855	333.11
358.238	336.05
358.62	343.96
359.002	329.27
359.384	339.89
359.766	344.64
360.148	321.14
360.53	305.32
360.912	338.08
361.294	308.25
361.676	314.58
362.057	307.8
362.439	314.13
362.821	326.11
363.203	301.02
363.584	301.25
363.966	300.35
364.348	304.64
364.729	332.43
365.111	332.89
365.493	334.24
365.874	297.18
366.256	295.37
366.637	320.91
367.019	293.57
367.4	291.08
367.781	307.8
368.163	276.62
368.544	293.11
368.925	298.76
369.306	282.49
369.688	277.97
370.069	298.76
370.45	289.5
370.831	294.47
371.212	287.46
371.593	295.37
371.974	306.45
372.355	291.76
372.736	298.99
373.117	296.28
373.498	288.14
373.879	302.38
374.26	316.16
374.641	301.25
375.021	301.02
375.402	300.35
375.783	320.91
376.163	317.52
376.544	310.97
376.925	316.39
377.305	305.77
377.686	323.85
378.066	323.62
378.447	317.52
378.827	309.16
379.208	306.45
379.588	316.62
379.968	327.01
380.349	323.17
380.729	307.35
381.109	305.32
381.489	338.54
381.87	323.4
382.25	320.46
382.63	312.1
383.01	327.92
383.39	343.28
383.77	323.4
384.15	353
384.53	358.42
384.91	353
385.29	333.34
385.67	332.43
386.049	339.44
386.429	357.74
386.809	332.43
387.189	343.51
387.568	355.03
387.948	326.56
388.328	355.71
388.707	333.79
389.087	340.8
389.466	362.72
389.846	349.16
390.225	357.52
390.605	341.25
390.984	364.3
391.363	363.17
391.743	350.29
392.122	338.31
392.501	381.47
392.881	370.17
393.26	367.91
393.639	367.01
394.018	364.75
394.397	371.3
394.776	370.4
395.155	365.43
395.534	385.31
395.913	367.69
396.292	374.47
396.671	384.86
397.05	393
397.429	377.86
397.808	395.94
398.186	396.16
398.565	391.64
398.944	402.72
399.323	387.8
399.701	409.04
400.08	373.11
400.458	394.58
400.837	424.41
401.215	395.26
401.594	403.17
401.972	396.16
402.351	432.32
402.729	409.49
403.107	410.4
403.486	413.56
403.864	409.72
404.242	421.92
404.62	426.44
404.999	443.62
405.377	430.51
405.755	440.68
406.133	438.87
406.511	462.6
406.889	464.63
407.267	443.62
407.645	465.09
408.023	469.15
408.401	457.4
408.779	489.27
409.156	453.11
409.534	480.68
409.912	481.13
410.29	502.15
410.667	498.31
411.045	508.7
411.422	517.97
411.8	542.37
412.178	527.46
412.555	531.53
412.933	518.42
413.31	548.47
413.687	555.71
414.065	541.92
414.442	574.46
414.819	554.8
415.197	575.59
415.574	569.49
415.951	595.7
416.328	596.83
416.705	583.95
417.082	579.43
417.46	601.58
417.837	618.3
418.214	616.27
418.591	625.08
418.967	628.02
419.344	629.38
419.721	637.06
420.098	646.32
420.475	671.18
420.852	662.82
421.228	664.18
421.605	696.04
421.982	696.49
422.358	708.02
422.735	706.89
423.111	705.31
423.488	727.23
423.864	733.33
424.241	724.51
424.617	754.57
424.994	774.01
425.37	766.32
425.746	757.96
426.123	787.11
426.499	792.31
426.875	831.86
427.251	827.11
427.627	836.38
428.003	828.92
428.379	855.58
428.756	857.39
429.132	878.86
429.507	867.34
429.883	902.82
430.259	898.52
430.635	865.3
431.011	922.25
431.387	931.06
431.763	931.06
432.138	950.95
432.514	970.38
432.89	987.56
433.265	980.55
433.641	988.91
434.016	1030.95
434.392	1026.65
434.767	1076.6
435.143	1068.01
435.518	1078.86
435.894	1087.44
436.269	1086.09
436.644	1111.17
437.02	1154.79
437.395	1148.46
437.77	1149.59
438.145	1184.16
438.52	1216.71
438.895	1222.13
439.271	1221.45
439.646	1267.1
440.021	1270.49
440.395	1251.51
440.77	1257.61
441.145	1291.96
441.52	1310.71
441.895	1317.72
442.27	1330.37
442.645	1348.45
443.019	1345.74
443.394	1333.54
443.769	1373.54
444.143	1369.7
444.518	1387.32
444.892	1398.4
445.267	1403.59
445.641	1451.5
446.016	1450.15
446.39	1447.43
446.764	1453.31
447.139	1469.35
447.513	1489.69
447.887	1462.12
448.262	1488.56
448.636	1491.5
449.01	1491.27
449.384	1530.82
449.758	1516.58
450.132	1552.74
450.506	1559.52
450.88	1587.77
451.254	1595.23
451.628	1575.34
452.002	1620.31
452.376	1637.71
452.75	1629.12
453.123	1664.83
453.497	1669.8
453.871	1718.16
454.244	1706.18
454.618	1691.95
454.992	1724.49
455.365	1742.79
455.739	1809.23
456.112	1792.51
456.486	1815.11
456.859	1813.07
457.232	1850.81
457.606	1840.42
457.979	1879.29
458.352	1910.25
458.725	1955.67
459.099	1941.21
459.472	1982.56
459.845	1988.44
460.218	2023.24
460.591	1999.28
460.964	2021.88
461.337	2076.8
461.71	2111.37
462.083	2110.47
462.456	2112.95
462.829	2121.31
463.201	2167.87
463.574	2199.5
463.947	2205.15
464.32	2279.73
464.692	2269.56
465.065	2262.55
465.438	2299.84
465.81	2366.73
466.183	2352.95
466.555	2401.76
466.928	2396.56
467.3	2393.4
467.672	2454.86
468.045	2519.27
468.417	2511.59
468.789	2537.57
469.161	2555.65
469.534	2578.03
469.906	2635.65
470.278	2629.32
470.65	2696.21
471.022	2739.6
471.394	2785.7
471.766	2809.88
472.138	2855.08
472.51	2907.06
472.882	2915.42
473.253	2937.56
473.625	2968.07
473.997	3068.18
474.369	3032.02
474.74	3091.01
475.112	3110.21
475.484	3157.45
475.855	3202.64
476.227	3234.73
476.598	3336.42
476.97	3353.37
477.341	3403.31
477.713	3429.3
478.084	3477.21
478.455	3537.32
478.827	3582.29
479.198	3669.75
479.569	3684.21
479.94	3753.14
480.311	3810.99
480.682	3855.73
481.053	3894.15
481.424	3988.16
481.795	4007.37
482.166	4014.15
482.537	4087.82
482.908	4170.07
483.279	4172.33
483.65	4280.58
484.021	4330.52
484.391	4388.6
484.762	4440.8
485.133	4428.37
485.503	4506.79
485.874	4582.49
486.244	4640.12
486.615	4723.51
486.985	4747.91
487.356	4795.14
487.726	4767.12
488.097	4921.69
488.467	4944.52
488.837	5024.51
489.207	5030.16
489.578	5102.93
489.948	5160.1
490.318	5254.57
490.688	5291.17
491.058	5297.28
491.428	5362.36
491.798	5401
492.168	5486.2
492.538	5511.73
492.908	5617.95
493.278	5664.5
493.648	5622.92
494.017	5708.34
494.387	5732.74
494.757	5784.27
495.126	5834.66
495.496	5837.37
495.866	5857.49
496.235	5934.32
496.605	5931.61
496.974	5989.91
497.344	6048.89
497.713	6052.74
498.082	6120.31
498.452	6205.95
498.821	6162.56
499.19	6176.12
499.559	6216.35
499.928	6251.38
500.298	6304.26
500.667	6339.28
501.036	6298.38
501.405	6357.36
501.774	6372.95
502.143	6349
502.512	6471.03
502.88	6482.33
503.249	6469.9
503.618	6516.45
503.987	6506.28
504.356	6538.6
504.724	6579.73
505.093	6572.27
505.462	6632.16
505.83	6673.06
506.199	6669.22
506.567	6774.98
506.936	6712.38
507.304	6795.32
507.672	6808.65
508.041	6844.13
508.409	6868.99
508.777	6857.01
509.145	6890.45
509.514	6925.93
509.882	6935.88
510.25	6941.07
510.618	6995.08
510.986	6905.37
511.354	7063.78
511.722	7061.98
512.09	7109.66
512.458	7107.4
512.826	7177.45
513.193	7152.14
513.561	7179.71
513.929	7226.94
514.297	7241.86
514.664	7217.68
515.032	7268.75
515.4	7289.09
515.767	7251.8
516.135	7381.06
516.502	7266.94
516.869	7403.89
517.237	7366.6
517.604	7317.56
517.972	7377.9
518.339	7377.67
518.706	7427.84
519.073	7440.27
519.44	7472.36
519.808	7547.16
520.175	7490.66
520.542	7558.69
520.909	7565.46
521.276	7595.07
521.643	7562.98
522.009	7663.54
522.376	7637.33
522.743	7668.29
523.11	7732.69
523.477	7702.86
523.843	7804.55
524.21	7811.33
524.577	7860.82
524.943	7885.91
525.31	7848.62
525.676	7928.17
526.043	7889.07
526.409	7960.03
526.776	7959.35
527.142	7961.61
527.508	7919.81
527.874	8049.29
528.241	7962.29
528.607	7953.93
528.973	8047.26
529.339	8000.03
529.705	8064.43
530.071	8109.41
530.437	8096.98
530.803	8108.5
531.169	8128.39
531.535	8020.82
531.901	8115.51
532.267	8160.48
532.632	8204.09
532.998	8127.94
533.364	8188.27
533.73	8169.97
534.095	8212.91
534.461	8243.41
534.826	8181.72
535.192	8193.25
535.557	8233.7
535.923	8194.37
536.288	8238.89
536.653	8266.46
537.019	8185.56
537.384	8159.35
537.749	8166.13
538.114	8193.25
538.479	8177.43
538.845	8240.7
539.21	8170.87
539.575	8190.08
539.94	8148.95
540.305	8221.49
540.67	8224.88
541.034	8162.06
541.399	8199.12
541.764	8208.16
542.129	8173.13
542.494	8132
542.858	8206.13
543.223	8202.28
543.587	8217.65
543.952	8159.12
544.316	8183.08
544.681	8128.61
545.045	8150.76
545.41	8173.13
545.774	8166.35
546.138	8151.44
546.503	8156.86
546.867	8122.96
547.231	8187.82
547.595	8189.4
547.959	8205.22
548.324	8129.29
548.688	8132
549.052	8151.89
549.416	8125
549.779	8079.58
550.143	8109.18
550.507	8115.05
550.871	8189.63
551.235	8102.85
551.599	8166.58
551.962	8118.9
552.326	8128.16
552.689	8055.62
553.053	8086.13
553.417	8112.12
553.78	8145.79
554.143	8140.82
554.507	8136.07
554.87	8176.3
555.234	8186.47
555.597	8168.61
555.96	8081.84
556.323	8192.34
556.686	8162.74
557.05	8216.97
557.413	8197.31
557.776	8222.4
558.139	8244.32
558.502	8218.78
558.865	8187.82
559.228	8235.5
559.59	8242.74
559.953	8231.21
560.316	8288.84
560.679	8330.64
561.041	8314.82
561.404	8381.71
561.767	8426.46
562.129	8412.67
562.492	8450.64
562.854	8383.07
563.217	8421.26
563.579	8379.23
563.941	8475.95
564.304	8497.64
564.666	8558.21
565.028	8504.42
565.39	8529.73
565.753	8655.83
566.115	8609.96
566.477	8594.14
566.839	8568.83
567.201	8679.56
567.563	8618.77
567.925	8698.32
568.287	8703.74
568.648	8707.58
569.01	8713.23
569.372	8755.49
569.734	8810.4
570.095	8793.46
570.457	8827.35
570.819	8849.72
571.18	8883.62
571.542	8902.6
571.903	8910.51
572.265	8865.54
572.626	8962.72
572.987	8936.95
573.349	8993.45
573.71	9038.19
574.071	8969.27
574.432	9045.65
574.794	9147.34
575.155	9134.92
575.516	9146.44
575.877	9213.78
576.238	9122.49
576.599	9168.13
576.96	9188.25
577.32	9234.12
577.681	9188.93
578.042	9276.61
578.403	9218.08
578.763	9227.12
579.124	9310.5
579.485	9355.7
579.845	9377.85
580.206	9269.15
580.566	9361.35
580.927	9346.66
581.287	9475.7
581.648	9411.07
582.008	9423.04
582.368	9442.03
582.728	9478.63
583.089	9458.75
583.449	9436.83
583.809	9464.85
584.169	9519.76
584.529	9544.85
584.889	9567.67
585.249	9510.5
585.609	9519.09
585.969	9606.54
586.329	9548.24
586.688	9580.78
587.048	9586.43
587.408	9588.01
587.768	9570.84
588.127	9608.35
588.487	9564.51
588.846	9722.02
589.206	9600.44
589.565	9602.7
589.925	9745.52
590.284	9641.34
590.643	9649.93
591.003	9670.95
591.362	9766.09
591.721	9711.4
592.08	9726.99
592.44	9816.48
592.799	9781
593.158	9814.9
593.517	9759.08
593.876	9841.34
594.235	9751.62
594.593	9791.85
594.952	9849.7
595.311	9745.52
595.67	9770.38
596.029	9887.66
596.387	9874.78
596.746	9829.36
597.104	9838.85
597.463	9856.93
597.822	9896.03
598.18	9848.34
598.538	9855.12
598.897	9895.57
599.255	9792.07
599.613	9889.7
599.972	9845.4
600.33	9969.02
600.688	9850.83
601.046	9944.61
601.404	10017.15
601.762	9965.4
602.12	9982.35
602.478	9995.68
602.836	9950.94
603.194	9965.4
603.552	9947.78
603.91	9908.68
604.268	10008.56
604.625	9945.06
604.983	10018.06
605.341	9971.28
605.698	9968.11
606.056	9975.57
606.413	9978.28
606.771	10011.28
607.128	10112.29
607.485	9967.21
607.843	9922.24
608.2	10065.74
608.557	10070.48
608.914	10024.61
609.272	10096.02
609.629	10134.89
609.986	10116.81
610.343	10118.17
610.7	10154.1
611.057	10190.48
611.414	10195.23
611.771	10147.09
612.127	10215.79
612.484	10231.84
612.841	10169.46
613.198	10140.76
613.554	10171.27
613.911	10206.98
614.267	10195.45
614.624	10215.79
614.98	10231.61
615.337	10312.51
615.693	10286.98
616.05	10289.24
616.406	10326.97
616.762	10266.86
617.118	10280.65
617.475	10212.17
617.831	10273.87
618.187	10297.37
618.543	10321.55
618.899	10274.77
619.255	10326.07
619.611	10351.38
619.967	10410.81
620.323	10393.64
620.678	10367.65
621.034	10427.99
621.39	10332.17
621.746	10391.83
622.101	10465.95
622.457	10318.39
622.812	10330.59
623.168	10315
623.523	10414.66
623.879	10400.64
624.234	10378.72
624.589	10397.93
624.945	10349.8
625.3	10360.65
625.655	10432.28
626.01	10406.29
626.365	10380.08
626.72	10343.92
627.075	10298.5
627.43	10348.89
627.785	10364.26
628.14	10340.08
628.495	10322.23
628.85	10283.81
629.205	10301.89
629.559	10358.16
629.914	10245.85
630.269	10263.25
630.623	10313.42
630.978	10211.95
631.332	10264.38
631.687	10244.04
632.041	10247.65
632.396	10297.37
632.75	10230.71
633.104	10167.2
633.459	10152.29
633.813	10186.19
634.167	10166.75
634.521	10119.07
634.875	10114.1
635.229	10200.2
635.583	10111.61
635.937	10179.86
636.291	10190.71
636.645	10111.16
636.999	10060.77
637.352	10065.29
637.706	10028
638.06	10012.41
638.413	10069.58
638.767	10049.69
639.121	9993.88
639.474	9984.38
639.828	9962.92
640.181	9894.67
640.534	9977.15
640.888	9932.63
641.241	9869.36
641.594	9884.5
641.947	9960.66
642.301	9890.83
642.654	9936.02
643.007	9889.7
643.36	9858.29
643.713	9854.67
644.066	9882.92
644.419	9783.94
644.771	9815.35
645.124	9664.84
645.477	9740.1
645.83	9671.85
646.182	9657.61
646.535	9576.03
646.888	9634.34
647.24	9517.96
647.593	9544.4
647.945	9580.33
648.298	9543.04
648.65	9510.5
649.002	9457.62
649.355	9544.4
649.707	9519.54
650.059	9581.23
650.411	9623.94
650.763	9713.43
651.115	9712.08
651.467	9785.29
651.819	9677.27
652.171	9691.51
652.523	9623.04
652.875	9697.39
653.227	9651.96
653.578	9674.34
653.93	9669.14
654.282	9634.34
654.633	9614.9
654.985	9620.33
655.337	9753.2
655.688	9675.69
656.039	9732.19
656.391	9628.46
656.742	9600.21
657.094	9640.21
657.445	9740.1
657.796	9704.62
658.147	9622.59
658.498	9677.27
658.849	9608.35
659.2	9658.29
659.551	9614.45
659.902	9662.58
660.253	9640.66
660.604	9633.21
660.955	9571.74
661.306	9604.73
661.656	9629.14
662.007	9696.71
662.358	9564.51
662.708	9592.3
663.059	9591.4
663.409	9551.4
663.76	9598.41
664.11	9696.71
664.461	9603.15
664.811	9615.13
665.161	9608.58
665.511	9514.57
665.862	9625.75
666.212	9608.12
666.562	9687.67
666.912	9650.16
667.262	9614
667.612	9659.65
667.962	9669.14
668.312	9625.07
668.662	9679.53
669.011	9594.79
669.361	9625.3
669.711	9656.71
670.06	9622.59
670.41	9614.22
670.76	9564.28
671.109	9663.71
671.459	9568.12
671.808	9515.47
672.157	9556.82
672.507	9524.06
672.856	9531.29
673.205	9552.53
673.554	9614.22
673.904	9489.26
674.253	9595.92
674.602	9494.68
674.951	9397.51
675.3	9319.77
675.649	9468.92
675.998	9484.96
676.346	9480.67
676.695	9464.62
677.044	9454.68
677.393	9386.89
677.741	9425.3
678.09	9391.41
678.438	9356.15
678.787	9377.62
679.135	9465.75
679.484	9350.95
679.832	9348.02
680.181	9278.87
680.529	9389.37
680.877	9270.28
681.225	9268.47
681.573	9312.99
681.922	9205.87
682.27	9225.53
682.618	9274.12
682.966	9260.11
683.314	9177.4
683.661	9201.58
684.009	9108.25
684.357	9205.65
684.705	9182.82
685.053	9169.94
685.4	9121.36
685.748	9057.63
686.095	9049.95
686.443	8980.57
686.79	9038.42
687.138	9082.71
687.485	9021.7
687.832	8973.79
688.18	8948.71
688.527	8957.74
688.874	8939.21
689.221	8885.43
689.568	8879.33
689.915	8852.44
690.262	8824.41
690.609	8861.02
690.956	8793
691.303	8736.51
691.65	8719.56
691.997	8698.09
692.344	8656.06
692.69	8653.8
693.037	8631.2
693.383	8523.86
693.73	8620.8
694.077	8550.75
694.423	8502.39
694.769	8433.69
695.116	8492.67
695.462	8433.01
695.808	8395.27
696.155	8446.35
696.501	8350.53
696.847	8339.46
697.193	8325.22
697.539	8332.68
697.885	8259.46
698.231	8186.01
698.577	8246.12
698.923	8178.33
699.269	8147.37
699.614	8146.92
699.96	8115.28
700.306	8127.26
700.651	8053.81
700.997	7985.79
701.342	8047.49
701.688	8020.37
702.033	7962.74
702.379	7970.2
702.724	7893.59
703.069	7933.82
703.415	7816.08
703.76	7852.01
704.105	7829.86
704.45	7819.02
704.795	7760.94
705.14	7728.62
705.485	7712.13
705.83	7706.25
706.175	7678.46
706.52	7691.11
706.865	7623.77
707.209	7619.25
707.554	7592.58
707.899	7551.91
708.243	7525.01
708.588	7551.91
708.932	7522.53
709.277	7444.11
709.621	7496.54
709.966	7376.77
710.31	7404.57
710.654	7358.24
710.998	7319.37
711.342	7412.47
711.687	7364.11
712.031	7364.34
712.375	7307.39
712.719	7271.91
713.063	7311.01
713.407	7360.95
713.75	7236.21
714.094	7278.01
714.438	7190.33
714.782	7256.55
715.125	7145.81
715.469	7233.5
715.812	7134.74
716.156	7098.36
716.499	7150.79
716.843	7214.51
717.186	7086.83
717.53	7190.79
717.873	7108.53
718.216	7067.17
718.559	7087.06
718.902	6978.81
719.246	7026.5
719.589	7013.16
719.932	6944.46
720.275	6951.47
720.617	6979.49
720.96	6982.43
721.303	6914.86
721.646	6992.15
721.989	6936.78
722.331	6962.32
722.674	6901.98
723.016	6915.99
723.359	6921.41
723.701	6943.79
724.044	6925.71
724.386	6824.69
724.729	6901.08
725.071	6900.62
725.413	6870.79
725.755	6847.74
726.097	6785.37
726.439	6857.91
726.782	6795.54
727.124	6844.13
727.465	6814.07
727.807	6862.43
728.149	6859.04
728.491	6805.03
728.833	6805.94
729.175	6829.89
729.516	6814.98
729.858	6775.2
730.199	6826.95
730.541	6754.41
730.882	6810.68
731.224	6811.13
731.565	6784.47
731.906	6778.82
732.248	6790.8
732.589	6710.35
732.93	6767.07
733.271	6700.63
733.612	6769.78
733.953	6780.4
734.294	6711.25
734.635	6687.97
734.976	6721.42
735.317	6738.59
735.658	6706.96
735.999	6730.91
736.339	6695.66
736.68	6763.68
737.021	6752.6
737.361	6685.26
737.702	6763.68
738.042	6756.22
738.383	6690.01
738.723	6730.91
739.063	6761.87
739.404	6761.87
739.744	6744.47
740.084	6751.7
740.424	6787.86
740.764	6719.84
741.104	6754.64
741.444	6741.98
741.784	6810.68
742.124	6762.1
742.464	6803.45
742.804	6781.76
743.143	6771.14
743.483	6796.45
743.823	6807.74
744.162	6751.02
744.502	6823.56
744.841	6820.4
745.181	6853.85
745.52	6819.04
745.86	6875.77
746.199	6896.1
746.538	6958.48
746.877	7003.45
747.216	6985.82
747.556	6987.85
747.895	7005.48
748.234	7087.29
748.573	7088.64
748.911	7094.06
749.25	7133.61
749.589	7207.51
749.928	7241.18
750.267	7251.12
750.605	7323.89
750.944	7393.27
751.283	7392.36
751.621	7477.33
751.96	7419.71
752.298	7576.09
752.636	7607.5
752.975	7666.48
753.313	7645.46
753.651	7853.82
753.989	7864.67
754.327	7904.89
754.666	8002.06
755.004	8065.56
755.342	8167.48
755.679	8201.83
756.017	8222.4
756.355	8354.37
756.693	8428.72
757.031	8525.67
757.368	8621.26
757.706	8724.53
758.044	8781.25
758.381	8952.1
758.719	8997.74
759.056	9161.36
759.394	9151.41
759.731	9242.26
760.068	9407.9
760.405	9466.66
760.743	9490.39
761.08	9717.05
761.417	9715.46
761.754	9809.25
762.091	10000.43
762.428	10070.71
762.765	10135.11
763.102	10248.56
763.438	10351.15
763.775	10358.61
764.112	10473.19
764.449	10648.1
764.785	10687.64
765.122	10777.58
765.458	10847.64
765.795	10941.42
766.131	11098.93
766.467	11186.84
766.804	11243.33
767.14	11244.24
767.476	11478.13
767.812	11496.21
768.148	11567.85
768.485	11584.57
768.821	11646.71
769.157	11801.29
769.492	11791.12
769.828	11937.1
770.164	11817.33
770.5	11962.86
770.836	12065.23
771.171	12025.46
771.507	12105.23
771.842	12125.57
772.178	12271.1
772.513	12337.77
772.849	12368.95
773.184	12366.69
773.519	12403.98
773.855	12410.54
774.19	12408.95
774.525	12456.64
774.86	12452.57
775.195	12525.33
775.53	12614.15
775.865	12551.55
776.2	12614.6
776.535	12523.07
776.87	12605.56
777.205	12602.17
777.539	12604.88
777.874	12616.41
778.209	12659.12
778.543	12655.95
778.878	12579.8
779.212	12705.22
779.547	12634.71
779.881	12631.55
780.215	12692.11
780.55	12730.98
780.884	12635.61
781.218	12723.97
781.552	12780.24
781.886	12725.1
782.22	12681.94
782.554	12695.73
782.888	12579.57
783.222	12543.19
783.556	12597.65
783.889	12565.11
784.223	12509.06
784.557	12473.36
784.89	12584.77
785.224	12495.73
785.557	12487.6
785.891	12439.24
786.224	12501.15
786.558	12478.1
786.891	12413.02
787.224	12398.33
787.557	12334.38
787.891	12386.36
788.224	12312.68
788.557	12362.63
788.89	12334.83
789.223	12383.64
789.556	12342.97
789.888	12317.2
790.221	12247.15
790.554	12272.91
790.887	12169.86
791.219	12167.6
791.552	12118.57
791.884	12059.58
792.217	12069.3
792.549	12137.1
792.882	12016.42
793.214	11933.49
793.546	12096.19
793.879	11906.37
794.211	11905.92
794.543	12012.81
794.875	11897.78
795.207	11937.1
795.539	11808.52
795.871	11895.75
796.203	11745.47
796.535	11707.95
796.867	11715.41
797.198	11751.8
797.53	11726.94
797.862	11562.42
798.193	11668.63
798.525	11540.73
798.856	11523.78
799.188	11459.83
799.519	11331.69
799.85	11433.61
800.182	11401.75
800.513	11453.72
800.844	11294.63
801.175	11418.02
801.506	11327.4
801.837	11328.08
802.168	11312.49
802.499	11223.9
802.83	11169.66
803.161	11162.21
803.491	11154.3
803.822	11221.41
804.153	11178.25
804.483	11063
804.814	11001.08
805.145	11059.61
805.475	11021.42
805.805	10978.03
806.136	10989.56
806.466	11012.83
806.796	10926.28
807.126	10906.39
807.457	10839.05
807.787	10813.06
808.117	10861.2
808.447	10745.27
808.777	10841.76
809.107	10808.54
809.436	10739.17
809.766	10728.55
810.096	10656.46
810.426	10600.87
810.755	10743.01
811.085	10647.87
811.414	10701.2
811.744	10592.96
812.073	10600.41
812.403	10512.73
812.732	10497.59
813.061	10453.75
813.39	10475.44
813.719	10470.47
814.049	10477.93
814.378	10353.87
814.707	10374.88
815.036	10380.76
815.365	10355.67
815.693	10233.87
816.022	10313.87
816.351	10309.8
816.68	10162.91
817.008	10271.83
817.337	10185.96
817.665	10126.08
817.994	10170.82
818.322	10207.43
818.651	10113.87
818.979	10139.18
819.307	10138.28
819.636	10129.69
819.964	10025.29
820.292	10043.59
820.62	10069.35
820.948	10025.74
821.276	10057.6
821.604	10015.8
821.932	10067.09
822.259	10014.44
822.587	10043.37
822.915	9975.12
823.243	10035.68
823.57	10025.51
823.898	10009.92
824.225	10018.06
824.553	9988.68
824.88	10010.6
825.207	9978.51
825.535	9912.07
825.862	9984.16
826.189	9939.87
826.516	10041.11
826.843	10060.99
827.17	9977.38
827.497	10073.87
827.824	9987.1
828.151	10040.65
828.478	9931.73
828.805	10045.4
829.131	10008.34
829.458	9941.45
829.785	9950.71
830.111	9942.35
830.438	10021.22
830.764	9942.8
831.09	10055.12
831.417	9938.51
831.743	9989.81
832.069	9992.07
832.395	9943.71
832.722	9988
833.048	9936.02
833.374	9990.26
833.7	9957.27
834.026	9932.63
834.351	9944.39
834.677	9903.93
835.003	9922.92
835.329	9957.04
835.654	9852.86
835.98	9891.05
836.306	9854.22
836.631	9789.59
836.956	9850.15
837.282	9854.44
837.607	9826.2
837.932	9809.47
838.258	9827.1
838.583	9818.74
838.908	9714.79
839.233	9751.17
839.558	9779.64
839.883	9753.66
840.208	9714.33
840.533	9699.87
840.858	9724.28
841.182	9636.82
841.507	9688.8
841.832	9648.35
842.156	9514.79
842.481	9632.08
842.805	9583.26
843.13	9549.14
843.454	9521.57
843.778	9456.26
844.103	9514.79
844.427	9468.69
844.751	9427.79
845.075	9404.29
845.399	9433.89
845.723	9361.58
846.047	9381.91
846.371	9275.02
846.695	9260.79
847.019	9228.92
847.343	9214.24
847.666	9111.64
847.99	9130.4
848.313	9131.07
848.637	9047.01
848.96	9018.31
849.284	8998.42
849.607	8920.46
849.931	8896.73
850.254	8853.79
850.577	8856.73
850.9	8768.82
851.223	8782.38
851.546	8740.35
851.869	8695.15
852.192	8761.37
852.515	8635.49
852.838	8617.64
853.161	8541.71
853.483	8531.77
853.806	8537.42
854.129	8548.04
854.451	8498.77
854.774	8483.63
855.096	8470.98
855.419	8489.06
855.741	8368.83
856.063	8320.02
856.385	8335.16
856.708	8353.47
857.03	8235.5
857.352	8332.68
857.674	8244.09
857.996	8164.09
858.318	8118.9
858.64	8170.65
858.961	8177.65
859.283	8101.5
859.605	8006.81
859.926	8111.89
860.248	8083.19
860.57	8044.55
860.891	8049.97
861.212	7957.55
861.534	7951.67
861.855	7946.7
862.176	7970.43
862.498	7895.4
862.819	7989.63
863.14	7873.93
863.461	7901.28
863.782	7896.08
864.103	7845.46
864.424	7785.12
864.745	7826.48
865.065	7846.81
865.386	7740.6
865.707	7817.66
866.027	7791.67
866.348	7718.23
866.668	7782.41
866.989	7711.45
867.309	7702.86
867.63	7640.49
867.95	7664.67
868.27	7685.01
868.59	7689.3
868.91	7575.41
869.23	7633.71
869.55	7602.07
869.87	7607.27
870.19	7632.81
870.51	7605.01
870.83	7660.15
871.15	7577.44
871.469	7548.52
871.789	7620.38
872.109	7534.96
872.428	7548.29
872.748	7528.86
873.067	7546.26
873.386	7483.21
873.706	7529.53
874.025	7421.74
874.344	7460.38
874.663	7492.02
874.982	7452.02
875.301	7435.75
875.62	7462.64
875.939	7342.65
876.258	7370.22
876.577	7394.85
876.896	7338.13
877.214	7354.17
877.533	7374.74
877.852	7375.41
878.17	7320.95
878.489	7334.74
878.807	7299.48
879.125	7269.2
879.444	7266.72
879.762	7165.02
880.08	7280.95
880.398	7246.15
880.716	7259.03
881.034	7229.2
881.352	7216.55
881.67	7204.12
881.988	7199.15
882.306	7164.57
882.624	7133.61
882.941	7120.05
883.259	7044.57
883.577	7097.91
883.894	7073.5
884.212	7074.63
884.529	7063.78
884.846	7012.71
885.164	7003.67
885.481	7008.19
885.798	6977.23
886.115	6955.31
886.432	6927.29
886.75	6914.18
887.067	6928.87
887.383	6881.64
887.7	6905.82
888.017	6846.84
888.334	6876.22
888.651	6847.29
888.967	6825.6
889.284	6842.09
889.6	6739.95
889.917	6734.98
890.233	6724.36
890.55	6704.7
890.866	6696.11
891.182	6683.23
891.498	6660.63
891.815	6643.46
892.131	6641.42
892.447	6593.97
892.763	6602.33
893.079	6555.1
893.395	6518.03
893.71	6464.48
894.026	6463.12
894.342	6471.03
894.657	6460.41
894.973	6484.82
895.289	6466.51
895.604	6488.88
895.92	6385.61
896.235	6382.22
896.55	6363.69
896.865	6383.12
897.181	6341.99
897.496	6326.85
897.811	6253.18
898.126	6253.64
898.441	6229.45
898.756	6217.25
899.071	6162.11
899.386	6148.1
899.7	6157.37
900.015	6148.78
900.33	6080.08
900.644	6077.37
900.959	6073.98
901.273	6019.97
901.588	6045.73
901.902	5999.63
902.216	5997.82
902.531	5935.9
902.845	5960.99
903.159	5890.93
903.473	5837.37
903.787	5843.93
904.101	5839.18
904.415	5829.01
904.729	5762.57
905.042	5721.45
905.356	5740.43
905.67	5728.23
905.984	5713.31
906.297	5706.3
906.611	5615.69
906.924	5678.51
907.237	5620.66
907.551	5624.5
907.864	5570.49
908.177	5579.75
908.491	5544.05
908.804	5473.32
909.117	5477.16
909.43	5476.25
909.743	5448.01
910.056	5453.43
910.368	5469.47
910.681	5422.02
910.994	5334.11
911.307	5348.57
911.619	5302.7
911.932	5330.04
912.244	5261.57
912.557	5275.58
912.869	5227.67
913.181	5200.78
913.494	5129.6
913.806	5196.49
914.118	5179.54
914.43	5164.17
914.742	5131.86
915.054	5064.29
915.366	5094.34
915.678	5137.28
915.99	5063.61
916.302	5019.77
916.613	4998.07
916.925	4993.33
917.236	4987.23
917.548	4968.02
917.859	4919.88
918.171	4867.68
918.482	4865.65
918.794	4876.5
919.105	4850.06
919.416	4848.93
919.727	4824.29
920.038	4824.29
920.349	4731.87
920.66	4774.35
920.971	4778.42
921.282	4731.64
921.593	4691.19
921.903	4674.92
922.214	4653.45
922.525	4631.08
922.835	4620.91
923.146	4621.14
923.456	4629.27
923.767	4573.91
924.077	4564.64
924.387	4521.48
924.697	4488.48
925.008	4488.94
925.318	4511.53
925.628	4449.84
925.938	4482.83
926.248	4442.16
926.558	4386.34
926.867	4382.95
927.177	4400.58
927.487	4392.67
927.796	4342.5
928.106	4313.12
928.416	4326.91
928.725	4270.41
929.034	4262.73
929.344	4279
929.653	4258.43
929.962	4215.95
930.271	4189.06
930.581	4171.88
930.89	4172.33
931.199	4139.57
931.508	4129.4
931.817	4130.53
932.125	4102.28
932.434	4112
932.743	4057.76
933.051	3976.86
933.36	4039.23
933.669	3994.26
933.977	3968.5
934.286	3973.47
934.594	3965.11
934.902	3922.17
935.21	3945.67
935.519	3905.45
935.827	3911.78
936.135	3864.09
936.443	3880.14
936.751	3852.57
937.059	3846.01
937.367	3854.38
937.674	3805.56
937.982	3831.33
938.29	3762.4
938.597	3775.73
938.905	3746.81
939.213	3696.64
939.52	3706.36
939.827	3716.53
940.135	3651.22
940.442	3650.99
940.749	3674.04
941.056	3707.94
941.363	3652.8
941.67	3604.89
941.977	3644.21
942.284	3576.64
942.591	3607.38
942.898	3552.46
943.205	3573.93
943.511	3540.94
943.818	3539.13
944.125	3523.76
944.431	3450.54
944.738	3487.38
945.044	3481.5
945.35	3469.53
945.657	3458.68
945.963	3422.3
946.269	3407.38
946.575	3385.91
946.881	3388.4
947.187	3378.91
947.493	3357.44
947.799	3341.4
948.105	3330.32
948.41	3300.94
948.716	3355.63
949.022	3294.39
949.327	3261.4
949.633	3275.63
949.938	3224.11
950.244	3253.94
950.549	3200.38
950.854	3193.83
951.16	3190.21
951.465	3173.72
951.77	3145.24
952.075	3187.5
952.38	3127.16
952.685	3131.46
952.99	3077.9
953.294	3087.16
953.599	3105.7
953.904	3072.7
954.209	3038.8
954.513	3070.44
954.818	3029.99
955.122	3013.95
955.426	2974.4
955.731	2984.79
956.035	2920.62
956.339	2927.17
956.643	2948.64
956.948	2963.1
957.252	2940.95
957.556	2933.5
957.86	2911.8
958.163	2911.8
958.467	2878.13
958.771	2867.96
959.075	2870.67
959.378	2818.92
959.682	2833.39
959.985	2778.7
960.289	2791.13
960.592	2766.5
960.896	2829.09
961.199	2774.4
961.502	2775.08
961.805	2766.27
962.108	2732.6
962.411	2731.02
962.714	2710.45
963.017	2719.04
963.32	2713.84
963.623	2702.99
963.926	2732.6
964.228	2644.01
964.531	2675.65
964.833	2630.91
965.136	2625.03
965.438	2606.27
965.741	2572.38
966.043	2585.03
966.345	2569.44
966.648	2593.84
966.95	2559.49
967.252	2567.4
967.554	2552.26
967.856	2514.98
968.158	2505.48
968.46	2514.52
968.761	2481.76
969.063	2476.33
969.365	2504.81
969.666	2475.66
969.968	2441.31
970.269	2472.27
970.571	2448.99
970.872	2405.37
971.174	2414.87
971.475	2416
971.776	2378.93
972.077	2395.43
972.378	2352.95
972.679	2380.52
972.98	2353.4
973.281	2363.79
973.582	2343
973.883	2343.46
974.183	2308.88
974.484	2289.22
974.785	2304.36
975.085	2257.13
975.386	2298.71
975.686	2265.72
975.986	2276.11
976.287	2267.53
976.587	2239.96
976.887	2252.84
977.187	2240.63
977.487	2224.14
977.787	2175.1
978.087	2212.16
978.387	2186.17
978.687	2200.41
978.987	2164.03
979.286	2152.73
979.586	2126.29
979.885	2133.52
980.185	2167.87
980.484	2109.56
980.784	2100.3
981.083	2117.25
981.382	2081.77
981.682	2080.41
981.981	2079.28
982.28	2064.59
982.579	2045.84
982.878	2067.53
983.177	2023.24
983.475	2049.23
983.774	2013.52
984.073	2022.33
984.372	2019.17
984.67	1975.33
984.969	2009.68
985.267	1963.58
985.566	1988.21
985.864	1969
986.162	1984.82
986.461	1987.31
986.759	1943.47
987.057	1949.57
987.355	1938.04
987.653	1940.98
987.951	1902.79
988.249	1908.89
988.547	1893.07
988.844	1909.34
989.142	1887.42
989.44	1865.95
989.737	1881.09
990.035	1849.46
990.332	1802
990.63	1832.06
990.927	1820.53
991.224	1807.42
991.521	1807.65
991.819	1777.37
992.116	1749.12
992.413	1804.49
992.71	1771.49
993.006	1769.69
993.303	1746.86
993.6	1793.19
993.897	1765.17
994.193	1736.01
994.49	1745.05
994.787	1728.33
995.083	1745.28
995.379	1734.21
995.676	1695.79
995.972	1700.08
996.268	1677.26
996.565	1699.63
996.861	1678.61
997.157	1670.03
997.453	1655.34
997.749	1667.09
998.044	1613.76
998.34	1638.84
998.636	1629.12
998.932	1625.51
999.227	1621.44
999.523	1602.68
999.818	1582.35
1000.114	1590.71
1000.409	1581.22
1000.704	1607.88
1001	1557.94
1001.295	1566.98
1001.59	1537.6
1001.885	1547.77
1002.18	1547.32
1002.475	1510.71
1002.77	1517.94
1003.065	1536.24
1003.359	1522.23
1003.654	1499.41
1003.949	1472.29
1004.243	1498.28
1004.538	1482.91
1004.832	1505.06
1005.127	1475.91
1005.421	1489.47
1005.715	1459.41
1006.009	1454.44
1006.304	1452.18
1006.598	1415.8
1006.892	1396.59
1007.186	1406.98
1007.48	1384.38
1007.773	1395.68
1008.067	1364.05
1008.361	1383.93
1008.655	1369.92
1008.948	1369.47
1009.242	1366.08
1009.535	1368.57
1009.829	1352.75
1010.122	1315.01
1010.415	1321.11
1010.708	1311.39
1011.001	1339.19
1011.295	1328.79
1011.588	1285.4
1011.881	1286.76
1012.173	1291.05
1012.466	1275.01
1012.759	1281.79
1013.052	1288.57
1013.344	1257.16
1013.637	1260.77
1013.93	1223.48
1014.222	1239.08
1014.514	1236.82
1014.807	1239.08
1015.099	1235.91
1015.391	1187.55
1015.683	1210.38
1015.976	1210.15
1016.268	1197.5
1016.56	1175.35
1016.851	1173.54
1017.143	1157.95
1017.435	1166.09
1017.727	1153.66
1018.018	1161.57
1018.31	1123.37
1018.602	1137.61
1018.893	1130.15
1019.185	1123.83
1019.476	1116.37
1019.767	1122.24
1020.058	1114.11
1020.35	1121.11
1020.641	1091.74
1020.932	1090.83
1021.223	1063.94
1021.514	1076.37
1021.804	1063.26
1022.095	1089.7
1022.386	1051.51
1022.677	1043.83
1022.967	1021.91
1023.258	1019.87
1023.548	1023.26
1023.839	1016.03
1024.129	1019.42
1024.419	1016.26
1024.709	1017.84
1025	1024.17
1025.29	988.46
1025.58	990.95
1025.87	983.72
1026.16	988.46
1026.449	985.75
1026.739	973.1
1027.029	957.28
1027.319	959.54
1027.608	924.28
1027.898	934.9
1028.187	928.58
1028.477	936.26
1028.766	932.19
1029.055	922.7
1029.344	917.73
1029.634	914.57
1029.923	898.07
1030.212	896.04
1030.501	901.01
1030.79	887.22
1031.078	880.22
1031.367	880.89
1031.656	864.62
1031.945	889.93
1032.233	854.68
1032.522	846.32
1032.81	851.52
1033.099	818.98
1033.387	850.84
1033.675	824.63
1033.963	839.54
1034.251	830.73
1034.54	834.34
1034.828	813.1
1035.116	820.11
1035.403	811.52
1035.691	800.22
1035.979	807.45
1036.267	810.84
1036.554	788.02
1036.842	763.61
1037.129	765.42
1037.417	805.64
1037.704	784.17
1037.992	753.67
1038.279	751.18
1038.566	766.77
1038.853	766.77
1039.14	766.77
