Data from hue_80_FLMS001491_39.txt Node
Date: Mon Feb 06 15:22:55 GMT 2017
User: dcchb
Spectrometer: FLMS00149
Trigger mode: 0
Integration Time (sec): 2.000000E-2
Scans to average: 10
Electric dark correction enabled: true
Nonlinearity correction enabled: false
Boxcar width: 0
XAxis mode: Wavelengths
Number of Pixels in Spectrum: 2048
>>>>>Begin Spectral Data<<<<<
341.393	-20.2
341.776	-20.2
342.16	-20.2
342.543	-40.08
342.927	-60.42
343.31	-64.72
343.693	-85.28
344.077	-76.01
344.46	-65.17
344.843	-43.93
345.226	-46.19
345.61	-21.1
345.993	-23.36
346.376	-0.08
346.759	16.19
347.142	17.09
347.525	44.21
347.908	43.08
348.291	78.33
348.674	101.38
349.057	125.56
349.44	123.08
349.823	137.76
350.206	173.92
350.588	199.01
350.971	213.02
351.354	221.83
351.737	219.8
352.119	237.42
352.502	244.88
352.884	253.69
353.267	281.04
353.65	290.3
354.032	292.34
354.414	301.38
354.797	318.78
355.179	308.16
355.562	312.68
355.944	333.69
356.326	326.23
356.709	322.62
357.091	342.96
357.473	353.8
357.855	339.57
358.238	349.74
358.62	343.64
359.002	338.66
359.384	351.09
359.766	347.7
360.148	352.22
360.53	336.4
360.912	354.48
361.294	336.86
361.676	317.65
362.057	315.84
362.439	320.36
362.821	324.65
363.203	307.48
363.584	324.2
363.966	340.92
364.348	319.68
364.729	322.39
365.111	312.45
365.493	294.14
365.874	328.72
366.256	310.87
366.637	316.97
367.019	318.55
367.4	317.42
367.781	316.52
368.163	313.81
368.544	312.45
368.925	319
369.306	338.66
369.688	302.96
370.069	313.58
370.45	309.06
370.831	323.07
371.212	323.07
371.593	299.12
371.974	319
372.355	291.66
372.736	313.35
373.117	296.63
373.498	311.55
373.879	330.3
374.26	318.78
374.641	325.33
375.021	333.01
375.402	322.17
375.783	319.45
376.163	323.3
376.544	322.62
376.925	313.81
377.305	339.79
377.686	317.42
378.066	343.18
378.447	328.72
378.827	309.51
379.208	339.79
379.588	305.22
379.968	328.72
380.349	321.04
380.729	333.47
381.109	339.79
381.489	359.68
381.87	327.36
382.25	330.75
382.63	319.68
383.01	341.15
383.39	350.87
383.77	327.14
384.15	342.28
384.53	336.63
384.91	363.97
385.29	328.04
385.67	347.93
386.049	350.19
386.429	360.81
386.809	348.83
387.189	331.66
387.568	351.09
387.948	349.51
388.328	343.41
388.707	350.19
389.087	345.67
389.466	362.39
389.846	369.62
390.225	352
390.605	355.39
390.984	369.17
391.363	380.47
391.743	357.42
392.122	352.45
392.501	352.9
392.881	356.06
393.26	370.98
393.639	347.93
394.018	343.18
394.397	362.84
394.776	372.79
395.155	381.6
395.534	388.83
395.913	359.68
396.292	374.59
396.671	374.37
397.05	377.08
397.429	372.79
397.808	385.67
398.186	374.37
398.565	383.41
398.944	367.36
399.323	362.17
399.701	382.05
400.08	380.02
400.458	382.96
400.837	395.61
401.215	393.35
401.594	373.92
401.972	387.48
402.351	398.1
402.729	386.57
403.107	398.32
403.486	398.32
403.864	398.1
404.242	387.93
404.62	396.29
404.999	382.5
405.377	398.1
405.755	413.24
406.133	421.83
406.511	421.37
406.889	423.86
407.267	425.67
407.645	413.69
408.023	409.62
408.401	416.4
408.779	417.31
409.156	439.45
409.534	460.02
409.912	423.63
410.29	434.03
410.667	446.46
411.045	436.29
411.422	430.86
411.8	447.81
412.178	450.98
412.555	439
412.933	446.91
413.31	441.49
413.687	472.22
414.065	464.99
414.442	485.55
414.819	482.16
415.197	483.52
415.574	470.41
415.951	497.76
416.328	464.99
416.705	462.73
417.082	472.9
417.46	486
417.837	488.04
418.214	486.91
418.591	503.18
418.967	497.3
419.344	501.37
419.721	482.39
420.098	504.99
420.475	502.05
420.852	504.99
421.228	509.05
421.605	512.67
421.982	515.61
422.358	509.51
422.735	544.99
423.111	517.19
423.488	520.81
423.864	539.11
424.241	550.86
424.617	550.18
424.994	554.7
425.37	535.27
425.746	539.11
426.123	543.4
426.499	554.7
426.875	560.13
427.251	562.61
427.627	567.81
428.003	565.55
428.379	576.4
428.756	604.19
429.132	599.45
429.507	573.23
429.883	596.96
430.259	575.27
430.635	584.08
431.011	601.48
431.387	617.3
431.763	611.2
432.138	620.69
432.514	610.97
432.89	623.4
433.265	638.54
433.641	635.83
434.016	637.64
434.392	652.78
434.767	635.15
435.143	677.86
435.518	647.58
435.894	660.01
436.269	690.29
436.644	672.44
437.02	704.98
437.395	678.99
437.77	694.81
438.145	685.77
438.52	683.29
438.895	725.09
439.271	730.97
439.646	743.17
440.021	729.61
440.395	737.52
440.77	737.75
441.145	730.07
441.52	744.3
441.895	734.59
442.27	747.92
442.645	752.89
443.019	760.12
443.394	754.92
443.769	757.86
444.143	744.08
444.518	779.1
444.892	788.37
445.267	788.6
445.641	772.55
446.016	826.11
446.39	803.96
446.764	788.6
447.139	814.13
447.513	800.57
447.887	808.48
448.262	793.34
448.636	833.34
449.01	815.94
449.384	813.68
449.758	823.62
450.132	829.95
450.506	833.79
450.88	872.43
451.254	874.47
451.628	868.14
452.002	887.35
452.376	897.52
452.75	876.73
453.123	911.98
453.497	915.15
453.871	908.37
454.244	934.58
454.618	911.76
454.992	952.21
455.365	921.02
455.739	983.84
456.112	967.8
456.486	952.88
456.859	998.31
457.232	979.32
457.606	975.93
457.979	1016.84
458.352	1012.09
458.725	1056.61
459.099	1067.23
459.472	1045.76
459.845	1083.5
460.218	1099.32
460.591	1102.03
460.964	1061.36
461.337	1130.73
461.71	1107
462.083	1154.46
462.456	1147.68
462.829	1138.87
463.201	1171.64
463.574	1184.29
463.947	1203.95
464.32	1239.66
464.692	1242.82
465.065	1239.88
465.438	1263.61
465.81	1300.9
466.183	1318.07
466.555	1319.65
466.928	1311.07
467.3	1339.54
467.672	1366.21
468.045	1401.46
468.417	1402.59
468.789	1414.12
469.161	1436.49
469.534	1459.76
469.906	1500.21
470.278	1518.75
470.65	1561.91
471.022	1583.6
471.394	1619.53
471.766	1638.97
472.138	1662.47
472.51	1695.69
472.882	1733.2
473.253	1727.33
473.625	1774.56
473.997	1878.74
474.369	1858.62
474.74	1905.18
475.112	1966.87
475.484	2003.48
475.855	2040.77
476.227	2080.09
476.598	2121.89
476.97	2189.01
477.341	2215.45
477.713	2319.4
478.084	2321.66
478.455	2393.75
478.827	2441.21
479.198	2538.61
479.569	2551.94
479.94	2664.25
480.311	2723.01
480.682	2807.53
481.053	2933.17
481.424	2981.08
481.795	3062.89
482.166	3173.39
482.537	3164.58
482.908	3285.93
483.279	3388.07
483.65	3461.97
484.021	3581.97
484.391	3674.39
484.762	3745.58
485.133	3792.13
485.503	3940.15
485.874	4031.22
486.244	4107.83
486.615	4270.54
486.985	4350.99
487.356	4478.67
487.726	4633.24
488.097	4747.36
488.467	4821.26
488.837	4966.56
489.207	5041.82
489.578	5177.86
489.948	5308.93
490.318	5452.88
490.688	5552.54
491.058	5717.28
491.428	5813.77
491.798	5889.7
492.168	6117.49
492.538	6215.8
492.908	6346.42
493.278	6468.22
493.648	6594.32
494.017	6741.21
494.387	6898.72
494.757	7041.76
495.126	7153.63
495.496	7244.02
495.866	7375.99
496.235	7447.18
496.605	7665.48
496.974	7792.25
497.344	7860.95
497.713	7962.87
498.082	8057.1
498.452	8230.66
498.821	8343.88
499.19	8429.52
499.559	8540.71
499.928	8692.34
500.298	8786.58
500.667	8906.8
501.036	8996.74
501.405	9143.4
501.774	9160.35
502.143	9318.09
502.512	9448.25
502.88	9534.35
503.249	9597.4
503.618	9738.19
503.987	9827.91
504.356	9975.25
504.724	10024.06
505.093	10096.6
505.462	10161.91
505.83	10316.71
506.199	10432.41
506.567	10610.03
506.936	10554.89
507.304	10698.62
507.672	10807.09
508.041	10866.75
508.409	10998.72
508.777	11090.47
509.145	11238.94
509.514	11197.81
509.882	11264.48
510.25	11433.96
510.618	11486.17
510.986	11482.55
511.354	11598.48
511.722	11738.36
512.09	11874.86
512.458	11871.47
512.826	11922.31
513.193	12016.32
513.561	12060.84
513.929	12179.93
514.297	12339.25
514.664	12368.86
515.032	12468.97
515.4	12465.35
515.767	12588.28
516.135	12722.97
516.502	12580.15
516.869	12868.05
517.237	12887.71
517.604	12812.69
517.972	12960.7
518.339	13049.52
518.706	13027.14
519.073	13064.43
519.44	13132.9
519.808	13312.33
520.175	13281.15
520.542	13447.92
520.909	13493.57
521.276	13487.24
521.643	13609.73
522.009	13663.96
522.376	13746.45
522.743	13809.27
523.11	13853.11
523.477	14034.57
523.843	14011.75
524.21	14187.79
524.577	14181.46
524.943	14203.61
525.31	14312.31
525.676	14401.34
526.043	14369.03
526.409	14519.99
526.776	14476.82
527.142	14606.08
527.508	14642.24
527.874	14757.72
528.241	14804.5
528.607	14790.26
528.973	14869.35
529.339	14788
529.705	15013.53
530.071	14999.97
530.437	15049.92
530.803	15072.97
531.169	15161.55
531.535	15089.24
531.901	15091.27
532.267	15071.61
532.632	15196.13
532.998	15193.64
533.364	15320.19
533.73	15299.85
534.095	15241.77
534.461	15316.57
534.826	15429.34
535.192	15369.91
535.557	15519.51
535.923	15435.89
536.288	15492.16
536.653	15491.49
537.019	15481.77
537.384	15371.71
537.749	15485.84
538.114	15476.8
538.479	15474.76
538.845	15449.45
539.21	15426.4
539.575	15490.81
539.94	15597.7
540.305	15590.69
540.67	15467.53
541.034	15455.78
541.399	15565.38
541.764	15481.09
542.129	15564.7
542.494	15489.9
542.858	15360.42
543.223	15476.57
543.587	15443.8
543.952	15375.78
544.316	15491.03
544.681	15374.65
545.045	15481.99
545.41	15462.11
545.774	15494.65
546.138	15381.88
546.503	15449.68
546.867	15338.72
547.231	15436.8
547.595	15428.66
547.959	15508.89
548.324	15352.73
548.688	15397.02
549.052	15488.1
549.416	15467.31
549.779	15327.65
550.143	15423.01
550.507	15454.65
550.871	15463.69
551.235	15451.94
551.599	15504.37
551.962	15461.43
552.326	15497.13
552.689	15535.1
553.053	15368.32
553.417	15483.12
553.78	15588.66
554.143	15419.62
554.507	15464.37
554.87	15418.94
555.234	15603.57
555.597	15402
555.96	15579.62
556.323	15471.37
556.686	15540.07
557.05	15591.6
557.413	15518.15
557.776	15618.94
558.139	15579.39
558.502	15647.19
558.865	15552.27
559.228	15732.61
559.59	15697.81
559.953	15679.73
560.316	15874.07
560.679	15722.67
561.041	15831.14
561.404	15862.77
561.767	15886.5
562.129	15787.97
562.492	15994.07
562.854	15992.26
563.217	15921.53
563.579	15968.08
563.941	15953.39
564.304	16089.44
564.666	16073.16
565.028	16112.94
565.39	16158.13
565.753	16206.04
566.115	16172.82
566.477	16314.97
566.839	16312.25
567.201	16339.6
567.563	16308.41
567.925	16371.69
568.287	16411.01
568.648	16340.05
569.01	16411.46
569.372	16585.47
569.734	16475.87
570.095	16515.64
570.457	16606.94
570.819	16636.54
571.18	16653.94
571.542	16704.56
571.903	16728.29
572.265	16715.86
572.626	16729.42
572.987	16770.32
573.349	16826.37
573.71	16920.37
574.071	16869.08
574.432	16975.97
574.794	16970.09
575.155	16967.83
575.516	16948.62
575.877	17014.61
576.238	16894.61
576.599	17014.38
576.96	16970.09
577.32	16978.68
577.681	17008.73
578.042	17034.5
578.403	17002.86
578.763	17063.42
579.124	17061.84
579.485	17138.67
579.845	17203.3
580.206	17109.3
580.566	17104.78
580.927	17107.49
581.287	17187.26
581.648	17143.87
582.008	17172.35
582.368	17196.53
582.728	17182.06
583.089	17125.79
583.449	17067.04
583.809	17123.53
584.169	17168.5
584.529	17116.75
584.889	17265
585.249	16998.11
585.609	17115.85
585.969	17218.9
586.329	17087.38
586.688	17066.81
587.048	17151.55
587.408	17025
587.768	17086.92
588.127	17056.87
588.487	17062.74
588.846	17209.18
589.206	16978.45
589.565	17095.96
589.925	17080.6
590.284	17063.42
590.643	17114.95
591.003	17179.35
591.362	17267.26
591.721	17091.44
592.08	17100.03
592.44	17086.7
592.799	16978.23
593.158	17017.55
593.517	17043.76
593.876	17066.81
594.235	17028.62
594.593	17024.55
594.952	16973.25
595.311	16957.89
595.67	17117.21
596.029	17066.13
596.387	17054.38
596.746	17053.48
597.104	16958.57
597.463	17030.43
597.822	17136.64
598.18	16981.84
598.538	16955.18
598.897	17054.38
599.255	16986.81
599.613	17153.14
599.972	16985.68
600.33	17055.29
600.688	16977.55
601.046	17099.58
601.404	17116.98
601.762	17059.13
602.12	17115.4
602.478	17170.09
602.836	17112.91
603.194	17101.84
603.552	17131.89
603.91	17044.44
604.268	17113.14
604.625	17112.01
604.983	17114.72
605.341	17117.88
605.698	17186.13
606.056	17148.39
606.413	17175.06
606.771	17177.09
607.128	17182.97
607.485	17133.25
607.843	17172.12
608.2	17375.28
608.557	17265
608.914	17231.78
609.272	17280.36
609.629	17290.76
609.986	17384.99
610.343	17334.6
610.7	17399.46
611.057	17308.16
611.414	17363.98
611.771	17349.06
612.127	17485.33
612.484	17300.48
612.841	17445.33
613.198	17462.96
613.554	17448.27
613.911	17554.26
614.267	17502.28
614.624	17442.85
614.98	17413.69
615.337	17660.02
615.693	17558.55
616.05	17595.38
616.406	17728.26
616.762	17577.98
617.118	17614.14
617.475	17594.25
617.831	17651.2
618.187	17682.84
618.543	17730.97
618.899	17805.32
619.255	17820.69
619.611	17717.87
619.967	17796.28
620.323	17801.48
620.678	17801.26
621.034	17716.51
621.39	17809.39
621.746	17730.75
622.101	17983.4
622.457	17798.54
622.812	17804.42
623.168	17866.34
623.523	17873.12
623.879	17978.43
624.234	17715.38
624.589	17859.11
624.945	17931.65
625.3	17888.26
625.655	17851.42
626.01	17885.77
626.365	17898.2
626.72	17798.54
627.075	17858.65
627.43	17877.19
627.785	17794.02
628.14	17839.9
628.495	17855.26
628.85	17764.87
629.205	17762.61
629.559	17888.94
629.914	17705.21
630.269	17798.09
630.623	17737.53
630.978	17730.75
631.332	17723.52
631.687	17783.63
632.041	17817.98
632.396	17747.92
632.75	17687.13
633.104	17704.76
633.459	17580.24
633.813	17603.52
634.167	17629.96
634.521	17671.99
634.875	17591.54
635.229	17618.89
635.583	17493.47
635.937	17561.04
636.291	17452.11
636.645	17463.41
636.999	17452.34
637.352	17498.66
637.706	17451.89
638.06	17472.45
638.413	17458.67
638.767	17471.09
639.121	17421.6
639.474	17310.42
639.828	17372.34
640.181	17368.27
640.534	17316.52
640.888	17380.7
641.241	17254.38
641.594	17244.89
641.947	17243.76
642.301	17192.91
642.654	17286.69
643.007	17277.2
643.36	17281.04
643.713	17198.56
644.066	17308.61
644.419	17126.24
644.771	16971.67
645.124	16945.23
645.477	16932.8
645.83	16780.94
646.182	16655.3
646.535	16606.03
646.888	16696.43
647.24	16614.85
647.593	16662.98
647.945	16661.4
648.298	16526.94
648.65	16553.15
649.002	16513.15
649.355	16584.34
649.707	16546.6
650.059	16582.76
650.411	16806.25
650.763	16872.01
651.115	17048.28
651.467	16988.62
651.819	16969.41
652.171	16986.59
652.523	16936.19
652.875	16937.55
653.227	16864.33
653.578	17011.67
653.93	16901.62
654.282	16946.59
654.633	16927.61
654.985	16880.38
655.337	16861.62
655.688	16867.72
656.039	17004.21
656.391	16855.29
656.742	16867.04
657.094	16918.57
657.445	16911.11
657.796	16878.79
658.147	16884.22
658.498	16854.39
658.849	16945.23
659.2	16945.91
659.551	16963.54
659.902	16905.23
660.253	16953.37
660.604	16965.34
660.955	16916.53
661.306	16978.68
661.656	16957.66
662.007	17009.86
662.358	16947.94
662.708	16964.67
663.059	16915.85
663.409	16789.08
663.76	16959.7
664.11	16997.66
664.461	16935.52
664.811	17025.46
665.161	16977.1
665.511	17027.94
665.862	16900.04
666.212	17045.79
666.562	17010.32
666.912	16991.56
667.262	16920.15
667.612	16939.13
667.962	17043.53
668.312	16885.57
668.662	16970.09
669.011	16862.52
669.361	16850.32
669.711	16996.98
670.06	16892.8
670.41	16849.64
670.76	16833.14
671.109	16953.14
671.459	16889.19
671.808	16775.75
672.157	16873.37
672.507	16796.76
672.856	16835.63
673.205	16787.27
673.554	16730.32
673.904	16776.65
674.253	16773.94
674.602	16773.26
674.951	16595.86
675.3	16482.19
675.649	16675.86
675.998	16711.34
676.346	16711.79
676.695	16803.09
677.044	16598.57
677.393	16625.01
677.741	16662.3
678.09	16654.39
678.438	16588.41
678.787	16644.45
679.135	16609.2
679.484	16466.6
679.832	16526.03
680.181	16460.05
680.529	16450.1
680.877	16471.8
681.225	16453.49
681.573	16520.16
681.922	16370.56
682.27	16326.94
682.618	16378.92
682.966	16282.42
683.314	16328.53
683.661	16237.23
684.009	16150.23
684.357	16052.37
684.705	16167.17
685.053	16137.57
685.4	16098.93
685.748	16004.47
686.095	15995.65
686.443	16008.53
686.79	15887.63
687.138	15909.55
687.485	15973.96
687.832	15797.69
688.18	15905.94
688.527	15785.04
688.874	15849.44
689.221	15671.14
689.568	15671.59
689.915	15685.15
690.262	15626.17
690.609	15522.9
690.956	15504.14
691.303	15530.35
691.65	15465.27
691.997	15359.74
692.344	15348.44
692.69	15301.43
693.037	15222.34
693.383	15172.62
693.73	15232.28
694.077	15070.93
694.423	15174.66
694.769	15063.47
695.116	14896.7
695.462	14940.31
695.808	14881.56
696.155	14901.9
696.501	14832.97
696.847	14804.05
697.193	14586.42
697.539	14727.21
697.885	14596.59
698.231	14522.7
698.577	14626.88
698.923	14431.4
699.269	14374.23
699.614	14349.37
699.96	14364.74
700.306	14230.5
700.651	14291.29
700.997	14106.89
701.342	14118.19
701.688	14028.7
702.033	14016.27
702.379	13985.99
702.724	13977.4
703.069	13983.28
703.415	13801.13
703.76	13807.91
704.105	13824.64
704.45	13770.4
704.795	13672.55
705.14	13686.11
705.485	13671.65
705.83	13564.53
706.175	13508.49
706.52	13523.18
706.865	13462.16
707.209	13448.83
707.554	13398.43
707.899	13287.48
708.243	13370.86
708.588	13268.27
708.932	13207.25
709.277	13233.24
709.621	13190.08
709.966	13111.89
710.31	13077.09
710.654	12999.57
710.998	13002.74
711.342	13029.4
711.687	12989.18
712.031	12910.08
712.375	12922.06
712.719	12805.45
713.063	12899.46
713.407	12896.98
713.75	12789.41
714.094	12847.04
714.438	12747.15
714.782	12745.12
715.125	12663.31
715.469	12743.99
715.812	12571.79
716.156	12546.7
716.499	12570.88
716.843	12584.9
717.186	12542.18
717.53	12613.59
717.873	12520.26
718.216	12515.74
718.559	12455.18
718.902	12399.59
719.246	12476.65
719.589	12374.51
719.932	12333.6
720.275	12386.03
720.617	12302.87
720.96	12290.67
721.303	12302.42
721.646	12318.01
721.989	12256.77
722.331	12310.33
722.674	12248.63
723.016	12159.37
723.359	12221.51
723.701	12257.45
724.044	12109.65
724.386	12139.94
724.729	12174.28
725.071	12115.3
725.413	12096.55
725.755	12095.87
726.097	12004.57
726.439	12074.4
726.782	11941.75
727.124	12014.06
727.465	11997.57
727.807	11982.88
728.149	11968.41
728.491	11966.83
728.833	12035.08
729.175	11906.95
729.516	11984.46
729.858	11897.91
730.199	11954.86
730.541	11947.62
730.882	11935.42
731.224	11918.7
731.565	11894.97
731.906	11919.6
732.248	11906.27
732.589	11842.32
732.93	11947.85
733.271	11824.69
733.612	11868.3
733.953	11885.48
734.294	11799.6
734.635	11871.92
734.976	11919.83
735.317	11824.92
735.658	11815.42
735.999	11811.36
736.339	11786.72
736.68	11861.98
737.021	11832.6
737.361	11835.54
737.702	11922.54
738.042	11858.13
738.383	11875.99
738.723	11909.43
739.063	11774.07
739.404	11910.34
739.744	11822.43
740.084	11892.48
740.424	11885.7
740.764	11910.56
741.104	11845.48
741.444	11899.94
741.784	11850.9
742.124	11958.24
742.464	11913.05
742.804	11897.68
743.143	11942.43
743.483	11971.35
743.823	11869.89
744.162	12015.19
744.502	12042.76
744.841	12028.3
745.181	12011.58
745.52	12068.3
745.86	12048.86
746.199	12112.37
746.538	12145.36
746.877	12226.71
747.216	12271.68
747.556	12351
747.895	12274.85
748.234	12346.48
748.573	12398.91
748.911	12372.92
749.25	12515.52
749.589	12456.54
749.928	12549.87
750.267	12683.42
750.605	12699.92
750.944	12731.56
751.283	12825.34
751.621	12910.08
751.96	12896.07
752.298	12988.05
752.636	13140.59
752.975	13053.58
753.313	13173.35
753.651	13320.47
753.989	13280.02
754.327	13406.12
754.666	13455.83
755.004	13631.42
755.342	13737.86
755.679	13797.97
756.017	13872.32
756.355	14035.48
756.693	14100.11
757.031	14235.93
757.368	14232.31
757.706	14335.36
758.044	14506.65
758.381	14623.94
758.719	14726.99
759.056	14808.79
759.394	14897.38
759.731	14963.36
760.068	15121.55
760.405	15196.35
760.743	15270.7
761.08	15358.83
761.417	15418.94
761.754	15572.61
762.091	15623.46
762.428	15798.82
762.765	15793.62
763.102	15982.09
763.438	15956.78
763.775	16038.82
764.112	16272.48
764.449	16344.34
764.785	16404.91
765.122	16377.34
765.458	16499.14
765.795	16526.94
766.131	16727.16
766.467	16748.85
766.804	16790.66
767.14	16795.63
767.476	16927.61
767.812	16923.76
768.148	17059.58
768.485	16967.83
768.821	17044.89
769.157	17177.54
769.492	17183.64
769.828	17215.28
770.164	17218.67
770.5	17247.82
770.836	17379.35
771.171	17373.92
771.507	17351.78
771.842	17373.47
772.178	17384.54
772.513	17490.3
772.849	17450.76
773.184	17408.05
773.519	17507.48
773.855	17420.02
774.19	17499.12
774.525	17533.01
774.86	17526.23
775.195	17603.97
775.53	17599.23
775.865	17512
776.2	17460.02
776.535	17432
776.87	17339.12
777.205	17463.18
777.539	17354.71
777.874	17491.66
778.209	17348.84
778.543	17340.02
778.878	17288.73
779.212	17307.26
779.547	17232.46
779.881	17351.78
780.215	17187.03
780.55	17314.49
780.884	17125.57
781.218	17177.09
781.552	17205.79
781.886	17144.32
782.22	17105.23
782.554	17027.04
782.888	16845.57
783.222	16912.46
783.556	16842.41
783.889	16833.6
784.223	16782.3
784.557	16792.47
784.89	16785.24
785.224	16677.44
785.557	16674.96
785.891	16661.17
786.224	16574.17
786.558	16665.47
786.891	16477.45
787.224	16458.69
787.557	16467.5
787.891	16600.16
788.224	16408.07
788.557	16402.87
788.89	16328.98
789.223	16294.63
789.556	16258.7
789.888	16205.14
790.221	16147.97
790.554	16009.89
790.887	16064.13
791.219	15983.68
791.552	15958.59
791.884	15974.18
792.217	15939.61
792.549	15877.24
792.882	15791.82
793.214	15740.97
793.546	15803.79
793.879	15586.17
794.211	15545.72
794.543	15635.21
794.875	15655.77
795.207	15527.64
795.539	15451.94
795.871	15484.48
796.203	15339.85
796.535	15267.08
796.867	15309.12
797.198	15224.15
797.53	15237.03
797.862	15238.38
798.193	15182.11
798.525	15066.64
798.856	15133.98
799.188	14904.16
799.519	14957.26
799.85	14853.54
800.182	14886.76
800.513	14905.29
800.844	14723.14
801.175	14741.9
801.506	14785.29
801.837	14705.74
802.168	14682.69
802.499	14595.01
802.83	14534.22
803.161	14450.83
803.491	14532.41
803.822	14525.41
804.153	14475.69
804.483	14286.77
804.814	14192.99
805.145	14312.76
805.475	14379.42
805.805	14111.41
806.136	14221.24
806.466	14054.46
806.796	14095.14
807.126	14137.4
807.457	13982.82
807.787	13987.12
808.117	13962.03
808.447	13894.24
808.777	13867.57
809.107	13854.01
809.436	13785.09
809.766	13776.05
810.096	13787.12
810.426	13750.29
810.755	13733.34
811.085	13604.53
811.414	13696.96
811.744	13593.68
812.073	13569.73
812.403	13504.19
812.732	13486.79
813.061	13598.2
813.39	13342.84
813.719	13291.54
814.049	13421.26
814.378	13308.49
814.707	13216.29
815.036	13232.34
815.365	13190.3
815.693	13094.03
816.022	13133.13
816.351	13069.18
816.68	13068.05
817.008	13022.4
817.337	12988.73
817.665	12903.3
817.994	13031.44
818.322	12958.44
818.651	12920.03
818.979	12834.61
819.307	12882.97
819.636	12847.49
819.964	12749.41
820.292	12874.38
820.62	12757.32
820.948	12762.29
821.276	12787.83
821.604	12745.57
821.932	12815.85
822.259	12739.24
822.587	12768.39
822.915	12717.32
823.243	12714.16
823.57	12675.97
823.898	12760.26
824.225	12745.57
824.553	12679.13
824.88	12720.94
825.207	12742.41
825.535	12683.2
825.862	12709.41
826.189	12796.41
826.516	12776.3
826.843	12731.78
827.17	12730.88
827.497	12712.58
827.824	12742.18
828.151	12794.16
828.478	12723.2
828.805	12799.8
829.131	12719.58
829.458	12776.98
829.785	12618.34
830.111	12684.55
830.438	12714.61
830.764	12653.14
831.09	12716.19
831.417	12668.06
831.743	12661.05
832.069	12635.29
832.395	12690.88
832.722	12623.54
833.048	12635.52
833.374	12615.18
833.7	12584.22
834.026	12662.63
834.351	12672.8
834.677	12699.02
835.003	12606.82
835.329	12614.95
835.654	12613.82
835.98	12511.68
836.306	12541.73
836.631	12450.44
836.956	12581.28
837.282	12438.91
837.607	12535.86
837.932	12434.16
838.258	12454.05
838.583	12334.73
838.908	12380.15
839.233	12369.08
839.558	12309.2
839.883	12322.98
840.208	12252.7
840.533	12243.66
840.858	12270.55
841.182	12202.76
841.507	12288.86
841.832	12156.21
842.156	12145.13
842.481	12132.25
842.805	12120.73
843.13	12014.51
843.454	12020.62
843.778	12012.25
844.103	11960.05
844.427	11917.79
844.751	12017
845.075	11864.46
845.399	11883.9
845.723	11830.34
846.047	11826.04
846.371	11691.59
846.695	11662.43
847.019	11614.53
847.343	11629.44
847.666	11581.76
847.99	11445.26
848.313	11491.14
848.637	11375.66
848.96	11377.02
849.284	11293.63
849.607	11387.19
849.931	11263.8
850.254	11116.69
850.577	11148.32
850.9	11049.34
851.223	11010.25
851.546	11020.64
851.869	10918.5
852.192	10925.28
852.515	10806.64
852.838	10840.99
853.161	10774.1
853.483	10775.23
853.806	10684.38
854.129	10748.33
854.451	10704.72
854.774	10594.89
855.096	10564.61
855.419	10574.33
855.741	10515.12
856.063	10435.57
856.385	10433.77
856.708	10436.25
857.03	10369.81
857.352	10349.93
857.674	10318.74
857.996	10266.76
858.318	10259.98
858.64	10250.04
858.961	10222.92
859.283	10151.74
859.605	10120.33
859.926	10118.97
860.248	10152.87
860.57	10063.38
860.891	10112.19
861.212	10057.73
861.534	9987.68
861.855	9994.45
862.176	9980.67
862.498	10005.53
862.819	9927.79
863.14	9881.24
863.461	9854.8
863.782	9841.92
864.103	9892.99
864.424	9795.36
864.745	9816.83
865.065	9757.17
865.386	9807.34
865.707	9700.23
866.027	9789.71
866.348	9698.64
866.668	9715.59
866.989	9662.71
867.309	9589.27
867.63	9632.43
867.95	9605.31
868.27	9579.32
868.59	9585.65
868.91	9596.95
869.23	9542.72
869.55	9478.54
869.87	9524.64
870.19	9520.79
870.51	9538.2
870.83	9519.44
871.15	9405.54
871.469	9476.73
871.789	9480.34
872.109	9457.75
872.428	9377.3
872.748	9481.93
873.067	9406.45
873.386	9440.57
873.706	9370.74
874.025	9325.55
874.344	9349.05
874.663	9273.12
874.982	9356.73
875.301	9365.32
875.62	9220.92
875.939	9218.2
876.258	9207.13
876.577	9199.9
876.896	9189.5
877.214	9142.27
877.533	9148.38
877.852	9135.04
878.17	9153.8
878.489	9170.07
878.807	9100.24
879.125	9069.51
879.444	9126.23
879.762	9111.09
880.08	9108.83
880.398	9040.36
880.716	8992
881.034	9052.11
881.352	8982.28
881.67	8896.18
881.988	9001.49
882.306	8928.72
882.624	8942.5
882.941	8834.94
883.259	8828.38
883.577	8796.52
883.894	8790.19
884.212	8798.78
884.529	8764.2
884.846	8837.2
885.164	8823.64
885.481	8780.02
885.798	8760.14
886.115	8673.59
886.432	8700.03
886.75	8597.43
887.067	8663.87
887.383	8615.06
887.7	8645.56
888.017	8492.8
888.334	8531.22
888.651	8606.02
888.967	8478.56
889.284	8482.86
889.6	8359.47
889.917	8404.67
890.233	8473.14
890.55	8360.6
890.866	8360.15
891.182	8364.89
891.498	8294.39
891.815	8287.38
892.131	8188.85
892.447	8220.49
892.763	8145.24
893.079	8163.99
893.395	8140.04
893.71	8111.57
894.026	8125.8
894.342	8098.46
894.657	8024.56
894.973	8009.65
895.289	8032.7
895.604	7975.3
895.92	7971.68
896.235	7939.82
896.55	7920.61
896.865	7896.66
897.181	7852.36
897.496	7834.29
897.811	7811.69
898.126	7755.19
898.441	7780.05
898.756	7753.61
899.071	7726.72
899.386	7641.3
899.7	7628.64
900.015	7537.57
900.33	7533.95
900.644	7547.74
900.959	7512.03
901.273	7471.13
901.588	7493.96
901.902	7444.47
902.216	7431.58
902.531	7346.84
902.845	7363.56
903.159	7352.49
903.473	7329.67
903.787	7338.71
904.101	7240.4
904.415	7222.55
904.729	7228.43
905.042	7123.12
905.356	7143.46
905.67	7062.78
905.984	7073.4
906.297	7041.31
906.611	7019.84
906.924	7012.61
907.237	6980.07
907.551	7008.77
907.864	6915.89
908.177	6893.07
908.491	6937.36
908.804	6861.2
909.117	6774.43
909.43	6823.24
909.743	6772.39
910.056	6751.6
910.368	6693.75
910.681	6707.31
910.994	6671.6
911.307	6616.46
911.619	6562.23
911.932	6546.18
912.244	6456.92
912.557	6530.82
912.869	6480.87
913.181	6427.54
913.494	6444.72
913.806	6408.79
914.118	6396.13
914.43	6350.48
914.742	6385.51
915.054	6340.99
915.366	6262.58
915.678	6245.85
915.99	6276.36
916.302	6220.32
916.613	6173.31
916.925	6192.29
917.236	6123.14
917.548	6131.05
917.859	6079.98
918.171	6052.41
918.482	6048.8
918.794	6035.01
919.105	6015.8
919.416	5937.84
919.727	5926.09
920.038	5910.95
920.349	5832.98
920.66	5878.63
920.971	5831.63
921.282	5827.11
921.593	5808.58
921.903	5739.65
922.214	5799.99
922.525	5760.44
922.835	5737.84
923.146	5672.53
923.456	5655.81
923.767	5667.34
924.077	5666.88
924.387	5589.82
924.697	5565.87
925.008	5556.38
925.318	5494.69
925.628	5523.39
925.938	5462.14
926.248	5419.43
926.558	5437.29
926.867	5424.63
927.177	5336.5
927.487	5358.19
927.796	5330.85
928.106	5341.92
928.416	5345.54
928.725	5279.78
929.034	5310.28
929.344	5235.94
929.653	5251.08
929.962	5212.66
930.271	5158.2
930.581	5142.6
930.89	5127.01
931.199	5092.89
931.508	5103.51
931.817	5080.91
932.125	5009.5
932.434	5114.13
932.743	4971.08
933.051	4949.84
933.36	4962.95
933.669	4955.04
933.977	4897.41
934.286	4880.92
934.594	4882.05
934.902	4836.17
935.21	4860.13
935.519	4825.78
935.827	4854.7
936.135	4759.11
936.443	4719.34
936.751	4735.84
937.059	4661.26
937.367	4719.11
937.674	4722.05
937.982	4656.06
938.29	4648.83
938.597	4675.27
938.905	4605.44
939.213	4557.08
939.52	4526.58
939.827	4582.62
940.135	4515.05
940.442	4485.67
940.749	4484.54
941.056	4475.73
941.363	4459.46
941.67	4441.38
941.977	4429.86
942.284	4371.33
942.591	4348.05
942.898	4353.25
943.205	4323.42
943.511	4292.91
943.818	4299.01
944.125	4245.23
944.431	4219.01
944.738	4238
945.044	4221.27
945.35	4209.97
945.657	4162.74
945.963	4136.98
946.269	4195.29
946.575	4156.64
946.881	4160.48
947.187	4049.53
947.493	4107.6
947.799	4059.24
948.105	4022.63
948.41	4007.49
948.716	4030.09
949.022	3969.75
949.327	3961.84
949.633	3909.42
949.938	3977.89
950.244	3980.6
950.549	3878.91
950.854	3844.56
951.16	3909.42
951.465	3818.35
951.77	3827.39
952.075	3810.66
952.38	3776.54
952.685	3777.44
952.99	3836.65
953.294	3823.54
953.599	3760.04
953.904	3737.67
954.209	3717.78
954.513	3686.37
954.818	3641.85
955.122	3660.84
955.426	3643.66
955.731	3643.44
956.035	3598.24
956.339	3558.01
956.643	3622.19
956.948	3562.76
957.252	3559.14
957.556	3579.71
957.86	3538.81
958.163	3515.08
958.467	3519.6
958.771	3486.38
959.075	3499.03
959.378	3474.17
959.682	3473.72
959.985	3427.4
960.289	3419.03
960.592	3410.22
960.896	3387.62
961.199	3403.89
961.502	3341.52
961.805	3349.66
962.108	3339.49
962.411	3326.38
962.714	3274.41
963.017	3273.5
963.32	3254.74
963.623	3271.69
963.926	3238.7
964.228	3255.2
964.531	3230.79
964.833	3212.94
965.136	3231.24
965.438	3172.04
965.741	3147.86
966.043	3118.93
966.345	3128.65
966.648	3091.36
966.95	3070.34
967.252	3094.98
967.554	3083
967.856	3044.35
968.158	3064.47
968.46	3015.66
968.761	3050.23
969.063	3038.48
969.365	3015.88
969.666	3000.29
969.968	2981.08
970.269	2938.82
970.571	2976.33
970.872	2957.35
971.174	2964.81
971.475	2910.8
971.776	2923
972.077	2882.78
972.378	2869.22
972.679	2883.46
972.98	2855.21
973.281	2835.32
973.582	2838.71
973.883	2818.82
974.183	2777.7
974.484	2813.85
974.785	2768.66
975.085	2766.62
975.386	2784.7
975.686	2760.97
975.986	2698.6
976.287	2731.59
976.587	2682.56
976.887	2656.57
977.187	2683.01
977.487	2686.85
977.787	2649.79
978.087	2642.33
978.387	2618.38
978.687	2655.66
978.987	2589.9
979.286	2621.32
979.586	2593.97
979.885	2565.95
980.185	2587.64
980.484	2562.56
980.784	2540.87
981.083	2525.27
981.382	2533.86
981.682	2517.82
981.981	2499.28
982.28	2480.08
982.579	2461.77
982.878	2472.17
983.177	2453.64
983.475	2431.72
983.774	2422.45
984.073	2401.21
984.372	2412.73
984.67	2403.24
984.969	2382.23
985.267	2360.31
985.566	2367.54
985.864	2371.38
986.162	2361.89
986.461	2348.55
986.759	2358.72
987.057	2337.93
987.355	2300.87
987.653	2308.78
987.951	2326.18
988.249	2272.17
988.547	2269.23
988.844	2270.82
989.142	2231.49
989.44	2276.69
989.737	2247.09
990.035	2215
990.332	2209.8
990.63	2207.99
990.927	2205.73
991.224	2187.88
991.521	2159.63
991.819	2123.93
992.116	2195.34
992.413	2163.7
992.71	2143.14
993.006	2132.97
993.303	2076.47
993.6	2113.08
993.897	2088.9
994.193	2087.54
994.49	2080.09
994.787	2062.69
995.083	2039.18
995.379	2065.85
995.676	2006.87
995.972	1988.11
996.268	1994.44
996.565	2007.55
996.861	1995.57
997.157	1967.32
997.453	1984.95
997.749	1975
998.044	1970.71
998.34	1946.76
998.636	1937.49
998.932	1936.36
999.227	1932.97
999.523	1918.73
999.818	1883.03
1000.114	1899.53
1000.409	1873.76
1000.704	1918.06
1001	1863.6
1001.295	1850.04
1001.59	1831.51
1001.885	1857.49
1002.18	1828.12
1002.475	1814.33
1002.77	1817.95
1003.065	1806.87
1003.359	1777.04
1003.654	1752.86
1003.949	1731.62
1004.243	1762.13
1004.538	1741.79
1004.832	1718.29
1005.127	1744.73
1005.421	1718.97
1005.715	1730.94
1006.009	1689.36
1006.304	1701.79
1006.598	1665.18
1006.892	1669.02
1007.186	1688.46
1007.48	1654.11
1007.773	1631.51
1008.067	1610.27
1008.361	1615.69
1008.655	1626.54
1008.948	1621.79
1009.242	1608.91
1009.535	1603.71
1009.829	1577.27
1010.122	1544.51
1010.415	1579.99
1010.708	1569.82
1011.001	1547.9
1011.295	1532.98
1011.588	1527.11
1011.881	1541.12
1012.173	1499.76
1012.466	1483.27
1012.759	1495.24
1013.052	1511.29
1013.344	1492.98
1013.637	1451.18
1013.93	1462.93
1014.222	1463.15
1014.514	1455.47
1014.807	1452.31
1015.099	1437.84
1015.391	1419.54
1015.683	1417.96
1015.976	1421.8
1016.268	1413.66
1016.56	1396.94
1016.851	1395.13
1017.143	1363.95
1017.435	1403.72
1017.727	1362.37
1018.018	1321.46
1018.31	1369.6
1018.602	1345.87
1018.893	1304.97
1019.185	1303.84
1019.476	1304.74
1019.767	1312.42
1020.058	1313.33
1020.35	1288.24
1020.641	1263.84
1020.932	1273.1
1021.223	1261.35
1021.514	1269.71
1021.804	1267.23
1022.095	1234.01
1022.386	1227.91
1022.677	1237.62
1022.967	1237.85
1023.258	1204.18
1023.548	1196.95
1023.839	1226.32
1024.129	1196.72
1024.419	1190.62
1024.709	1181.35
1025	1149.26
1025.29	1164.18
1025.58	1140.68
1025.87	1114.24
1026.16	1133.44
1026.449	1154.01
1026.739	1133.44
1027.029	1102.26
1027.319	1109.26
1027.608	1116.27
1027.898	1092.99
1028.187	1076.72
1028.477	1107.68
1028.766	1089.15
1029.055	1043.96
1029.344	1035.82
1029.634	1045.31
1029.923	1064.07
1030.212	1055.25
1030.501	1054.8
1030.79	1018.87
1031.078	1058.42
1031.367	1000.34
1031.656	995.14
1031.945	1000.34
1032.233	1004.63
1032.522	1031.98
1032.81	982.94
1033.099	983.84
1033.387	984.97
1033.675	987.69
1033.963	943.85
1034.251	977.06
1034.54	951.98
1034.828	933.45
1035.116	924.64
1035.403	931.42
1035.691	916.28
1035.979	905.43
1036.267	926.44
1036.554	939.78
1036.842	925.77
1037.129	907.24
1037.417	891.87
1037.704	897.52
1037.992	899.33
1038.279	884.41
1038.566	856.39
1038.853	856.39
1039.14	856.39
