Data from hue_210_FLMS001491_00057.txt Node
Date: Tue Feb 07 16:41:24 GMT 2017
User: dcchb
Spectrometer: FLMS00149
Trigger mode: 0
Integration Time (sec): 2.000000E-2
Scans to average: 10
Electric dark correction enabled: true
Nonlinearity correction enabled: false
Boxcar width: 0
XAxis mode: Wavelengths
Number of Pixels in Spectrum: 2048
>>>>>Begin Spectral Data<<<<<
341.393	-28.97
341.776	-28.97
342.16	-28.97
342.543	-55.86
342.927	-66.26
343.31	-60.38
343.693	-74.16
344.077	-53.6
344.46	-52.92
344.843	-44.11
345.226	-44.33
345.61	-9.76
345.993	-38.69
346.376	-29.65
346.759	-0.72
347.142	16.91
347.525	39.05
347.908	49.9
348.291	71.37
348.674	108.88
349.057	122.21
349.44	127.41
349.823	144.81
350.206	165.15
350.588	191.82
350.971	204.25
351.354	208.54
351.737	226.84
352.119	225.49
352.502	243.79
352.884	270.23
353.267	282.89
353.65	283.79
354.032	288.76
354.414	298.93
354.797	309.55
355.179	303.45
355.562	312.04
355.944	328.31
356.326	326.5
356.709	330.34
357.091	310.46
357.473	326.95
357.855	335.54
358.238	332.15
358.62	322.44
359.002	333.51
359.384	340.74
359.766	336.9
360.148	342.55
360.53	333.28
360.912	323.34
361.294	330.12
361.676	312.49
362.057	343
362.439	354.07
362.821	310.91
363.203	320.18
363.584	314.98
363.966	317.46
364.348	294.64
364.729	298.48
365.111	326.28
365.493	331.25
365.874	328.76
366.256	311.81
366.637	314.3
367.019	324.24
367.4	324.02
367.781	321.08
368.163	322.44
368.544	293.06
368.925	298.25
369.306	320.63
369.688	323.56
370.069	293.51
370.45	293.28
370.831	296.67
371.212	311.36
371.593	322.21
371.974	308.2
372.355	301.87
372.736	312.27
373.117	311.81
373.498	326.28
373.879	304.81
374.26	317.01
374.641	312.04
375.021	293.74
375.402	326.5
375.783	327.41
376.163	315.66
376.544	339.16
376.925	324.02
377.305	333.06
377.686	308.88
378.066	318.14
378.447	301.42
378.827	334.86
379.208	310.91
379.588	313.62
379.968	323.34
380.349	315.88
380.729	332.83
381.109	338.25
381.489	321.53
381.87	338.71
382.25	337.12
382.63	319.05
383.01	322.66
383.39	334.41
383.77	335.54
384.15	330.12
384.53	351.59
384.91	331.93
385.29	358.37
385.67	347.52
386.049	332.83
386.429	325.6
386.809	350.46
387.189	357.91
387.568	326.05
387.948	357.69
388.328	328.54
388.707	345.94
389.087	350.68
389.466	338.71
389.846	361.08
390.225	348.65
390.605	357.91
390.984	362.43
391.363	351.13
391.743	348.65
392.122	352.04
392.501	387.74
392.881	374.41
393.26	356.33
393.639	383.22
394.018	373.96
394.397	389.33
394.776	386.84
395.155	394.98
395.534	371.02
395.913	370.8
396.292	363.11
396.671	388.42
397.05	401.98
397.429	383.68
397.808	381.87
398.186	394.98
398.565	378.7
398.944	390.46
399.323	398.37
399.701	415.77
400.08	399.5
400.458	401.98
400.837	422.77
401.215	408.31
401.594	400.4
401.972	402.88
402.351	424.58
402.729	415.09
403.107	426.39
403.486	411.7
403.864	414.41
404.242	428.42
404.62	435.2
404.999	441.53
405.377	432.26
405.755	446.5
406.133	441.98
406.511	465.48
406.889	449.44
407.267	484.24
407.645	463.67
408.023	483.33
408.401	469.32
408.779	480.62
409.156	454.63
409.534	501.19
409.912	488.53
410.29	486.95
410.667	520.85
411.045	505.71
411.422	502.77
411.8	527.4
412.178	537.8
412.555	558.59
412.933	540.73
413.31	589.09
413.687	580.73
414.065	576.89
414.442	572.37
414.819	612.82
415.197	597
415.574	594.74
415.951	637.91
416.328	620.28
416.705	624.8
417.082	643.1
417.46	648.08
417.837	654.4
418.214	668.41
418.591	677.91
418.967	710.9
419.344	688.08
419.721	707.06
420.098	733.5
420.475	729.66
420.852	739.83
421.228	736.21
421.605	785.93
421.982	771.24
422.358	764.01
422.735	798.35
423.111	813.27
423.488	818.47
423.864	828.41
424.241	862.31
424.617	856.88
424.994	870.44
425.37	880.39
425.746	882.65
426.123	903.44
426.499	925.81
426.875	944.34
427.251	959.71
427.627	944.11
428.003	946.37
428.379	989.99
428.756	1004
429.132	1017.33
429.507	1015.3
429.883	1019.14
430.259	1068.4
430.635	1051.23
431.011	1076.54
431.387	1087.61
431.763	1096.43
432.138	1118.57
432.514	1147.05
432.89	1151.34
433.265	1171.68
433.641	1200.15
434.016	1184.79
434.392	1263.88
434.767	1265.91
435.143	1266.37
435.518	1327.38
435.894	1333.71
436.269	1324.22
436.644	1354.72
437.02	1371.22
437.395	1397.66
437.77	1388.62
438.145	1459.35
438.52	1456.42
438.895	1489.64
439.271	1484.44
439.646	1534.83
440.021	1570.31
440.395	1580.26
440.77	1557.88
441.145	1626.58
441.52	1626.58
441.895	1665.9
442.27	1699.12
442.645	1663.87
443.019	1713.36
443.394	1727.37
443.769	1758.56
444.143	1736.18
444.518	1798.55
444.892	1773.02
445.267	1798.1
445.641	1819.57
446.016	1830.19
446.39	1831.1
446.764	1842.85
447.139	1850.76
447.513	1910.87
447.887	1928.49
448.262	1936.18
448.636	1923.3
449.01	1966.23
449.384	1941.6
449.758	1978.66
450.132	2000.13
450.506	2006.23
450.88	2036.97
451.254	2013.24
451.628	2058.66
452.002	2072.67
452.376	2097.53
452.75	2093.91
453.123	2148.83
453.497	2152.44
453.871	2184.31
454.244	2261.14
454.618	2227.02
454.992	2247.58
455.365	2253.46
455.739	2323.06
456.112	2323.51
456.486	2325.09
456.859	2371.87
457.232	2398.99
457.606	2383.85
457.979	2453.68
458.352	2477.86
458.725	2508.14
459.099	2518.08
459.472	2546.56
459.845	2561.02
460.218	2611.19
460.591	2625.88
460.964	2665.42
461.337	2674.24
461.71	2736.61
462.083	2740.45
462.456	2776.83
462.829	2770.28
463.201	2782.48
463.574	2841.24
463.947	2866.77
464.32	2907.68
464.692	2984.74
465.065	2927.11
465.438	2981.35
465.81	3065.87
466.183	3097.05
466.555	3156.94
466.928	3167.11
467.3	3198.97
467.672	3185.18
468.045	3304.05
468.417	3305.86
468.789	3295.69
469.161	3336.59
469.534	3410.49
469.906	3449.13
470.278	3492.97
470.65	3566.19
471.022	3597.6
471.394	3612.29
471.766	3641.44
472.138	3661.33
472.51	3764.15
472.882	3792.4
473.253	3851.61
473.625	3892.96
473.997	3961.89
474.369	3949.01
474.74	4049.57
475.112	4083.69
475.484	4173.86
475.855	4208.21
476.227	4247.3
476.598	4379.96
476.97	4349.67
477.341	4492.27
477.713	4548.09
478.084	4572.04
478.455	4675.31
478.827	4675.09
479.198	4832.37
479.569	4780.62
479.94	4901.52
480.311	4993.5
480.682	5085.25
481.053	5191.01
481.424	5250.67
481.795	5259.71
482.166	5357.33
482.537	5393.71
482.908	5510.77
483.279	5525.24
483.65	5626.93
484.021	5693.59
484.391	5748.28
484.762	5783.53
485.133	5826.02
485.503	5916.86
485.874	6042.51
486.244	6083.64
486.615	6189.85
486.985	6210.19
487.356	6339.45
487.726	6362.05
488.097	6455.61
488.467	6461.71
488.837	6572.21
489.207	6637.98
489.578	6737.63
489.948	6798.2
490.318	6843.39
490.688	6871.19
491.058	6959.77
491.428	7004.07
491.798	7138.53
492.168	7227.34
492.538	7261.24
492.908	7308.24
493.278	7330.61
493.648	7338.75
494.017	7434.56
494.387	7503.26
494.757	7544.84
495.126	7628.46
495.496	7660.1
495.866	7697.16
496.235	7784.84
496.605	7810.83
496.974	7814.67
497.344	7869.58
497.713	7925.17
498.082	7996.36
498.452	7990.71
498.821	8018.73
499.19	8046.3
499.559	8166.52
499.928	8184.6
500.298	8194.77
500.667	8216.01
501.036	8212.17
501.405	8293.07
501.774	8297.14
502.143	8322.9
502.512	8375.1
502.88	8373.3
503.249	8367.87
503.618	8417.59
503.987	8441.09
504.356	8436.57
504.724	8510.92
505.093	8531.48
505.462	8534.87
505.83	8627.3
506.199	8561.31
506.567	8665.72
506.936	8621.43
507.304	8645.15
507.672	8666.17
508.041	8741.65
508.409	8810.57
508.777	8817.8
509.145	8788.65
509.514	8839.95
509.882	8846.73
510.25	8887.63
510.618	8862.1
510.986	8872.94
511.354	8887.86
511.722	8895.77
512.09	8987.97
512.458	8910.23
512.826	8986.84
513.193	9015.09
513.561	9010.79
513.929	9013.96
514.297	9082.88
514.664	9065.48
515.032	9045.37
515.4	9082.66
515.767	9115.42
516.135	9127.18
516.502	9026.84
516.869	9174.86
517.237	9146.16
517.604	9115.42
517.972	9138.02
518.339	9120.85
518.706	9149.77
519.073	9096.89
519.44	9219.15
519.808	9232.71
520.175	9177.12
520.542	9264.35
520.909	9224.12
521.276	9219.83
521.643	9179.83
522.009	9297.57
522.376	9262.76
522.743	9229.32
523.11	9315.87
523.477	9340.28
523.843	9295.53
524.21	9375.76
524.577	9339.83
524.943	9303.22
525.31	9309.32
525.676	9377.11
526.043	9448.75
526.409	9381.18
526.776	9438.13
527.142	9431.8
527.508	9433.83
527.874	9375.98
528.241	9420.27
528.607	9363.55
528.973	9421.4
529.339	9409.43
529.705	9464.79
530.071	9405.36
530.437	9399.26
530.803	9398.13
531.169	9409.88
531.535	9304.57
531.901	9305.93
532.267	9237.68
532.632	9256.44
532.998	9312.93
533.364	9276.78
533.73	9208.3
534.095	9227.96
534.461	9248.75
534.826	9289.43
535.192	9234.07
535.557	9215.53
535.923	9172.15
536.288	9139.15
536.653	9177.57
537.019	9035.65
537.384	9044.47
537.749	9082.88
538.114	8956.11
538.479	8928.54
538.845	8975.54
539.21	8865.49
539.575	8907.29
539.94	8888.09
540.305	8883.57
540.67	8787.52
541.034	8796.56
541.399	8801.08
541.764	8736
542.129	8727.64
542.494	8672.05
542.858	8644.25
543.223	8606.29
543.587	8578.72
543.952	8553.41
544.316	8553.63
544.681	8464.59
545.045	8544.14
545.41	8491.03
545.774	8406.06
546.138	8427.98
546.503	8347.76
546.867	8284.49
547.231	8317.93
547.595	8324.94
547.959	8269.12
548.324	8206.97
548.688	8156.35
549.052	8141.66
549.416	8082.46
549.779	8039.75
550.143	8007.88
550.507	8064.38
550.871	7973.76
551.235	8017.37
551.599	7933.31
551.962	7910.03
552.326	7889.92
552.689	7896.25
553.053	7845.63
553.417	7790.94
553.78	7810.83
554.143	7743.71
554.507	7719.75
554.87	7713.88
555.234	7780.54
555.597	7678.85
555.96	7626.65
556.323	7638.17
556.686	7605.41
557.05	7613.09
557.413	7602.47
557.776	7619.42
558.139	7562.92
558.502	7556.14
558.865	7623.03
559.228	7582.36
559.59	7498.29
559.953	7448.12
560.316	7495.58
560.679	7526.31
561.041	7518.4
561.404	7467.56
561.767	7507.78
562.129	7398.18
562.492	7432.53
562.854	7433.89
563.217	7383.27
563.579	7413.1
563.941	7363.15
564.304	7417.39
564.666	7441.57
565.028	7393.44
565.39	7394.79
565.753	7440.89
566.115	7444.51
566.477	7436.15
566.839	7384.4
567.201	7512.75
567.563	7501
567.925	7446.32
568.287	7443.15
568.648	7388.92
569.01	7445.19
569.372	7514.56
569.734	7445.86
570.095	7488.8
570.457	7447.45
570.819	7443.83
571.18	7466.65
571.542	7491.51
571.903	7487.22
572.265	7517.05
572.626	7473.89
572.987	7496.48
573.349	7532.19
573.71	7467.78
574.071	7499.2
574.432	7541.45
574.794	7575.58
575.155	7548.91
575.516	7535.13
575.877	7549.36
576.238	7515.47
576.599	7556.14
576.96	7548.69
577.32	7555.24
577.681	7578.74
578.042	7582.13
578.403	7583.04
578.763	7608.35
579.124	7586.88
579.485	7665.29
579.845	7665.07
580.206	7620.55
580.566	7605.41
580.927	7621
581.287	7680.21
581.648	7652.19
582.008	7656.93
582.368	7655.8
582.728	7687.89
583.089	7711.62
583.449	7650.15
583.809	7722.47
584.169	7733.31
584.529	7678.85
584.889	7707.78
585.249	7722.92
585.609	7705.74
585.969	7702.58
586.329	7730.83
586.688	7746.65
587.048	7746.19
587.408	7741
587.768	7736.25
588.127	7744.84
588.487	7772.86
588.846	7786.87
589.206	7755.01
589.565	7749.81
589.925	7805.85
590.284	7769.47
590.643	7817.38
591.003	7818.74
591.362	7882.24
591.721	7750.26
592.08	7823.71
592.44	7789.58
592.799	7824.38
593.158	7811.5
593.517	7817.61
593.876	7812.63
594.235	7890.82
594.593	7806.31
594.952	7859.64
595.311	7833.88
595.67	7859.86
596.029	7820.54
596.387	7819.41
596.746	7872.97
597.104	7802.69
597.463	7865.29
597.822	7822.8
598.18	7810.6
598.538	7781.45
598.897	7858.73
599.255	7790.49
599.613	7955.91
599.972	7863.48
600.33	7782.13
600.688	7882.01
601.046	7888.34
601.404	7829.58
601.762	7813.76
602.12	7900.77
602.478	7881.11
602.836	7905.96
603.194	7815.12
603.552	7896.25
603.91	7796.81
604.268	7856.7
604.625	7849.02
604.983	7898.06
605.341	7842.01
605.698	7910.48
606.056	7861.9
606.413	7875.91
606.771	7934.66
607.128	7932.86
607.485	7884.27
607.843	7883.59
608.2	7942.35
608.557	7926.98
608.914	7932.63
609.272	7959.3
609.629	7928.11
609.986	7918.85
610.343	7904.61
610.7	7978.73
611.057	7943.7
611.414	7937.38
611.771	7974.44
612.127	8026.64
612.484	7950.94
612.841	7965.17
613.198	7951.39
613.554	7964.27
613.911	8054.66
614.267	8056.92
614.624	8040.88
614.98	8004.04
615.337	8062.12
615.693	8037.94
616.05	8051.5
616.406	8052.63
616.762	8090.14
617.118	8055.34
617.475	8021.89
617.831	8064.83
618.187	8053.76
618.543	8054.21
618.899	8116.58
619.255	8035.9
619.611	8092.85
619.967	8107.77
620.323	8124.72
620.678	8129.91
621.034	8085.62
621.39	8085.17
621.746	8116.58
622.101	8146.18
622.457	8093.76
622.812	8119.29
623.168	8109.57
623.523	8100.08
623.879	8106.64
624.234	8129.24
624.589	8143.92
624.945	8147.09
625.3	8134.21
625.655	8109.8
626.01	8094.21
626.365	8127.2
626.72	8060.76
627.075	8095.11
627.43	8112.74
627.785	8048.56
628.14	8071.61
628.495	8079.52
628.85	8059.63
629.205	8015.57
629.559	8059.41
629.914	8056.92
630.269	8141.89
630.623	8001.78
630.978	8013.08
631.332	8013.08
631.687	8018.96
632.041	8003.81
632.396	7979.18
632.75	8066.64
633.104	8024.38
633.459	8009.24
633.813	7962.91
634.167	7957.26
634.521	7938.73
634.875	7963.82
635.229	7946.19
635.583	7910.03
635.937	7863.03
636.291	7858.28
636.645	7928.34
636.999	7899.18
637.352	7918.39
637.706	7820.09
638.06	7889.92
638.413	7926.53
638.767	7817.38
639.121	7835.46
639.474	7812.41
639.828	7838.4
640.181	7873.87
640.534	7834.78
640.888	7783.26
641.241	7748
641.594	7738.51
641.947	7785.06
642.301	7797.94
642.654	7811.05
643.007	7790.04
643.36	7778.28
643.713	7758.62
644.066	7787.32
644.419	7732.64
644.771	7674.56
645.124	7571.51
645.477	7588.46
645.83	7484.96
646.182	7491.06
646.535	7501
646.888	7486.31
647.24	7515.24
647.593	7527.9
647.945	7508.23
648.298	7512.53
648.65	7439.99
649.002	7433.89
649.355	7487.9
649.707	7472.98
650.059	7512.53
650.411	7587.55
650.763	7642.92
651.115	7671.62
651.467	7675.46
651.819	7728.34
652.171	7647.89
652.523	7633.88
652.875	7623.71
653.227	7552.08
653.578	7681.11
653.93	7671.39
654.282	7623.26
654.633	7594.56
654.985	7617.84
655.337	7679.3
655.688	7624.16
656.039	7693.54
656.391	7624.16
656.742	7681.56
657.094	7689.7
657.445	7664.61
657.796	7686.76
658.147	7662.13
658.498	7716.59
658.849	7724.73
659.2	7677.95
659.551	7638.4
659.902	7759.75
660.253	7684.05
660.604	7753.43
660.955	7708.46
661.306	7701.45
661.656	7720.43
662.007	7684.28
662.358	7712.75
662.708	7763.37
663.059	7738.29
663.409	7670.72
663.76	7706.42
664.11	7730.6
664.461	7765.4
664.811	7827.55
665.161	7693.31
665.511	7724.05
665.862	7724.27
666.212	7788
666.562	7766.76
666.912	7749.13
667.262	7783.48
667.612	7770.6
667.962	7744.84
668.312	7779.64
668.662	7786.87
669.011	7772.41
669.361	7745.52
669.711	7742.13
670.06	7693.09
670.41	7742.35
670.76	7681.56
671.109	7730.6
671.459	7772.63
671.808	7640.21
672.157	7746.65
672.507	7757.72
672.856	7675.24
673.205	7672.52
673.554	7741.67
673.904	7686.08
674.253	7701
674.602	7682.24
674.951	7613.54
675.3	7569.02
675.649	7674.78
675.998	7634.56
676.346	7639.76
676.695	7624.84
677.044	7605.18
677.393	7646.08
677.741	7653.99
678.09	7585.97
678.438	7596.82
678.787	7582.81
679.135	7638.85
679.484	7502.13
679.832	7606.09
680.181	7529.93
680.529	7550.95
680.877	7515.92
681.225	7529.25
681.573	7509.14
681.922	7482.47
682.27	7482.7
682.618	7361.12
682.966	7389.82
683.314	7400.44
683.661	7403.15
684.009	7373.32
684.357	7329.93
684.705	7356.37
685.053	7364.96
685.4	7310.5
685.748	7291.07
686.095	7332.42
686.443	7249.94
686.79	7277.73
687.138	7270.27
687.485	7285.19
687.832	7264.17
688.18	7182.82
688.527	7222.82
688.874	7117.06
689.221	7093.1
689.568	7086.1
689.915	7109.15
690.262	7120.67
690.609	7080.22
690.956	6992.54
691.303	7061.69
691.65	6938.08
691.997	7021.92
692.344	6928.14
692.69	6968.36
693.037	6903.96
693.383	6850.85
693.73	6867.35
694.077	6841.59
694.423	6813.79
694.769	6797.52
695.116	6762.49
695.462	6776.5
695.808	6696.28
696.155	6781.47
696.501	6691.76
696.847	6628.94
697.193	6565.21
697.539	6593.23
697.885	6556.4
698.231	6567.24
698.577	6516.62
698.923	6533.12
699.269	6448.15
699.614	6458.77
699.96	6386.23
700.306	6414.48
700.651	6340.81
700.997	6371.54
701.342	6295.39
701.688	6294.71
702.033	6239.57
702.379	6248.38
702.724	6223.3
703.069	6289.51
703.415	6220.13
703.76	6182.17
704.105	6135.39
704.45	6140.14
704.795	6083.87
705.14	6077.31
705.485	6078.89
705.83	6071.66
706.175	6025.11
706.52	6006.13
706.865	6002.51
707.209	6022.17
707.554	5968.39
707.899	5950.99
708.243	5913.7
708.588	5926.13
708.932	5861.05
709.277	5866.24
709.621	5868.05
709.966	5818.79
710.31	5824.21
710.654	5845.68
710.998	5760.26
711.342	5748.73
711.687	5762.29
712.031	5714.38
712.375	5709.19
712.719	5711.45
713.063	5727.72
713.407	5716.19
713.75	5663.99
714.094	5700.82
714.438	5682.29
714.782	5628.74
715.125	5621.96
715.469	5728.85
715.812	5673.25
716.156	5632.35
716.499	5606.82
716.843	5670.09
717.186	5591.22
717.53	5582.64
717.873	5593.71
718.216	5584.9
718.559	5570.88
718.902	5468.06
719.246	5508.06
719.589	5520.26
719.932	5506.71
720.275	5550.09
720.617	5518.46
720.96	5420.38
721.303	5497.44
721.646	5523.43
721.989	5470.77
722.331	5473.49
722.674	5557.33
723.016	5542.64
723.359	5493.6
723.701	5497.44
724.044	5437.78
724.386	5432.36
724.729	5437.78
725.071	5440.27
725.413	5411.11
725.755	5450.89
726.097	5414.73
726.439	5427.84
726.782	5385.8
727.124	5465.35
727.465	5411.79
727.807	5449.08
728.149	5369.99
728.491	5404.34
728.833	5364.79
729.175	5453.6
729.516	5422.19
729.858	5385.8
730.199	5438.23
730.541	5460.83
730.882	5443.88
731.224	5416.31
731.565	5351.46
731.906	5395.07
732.248	5405.24
732.589	5381.96
732.93	5413.83
733.271	5389.42
733.612	5348.97
733.953	5454.96
734.294	5407.05
734.635	5394.39
734.976	5432.13
735.317	5436.88
735.658	5384.9
735.999	5365.69
736.339	5392.81
736.68	5440.49
737.021	5463.32
737.361	5417.67
737.702	5436.42
738.042	5467.84
738.383	5459.7
738.723	5497.21
739.063	5493.82
739.404	5505.12
739.744	5522.98
740.084	5468.74
740.424	5516.65
740.764	5503.32
741.104	5572.47
741.444	5526.37
741.784	5586.03
742.124	5574.5
742.464	5589.42
742.804	5599.58
743.143	5633.48
743.483	5595.06
743.823	5655.4
744.162	5670.09
744.502	5679.13
744.841	5731.11
745.181	5788.05
745.52	5827.83
745.86	5874.38
746.199	5888.62
746.538	5904.89
746.877	5943.3
747.216	6016.3
747.556	6029.63
747.895	6054.04
748.234	6104.66
748.573	6123.19
748.911	6166.12
749.25	6277.98
749.589	6265.1
749.928	6367.7
750.267	6384.65
750.605	6534.93
750.944	6567.92
751.283	6566.11
751.621	6710.52
751.96	6775.15
752.298	6865.31
752.636	6957.29
752.975	7067.12
753.313	7145.31
753.651	7243.61
753.989	7317.28
754.327	7388.24
754.666	7508.01
755.004	7675.91
755.342	7776.25
755.679	7898.06
756.017	7964.27
756.355	8172.62
756.693	8284.49
757.031	8423.92
757.368	8519.73
757.706	8611.48
758.044	8828.88
758.381	9034.52
758.719	9129.66
759.056	9294.18
759.394	9489.43
759.731	9554.28
760.068	9636.54
760.405	9808.29
760.743	10005.12
761.08	10257.77
761.417	10326.47
761.754	10504.54
762.091	10606.46
762.428	10789.28
762.765	11020.23
763.102	11204.41
763.438	11281.69
763.775	11471.07
764.112	11663.61
764.449	11881
764.785	12026.08
765.122	12096.36
765.458	12308.56
765.795	12448.22
766.131	12571.83
766.467	12693.41
766.804	12893.18
767.14	12955.1
767.476	13113.74
767.812	13313.96
768.148	13427.4
768.485	13562.54
768.821	13693.61
769.157	13813.15
769.492	13915.07
769.828	14054.05
770.164	14070.32
770.5	14219.02
770.836	14373.37
771.171	14518.45
771.507	14567.03
771.842	14627.6
772.178	14772.22
772.513	14875.05
772.849	14918.21
773.184	15023.07
773.519	15158.2
773.855	15124.08
774.19	15203.63
774.525	15280.69
774.86	15509.38
775.195	15426.22
775.53	15469.16
775.865	15556.38
776.2	15562.71
776.535	15554.35
776.87	15748.47
777.205	15758.19
777.539	15732.2
777.874	15885.19
778.209	15770.84
778.543	15865.76
778.878	15879.99
779.212	15970.61
779.547	15937.62
779.881	16098.52
780.215	15905.3
780.55	16059.42
780.884	16106.2
781.218	15984.17
781.552	16106.65
781.886	16121.79
782.22	16148.69
782.554	16085.41
782.888	16068.91
783.222	16064.85
783.556	16052.19
783.889	16165.86
784.223	16004.28
784.557	16144.17
784.89	16055.13
785.224	16079.08
785.557	16062.59
785.891	15971.97
786.224	16052.42
786.558	16060.78
786.891	16028.24
787.224	16034.34
787.557	15967.45
787.891	16003.15
788.224	16015.58
788.557	16037.05
788.89	15999.54
789.223	16064.62
789.556	16010.16
789.888	15899.88
790.221	15907.56
790.554	15797.96
790.887	15771.75
791.219	15758.64
791.552	15805.87
791.884	15723.39
792.217	15704.18
792.549	15760.45
792.882	15609.94
793.214	15616.5
793.546	15624.18
793.879	15596.61
794.211	15481.58
794.543	15558.19
794.875	15566.1
795.207	15665.53
795.539	15565.65
795.871	15510.28
796.203	15365.2
796.535	15286.34
796.867	15341.48
797.198	15347.8
797.53	15261.93
797.862	15252.44
798.193	15214.92
798.525	15111.88
798.856	15171.54
799.188	15099
799.519	15052.67
799.85	15014.25
800.182	15001.37
800.513	14984.65
800.844	14949.62
801.175	14985.78
801.506	15005.66
801.837	14844.54
802.168	14800.02
802.499	14849.51
802.83	14762.96
803.161	14646.8
803.491	14663.98
803.822	14721.15
804.153	14668.5
804.483	14548.73
804.814	14508.73
805.145	14534.04
805.475	14465.34
805.805	14498.79
806.136	14456.3
806.466	14440.71
806.796	14470.31
807.126	14322.07
807.457	14319.81
807.787	14325
808.117	14248.4
808.447	14138.34
808.777	14305.57
809.107	14206.59
809.436	14090.66
809.766	14158.23
810.096	14073.26
810.426	14086.14
810.755	14071
811.085	14151
811.414	13907.16
811.744	13938.8
812.073	13947.39
812.403	13897.9
812.732	13811.12
813.061	13856.54
813.39	13812.25
813.719	13752.36
814.049	13880.04
814.378	13727.73
814.707	13650.22
815.036	13774.06
815.365	13716.43
815.693	13516.89
816.022	13510.79
816.351	13524.12
816.68	13521.41
817.008	13545.59
817.337	13400.51
817.665	13388.76
817.994	13407.74
818.322	13340.4
818.651	13268.99
818.979	13237.58
819.307	13421.07
819.636	13277.8
819.964	13240.74
820.292	13419.49
820.62	13316.67
820.948	13226.95
821.276	13329.1
821.604	13217.92
821.932	13241.42
822.259	13305.82
822.587	13252.26
822.915	13150.12
823.243	13227.63
823.57	13181.08
823.898	13228.31
824.225	13286.16
824.553	13228.99
824.88	13272.38
825.207	13273.96
825.535	13216.11
825.862	13282.55
826.189	13196.45
826.516	13287.74
826.843	13298.59
827.17	13206.62
827.497	13292.26
827.824	13262.66
828.151	13314.41
828.478	13330.91
828.805	13371.81
829.131	13226.95
829.458	13315.77
829.785	13246.39
830.111	13338.59
830.438	13293.85
830.764	13265.6
831.09	13268.08
831.417	13175.66
831.743	13357.12
832.069	13191.02
832.395	13217.01
832.722	13277.35
833.048	13199.16
833.374	13272.83
833.7	13219.05
834.026	13224.02
834.351	13262.43
834.677	13114.42
835.003	13263.79
835.329	13178.37
835.654	13097.92
835.98	13138.14
836.306	13153.51
836.631	13057.69
836.956	13070.8
837.282	13055.21
837.607	13003.46
837.932	13001.65
838.258	13009.56
838.583	12990.35
838.908	12926.62
839.233	12923.01
839.558	12919.39
839.883	12843.46
840.208	12828.77
840.533	12808.66
840.858	12835.1
841.182	12807.53
841.507	12771.37
841.832	12759.4
842.156	12710.36
842.481	12694.09
842.805	12680.3
843.13	12608.67
843.454	12661.09
843.778	12610.47
844.103	12582.9
844.427	12584.49
844.751	12571.6
845.075	12503.81
845.399	12450.93
845.723	12363.7
846.047	12430.59
846.371	12289.35
846.695	12347.88
847.019	12218.62
847.343	12140.66
847.666	12110.15
847.99	12007.33
848.313	12085.29
848.637	11888.91
848.96	11936.37
849.284	11853.88
849.607	11729.14
849.931	11751.29
850.254	11697.96
850.577	11588.58
850.9	11564.85
851.223	11579.99
851.546	11550.39
851.869	11439.43
852.192	11484.63
852.515	11381.35
852.838	11360.34
853.161	11364.86
853.483	11286.44
853.806	11272.66
854.129	11184.52
854.451	11183.62
854.774	11142.94
855.096	11176.16
855.419	11148.59
855.741	11033.34
856.063	11008.71
856.385	11001.48
856.708	11002.15
857.03	10882.38
857.352	10975.26
857.674	10919.22
857.996	10836.73
858.318	10767.36
858.64	10756.74
858.961	10705.21
859.283	10708.15
859.605	10674.71
859.926	10733.01
860.248	10638.1
860.57	10593.35
860.891	10577.98
861.212	10491.66
861.534	10525.33
861.855	10502.51
862.176	10490.53
862.498	10454.37
862.819	10519
863.14	10401.04
863.461	10377.54
863.782	10440.14
864.103	10431.77
864.424	10381.83
864.745	10377.09
865.065	10287.82
865.386	10267.03
865.707	10266.35
866.027	10293.7
866.348	10227.71
866.668	10179.13
866.989	10154.72
867.309	10152.23
867.63	10093.93
867.95	10099.35
868.27	10030.65
868.59	10020.94
868.91	10085.34
869.23	10075.62
869.55	10098.45
869.87	10020.03
870.19	10026.13
870.51	10093.03
870.83	10024.1
871.15	9957.89
871.469	9937.78
871.789	10007.83
872.109	9962.63
872.428	9936.19
872.748	9939.81
873.067	9853.03
873.386	9896.42
873.706	9853.03
874.025	9902.07
874.344	9849.87
874.663	9849.64
874.982	9742.53
875.301	9759.48
875.62	9774.16
875.939	9736.42
876.258	9738.01
876.577	9699.59
876.896	9710.89
877.214	9640.38
877.533	9662.3
877.852	9599.93
878.17	9696.65
878.489	9724
878.807	9586.37
879.125	9635.86
879.444	9593.83
879.762	9583.43
880.08	9577.56
880.398	9536.2
880.716	9503.21
881.034	9454.62
881.352	9547.05
881.67	9417.56
881.988	9443.55
882.306	9396.09
882.624	9440.84
882.941	9383.21
883.259	9278.36
883.577	9327.4
883.894	9298.24
884.212	9291.24
884.529	9245.36
884.846	9227.29
885.164	9202.88
885.481	9230
885.798	9190.9
886.115	9151.36
886.432	9150.23
886.75	9129.66
887.067	9054.86
887.383	9016.22
887.7	9071.36
888.017	9068.42
888.334	9036.33
888.651	9011.25
888.967	9009.44
889.284	8968.08
889.6	8904.13
889.917	8850.8
890.233	8903.23
890.55	8767.41
890.866	8821.65
891.182	8720.18
891.498	8735.1
891.815	8739.39
892.131	8710.69
892.447	8667.53
892.763	8619.39
893.079	8590.69
893.395	8661.88
893.71	8590.47
894.026	8541.65
894.342	8544.82
894.657	8463.24
894.973	8456.01
895.289	8493.75
895.604	8419.4
895.92	8329.68
896.235	8353.86
896.55	8321.77
896.865	8239.97
897.181	8210.36
897.496	8259.63
897.811	8181.89
898.126	8126.07
898.441	8179.63
898.756	8154.55
899.071	8002.23
899.386	8081.1
899.7	7955
900.015	8033.64
900.33	7909.81
900.644	7890.15
900.959	7968.11
901.273	7883.82
901.588	7848.79
901.902	7820.77
902.216	7784.39
902.531	7793.88
902.845	7733.54
903.159	7726.31
903.473	7683.6
903.787	7645.41
904.101	7564.05
904.415	7618.29
904.729	7545.97
905.042	7582.58
905.356	7466.65
905.67	7523.38
905.984	7477.95
906.297	7431.85
906.611	7389.14
906.924	7366.54
907.237	7432.3
907.551	7321.8
907.864	7246.09
908.177	7268.47
908.491	7239.99
908.804	7193.67
909.117	7145.31
909.43	7076.38
909.743	7088.81
910.056	7065.53
910.368	7048.13
910.681	6982.15
910.994	6990.73
911.307	6933.56
911.619	6892.66
911.932	6899.44
912.244	6849.5
912.557	6816.73
912.869	6832.77
913.181	6776.95
913.494	6768.37
913.806	6703.96
914.118	6725.43
914.43	6672.1
914.742	6667.35
915.054	6637.07
915.366	6558.66
915.678	6512.55
915.99	6510.97
916.302	6535.6
916.613	6497.64
916.925	6526.34
917.236	6441.82
917.548	6431.2
917.859	6388.04
918.171	6355.95
918.482	6341.26
918.794	6271.21
919.105	6278.89
919.416	6226.46
919.727	6219.91
920.038	6260.58
920.349	6168.61
920.66	6199.34
920.971	6169.51
921.282	6114.83
921.593	6124.32
921.903	6051.78
922.214	6060.59
922.525	6011.1
922.835	6041.61
923.146	5958.9
923.456	5979.24
923.767	5974.26
924.077	5908.5
924.387	5864.89
924.697	5829.18
925.008	5815.17
925.318	5820.6
925.628	5782.86
925.938	5788.28
926.248	5719.36
926.558	5704.21
926.867	5698.79
927.177	5605.91
927.487	5612.92
927.796	5565.01
928.106	5605.01
928.416	5591
928.725	5553.26
929.034	5564.78
929.344	5551.9
929.653	5535.63
929.962	5421.51
930.271	5421.74
930.581	5384
930.89	5404.11
931.199	5355.52
931.508	5366.37
931.817	5346.26
932.125	5310.33
932.434	5282.53
932.743	5247.73
933.051	5212.25
933.36	5216.32
933.669	5208.18
933.977	5167.51
934.286	5149.88
934.594	5133.16
934.902	5107.39
935.21	5086.83
935.519	5077.11
935.827	5027.4
936.135	5080.5
936.443	5019.71
936.751	4992.14
937.059	4998.02
937.367	4957.57
937.674	4919.15
937.982	4928.64
938.29	4897.68
938.597	4857.46
938.905	4854.29
939.213	4824.69
939.52	4777.01
939.827	4742.21
940.135	4797.12
940.442	4741.08
940.749	4733.17
941.056	4773.84
941.363	4693.85
941.67	4705.6
941.977	4651.59
942.284	4647.75
942.591	4637.35
942.898	4579.95
943.205	4565.49
943.511	4565.04
943.818	4573.4
944.125	4519.61
944.431	4510.12
944.738	4518.71
945.044	4485.72
945.35	4426.06
945.657	4401.65
945.963	4411.59
946.269	4369.33
946.575	4362.55
946.881	4357.58
947.187	4305.38
947.493	4297.92
947.799	4273.29
948.105	4268.32
948.41	4259.05
948.716	4242.56
949.022	4195.78
949.327	4231.48
949.633	4123.24
949.938	4228.77
950.244	4167.76
950.549	4151.71
950.854	4112.84
951.16	4109.68
951.465	4076.46
951.77	4084.14
952.075	4055.67
952.38	4017.71
952.685	4046.18
952.99	3971.83
953.294	4011.6
953.599	3966.86
953.904	3950.14
954.209	3934.54
954.513	3899.97
954.818	3884.38
955.122	3864.94
955.426	3869.46
955.731	3827.65
956.035	3820.2
956.339	3776.81
956.643	3788.11
956.948	3793.98
957.252	3756.92
957.556	3782.01
957.86	3728.67
958.163	3746.75
958.467	3677.6
958.771	3636.92
959.075	3652.52
959.378	3646.19
959.682	3668.56
959.985	3616.13
960.289	3614.78
960.592	3577.94
960.896	3563.25
961.199	3544.05
961.502	3591.28
961.805	3523.71
962.108	3495.46
962.411	3516.25
962.714	3497.49
963.017	3501.11
963.32	3518.06
963.623	3451.39
963.926	3459.08
964.228	3371.62
964.531	3388.8
964.833	3424.95
965.136	3376.82
965.438	3346.08
965.741	3279.87
966.043	3336.37
966.345	3273.32
966.648	3262.7
966.95	3256.82
967.252	3273.09
967.554	3291.85
967.856	3220.66
968.158	3244.62
968.46	3181.34
968.761	3175.92
969.063	3162.13
969.365	3179.76
969.666	3187.67
969.968	3123.72
970.269	3159.87
970.571	3111.06
970.872	3096.6
971.174	3076.03
971.475	3062.48
971.776	3043.04
972.077	3071.06
972.378	3038.75
972.679	3016.38
972.98	3016.6
973.281	2973.21
973.582	2966.43
973.883	2963.04
974.183	2977.05
974.484	2940.22
974.785	2923.04
975.085	2918.75
975.386	2929.37
975.686	2913.33
975.986	2901.58
976.287	2871.97
976.587	2869.26
976.887	2824.06
977.187	2828.81
977.487	2794.23
977.787	2820.22
978.087	2801.24
978.387	2744.74
978.687	2805.53
978.987	2732.09
979.286	2751.3
979.586	2738.87
979.885	2708.36
980.185	2752.88
980.484	2678.31
980.784	2681.92
981.083	2673.56
981.382	2650.28
981.682	2656.38
981.981	2669.49
982.28	2612.32
982.579	2596.73
982.878	2627.01
983.177	2612.32
983.475	2580.68
983.774	2539.1
984.073	2564.64
984.372	2581.58
984.67	2492.77
984.969	2517.41
985.267	2518.76
985.566	2509.95
985.864	2470.85
986.162	2481.25
986.461	2430.63
986.759	2447.35
987.057	2448.03
987.355	2423.4
987.653	2410.74
987.951	2424.07
988.249	2385.43
988.547	2388.82
988.844	2379.33
989.142	2374.36
989.44	2345.88
989.737	2334.59
990.035	2306.34
990.332	2322.61
990.63	2317.64
990.927	2288.49
991.224	2264.3
991.521	2283.29
991.819	2273.57
992.116	2247.81
992.413	2252.78
992.71	2229.28
993.006	2257.98
993.303	2220.24
993.6	2217.3
993.897	2194.48
994.193	2189.05
994.49	2184.53
994.787	2193.12
995.083	2175.27
995.379	2142.5
995.676	2143.63
995.972	2134.36
996.268	2117.19
996.565	2105.66
996.861	2099.34
997.157	2097.98
997.453	2056.85
997.749	2047.14
998.044	2028.15
998.34	2067.47
998.636	2059.11
998.932	2030.64
999.227	1992.45
999.523	1991.32
999.818	1996.06
1000.114	1989.06
1000.409	2000.81
1000.704	1971.66
1001	1966.01
1001.295	1921.49
1001.59	1924.43
1001.885	1934.14
1002.18	1919.91
1002.475	1915.39
1002.77	1900.7
1003.065	1870.87
1003.359	1906.35
1003.654	1887.82
1003.949	1859.12
1004.243	1855.73
1004.538	1851.66
1004.832	1818.21
1005.127	1774.83
1005.421	1804.2
1005.715	1808.95
1006.009	1799.01
1006.304	1755.84
1006.598	1760.82
1006.892	1774.6
1007.186	1725.79
1007.48	1752.45
1007.773	1726.01
1008.067	1723.75
1008.361	1686.24
1008.655	1683.98
1008.948	1681.04
1009.242	1685.56
1009.535	1681.27
1009.829	1649.86
1010.122	1642.85
1010.415	1644.43
1010.708	1642.63
1011.001	1646.24
1011.295	1603.98
1011.588	1573.02
1011.881	1570.76
1012.173	1575.51
1012.466	1580.03
1012.759	1564.44
1013.052	1550.2
1013.344	1545.45
1013.637	1535.74
1013.93	1540.26
1014.222	1495.51
1014.514	1535.28
1014.807	1505
1015.099	1493.48
1015.391	1487.38
1015.683	1495.51
1015.976	1477.21
1016.268	1491.22
1016.56	1439.02
1016.851	1444.89
1017.143	1429.75
1017.435	1424.1
1017.727	1394.27
1018.018	1409.86
1018.31	1381.39
1018.602	1374.61
1018.893	1385.68
1019.185	1381.39
1019.476	1375.97
1019.767	1350.88
1020.058	1362.63
1020.35	1347.04
1020.641	1344.1
1020.932	1331.22
1021.223	1303.2
1021.514	1302.07
1021.804	1297.32
1022.095	1295.52
1022.386	1292.8
1022.677	1268.62
1022.967	1274.27
1023.258	1285.35
1023.548	1242.18
1023.839	1251.22
1024.129	1252.58
1024.419	1243.09
1024.709	1233.82
1025	1207.61
1025.29	1216.65
1025.58	1218.68
1025.87	1171.68
1026.16	1184.79
1026.449	1163.77
1026.739	1168.97
1027.029	1164.9
1027.319	1181.85
1027.608	1154.05
1027.898	1111.11
1028.187	1140.04
1028.477	1131
1028.766	1118.57
1029.055	1136.2
1029.344	1103.43
1029.634	1089.19
1029.923	1101.85
1030.212	1069.53
1030.501	1080.16
1030.79	1076.31
1031.078	1040.38
1031.367	1039.93
1031.656	1043.09
1031.945	1039.48
1032.233	1028.18
1032.522	987.05
1032.81	1055.3
1033.099	1012.59
1033.387	1010.33
1033.675	1018.91
1033.963	980.04
1034.251	1007.16
1034.54	996.54
1034.828	993.6
1035.116	985.24
1035.403	950.89
1035.691	965.58
1035.979	964.23
1036.267	996.32
1036.554	918.13
1036.842	915.41
1037.129	929.65
1037.417	950.89
1037.704	915.87
1037.992	911.57
1038.279	894.17
1038.566	888.3
1038.853	888.3
1039.14	888.3
