Data from hue_190_FLMS001491_00096.txt Node
Date: Tue Feb 07 16:46:03 GMT 2017
User: dcchb
Spectrometer: FLMS00149
Trigger mode: 0
Integration Time (sec): 2.000000E-2
Scans to average: 10
Electric dark correction enabled: true
Nonlinearity correction enabled: false
Boxcar width: 0
XAxis mode: Wavelengths
Number of Pixels in Spectrum: 2048
>>>>>Begin Spectral Data<<<<<
341.393	-14.91
341.776	-14.91
342.16	-14.91
342.543	-42.03
342.927	-62.15
343.31	-57.85
343.693	-63.28
344.077	-52.65
344.46	-60.11
344.843	-48.81
345.226	-55.37
345.61	-20.34
345.993	-14.46
346.376	13.33
346.759	14.91
347.142	13.11
347.525	38.19
347.908	55.14
348.291	49.94
348.674	94.01
349.057	94.23
349.44	112.31
349.823	129.94
350.206	150.28
350.588	198.64
350.971	202.03
351.354	218.07
351.737	228.24
352.119	246.77
352.502	235.47
352.884	282.93
353.267	277.96
353.65	287
354.032	305.98
354.414	320.44
354.797	281.57
355.179	315.92
355.562	317.73
355.944	334.45
356.326	336.26
356.709	320.67
357.091	337.39
357.473	330.16
357.855	345.3
358.238	344.17
358.62	316.38
359.002	343.04
359.384	341.91
359.766	345.3
360.148	341.01
360.53	352.99
360.912	310.73
361.294	329.03
361.676	329.48
362.057	345.3
362.439	328.58
362.821	328.13
363.203	310.05
363.584	315.02
363.966	329.03
364.348	313.21
364.729	330.84
365.111	318.41
365.493	323.38
365.874	303.95
366.256	306.66
366.637	307.34
367.019	314.79
367.4	318.18
367.781	319.99
368.163	316.38
368.544	309.82
368.925	288.13
369.306	338.3
369.688	296.72
370.069	307.79
370.45	302.14
370.831	295.13
371.212	329.03
371.593	320.9
371.974	315.02
372.355	307.34
372.736	315.02
373.117	323.16
373.498	308.01
373.879	321.12
374.26	311.63
374.641	316.38
375.021	330.16
375.402	305.98
375.783	309.37
376.163	306.88
376.544	324.74
376.925	313.44
377.305	307.56
377.686	327.45
378.066	324.51
378.447	314.34
378.827	336.26
379.208	328.35
379.588	321.35
379.968	331.97
380.349	322.7
380.729	337.62
381.109	326.77
381.489	331.74
381.87	312.53
382.25	341.91
382.63	333.32
383.01	316.15
383.39	315.92
383.77	339.2
384.15	328.35
384.53	343.72
384.91	343.27
385.29	339.43
385.67	345.98
386.049	340.78
386.429	330.61
386.809	351.18
387.189	340.56
387.568	378.97
387.948	344.62
388.328	355.92
388.707	374.91
389.087	359.31
389.466	338.75
389.846	354.79
390.225	369.48
390.605	343.27
390.984	369.03
391.363	355.24
391.743	361.8
392.122	355.7
392.501	354.34
392.881	370.84
393.26	354.34
393.639	369.48
394.018	362.93
394.397	369.48
394.776	354.11
395.155	365.41
395.534	380.78
395.913	363.83
396.292	364.06
396.671	371.52
397.05	399.99
397.429	386.2
397.808	368.35
398.186	378.07
398.565	373.1
398.944	377.39
399.323	399.76
399.701	394.79
400.08	401.8
400.458	404.74
400.837	399.54
401.215	381.46
401.594	415.81
401.972	416.49
402.351	410.61
402.729	415.13
403.107	408.58
403.486	426.43
403.864	423.94
404.242	402.48
404.62	441.57
404.999	441.34
405.377	437.05
405.755	445.64
406.133	465.98
406.511	458.52
406.889	445.19
407.267	486.77
407.645	448.8
408.023	469.14
408.401	470.95
408.779	470.04
409.156	494.22
409.534	482.25
409.912	500.55
410.29	512.75
410.667	505.07
411.045	515.92
411.422	518.18
411.8	526.99
412.178	515.01
412.555	521.79
412.933	564.28
413.31	559.31
413.687	577.84
414.065	570.38
414.442	592.3
414.819	579.65
415.197	595.24
415.574	585.75
415.951	594.56
416.328	626.42
416.705	612.87
417.082	644.5
417.46	632.07
417.837	632.3
418.214	668.23
418.591	668.46
418.967	691.73
419.344	669.36
419.721	680.66
420.098	689.02
420.475	715.01
420.852	702.35
421.228	734.22
421.605	744.84
421.982	757.49
422.358	769.92
422.735	785.52
423.111	761.11
423.488	797.27
423.864	805.18
424.241	809.02
424.617	834.33
424.994	834.78
425.37	863.03
425.746	883.82
426.123	888.11
426.499	910.03
426.875	895.12
427.251	918.17
427.627	961.1
428.003	942.8
428.379	944.61
428.756	957.26
429.132	976.25
429.507	992.97
429.883	997.04
430.259	1015.11
430.635	1011.05
431.011	1032.74
431.387	1047.2
431.763	1061.44
432.138	1096.69
432.514	1091.5
432.89	1106.41
433.265	1123.81
433.641	1159.52
434.016	1169.91
434.392	1165.17
434.767	1245.62
435.143	1213.53
435.518	1233.19
435.894	1283.58
436.269	1294.2
436.644	1326.29
437.02	1333.98
437.395	1339.17
437.77	1391.6
438.145	1386.63
438.52	1405.16
438.895	1470.7
439.271	1460.3
439.646	1454.88
440.021	1503.92
440.395	1525.61
440.77	1522.67
441.145	1557.7
441.52	1584.59
441.895	1609.22
442.27	1623.23
442.645	1629.11
443.019	1670.24
443.394	1659.39
443.769	1691.93
444.143	1651.48
444.518	1704.59
444.892	1726.06
445.267	1750.24
445.641	1772.83
446.016	1767.41
446.39	1783.68
446.764	1814.64
447.139	1822.32
447.513	1812.83
447.887	1809.67
448.262	1879.5
448.636	1885.83
449.01	1893.74
449.384	1916.79
449.758	1912.04
450.132	1948.65
450.506	1952.49
450.88	1987.97
451.254	1998.59
451.628	1999.95
452.002	2061.87
452.376	2062.54
452.75	2090.34
453.123	2092.83
453.497	2144.8
453.871	2127.85
454.244	2188.64
454.618	2185.25
454.992	2225.25
455.365	2218.92
455.739	2318.36
456.112	2310.9
456.486	2320.16
456.859	2316.1
457.232	2379.15
457.606	2400.61
457.979	2445.59
458.352	2466.6
458.725	2511.57
459.099	2521.52
459.472	2556.54
459.845	2584.79
460.218	2589.08
460.591	2630.67
460.964	2614.17
461.337	2711.57
461.71	2767.38
462.083	2806.71
462.456	2815.75
462.829	2839.93
463.201	2881.96
463.574	2888.96
463.947	2941.17
464.32	2976.87
464.692	2982.52
465.065	3010.99
465.438	3057.09
465.81	3132.57
466.183	3187.94
466.555	3223.64
466.928	3258.45
467.3	3265.45
467.672	3316.97
468.045	3412.79
468.417	3425.67
468.789	3405.56
469.161	3477.42
469.534	3577.76
469.906	3619.57
470.278	3609.85
470.65	3676.97
471.022	3774.59
471.394	3845.1
471.766	3873.8
472.138	3937.98
472.51	3996.73
472.882	4033.79
473.253	4066.56
473.625	4164.18
473.997	4239.89
474.369	4308.36
474.74	4294.35
475.112	4421.8
475.484	4531.18
475.855	4572.76
476.227	4612.08
476.598	4737.73
476.97	4724.85
477.341	4890.72
477.713	4913.54
478.084	5006.65
478.455	5112.63
478.827	5182.01
479.198	5371.61
479.569	5277.38
479.94	5466.75
480.311	5513.3
480.682	5619.97
481.053	5745.39
481.424	5826.51
481.795	5927.75
482.166	6021.54
482.537	6055.89
482.908	6200.51
483.279	6283.45
483.65	6392.15
484.021	6478.93
484.391	6581.52
484.762	6671.91
485.133	6697
485.503	6812.7
485.874	6959.82
486.244	7027.84
486.615	7174.5
486.985	7255.4
487.356	7375.85
487.726	7455.85
488.097	7553.25
488.467	7605
488.837	7804.99
489.207	7815.61
489.578	7917.08
489.948	8018.32
490.318	8136.74
490.688	8139.22
491.058	8320.01
491.428	8353
491.798	8468.48
492.168	8556.61
492.538	8580.34
492.908	8703.05
493.278	8800.9
493.648	8927.45
494.017	8980.55
494.387	9026.2
494.757	9016.49
495.126	9119.76
495.496	9194.79
495.866	9190.94
496.235	9329.47
496.605	9348
496.974	9401.56
497.344	9519.52
497.713	9557.49
498.082	9639.07
498.452	9627.54
498.821	9718.39
499.19	9718.84
499.559	9776.69
499.928	9838.16
500.298	9882
500.667	9938.27
501.036	9935.11
501.405	9971.04
501.774	9988.44
502.143	10112.73
502.512	10101.66
502.88	10190.47
503.249	10185.49
503.618	10245.15
503.987	10239.73
504.356	10254.65
504.724	10349.11
505.093	10337.36
505.462	10324.02
505.83	10358.37
506.199	10415.32
506.567	10545.26
506.936	10472.04
507.304	10673.84
507.672	10603.56
508.041	10583.22
508.409	10613.05
508.777	10725.82
509.145	10767.85
509.514	10709.77
509.882	10801.98
510.25	10803.33
510.618	10815.53
510.986	10794.29
511.354	10897.34
511.722	11000.61
512.09	10910.45
512.458	10919.03
512.826	10931.24
513.193	10956.55
513.561	11068.86
513.929	11006.49
514.297	11065.25
514.664	11116.32
515.032	11086.94
515.4	11100.27
515.767	11136.88
516.135	11153.61
516.502	11081.52
516.869	11175.53
517.237	11197.22
517.604	11168.52
517.972	11251.46
518.339	11210.33
518.706	11226.37
519.073	11247.16
519.44	11241.74
519.808	11297.56
520.175	11171.23
520.542	11360.15
520.909	11339.59
521.276	11187.95
521.643	11293.04
522.009	11279.48
522.376	11368.97
522.743	11301.85
523.11	11382.3
523.477	11378.01
523.843	11381.62
524.21	11411.45
524.577	11414.62
524.943	11489.19
525.31	11401.51
525.676	11531.22
526.043	11426.14
526.409	11421.62
526.776	11451.45
527.142	11386.59
527.508	11428.63
527.874	11432.69
528.241	11460.94
528.607	11376.88
528.973	11460.49
529.339	11391.79
529.705	11437.67
530.071	11405.35
530.437	11430.89
530.803	11295.3
531.169	11387.05
531.535	11304.11
531.901	11279.03
532.267	11250.1
532.632	11258.91
532.998	11166.26
533.364	11210.1
533.73	11134.17
534.095	11177.33
534.461	11148.41
534.826	11147.05
535.192	11075.64
535.557	11124.45
535.923	10983.44
536.288	10939.6
536.653	10977.11
537.019	10831.58
537.384	10849.88
537.749	10824.35
538.114	10694.86
538.479	10674.75
538.845	10668.65
539.21	10613.28
539.575	10530.12
539.94	10517.24
540.305	10445.83
540.67	10404.25
541.034	10391.82
541.399	10350.24
541.764	10275.89
542.129	10298.26
542.494	10204.7
542.858	10168.09
543.223	10064.37
543.587	10095.1
543.952	9936.01
544.316	9953.18
544.681	9907.08
545.045	9879.51
545.41	9887.88
545.774	9857.37
546.138	9757.71
546.503	9687.2
546.867	9650.59
547.231	9656.02
547.595	9551.39
547.959	9490.82
548.324	9449.47
548.688	9402.92
549.052	9373.09
549.416	9291.28
549.779	9289.7
550.143	9188.01
550.507	9221
550.871	9168.35
551.235	9093.77
551.599	9143.49
551.962	9057.61
552.326	9056.49
552.689	8985.98
553.053	9003.61
553.417	8862.82
553.78	8846.77
554.143	8794.12
554.507	8784.85
554.87	8704.63
555.234	8729.71
555.597	8627.34
555.96	8679.32
556.323	8606.33
556.686	8566.33
557.05	8580.79
557.413	8510.96
557.776	8528.36
558.139	8489.04
558.502	8467.8
558.865	8414.02
559.228	8456.05
559.59	8400.46
559.953	8408.82
560.316	8413.56
560.679	8327.69
561.041	8338.54
561.404	8302.83
561.767	8300.35
562.129	8285.21
562.492	8281.59
562.854	8232.78
563.217	8185.32
563.579	8210.63
563.941	8193.68
564.304	8257.86
564.666	8198.2
565.028	8151.2
565.39	8157.07
565.753	8141.71
566.115	8116.85
566.477	8228.26
566.839	8129.05
567.201	8121.37
567.563	8209.95
567.925	8195.26
568.287	8154.36
568.648	8153.01
569.01	8136.96
569.372	8175.15
569.734	8167.24
570.095	8208.6
570.457	8170.18
570.819	8231.87
571.18	8153.01
571.542	8155.72
571.903	8080.47
572.265	8114.36
572.626	8079.56
572.987	8183.29
573.349	8140.8
573.71	8120.46
574.071	8180.12
574.432	8127.02
574.794	8153.46
575.155	8107.36
575.516	8070.97
575.877	8146
576.238	8119.11
576.599	8100.13
576.96	8082.95
577.32	8092.89
577.681	8063.74
578.042	8056.51
578.403	8042.73
578.763	8026.91
579.124	8126.79
579.485	8092.89
579.845	8131.31
580.206	8074.14
580.566	8084.08
580.927	8029.39
581.287	8094.93
581.648	8106.68
582.008	8063.52
582.368	8009.51
582.728	8034.14
583.089	7985.78
583.449	8049.96
583.809	7988.26
584.169	8026.46
584.529	8001.37
584.889	8051.99
585.249	7957.76
585.609	7938.1
585.969	7938.1
586.329	7913.01
586.688	7960.69
587.048	7900.58
587.408	7922.5
587.768	7901.26
588.127	7868.04
588.487	7848.16
588.846	7906.46
589.206	7863.75
589.565	7877.31
589.925	7824.2
590.284	7846.12
590.643	7861.71
591.003	7814.48
591.362	7875.73
591.721	7862.62
592.08	7814.94
592.44	7840.92
592.799	7889.51
593.158	7829.4
593.517	7796.86
593.876	7774.26
594.235	7767.03
594.593	7723.64
594.952	7802.73
595.311	7682.06
595.67	7755.95
596.029	7796.41
596.387	7756.41
596.746	7762.73
597.104	7768.16
597.463	7690.42
597.822	7717.76
598.18	7659.01
598.538	7682.28
598.897	7673.24
599.255	7596.41
599.613	7746.24
599.972	7682.06
600.33	7659.91
600.688	7675.5
601.046	7709.63
601.404	7686.35
601.762	7703.3
602.12	7697.88
602.478	7684.77
602.836	7670.31
603.194	7689.29
603.552	7623.53
603.91	7634.6
604.268	7709.85
604.625	7669.4
604.983	7649.29
605.341	7634.15
605.698	7685
606.056	7633.92
606.413	7664.43
606.771	7606.81
607.128	7650.19
607.485	7644.77
607.843	7590.08
608.2	7673.24
608.557	7693.58
608.914	7602.06
609.272	7659.69
609.629	7675.96
609.986	7719.57
610.343	7677.31
610.7	7696.97
611.057	7642.28
611.414	7670.98
611.771	7723.19
612.127	7632.12
612.484	7692.68
612.841	7673.7
613.198	7629.86
613.554	7705.79
613.911	7707.82
614.267	7743.53
614.624	7708.72
614.98	7743.07
615.337	7690.42
615.693	7736.29
616.05	7731.32
616.406	7720.93
616.762	7684.54
617.118	7713.24
617.475	7716.41
617.831	7769.74
618.187	7743.98
618.543	7733.36
618.899	7761.6
619.255	7791.89
619.611	7738.55
619.967	7791.21
620.323	7819.46
620.678	7769.97
621.034	7767.03
621.39	7772.9
621.746	7713.92
622.101	7899.23
622.457	7785.78
622.812	7762.96
623.168	7816.07
623.523	7759.8
623.879	7781.94
624.234	7757.76
624.589	7775.39
624.945	7702.85
625.3	7739.91
625.655	7770.87
626.01	7808.16
626.365	7747.37
626.72	7762.96
627.075	7748.5
627.43	7797.99
627.785	7765.9
628.14	7741.27
628.495	7742.85
628.85	7712.11
629.205	7731.32
629.559	7716.86
629.914	7685
630.269	7641.16
630.623	7608.16
630.978	7708.72
631.332	7663.3
631.687	7705.11
632.041	7653.13
632.396	7664.21
632.75	7626.47
633.104	7659.23
633.459	7662.62
633.813	7578.56
634.167	7510.09
634.521	7589.18
634.875	7594.83
635.229	7552.8
635.583	7545.79
635.937	7551.89
636.291	7578.11
636.645	7571.78
636.999	7546.92
637.352	7543.08
637.706	7474.15
638.06	7468.96
638.413	7454.04
638.767	7484.32
639.121	7476.41
639.474	7463.53
639.828	7380.6
640.181	7420.37
640.534	7437.54
640.888	7393.93
641.241	7385.79
641.594	7349.41
641.947	7386.92
642.301	7422.4
642.654	7374.27
643.007	7375.85
643.36	7361.16
643.713	7391.9
644.066	7386.02
644.419	7318.9
644.771	7352.12
645.124	7242.52
645.477	7271.67
645.83	7142.64
646.182	7190.32
646.535	7162.07
646.888	7167.04
647.24	7126.14
647.593	7184.22
647.945	7157.78
648.298	7078.46
648.65	7151.68
649.002	7037.33
649.355	7118.91
649.707	7105.58
650.059	7188.51
650.411	7241.84
650.763	7237.1
651.115	7280.03
651.467	7262.18
651.819	7311.67
652.171	7299.02
652.523	7299.24
652.875	7287.72
653.227	7280.49
653.578	7341.05
653.93	7351.9
654.282	7213.6
654.633	7274.38
654.985	7246.36
655.337	7309.19
655.688	7291.79
656.039	7335.17
656.391	7289.75
656.742	7304.89
657.094	7307.6
657.445	7286.14
657.796	7346.93
658.147	7307.38
658.498	7317.77
658.849	7367.72
659.2	7309.19
659.551	7313.71
659.902	7359.81
660.253	7310.54
660.604	7337.21
660.955	7337.66
661.306	7377.21
661.656	7334.5
662.007	7409.52
662.358	7361.84
662.708	7340.15
663.059	7363.2
663.409	7353.25
663.76	7364.55
664.11	7302.41
664.461	7390.54
664.811	7383.31
665.161	7362.52
665.511	7344.44
665.862	7373.14
666.212	7411.78
666.562	7360.71
666.912	7344.89
667.262	7317.32
667.612	7388.96
667.962	7418.56
668.312	7359.35
668.662	7347.15
669.011	7410.2
669.361	7376.53
669.711	7294.27
670.06	7336.3
670.41	7301.73
670.76	7344.21
671.109	7337.21
671.459	7361.61
671.808	7347.83
672.157	7375.85
672.507	7293.14
672.856	7309.64
673.205	7340.82
673.554	7354.61
673.904	7311.9
674.253	7404.1
674.602	7308.96
674.951	7219.7
675.3	7167.5
675.649	7302.86
675.998	7269.41
676.346	7286.81
676.695	7344.67
677.044	7257.21
677.393	7238.23
677.741	7288.17
678.09	7233.48
678.438	7143.09
678.787	7112.58
679.135	7263.31
679.484	7152.35
679.832	7157.1
680.181	7130.43
680.529	7148.06
680.877	7188.29
681.225	7111.68
681.573	7144.67
681.922	7094.5
682.27	7095.41
682.618	7041.62
682.966	7074.39
683.314	7068.97
683.661	7009.08
684.009	7017.22
684.357	7010.21
684.705	6927.73
685.053	6978.12
685.4	6971.57
685.748	6926.15
686.095	6931.12
686.443	6913.49
686.79	6914.62
687.138	6908.07
687.485	6890.44
687.832	6880.27
688.18	6834.4
688.527	6798.47
688.874	6775.19
689.221	6777
689.568	6788.75
689.915	6741.97
690.262	6756.88
690.609	6744.46
690.956	6664.91
691.303	6657
691.65	6660.39
691.997	6676.89
692.344	6614.52
692.69	6615.65
693.037	6581.3
693.383	6524.35
693.73	6511.47
694.077	6443.9
694.423	6495.42
694.769	6440.96
695.116	6459.49
695.462	6410.68
695.808	6401.64
696.155	6432.6
696.501	6363.9
696.847	6355.54
697.193	6292.04
697.539	6321.42
697.885	6245.03
698.231	6210.91
698.577	6199.84
698.923	6201.87
699.269	6197.8
699.614	6125.71
699.96	6083
700.306	6081.65
700.651	6081.87
700.997	6028.54
701.342	6037.13
701.688	6015.21
702.033	6018.37
702.379	6003.91
702.724	5983.35
703.069	5966.62
703.415	5911.26
703.76	5892.95
704.105	5887.98
704.45	5878.26
704.795	5857.02
705.14	5824.48
705.485	5840.52
705.83	5836.46
706.175	5801.43
706.52	5740.19
706.865	5731.83
707.209	5703.8
707.554	5709.68
707.899	5692.05
708.243	5648.67
708.588	5658.38
708.932	5619.97
709.277	5567.99
709.621	5607.31
709.966	5542.23
710.31	5611.83
710.654	5538.61
710.998	5532.96
711.342	5513.53
711.687	5491.83
712.031	5509.46
712.375	5478.5
712.719	5469.46
713.063	5446.86
713.407	5431.95
713.75	5469.23
714.094	5433.08
714.438	5425.17
714.782	5404.6
715.125	5389.46
715.469	5405.06
715.812	5361.67
716.156	5355.11
716.499	5395.79
716.843	5394.89
717.186	5275.79
717.53	5332.74
717.873	5352.18
718.216	5291.61
718.559	5309.46
718.902	5286.87
719.246	5307.66
719.589	5261.33
719.932	5219.07
720.275	5270.14
720.617	5271.5
720.96	5222.46
721.303	5191.05
721.646	5282.8
721.989	5166.42
722.331	5239.18
722.674	5216.36
723.016	5235.79
723.359	5200.32
723.701	5248.68
724.044	5143.14
724.386	5188.79
724.729	5199.19
725.071	5214.1
725.413	5203.7
725.755	5181.33
726.097	5116.48
726.439	5173.88
726.782	5155.34
727.124	5149.02
727.465	5143.37
727.807	5156.02
728.149	5182.46
728.491	5157.15
728.833	5144.72
729.175	5121.22
729.516	5126.64
729.858	5185.63
730.199	5139.3
730.541	5174.78
730.882	5158.28
731.224	5196.93
731.565	5184.04
731.906	5156.25
732.248	5092.52
732.589	5137.04
732.93	5104.95
733.271	5159.41
733.612	5156.47
733.953	5205.74
734.294	5148.11
734.635	5112.63
734.976	5216.81
735.317	5178.85
735.658	5151.05
735.999	5163.48
736.339	5178.17
736.68	5187.89
737.021	5164.38
737.361	5167.55
737.702	5154.21
738.042	5220.88
738.383	5178.39
738.723	5205.06
739.063	5220.88
739.404	5275.57
739.744	5274.44
740.084	5244.61
740.424	5247.09
740.764	5283.02
741.104	5308.79
741.444	5302.91
741.784	5312.85
742.124	5358.96
742.464	5380.88
742.804	5368.9
743.143	5397.37
743.483	5392.4
743.823	5431.5
744.162	5443.7
744.502	5462.91
744.841	5471.72
745.181	5511.95
745.52	5490.48
745.86	5590.36
746.199	5624.94
746.538	5651.38
746.877	5672.62
747.216	5657.03
747.556	5719.4
747.895	5839.85
748.234	5851.6
748.573	5821.77
748.911	5924.59
749.25	5959.62
749.589	6000.29
749.928	6108.09
750.267	6121.87
750.605	6200.97
750.944	6291.59
751.283	6300.63
751.621	6421.3
751.96	6474.41
752.298	6586.95
752.636	6636.21
752.975	6761.86
753.313	6869.2
753.651	6963.88
753.989	7035.75
754.327	7171.79
754.666	7200.26
755.004	7321.16
755.342	7518.45
755.679	7626.69
756.017	7741.94
756.355	7900.13
756.693	7997.53
757.031	8145.32
757.368	8266.9
757.706	8438.2
758.044	8598.64
758.381	8775.36
758.719	8859.65
759.056	9023.27
759.394	9222.13
759.731	9366.31
760.068	9494.21
760.405	9635.45
760.743	9811.04
761.08	9959.51
761.417	10095.55
761.754	10343
762.091	10387.07
762.428	10593.39
762.765	10755.88
763.102	11021.41
763.438	11154.96
763.775	11277.22
764.112	11426.82
764.449	11698.45
764.785	11775.28
765.122	11924.21
765.458	12078.33
765.795	12247.36
766.131	12423.85
766.467	12547.69
766.804	12634.47
767.14	12803.73
767.476	12958.3
767.812	13190.39
768.148	13242.59
768.485	13409.59
768.821	13582.92
769.157	13708.57
769.492	13773.65
769.828	13939.75
770.164	13986.3
770.5	14020.2
770.836	14327.98
771.171	14357.81
771.507	14522.1
771.842	14513.74
772.178	14702.89
772.513	14827.41
772.849	14844.58
773.184	14977.91
773.519	15066.95
773.855	15113.95
774.19	15226.49
774.525	15288.86
774.86	15470.1
775.195	15478.92
775.53	15505.58
775.865	15579.48
776.2	15589.87
776.535	15596.43
776.87	15694.73
777.205	15733.15
777.539	15793.26
777.874	15907.15
778.209	15748.74
778.543	15898.34
778.878	15897.21
779.212	15970.2
779.547	16023.31
779.881	16129.07
780.215	16036.64
780.55	16204.09
780.884	16084.1
781.218	16182.63
781.552	16239.57
781.886	16251.32
782.22	16198.44
782.554	16151.21
782.888	16073.93
783.222	16194.38
783.556	16161.61
783.889	16178.11
784.223	16157.77
784.557	16144.66
784.89	16202.74
785.224	16069.18
785.557	16077.54
785.891	16117.77
786.224	16062.85
786.558	16230.53
786.891	16119.58
787.224	16015.4
787.557	16090.88
787.891	16074.15
788.224	16150.76
788.557	16145.56
788.89	16062.63
789.223	16115.28
789.556	15989.18
789.888	16059.01
790.221	16014.72
790.554	15910.99
790.887	15965.68
791.219	15839.81
791.552	15851.33
791.884	15856.53
792.217	15830.77
792.549	15738.8
792.882	15699.7
793.214	15687.72
793.546	15710.32
793.879	15660.83
794.211	15616.76
794.543	15724.78
794.875	15678.68
795.207	15709.64
795.539	15560.04
795.871	15615.86
796.203	15608.86
796.535	15453.83
796.867	15429.2
797.198	15464.45
797.53	15467.84
797.862	15391.69
798.193	15433.49
798.525	15216.78
798.856	15334.74
799.188	15269.43
799.519	15190.11
799.85	15179.26
800.182	15153.05
800.513	15167.74
800.844	15043.67
801.175	15177.45
801.506	15056.33
801.837	15011.58
802.168	15074.18
802.499	14954.86
802.83	14971.13
803.161	14849.78
803.491	14894.52
803.822	14913.05
804.153	14803.23
804.483	14744.25
804.814	14676.22
805.145	14631.48
805.475	14683.68
805.805	14571.59
806.136	14648.65
806.466	14585.83
806.796	14571.37
807.126	14465.61
807.457	14484.36
807.787	14465.83
808.117	14414.99
808.447	14433.52
808.777	14349.23
809.107	14334.09
809.436	14375.89
809.766	14258.38
810.096	14370.02
810.426	14216.8
810.755	14210.93
811.085	14125.5
811.414	14169.57
811.744	14168.44
812.073	14066.97
812.403	13979.29
812.732	14004.6
813.061	13981.78
813.39	13930.48
813.719	13924.83
814.049	14017.03
814.378	14028.56
814.707	13869.24
815.036	13876.92
815.365	13725.29
815.693	13655.01
816.022	13692.75
816.351	13703.14
816.68	13622.92
817.008	13655.23
817.337	13528.91
817.665	13550.83
817.994	13595.12
818.322	13593.31
818.651	13512.19
818.979	13479.42
819.307	13446.2
819.636	13593.77
819.964	13459.76
820.292	13446.2
820.62	13513.77
820.948	13408.69
821.276	13463.15
821.604	13354.68
821.932	13467.67
822.259	13383.6
822.587	13432.87
822.915	13370.5
823.243	13452.08
823.57	13444.17
823.898	13408.01
824.225	13346.54
824.553	13388.8
824.88	13385.18
825.207	13404.39
825.535	13398.29
825.862	13401.46
826.189	13370.5
826.516	13430.38
826.843	13388.8
827.17	13443.49
827.497	13423.38
827.824	13467.22
828.151	13541.79
828.478	13499.53
828.805	13431.06
829.131	13378.41
829.458	13356.48
829.785	13423.38
830.111	13347.9
830.438	13549.25
830.764	13503.37
831.09	13403.94
831.417	13383.83
831.743	13455.69
832.069	13407.78
832.395	13413.88
832.722	13548.12
833.048	13405.75
833.374	13415.24
833.7	13392.64
834.026	13398.52
834.351	13331.4
834.677	13404.62
835.003	13375.24
835.329	13411.4
835.654	13298.41
835.98	13295.92
836.306	13344.51
836.631	13290.27
836.956	13210.05
837.282	13280.78
837.607	13218.86
837.932	13211.4
838.258	13259.31
838.583	13193.33
838.908	13047.57
839.233	13143.84
839.558	13061.13
839.883	13093.22
840.208	13061.13
840.533	13024.74
840.858	12968.7
841.182	13022.03
841.507	13035.36
841.832	12951.75
842.156	12921.92
842.481	12938.87
842.805	12901.36
843.13	12858.64
843.454	12837.18
843.778	12763.05
844.103	12723.73
844.427	12788.82
844.751	12707.01
845.075	12687.12
845.399	12666.11
845.723	12508.37
846.047	12573.45
846.371	12515.6
846.695	12520.12
847.019	12378.43
847.343	12422.72
847.666	12354.7
847.99	12215.05
848.313	12277.87
848.637	12222.28
848.96	12076.29
849.284	12130.53
849.607	11974.6
849.931	11991.78
850.254	11937.77
850.577	11865.45
850.9	11821.16
851.223	11812.8
851.546	11667.04
851.869	11663.87
852.192	11693.7
852.515	11538.91
852.838	11530.32
853.161	11552.01
853.483	11493.03
853.806	11526.48
854.129	11396.99
854.451	11343.66
854.774	11291.45
855.096	11336.88
855.419	11208.52
855.741	11245.35
856.063	11202.42
856.385	11120.61
856.708	11078.58
857.03	11122.42
857.352	11058.47
857.674	11022.76
857.996	10965.81
858.318	10940.05
858.64	10989.99
858.961	10862.09
859.283	10854.18
859.605	10823.44
859.926	10828.87
860.248	10848.3
860.57	10755.65
860.891	10782.77
861.212	10717.01
861.534	10696.44
861.855	10678.59
862.176	10681.75
862.498	10565.6
862.819	10631.58
863.14	10633.17
863.461	10540.97
863.782	10515.88
864.103	10542.55
864.424	10400.86
864.745	10496.22
865.065	10420.74
865.386	10393.85
865.707	10420.29
866.027	10407.64
866.348	10331.48
866.668	10362.44
866.989	10321.76
867.309	10308.88
867.63	10324.7
867.95	10336.45
868.27	10220.97
868.59	10245.15
868.91	10174.42
869.23	10215.78
869.55	10177.59
869.87	10246.06
870.19	10209.68
870.51	10256.23
870.83	10189.56
871.15	10139.62
871.469	10105.05
871.789	10105.27
872.109	10080.41
872.428	9996.8
872.748	10081.54
873.067	10028.21
873.386	10064.82
873.706	10052.17
874.025	9953.64
874.344	9953.18
874.663	9975.56
874.982	10018.95
875.301	9876.58
875.62	9912.51
875.939	9920.42
876.258	9940.76
876.577	9805.62
876.896	9874.32
877.214	9775.34
877.533	9781.44
877.852	9755.22
878.17	9774.66
878.489	9751.38
878.807	9724.26
879.125	9670.25
879.444	9695.79
879.762	9625.28
880.08	9675
880.398	9650.59
880.716	9650.82
881.034	9607.43
881.352	9632.74
881.67	9635.68
881.988	9606.75
882.306	9548
882.624	9537.6
882.941	9470.49
883.259	9437.04
883.577	9424.16
883.894	9419.87
884.212	9429.36
884.529	9369.02
884.846	9446.31
885.164	9371.28
885.481	9344.16
885.798	9341.45
886.115	9239.53
886.432	9287.89
886.75	9275.24
887.067	9268.23
887.383	9175.35
887.7	9185.07
888.017	9244.73
888.334	9176.03
888.651	9176.93
888.967	9084.28
889.284	9068.01
889.6	9129.7
889.917	8974.91
890.233	9037.73
890.55	8947.11
890.866	8969.71
891.182	8898.3
891.498	8913.66
891.815	8879.99
892.131	8833.89
892.447	8778.07
892.763	8801.58
893.079	8745.31
893.395	8635.03
893.71	8720
894.026	8682.48
894.342	8650.62
894.657	8594.8
894.973	8569.72
895.289	8550.96
895.604	8574.24
895.92	8517.74
896.235	8468.48
896.55	8462.38
896.865	8419.67
897.181	8409.27
897.496	8429.61
897.811	8304.64
898.126	8279.78
898.441	8343.28
898.756	8291.08
899.071	8273.91
899.386	8209.5
899.7	8183.97
900.015	8115.94
900.33	8082.73
900.644	8056.96
900.959	8097.87
901.273	8021.71
901.588	7995.27
901.902	7927.25
902.216	7878.89
902.531	7925.44
902.845	7847.93
903.159	7840.02
903.473	7811.09
903.787	7809.96
904.101	7753.02
904.415	7721.6
904.729	7679.12
905.042	7622.62
905.356	7667.6
905.67	7582.17
905.984	7582.17
906.297	7514.83
906.611	7420.82
906.924	7473.93
907.237	7454.04
907.551	7445.68
907.864	7414.04
908.177	7329.98
908.491	7341.05
908.804	7237.1
909.117	7262.18
909.43	7233.48
909.743	7194.16
910.056	7201.62
910.368	7187.61
910.681	7107.61
910.994	7068.06
911.307	7052.47
911.619	7016.99
911.932	7008.86
912.244	6976.31
912.557	6934.28
912.869	6903.55
913.181	6858.12
913.494	6885.69
913.806	6812.7
914.118	6795.98
914.43	6796.66
914.742	6758.92
915.054	6687.51
915.366	6717.34
915.678	6680.28
915.99	6607.28
916.302	6598.7
916.613	6592.82
916.925	6634.85
917.236	6540.17
917.548	6518.92
917.859	6567.28
918.171	6480.28
918.482	6434.41
918.794	6388.08
919.105	6392.83
919.416	6336.1
919.727	6305.82
920.038	6301.53
920.349	6270.8
920.66	6258.82
920.971	6253.17
921.282	6221.76
921.593	6156.22
921.903	6116
922.214	6114.42
922.525	6109.67
922.835	6061.99
923.146	6074.64
923.456	6019.95
923.767	5969.56
924.077	5992.38
924.387	6033.06
924.697	5942.22
925.008	5919.17
925.318	5880.98
925.628	5854.99
925.938	5870.35
926.248	5828.32
926.558	5810.92
926.867	5812.73
927.177	5785.84
927.487	5736.8
927.796	5691.6
928.106	5673.75
928.416	5663.13
928.725	5647.99
929.034	5615.45
929.344	5606.63
929.653	5568.89
929.962	5525.73
930.271	5505.17
930.581	5458.61
930.89	5458.84
931.199	5404.6
931.508	5475.79
931.817	5407.32
932.125	5376.36
932.434	5378.39
932.743	5325.06
933.051	5320.76
933.36	5324.83
933.669	5284.15
933.977	5306.53
934.286	5251.39
934.594	5251.84
934.902	5180.43
935.21	5171.39
935.519	5149.47
935.827	5134.78
936.135	5093.65
936.443	5027.21
936.751	5084.84
937.059	5028.34
937.367	5038.96
937.674	4983.82
937.982	5037.38
938.29	4989.25
938.597	4920.1
938.905	4909.02
939.213	4914
939.52	4890.72
939.827	4840.55
940.135	4872.41
940.442	4784.73
940.749	4813.66
941.056	4761.68
941.363	4768.91
941.67	4743.83
941.977	4702.7
942.284	4672.65
942.591	4692.31
942.898	4652.08
943.205	4631.06
943.511	4645.08
943.818	4598.07
944.125	4555.36
944.431	4591.29
944.738	4604.17
945.044	4531.86
945.35	4516.49
945.657	4471.29
945.963	4456.61
946.269	4398.53
946.575	4448.02
946.881	4427.91
947.187	4395.14
947.493	4366.66
947.799	4355.14
948.105	4325.31
948.41	4329.6
948.716	4334.58
949.022	4257.52
949.327	4277.4
949.633	4237.18
949.938	4230.4
950.244	4210.28
950.549	4167.35
950.854	4175.94
951.16	4103.39
951.465	4118.99
951.77	4074.92
952.075	4095.03
952.38	4073.11
952.685	4087.35
952.99	4006.67
953.294	3994.25
953.599	4019.56
953.904	4005.09
954.209	3964.64
954.513	3964.64
954.818	3926.9
955.122	3909.5
955.426	3873.12
955.731	3854.36
956.035	3856.4
956.339	3828.83
956.643	3829.5
956.948	3827.02
957.252	3807.13
957.556	3795.38
957.86	3767.36
958.163	3757.64
958.467	3719.45
958.771	3721.71
959.075	3769.17
959.378	3735.27
959.682	3708.15
959.985	3660.69
960.289	3667.25
960.592	3601.04
960.896	3630.86
961.199	3597.42
961.502	3601.26
961.805	3579.11
962.108	3538.21
962.411	3540.02
962.714	3529.62
963.017	3514.03
963.32	3533.01
963.623	3459.8
963.926	3475.61
964.228	3492.56
964.531	3428.16
964.833	3469.06
965.136	3397.88
965.438	3419.57
965.741	3382.28
966.043	3376.63
966.345	3317.43
966.648	3354.04
966.95	3350.65
967.252	3327.82
967.554	3262.74
967.856	3304.55
968.158	3248.05
968.46	3277.43
968.761	3260.03
969.063	3240.37
969.365	3256.64
969.666	3226.36
969.968	3176.19
970.269	3210.09
970.571	3195.85
970.872	3150.88
971.174	3114.04
971.475	3114.27
971.776	3088.51
972.077	3096.87
972.378	3093.7
972.679	3052.58
972.98	3038.11
973.281	3050.54
973.582	3050.09
973.883	3034.04
974.183	3020.94
974.484	3011.45
974.785	2951.11
975.085	2982.29
975.386	2961.05
975.686	2923.31
975.986	2937.78
976.287	2943.43
976.587	2912.92
976.887	2921.05
977.187	2853.94
977.487	2842.41
977.787	2881.05
978.087	2843.54
978.387	2795.41
978.687	2788.63
978.987	2768.51
979.286	2789.31
979.586	2804.9
979.885	2761.28
980.185	2754.05
980.484	2733.94
980.784	2754.05
981.083	2733.71
981.382	2709.76
981.682	2685.81
981.981	2675.86
982.28	2672.7
982.579	2663.21
982.878	2678.8
983.177	2612.36
983.475	2612.81
983.774	2607.84
984.073	2578.46
984.372	2543.89
984.67	2570.78
984.969	2557.22
985.267	2566.49
985.566	2525.13
985.864	2501.86
986.162	2511.12
986.461	2508.86
986.759	2525.58
987.057	2458.69
987.355	2448.3
987.653	2462.31
987.951	2437.68
988.249	2448.75
988.547	2411.69
988.844	2408.98
989.142	2405.36
989.44	2397.9
989.737	2377.11
990.035	2386.15
990.332	2335.76
990.63	2311.8
990.927	2341.86
991.224	2348.86
991.521	2342.09
991.819	2308.19
992.116	2289.21
992.413	2298.47
992.71	2263.67
993.006	2265.7
993.303	2281.75
993.6	2225.93
993.897	2228.64
994.193	2252.6
994.49	2212.6
994.787	2178.02
995.083	2212.37
995.379	2174.63
995.676	2150.45
995.972	2161.98
996.268	2159.27
996.565	2128.08
996.861	2165.59
997.157	2119.94
997.453	2106.61
997.749	2100.74
998.044	2111.58
998.34	2100.51
998.636	2074.52
998.932	2061.19
999.227	2033.17
999.523	2032.49
999.818	2051.92
1000.114	2042.66
1000.409	1985.48
1000.704	2010.12
1001	1960.85
1001.295	2004.92
1001.59	1977.8
1001.885	1962.89
1002.18	1920.4
1002.475	1951.81
1002.77	1937.58
1003.065	1873.17
1003.359	1903.68
1003.654	1903.68
1003.949	1877.69
1004.243	1865.04
1004.538	1885.83
1004.832	1832.49
1005.127	1871.59
1005.421	1818.94
1005.715	1798.37
1006.009	1818.71
1006.304	1821.2
1006.598	1780.29
1006.892	1768.99
1007.186	1753.85
1007.48	1772.16
1007.773	1753.17
1008.067	1770.57
1008.361	1722.21
1008.655	1688.09
1008.948	1706.85
1009.242	1712.5
1009.535	1696.45
1009.829	1665.27
1010.122	1671.82
1010.415	1666.4
1010.708	1647.64
1011.001	1634.08
1011.295	1629.34
1011.588	1641.31
1011.881	1606.74
1012.173	1597.47
1012.466	1571.03
1012.759	1584.14
1013.052	1577.36
1013.344	1567.42
1013.637	1532.16
1013.93	1577.36
1014.222	1543.01
1014.514	1524.03
1014.807	1538.72
1015.099	1535.78
1015.391	1491.03
1015.683	1507.08
1015.976	1495.78
1016.268	1482.45
1016.56	1469.34
1016.851	1466.4
1017.143	1471.6
1017.435	1444.26
1017.727	1429.11
1018.018	1432.73
1018.31	1393.64
1018.602	1409.45
1018.893	1369.23
1019.185	1406.06
1019.476	1377.82
1019.767	1406.06
1020.058	1359.06
1020.35	1347.31
1020.641	1371.72
1020.932	1335.56
1021.223	1310.02
1021.514	1342.79
1021.804	1306.18
1022.095	1335.11
1022.386	1300.53
1022.677	1304.37
1022.967	1281.55
1023.258	1262.79
1023.548	1274.09
1023.839	1252.17
1024.129	1257.59
1024.419	1207.65
1024.709	1199.06
1025	1230.48
1025.29	1178.95
1025.58	1227.76
1025.87	1210.82
1026.16	1201.1
1026.449	1160.65
1026.739	1202
1027.029	1173.3
1027.319	1157.48
1027.608	1168.1
1027.898	1133.08
1028.187	1146.64
1028.477	1156.81
1028.766	1131.5
1029.055	1119.07
1029.344	1122.46
1029.634	1105.28
1029.923	1119.97
1030.212	1079.75
1030.501	1095.34
1030.79	1075.23
1031.078	1080.42
1031.367	1064.83
1031.656	1078.62
1031.945	1049.69
1032.233	1031.61
1032.522	1038.62
1032.81	1049.69
1033.099	1024.38
1033.387	1034.78
1033.675	1013.76
1033.963	1000.2
1034.251	986.64
1034.54	1024.15
1034.828	1017.83
1035.116	965.62
1035.403	969.92
1035.691	980.77
1035.979	975.34
1036.267	970.37
1036.554	969.24
1036.842	936.02
1037.129	934.21
1037.417	917.72
1037.704	922.24
1037.992	924.95
1038.279	890.37
1038.566	898.73
1038.853	898.73
1039.14	898.73
