Data from hue_26_FLMS001491_00006.txt Node
Date: Tue Feb 07 17:13:29 GMT 2017
User: dcchb
Spectrometer: FLMS00149
Trigger mode: 0
Integration Time (sec): 2.000000E-2
Scans to average: 10
Electric dark correction enabled: true
Nonlinearity correction enabled: false
Boxcar width: 0
XAxis mode: Wavelengths
Number of Pixels in Spectrum: 2048
>>>>>Begin Spectral Data<<<<<
341.393	1.41
341.776	1.41
342.16	1.41
342.543	-67.51
342.927	-65.03
343.31	-70.45
343.693	-59.38
344.077	-56.67
344.46	-61.86
344.843	-39.26
345.226	-32.49
345.61	-29.32
345.993	-32.49
346.376	-41.3
346.759	5.03
347.142	18.14
347.525	42.54
347.908	57.23
348.291	77.79
348.674	110.34
349.057	112.14
349.44	116.66
349.823	122.99
350.206	184.68
350.588	206.83
350.971	209.77
351.354	236.89
351.737	231.46
352.119	264.68
352.502	259.94
352.884	266.94
353.267	289.31
353.65	301.52
354.032	294.06
354.414	302.2
354.797	331.35
355.179	315.75
355.562	324.34
355.944	337.67
356.326	322.76
356.709	358.24
357.091	354.17
357.473	348.52
357.855	351.46
358.238	341.97
358.62	336.77
359.002	331.35
359.384	351.01
359.766	341.74
360.148	334.06
360.53	360.72
360.912	355.98
361.294	319.6
361.676	353.49
362.057	335.19
362.439	313.95
362.821	333.16
363.203	332.03
363.584	318.47
363.966	336.54
364.348	331.57
364.729	324.57
365.111	327.51
365.493	329.99
365.874	329.77
366.256	316.66
366.637	337.9
367.019	311.23
367.4	327.28
367.781	335.19
368.163	325.7
368.544	334.74
368.925	296.55
369.306	330.44
369.688	299.48
370.069	288.64
370.45	317.56
370.831	329.54
371.212	313.04
371.593	317.11
371.974	307.17
372.355	312.82
372.736	291.35
373.117	308.3
373.498	332.93
373.879	313.72
374.26	332.25
374.641	320.73
375.021	313.27
375.402	335.64
375.783	331.8
376.163	343.32
376.544	343.78
376.925	346.71
377.305	329.54
377.686	328.64
378.066	348.3
378.447	329.99
378.827	308.3
379.208	317.34
379.588	329.31
379.968	342.42
380.349	346.26
380.729	338.58
381.109	346.94
381.489	334.06
381.87	337.22
382.25	328.64
382.63	340.61
383.01	338.35
383.39	349.65
383.77	329.99
384.15	346.71
384.53	331.8
384.91	358.69
385.29	360.5
385.67	336.77
386.049	358.47
386.429	356.66
386.809	350.56
387.189	356.88
387.568	375.64
387.948	355.75
388.328	362.08
388.707	348.3
389.087	391.91
389.466	353.72
389.846	358.24
390.225	365.47
390.605	368.86
390.984	374.74
391.363	366.15
391.743	366.15
392.122	354.85
392.501	379.71
392.881	370.67
393.26	367.05
393.639	367.05
394.018	382.19
394.397	394.62
394.776	375.64
395.155	391.91
395.534	381.06
395.913	374.06
396.292	382.42
396.671	378.8
397.05	380.61
397.429	381.29
397.808	386.04
398.186	382.19
398.565	382.87
398.944	404.57
399.323	404.57
399.701	403.21
400.08	427.84
400.458	415.64
400.837	407.5
401.215	408.41
401.594	410.22
401.972	406.6
402.351	391.46
402.729	395.3
403.107	396.66
403.486	411.8
403.864	421.51
404.242	414.96
404.62	426.03
404.999	407.96
405.377	434.4
405.755	442.08
406.133	426.03
406.511	440.27
406.889	425.36
407.267	435.07
407.645	442.08
408.023	433.27
408.401	431.23
408.779	448.41
409.156	440.72
409.534	430.1
409.912	439.59
410.29	459.03
410.667	458.35
411.045	449.54
411.422	454.06
411.8	477.11
412.178	446.82
412.555	455.64
412.933	471.91
413.31	498.35
413.687	475.3
414.065	482.76
414.442	485.69
414.819	480.27
415.197	479.37
415.574	473.04
415.951	496.99
416.328	493.6
416.705	493.15
417.082	494.73
417.46	466.48
417.837	493.15
418.214	512.13
418.591	532.47
418.967	508.97
419.344	505.13
419.721	520.04
420.098	529.31
420.475	503.77
420.852	525.69
421.228	521.62
421.605	536.77
421.982	523.88
422.358	543.55
422.735	538.12
423.111	537.67
423.488	546.48
423.864	539.93
424.241	542.19
424.617	514.85
424.994	542.87
425.37	539.03
425.746	565.69
426.123	576.54
426.499	566.37
426.875	564.34
427.251	587.39
427.627	568.63
428.003	575.86
428.379	595.07
428.756	588.74
429.132	610.66
429.507	620.38
429.883	592.81
430.259	620.38
430.635	627.84
431.011	643.88
431.387	631
431.763	632.36
432.138	631.68
432.514	638.91
432.89	639.36
433.265	642.75
433.641	661.51
434.016	682.98
434.392	649.98
434.767	691.11
435.143	682.75
435.518	688.17
435.894	695.41
436.269	697.44
436.644	702.64
437.02	705.57
437.395	701.73
437.77	700.38
438.145	722.07
438.52	724.11
438.895	711.9
439.271	754.61
439.646	746.25
440.021	745.57
440.395	735.18
440.77	744.9
441.145	739.47
441.52	753.93
441.895	752.81
442.27	751.68
442.645	749.19
443.019	786.48
443.394	766.14
443.769	777.89
444.143	751.68
444.518	775.63
444.892	779.02
445.267	791.9
445.641	812.69
446.016	801.17
446.39	807.72
446.764	811.79
447.139	814.05
447.513	826.48
447.887	826.93
448.262	828.06
448.636	820.6
449.01	837.77
449.384	835.74
449.758	842.07
450.132	826.7
450.506	868.06
450.88	862.41
451.254	838.9
451.628	852.24
452.002	887.26
452.376	890.65
452.75	891.11
453.123	904.44
453.497	909.19
453.871	911.44
454.244	921.39
454.618	916.42
454.992	942.63
455.365	955.06
455.739	948.28
456.112	971.78
456.486	991.89
456.859	994.61
457.232	972.91
457.606	998.67
457.979	1015.17
458.352	1048.16
458.725	1025.57
459.099	1031.22
459.472	1051.55
459.845	1065.11
460.218	1080.93
460.591	1096.07
460.964	1080.03
461.337	1108.95
461.71	1127.48
462.083	1119.35
462.456	1137.2
462.829	1116.64
463.201	1169.52
463.574	1179.23
463.947	1186.01
464.32	1181.04
464.692	1200.48
465.065	1198.22
465.438	1218.1
465.81	1234.6
466.183	1260.59
466.555	1311.66
466.928	1303.98
467.3	1307.14
467.672	1308.95
468.045	1342.85
468.417	1334.48
468.789	1334.26
469.161	1395.95
469.534	1383.3
469.906	1408.38
470.278	1442.96
470.65	1452.67
471.022	1447.48
471.394	1482.28
471.766	1481.37
472.138	1531.77
472.51	1567.92
472.882	1593.46
473.253	1588.94
473.625	1621.48
473.997	1663.74
474.369	1675.72
474.74	1694.7
475.112	1737.86
475.484	1745.32
475.855	1762.95
476.227	1792.33
476.598	1853.12
476.97	1856.05
477.341	1902.83
477.713	1952.77
478.084	1947.35
478.455	1989.38
478.827	2009.95
479.198	2077.29
479.569	2097.85
479.94	2135.59
480.311	2185.31
480.682	2242.26
481.053	2280.45
481.424	2328.58
481.795	2358.86
482.166	2385.08
482.537	2385.3
482.908	2458.97
483.279	2541.23
483.65	2565.64
484.021	2644.28
484.391	2639.99
484.762	2706.43
485.133	2741.45
485.503	2799.53
485.874	2851.05
486.244	2834.56
486.615	2904.39
486.985	3000.2
487.356	3025.51
487.726	3070.48
488.097	3150.48
488.467	3189.35
488.837	3224.38
489.207	3290.37
489.578	3298.27
489.948	3348.89
490.318	3373.08
490.688	3439.51
491.058	3490.59
491.428	3561.54
491.798	3589.34
492.168	3678.83
492.538	3688.55
492.908	3764.03
493.278	3792.73
493.648	3772.84
494.017	3876.79
494.387	3913.85
494.757	3951.82
495.126	4008.31
495.496	4011.25
495.866	4074.98
496.235	4144.13
496.605	4145.94
496.974	4185.71
497.344	4298.25
497.713	4310.23
498.082	4272.03
498.452	4367.17
498.821	4382.77
499.19	4411.24
499.559	4460.28
499.928	4488.07
500.298	4509.77
500.667	4575.53
501.036	4528.3
501.405	4593.61
501.774	4614.17
502.143	4700.95
502.512	4697.11
502.88	4764.45
503.249	4772.13
503.618	4780.5
503.987	4852.81
504.356	4842.87
504.724	4858.01
505.093	4871.11
505.462	4903.66
505.83	4965.35
506.199	4996.31
506.567	5067.49
506.936	5039.02
507.304	5127.83
507.672	5121.5
508.041	5117.44
508.409	5173.03
508.777	5172.12
509.145	5271.1
509.514	5238.34
509.882	5272.23
510.25	5267.49
510.618	5349.75
510.986	5340.93
511.354	5418.67
511.722	5431.33
512.09	5468.84
512.458	5463.87
512.826	5453.92
513.193	5512.68
513.561	5513.13
513.929	5537.54
514.297	5620.93
514.664	5642.39
515.032	5641.26
515.4	5709.51
515.767	5679
516.135	5718.78
516.502	5698.66
516.869	5850.98
517.237	5833.35
517.604	5777.98
517.972	5855.72
518.339	5847.36
518.706	5871.09
519.073	5931.88
519.44	5933.46
519.808	5969.62
520.175	5985.66
520.542	6031.76
520.909	6096.39
521.276	6067.02
521.643	6137.07
522.009	6196.73
522.376	6192.44
522.743	6207.58
523.11	6222.72
523.477	6303.39
523.843	6322.38
524.21	6352.88
524.577	6364.41
524.943	6427.46
525.31	6442.37
525.676	6504.29
526.043	6561.24
526.409	6513.56
526.776	6650.96
527.142	6611.86
527.508	6746.55
527.874	6711.52
528.241	6757.62
528.607	6784.51
528.973	6851.85
529.339	6853.89
529.705	6881.46
530.071	6923.49
530.437	6940.44
530.803	7046.42
531.169	7004.17
531.535	7005.97
531.901	7124.61
532.267	7108.34
532.632	7194.67
532.998	7164.61
533.364	7273.31
533.73	7237.83
534.095	7282.35
534.461	7323.25
534.826	7316.02
535.192	7371.39
535.557	7464.27
535.923	7424.27
536.288	7436.25
536.653	7431.95
537.019	7443.93
537.384	7518.73
537.749	7608.9
538.114	7597.6
538.479	7588.56
538.845	7673.3
539.21	7618.84
539.575	7647.09
539.94	7741.55
540.305	7790.13
540.67	7790.13
541.034	7817.7
541.399	7867.65
541.764	7865.16
542.129	7977.7
542.494	7910.36
542.858	7937.7
543.223	7939.06
543.587	8012.73
543.952	8052.27
544.316	8082.56
544.681	8107.41
545.045	8088.43
545.41	8148.99
545.774	8220.41
546.138	8227.86
546.503	8285.49
546.867	8290.01
547.231	8374.75
547.595	8379.5
547.959	8407.75
548.324	8443.45
548.688	8443.22
549.052	8599.6
549.416	8538.14
549.779	8589.89
550.143	8570.9
550.507	8630.34
550.871	8649.32
551.235	8709.88
551.599	8706.72
551.962	8741.07
552.326	8696.33
552.689	8820.62
553.053	8746.72
553.417	8816.32
553.78	8924.34
554.143	8872.14
554.507	8938.8
554.87	8900.39
555.234	8981.29
555.597	8961.4
555.96	9007.28
556.323	9006.6
556.686	9117.78
557.05	9174.05
557.413	9155.97
557.776	9185.35
558.139	9219.7
558.502	9297.67
558.865	9313.71
559.228	9359.81
559.59	9328.4
559.953	9366.36
560.316	9459.02
560.679	9491.56
561.041	9483.65
561.404	9570.43
561.767	9574.95
562.129	9611.56
562.492	9725.68
562.854	9646.13
563.217	9615.62
563.579	9683.64
563.941	9722.74
564.304	9742.4
564.666	9859.91
565.028	9896.97
565.39	9930.64
565.753	9933.81
566.115	9956.18
566.477	10055.39
566.839	10015.39
567.201	10113.46
567.563	10109.85
567.925	10138.1
568.287	10151.65
568.648	10188.49
569.01	10217.64
569.372	10365.43
569.734	10333.34
570.095	10393.68
570.457	10441.82
570.819	10487.01
571.18	10504.87
571.542	10532.43
571.903	10552.1
572.265	10670.51
572.626	10640.45
572.987	10750.06
573.349	10783.95
573.71	10849.94
574.071	10854.69
574.432	10983.04
574.794	11066.43
575.155	11068.47
575.516	11082.7
575.877	11150.05
576.238	11290.16
576.599	11352.75
576.96	11409.7
577.32	11458.96
577.681	11617.38
578.042	11716.81
578.403	11703.93
578.763	11845.39
579.124	11958.84
579.485	12016.92
579.845	12179.85
580.206	12177.36
580.566	12334.42
580.927	12510.24
581.287	12738.93
581.648	12785.71
582.008	12900.96
582.368	13058.24
582.728	13232.02
583.089	13315.64
583.449	13493.04
583.809	13707.04
584.169	13865.91
584.529	14024.55
584.889	14321.04
585.249	14334.14
585.609	14532.56
585.969	14836.28
586.329	15095.48
586.688	15268.81
587.048	15494.79
587.408	15535.02
587.768	15804.61
588.127	16043.48
588.487	16304.71
588.846	16702.22
589.206	16741.76
589.565	16955.99
589.925	17381.29
590.284	17666.03
590.643	17855.41
591.003	18243.64
591.362	18454.94
591.721	18732.45
592.08	18995.72
592.44	19321.81
592.799	19568.36
593.158	19860.1
593.517	20119.08
593.876	20406.98
594.235	20630.93
594.593	21059.62
594.952	21338.48
595.311	21500.96
595.67	21827.28
596.029	22345.91
596.387	22599.91
596.746	22904.54
597.104	23111.99
597.463	23501.59
597.822	23877.39
598.18	23985.19
598.538	24334.56
598.897	24732.29
599.255	24811.61
599.613	25433.06
599.972	25503.34
600.33	25940.84
600.688	26078.01
601.046	26517.33
601.404	26915.28
601.762	27063.75
602.12	27563.63
602.478	27779.44
602.836	28032.54
603.194	28199.77
603.552	28526.31
603.91	28720.88
604.268	29103.92
604.625	29272.51
604.983	29794.3
605.341	29780.74
605.698	30274.97
606.056	30528.29
606.413	30630.44
606.771	31041.5
607.128	31223.64
607.485	31295.96
607.843	31682.16
608.2	31987.46
608.557	32413.89
608.914	32355.36
609.272	32841.9
609.629	33082.8
609.986	33302.01
610.343	33486.86
610.7	33750.58
611.057	34000.52
611.414	34297.46
611.771	34384.01
612.127	34692.93
612.484	34835.07
612.841	35121.17
613.198	35127.72
613.554	35317.77
613.911	35627.82
614.267	35766.12
614.624	35962.73
614.98	36178.54
615.337	36453.34
615.693	36567.68
616.05	36696.27
616.406	36917.5
616.762	36969.93
617.118	37123.6
617.475	37365.18
617.831	37676.35
618.187	37774.66
618.543	37848.1
618.899	38230.46
619.255	38283.8
619.611	38415.77
619.967	38537.12
620.323	38714.52
620.678	38666.38
621.034	38648.31
621.39	38890.11
621.746	38951.12
622.101	39580.94
622.457	39244
622.812	39470.66
623.168	39584.55
623.523	39567.83
623.879	39834.94
624.234	39564.44
624.589	39922.85
624.945	40041.04
625.3	40273.35
625.655	40119.45
626.01	40238.09
626.365	40398.99
626.72	40503.62
627.075	40473.57
627.43	40508.14
627.785	40588.82
628.14	40696.16
628.495	40786.33
628.85	40678.53
629.205	40687.8
629.559	40969.6
629.914	40846.44
630.269	40890.05
630.623	40835.59
630.978	41053.21
631.332	41088.24
631.687	41111.52
632.041	41052.99
632.396	41191.74
632.75	41130.5
633.104	41173.66
633.459	41162.14
633.813	41059.99
634.167	41120.56
634.521	41185.19
634.875	41269.25
635.229	41132.53
635.583	41015.48
635.937	41188.58
636.291	41073.78
636.645	41248.69
636.999	41031.29
637.352	41325.52
637.706	41082.82
638.06	41240.1
638.413	41030.84
638.767	41131.63
639.121	41218.86
639.474	40937.74
639.828	41112.65
640.181	41212.31
640.534	41166.21
640.888	41145.87
641.241	40957.62
641.594	41146.77
641.947	41130.73
642.301	41115.13
642.654	41200.1
643.007	41193.55
643.36	41200.33
643.713	40974.8
644.066	41187.45
644.419	40947
644.771	40817.29
645.124	40241.94
645.477	40242.84
645.83	40015.5
646.182	39805.79
646.535	39830.2
646.888	39960.36
647.24	39718.56
647.593	39865.45
647.945	39821.83
648.298	39718.33
648.65	39687.15
649.002	39692.12
649.355	39859.12
649.707	39795.62
650.059	39989.97
650.411	40388.37
650.763	40374.81
651.115	40845.08
651.467	40683.73
651.819	40746.56
652.171	40674.24
652.523	40530.52
652.875	40484.19
653.227	40478.31
653.578	40672.21
653.93	40625.65
654.282	40558.76
654.633	40472.44
654.985	40560.12
655.337	40439.9
655.688	40482.16
656.039	40721.7
656.391	40232.67
656.742	40295.72
657.094	40464.53
657.445	40602.6
657.796	40490.52
658.147	40495.49
658.498	40481.7
658.849	40452.55
659.2	40497.07
659.551	40280.13
659.902	40501.82
660.253	40276.74
660.604	40396.73
660.955	40185.67
661.306	40431.99
661.656	40419.56
662.007	40248.72
662.358	40204.42
662.708	40306.12
663.059	40264.53
663.409	40042.39
663.76	40293.69
664.11	40297.75
664.461	40333.01
664.811	40223.86
665.161	40306.79
665.511	40194.93
665.862	40201.49
666.212	40277.42
666.562	40225.67
666.912	40145.44
667.262	40143.41
667.612	40057.53
667.962	40206
668.312	40117.65
668.662	40406.23
669.011	40174.37
669.361	40193.35
669.711	39994.94
670.06	40123.75
670.41	39965.33
670.76	39962.17
671.109	40105.22
671.459	40047.82
671.808	39958.78
672.157	40056.63
672.507	39821.83
672.856	39940.48
673.205	39955.62
673.554	40107.02
673.904	39879.91
674.253	40051.21
674.602	39893.47
674.951	39429.08
675.3	39216.88
675.649	39825.68
675.998	39705.91
676.346	39787.03
676.695	39951.32
677.044	39603.99
677.393	39830.65
677.741	39712.68
678.09	39578.22
678.438	39543.88
678.787	39681.95
679.135	39643.76
679.484	39426.36
679.832	39615.29
680.181	39265.24
680.529	39565.57
680.877	39279.02
681.225	39329.42
681.573	39429.75
681.922	39121.74
682.27	39131.68
682.618	39152.93
682.966	39018.47
683.314	39117.45
683.661	38973.95
684.009	38841.52
684.357	38861.63
684.705	38761.98
685.053	38888.98
685.4	38712.94
685.748	38592.26
686.095	38570.34
686.443	38553.85
686.79	38474.3
687.138	38418.26
687.485	38499.84
687.832	38238.6
688.18	38420.52
688.527	38112.73
688.874	38152.5
689.221	38127.42
689.568	37959.96
689.915	37805.16
690.262	37900.53
690.609	37604.04
690.956	37591.84
691.303	37624.6
691.65	37335.12
691.997	37453.76
692.344	37247.21
692.69	37231.85
693.037	37319.53
693.383	36865.53
693.73	36980.55
694.077	36931.29
694.423	36931.29
694.769	36786.89
695.116	36618.75
695.462	36635.03
695.808	36472.54
696.155	36549.15
696.501	36400.91
696.847	36301.02
697.193	36077.53
697.539	36173.12
697.885	35960.47
698.231	36055.61
698.577	35815.39
698.923	35901.94
699.269	35705.56
699.614	35465.79
699.96	35517.54
700.306	35406.13
700.651	35229.64
700.997	35214.95
701.342	35254.04
701.688	35126.14
702.033	34944.22
702.379	34904.9
702.724	34895.41
703.069	34889.08
703.415	34592.14
703.76	34520.96
704.105	34577.45
704.45	34486.38
704.795	34276.22
705.14	34252.94
705.485	34213.39
705.83	34075.54
706.175	34058.82
706.52	33951.25
706.865	33918.26
707.209	33859.05
707.554	33798.49
707.899	33863.12
708.243	33629
708.588	33539.51
708.932	33385.39
709.277	33403.25
709.621	33406.86
709.966	33114.21
710.31	33153.08
710.654	32844.16
710.998	32984.73
711.342	32837.61
711.687	32847.55
712.031	32706.77
712.375	32620.22
712.719	32715.81
713.063	32649.37
713.407	32712.64
713.75	32347.68
714.094	32407.57
714.438	32266.1
714.782	32336.16
715.125	32129.61
715.469	32214.58
715.812	32041.47
716.156	31900.46
716.499	31969.16
716.843	32029.5
717.186	31838.32
717.53	31994.02
717.873	31956.28
718.216	31759.45
718.559	31676.51
718.902	31451.21
719.246	31483.07
719.589	31430.42
719.932	31421.38
720.275	31348.84
720.617	31401.04
720.96	31186.13
721.303	31160.37
721.646	31264.55
721.989	30967.15
722.331	31060.48
722.674	31090.99
723.016	31081.05
723.359	31032.23
723.701	31014.61
724.044	30857.32
724.386	30602.64
724.729	30872.01
725.071	30766.03
725.413	30617.78
725.755	30499.14
726.097	30578.24
726.439	30373.04
726.782	30392.03
727.124	30633.83
727.465	30281.52
727.807	30461.85
728.149	30306.83
728.491	30186.83
728.833	30225.02
729.175	30162.2
729.516	30034.97
729.858	30039.27
730.199	30083.11
730.541	30011.7
730.882	29951.81
731.224	29948.87
731.565	29713.85
731.906	29850.12
732.248	29835.66
732.589	29561.99
732.93	29570.35
733.271	29637.02
733.612	29500.3
733.953	29652.16
734.294	29387.08
734.635	29463.91
734.976	29579.39
735.317	29376.46
735.658	29358.83
735.999	29366.52
736.339	29274.54
736.68	29325.61
737.021	29141.21
737.361	29115.45
737.702	29231.15
738.042	29012.63
738.383	29049.69
738.723	29122.23
739.063	29094.21
739.404	28987.54
739.744	29062.8
740.084	28940.99
740.424	28929.69
740.764	28753.2
741.104	29003.14
741.444	28737.15
741.784	28617.84
742.124	28633.88
742.464	28582.58
742.804	28582.81
743.143	28518.18
743.483	28555.92
743.823	28410.16
744.162	28323.38
744.502	28402.47
744.841	28264.85
745.181	28492.19
745.52	28256.94
745.86	28363.6
746.199	28050.17
746.538	28112.76
746.877	28152.08
747.216	28154.8
747.556	27966.55
747.895	28084.97
748.234	27975.59
748.573	27870.06
748.911	27972.43
749.25	27843.84
749.589	27783.96
749.928	27786.22
750.267	27879.55
750.605	27760
750.944	27694.47
751.283	27568.82
751.621	27588.26
751.96	27491.76
752.298	27447.02
752.636	27467.81
752.975	27432.78
753.313	27273.46
753.651	27272.33
753.989	27277.31
754.327	27082.06
754.666	27054.26
755.004	27174.03
755.342	27159.12
755.679	27092.68
756.017	26914.6
756.355	26921.16
756.693	26805.68
757.031	26842.29
757.368	26659.92
757.706	26712.35
758.044	26719.13
758.381	26553.71
758.719	26434.16
759.056	26529.3
759.394	26394.84
759.731	26143.1
760.068	26229.88
760.405	26169.76
760.743	25972.03
761.08	26076.66
761.417	25892.48
761.754	25945.59
762.091	25876.89
762.428	25641.87
762.765	25540.63
763.102	25663.79
763.438	25495.66
763.775	25466.05
764.112	25469.9
764.449	25460.4
764.785	25273.29
765.122	25128.44
765.458	24970.7
765.795	25217.7
766.131	25007.76
766.467	24921.66
766.804	24809.8
767.14	24744.94
767.476	24644.83
767.812	24663.14
768.148	24625.4
768.485	24381.11
768.821	24318.51
769.157	24418.85
769.492	24255.92
769.828	24202.36
770.164	24006.88
770.5	23989.03
770.836	23927.11
771.171	23701.35
771.507	23766.89
771.842	23606.89
772.178	23548.82
772.513	23486.9
772.849	23379.33
773.184	23302.72
773.519	23281.48
773.855	23060.69
774.19	23077.87
774.525	23028.15
774.86	22956.74
775.195	22949.96
775.53	22833.81
775.865	22644.43
776.2	22576.64
776.535	22365.34
776.87	22394.27
777.205	22366.25
777.539	22246.25
777.874	22190.21
778.209	22211.68
778.543	22058.91
778.878	21907.73
779.212	21897.33
779.547	21778.01
779.881	21906.37
780.215	21648.75
780.55	21681.75
780.884	21587.29
781.218	21443.79
781.552	21518.13
781.886	21312.04
782.22	21264.81
782.554	21056.45
782.888	21002.67
783.222	20830.92
783.556	20884.25
783.889	20847.42
784.223	20579.85
784.557	20644.49
784.89	20654.88
785.224	20445.62
785.557	20417.37
785.891	20385.96
786.224	20256.47
786.558	20319.52
786.891	20023.94
787.224	20044.95
787.557	20096.93
787.891	19985.29
788.224	19725.41
788.557	19888.35
788.89	19794.56
789.223	19785.52
789.556	19616.04
789.888	19585.98
790.221	19476.61
790.554	19400.9
790.887	19359.77
791.219	19279.1
791.552	19234.8
791.884	19127.69
792.217	19120.23
792.549	19037.97
792.882	18858.77
793.214	18823.74
793.546	18792.78
793.879	18689.28
794.211	18616.74
794.543	18691.77
794.875	18619.23
795.207	18582.62
795.539	18477.99
795.871	18508.5
796.203	18350.99
796.535	18242.51
796.867	18177.21
797.198	18163.65
797.53	18141.5
797.862	18022.86
798.193	18063.31
798.525	17935.18
798.856	17901.51
799.188	17726.6
799.519	17724.34
799.85	17662.42
800.182	17690.21
800.513	17609.76
800.844	17437.79
801.175	17596.2
801.506	17491.35
801.837	17382.65
802.168	17383.33
802.499	17287.29
802.83	17258.13
803.161	17244.57
803.491	17118.25
803.822	17010.46
804.153	17072.38
804.483	16935.2
804.814	16872.83
805.145	16815.43
805.475	16857.24
805.805	16812.72
806.136	16724.14
806.466	16598.72
806.796	16659.05
807.126	16444.6
807.457	16531.15
807.787	16477.36
808.117	16400.3
808.447	16414.31
808.777	16415.22
809.107	16259.29
809.436	16251.61
809.766	16243.7
810.096	16093.19
810.426	16067.66
810.755	16150.82
811.085	15994.89
811.414	16064.49
811.744	15904.5
812.073	15905.18
812.403	15857.27
812.732	15756.03
813.061	15823.14
813.39	15716.03
813.719	15646.88
814.049	15780.21
814.378	15666.09
814.707	15675.12
815.036	15540.66
815.365	15453.44
815.693	15378.64
816.022	15498.41
816.351	15344.96
816.68	15212.54
817.008	15289.15
817.337	15166.66
817.665	15135.7
817.994	15190.17
818.322	15123.27
818.651	15004.18
818.979	14990.17
819.307	15097.96
819.636	15010.74
819.964	14853
820.292	14911.75
820.62	14932.55
820.948	14843.51
821.276	14921.47
821.604	14779.78
821.932	14827.24
822.259	14855.49
822.587	14763.96
822.915	14762.83
823.243	14949.72
823.57	14831.98
823.898	14814.58
824.225	14769.61
824.553	14707.01
824.88	14810.74
825.207	14852.32
825.535	14797.63
825.862	14808.93
826.189	14728.26
826.516	14809.38
826.843	14822.72
827.17	14827.69
827.497	14800.8
827.824	14771.42
828.151	14830.63
828.478	14710.63
828.805	14831.98
829.131	14773.68
829.458	14740.69
829.785	14657.98
830.111	14732.78
830.438	14839.44
830.764	14763.96
831.09	14678.54
831.417	14664.08
831.743	14802.38
832.069	14709.27
832.395	14677.86
832.722	14789.72
833.048	14708.6
833.374	14671.31
833.7	14599.67
834.026	14661.82
834.351	14630.86
834.677	14537.75
835.003	14668.15
835.329	14622.5
835.654	14572.33
835.98	14456.4
836.306	14540.92
836.631	14451.2
836.956	14468.15
837.282	14500.47
837.607	14332.34
837.932	14394.25
838.258	14381.37
838.583	14397.19
838.908	14229.51
839.233	14255.73
839.558	14306.12
839.883	14241.72
840.208	14147.48
840.533	14114.49
840.858	14128.95
841.182	14150.64
841.507	14221.6
841.832	14019.35
842.156	14032.91
842.481	13921.95
842.805	14024.09
843.13	13968.5
843.454	13929.63
843.778	13817.32
844.103	13876.53
844.427	13840.6
844.751	13902.74
845.075	13756.53
845.399	13741.16
845.723	13708.62
846.047	13726.7
846.371	13556.99
846.695	13554.05
847.019	13462.08
847.343	13394.51
847.666	13235.64
847.99	13258.46
848.313	13297.56
848.637	13238.8
848.96	13175.3
849.284	13116.55
849.607	12940.06
849.931	12962.88
850.254	12855.31
850.577	12818.02
850.9	12765.82
851.223	12772.6
851.546	12658.48
851.869	12610.12
852.192	12658.25
852.515	12495.32
852.838	12463.91
853.161	12493.06
853.483	12446.73
853.806	12390.92
854.129	12335.1
854.451	12277.25
854.774	12291.26
855.096	12217.59
855.419	12232.05
855.741	12202.9
856.063	12108.44
856.385	12076.12
856.708	12071.38
857.03	12000.42
857.352	12015.33
857.674	11960.65
857.996	11849.46
858.318	11901.44
858.64	11905.51
858.961	11822.57
859.283	11752.29
859.605	11758.17
859.926	11669.35
860.248	11632.74
860.57	11625.06
860.891	11532.86
861.212	11535.12
861.534	11456.7
861.855	11518.85
862.176	11453.09
862.498	11482.92
862.819	11409.02
863.14	11378.74
863.461	11416.03
863.782	11416.48
864.103	11364.05
864.424	11294.67
864.745	11355.92
865.065	11241.12
865.386	11252.42
865.707	11171.97
866.027	11233.66
866.348	11204.06
866.668	11176.94
866.989	11145.75
867.309	11147.79
867.63	11114.34
867.95	11059.43
868.27	11009.71
868.59	11022.59
868.91	10998.86
869.23	10968.36
869.55	10949.15
869.87	11048.58
870.19	11026.21
870.51	10943.27
870.83	10987.34
871.15	10845.87
871.469	10907.79
871.789	10938.75
872.109	10823.05
872.428	10924.06
872.748	10836.16
873.067	10799.32
873.386	10844.74
873.706	10851.52
874.025	10638.42
874.344	10711.64
874.663	10752.77
874.982	10697.85
875.301	10728.36
875.62	10701.47
875.939	10590.74
876.258	10649.72
876.577	10625.77
876.896	10630.06
877.214	10459.22
877.533	10622.83
877.852	10555.26
878.17	10613.79
878.489	10468.03
878.807	10444.08
879.125	10500.12
879.444	10456.96
879.762	10427.58
880.08	10396.17
880.398	10330.18
880.716	10423.06
881.034	10319.11
881.352	10330.63
881.67	10287.24
881.988	10337.41
882.306	10339.9
882.624	10170.64
882.941	10194.36
883.259	10133.35
883.577	10156.17
883.894	10113.01
884.212	10176.51
884.529	10136.74
884.846	10027.82
885.164	10093.58
885.481	10049.96
885.798	10017.19
886.115	9907.14
886.432	9927.93
886.75	9890.42
887.067	9908.27
887.383	9854.26
887.7	9897.42
888.017	9810.42
888.334	9851.77
888.651	9821.27
888.967	9857.42
889.284	9751.21
889.6	9725.68
889.917	9629.63
890.233	9661.5
890.55	9622.63
890.866	9686.36
891.182	9545.12
891.498	9584.66
891.815	9531.56
892.131	9493.59
892.447	9447.27
892.763	9423.54
893.079	9435.74
893.395	9426.02
893.71	9342.64
894.026	9341.73
894.342	9306.7
894.657	9223.32
894.973	9237.33
895.289	9232.81
895.604	9243.2
895.92	9155.75
896.235	9150.1
896.55	9142.41
896.865	9045.47
897.181	9076.88
897.496	9016.99
897.811	9001.85
898.126	8932.25
898.441	8856.09
898.756	8951.69
899.071	8908.52
899.386	8823.1
899.7	8806.83
900.015	8698.81
900.33	8642.32
900.644	8632.37
900.959	8705.59
901.273	8571.81
901.588	8563.67
901.902	8576.78
902.216	8545.37
902.531	8568.19
902.845	8547.18
903.159	8477.35
903.473	8386.05
903.787	8376.56
904.101	8277.58
904.415	8372.27
904.729	8296.34
905.042	8264.02
905.356	8193.06
905.67	8213.85
905.984	8189.22
906.297	8188.54
906.611	8132.27
906.924	8104.02
907.237	8067.41
907.551	8065.61
907.864	8033.07
908.177	7970.69
908.491	7924.59
908.804	7883.01
909.117	7870.13
909.43	7792.17
909.743	7758.5
910.056	7740.42
910.368	7739.74
910.681	7685.73
910.994	7660.65
911.307	7614.77
911.619	7576.35
911.932	7642.12
912.244	7572.74
912.557	7537.94
912.869	7455.23
913.181	7455
913.494	7469.69
913.806	7407.32
914.118	7371.84
914.43	7278.06
914.742	7306.31
915.054	7270.6
915.366	7252.97
915.678	7190.15
915.99	7170.49
916.302	7098.4
916.613	7119.87
916.925	7097.05
917.236	7068.12
917.548	7036.48
917.859	7050.72
918.171	6976.14
918.482	6957.84
918.794	6975.01
919.105	6937.5
919.416	6850.72
919.727	6818.41
920.038	6784.96
920.349	6810.95
920.66	6729.6
920.971	6659.54
921.282	6702.03
921.593	6683.27
921.903	6581.8
922.214	6615.48
922.525	6542.48
922.835	6596.49
923.146	6491.86
923.456	6483.05
923.767	6416.61
924.077	6410.51
924.387	6402.6
924.697	6324.86
925.008	6354.24
925.318	6352.66
925.628	6356.05
925.938	6300.91
926.248	6201.25
926.558	6210.51
926.867	6201.48
927.177	6150.63
927.487	6114.7
927.796	6028.82
928.106	6069.28
928.416	6078.99
928.725	6054.81
929.034	5978.2
929.344	6023.4
929.653	5973.23
929.962	5919.9
930.271	5934.36
930.581	5900.24
930.89	5859.11
931.199	5864.99
931.508	5831.09
931.817	5809.62
932.125	5729.17
932.434	5736.18
932.743	5679.23
933.051	5651.21
933.36	5634.03
933.669	5592.45
933.977	5588.84
934.286	5598.33
934.594	5548.16
934.902	5532.79
935.21	5486.24
935.519	5561.04
935.827	5454.83
936.135	5417.99
936.443	5442.17
936.751	5390.88
937.059	5364.66
937.367	5323.76
937.674	5362.18
937.982	5370.76
938.29	5312.23
938.597	5283.99
938.905	5180.94
939.213	5232.24
939.52	5219.81
939.827	5169.19
940.135	5191.56
940.442	5099.36
940.749	5176.64
941.056	5164.89
941.363	5078.57
941.67	5048.74
941.977	5035.18
942.284	4966.25
942.591	5046.25
942.898	4965.12
943.205	4948.85
943.511	4901.17
943.818	4886.03
944.125	4848.52
944.431	4846.93
944.738	4828.4
945.044	4783.21
945.35	4825.01
945.657	4759.93
945.963	4760.38
946.269	4747.73
946.575	4757.67
946.881	4684
947.187	4681.52
947.493	4628.18
947.799	4630.67
948.105	4623.89
948.41	4554.29
948.716	4588.18
949.022	4516.1
949.327	4556.77
949.633	4493.72
949.938	4512.48
950.244	4481.52
950.549	4422.31
950.854	4432.26
951.16	4422.77
951.465	4391.35
951.77	4400.39
952.075	4359.72
952.38	4354.29
952.685	4338.02
952.99	4267.74
953.294	4286.27
953.599	4243.33
953.904	4199.27
954.209	4201.53
954.513	4190.91
954.818	4192.04
955.122	4179.83
955.426	4168.76
955.731	4135.99
956.035	4127.41
956.339	4137.57
956.643	4048.99
956.948	4045.15
957.252	4052.15
957.556	4070.91
957.86	3995.21
958.163	3979.61
958.467	3994.08
958.771	3957.47
959.075	3942.33
959.378	3911.59
959.682	3890.58
959.985	3894.64
960.289	3879.73
960.592	3872.5
960.896	3845.38
961.199	3837.02
961.502	3864.59
961.805	3833.4
962.108	3767.42
962.411	3774.19
962.714	3762.44
963.017	3758.38
963.32	3737.36
963.623	3686.97
963.926	3679.73
964.228	3655.55
964.531	3642.9
964.833	3637.47
965.136	3634.09
965.438	3564.26
965.741	3586.85
966.043	3558.83
966.345	3525.61
966.648	3541.21
966.95	3546.18
967.252	3493.07
967.554	3464.6
967.856	3502.79
968.158	3470.7
968.46	3463.47
968.761	3427.54
969.063	3419.85
969.365	3389.57
969.666	3380.98
969.968	3289.01
970.269	3361.1
970.571	3341.66
970.872	3343.47
971.174	3279.52
971.475	3305.28
971.776	3268.67
972.077	3261.67
972.378	3232.74
972.679	3261.89
972.98	3216.24
973.281	3237.71
973.582	3223.25
973.883	3163.14
974.183	3145.74
974.484	3186.64
974.785	3122.23
975.085	3137.15
975.386	3110.03
975.686	3112.74
975.986	3079.3
976.287	3109.81
976.587	3054.44
976.887	3043.37
977.187	3023.03
977.487	3031.39
977.787	3009.69
978.087	3014.67
978.387	2982.58
978.687	2980.77
978.987	2961.33
979.286	2946.65
979.586	2931.96
979.885	2909.13
980.185	2914.78
980.484	2879.53
980.784	2840.21
981.083	2839.53
981.382	2850.15
981.682	2868
981.981	2833.88
982.28	2804.28
982.579	2795.24
982.878	2779.19
983.177	2768.12
983.475	2763.83
983.774	2763.6
984.073	2761.79
984.372	2684.28
984.67	2702.36
984.969	2713.88
985.267	2709.36
985.566	2684.96
985.864	2686.99
986.162	2630.27
986.461	2655.81
986.759	2665.75
987.057	2584.17
987.355	2599.31
987.653	2653.09
987.951	2559.31
988.249	2592.53
988.547	2564.96
988.844	2543.72
989.142	2537.62
989.44	2507.79
989.737	2557.5
990.035	2508.92
990.332	2465.08
990.63	2506.88
990.927	2459.88
991.224	2443.83
991.521	2421.91
991.819	2422.59
992.116	2430.73
992.413	2422.14
992.71	2388.47
993.006	2399.09
993.303	2411.07
993.6	2333.33
993.897	2399.77
994.193	2364.51
994.49	2345.53
994.787	2295.82
995.083	2311.18
995.379	2304.18
995.676	2286.1
995.972	2303.72
996.268	2273.9
996.565	2246.33
996.861	2259.88
997.157	2251.07
997.453	2211.98
997.749	2223.05
998.044	2228.47
998.34	2178.08
998.636	2182.37
998.932	2172.65
999.227	2184.86
999.523	2155.71
999.818	2158.19
1000.114	2144.86
1000.409	2112.54
1000.704	2082.49
1001	2089.72
1001.295	2058.99
1001.59	2047.23
1001.885	2088.14
1002.18	2012.21
1002.475	2033.9
1002.77	2063.05
1003.065	1995.71
1003.359	2023.73
1003.654	2018.08
1003.949	1997.97
1004.243	1967.91
1004.538	1962.72
1004.832	1951.42
1005.127	1999.78
1005.421	1920.01
1005.715	1908.93
1006.009	1913
1006.304	1898.54
1006.598	1897.41
1006.892	1896.5
1007.186	1897.86
1007.48	1852.89
1007.773	1845.88
1008.067	1828.03
1008.361	1815.6
1008.655	1830.06
1008.948	1805.21
1009.242	1782.16
1009.535	1778.09
1009.829	1760.91
1010.122	1769.95
1010.415	1764.3
1010.708	1749.16
1011.001	1746.9
1011.295	1739.45
1011.588	1716.17
1011.881	1709.39
1012.173	1678.88
1012.466	1690.63
1012.759	1694.48
1013.052	1684.08
1013.344	1647.47
1013.637	1657.87
1013.93	1667.81
1014.222	1636.85
1014.514	1643.86
1014.807	1595.95
1015.099	1594.82
1015.391	1577.87
1015.683	1595.27
1015.976	1559.56
1016.268	1568.15
1016.56	1570.86
1016.851	1548.49
1017.143	1562.73
1017.435	1546.46
1017.727	1517.98
1018.018	1493.58
1018.31	1498.1
1018.602	1494.03
1018.893	1489.73
1019.185	1469.62
1019.476	1429.17
1019.767	1480.7
1020.058	1448.38
1020.35	1419
1020.641	1415.61
1020.932	1415.39
1021.223	1410.87
1021.514	1406.35
1021.804	1390.08
1022.095	1388.04
1022.386	1367.48
1022.677	1340.59
1022.967	1363.86
1023.258	1352.79
1023.548	1342.17
1023.839	1362.05
1024.129	1316.18
1024.419	1310.98
1024.709	1317.76
1025	1288.84
1025.29	1275.96
1025.58	1271.21
1025.87	1254.71
1026.16	1233.7
1026.449	1229.63
1026.739	1255.16
1027.029	1255.84
1027.319	1226.46
1027.608	1222.85
1027.898	1199.57
1028.187	1208.39
1028.477	1175.62
1028.766	1188.5
1029.055	1177.88
1029.344	1185.11
1029.634	1156.64
1029.923	1144.43
1030.212	1165.45
1030.501	1154.6
1030.79	1139.24
1031.078	1141.04
1031.367	1126.81
1031.656	1099.69
1031.945	1101.27
1032.233	1131.78
1032.522	1091.55
1032.81	1099.91
1033.099	1068.28
1033.387	1052.01
1033.675	1063.76
1033.963	1057.66
1034.251	1076.19
1034.54	1060.59
1034.828	1057.66
1035.116	1007.94
1035.403	981.27
1035.691	1009.97
1035.979	1006.58
1036.267	1008.17
1036.554	1011.1
1036.842	986.7
1037.129	1001.61
1037.417	960.71
1037.704	997.54
1037.992	964.55
1038.279	942.63
1038.566	960.71
1038.853	960.71
1039.14	960.71
