Data from hue_90_FLMS001491_14.txt Node
Date: Mon Feb 06 15:24:45 GMT 2017
User: dcchb
Spectrometer: FLMS00149
Trigger mode: 0
Integration Time (sec): 2.000000E-2
Scans to average: 10
Electric dark correction enabled: true
Nonlinearity correction enabled: false
Boxcar width: 0
XAxis mode: Wavelengths
Number of Pixels in Spectrum: 2048
>>>>>Begin Spectral Data<<<<<
341.393	0.45
341.776	0.45
342.16	0.45
342.543	-47.91
342.927	-45.42
343.31	-61.47
343.693	-67.34
344.077	-78.87
344.46	-53.33
344.843	-47.91
345.226	-66.21
345.61	-34.12
345.993	-20.34
346.376	-5.65
346.759	0.45
347.142	31.86
347.525	40.22
347.908	72.54
348.291	86.55
348.674	95.36
349.057	108.25
349.44	135.82
349.823	127
350.206	171.97
350.588	189.83
350.971	206.77
351.354	212.42
351.737	226.66
352.119	241.58
352.502	273.67
352.884	271.41
353.267	287.68
353.65	290.39
354.032	299.65
354.414	293.55
354.797	298.07
355.179	302.82
355.562	317.73
355.944	319.09
356.326	310.95
356.709	339.2
357.091	340.56
357.473	336.94
357.855	348.69
358.238	346.43
358.62	332.42
359.002	353.44
359.384	343.49
359.766	327.22
360.148	336.26
360.53	324.74
360.912	351.63
361.294	338.75
361.676	323.38
362.057	319.77
362.439	330.84
362.821	331.97
363.203	336.04
363.584	307.56
363.966	306.43
364.348	343.04
364.729	323.83
365.111	312.31
365.493	322.25
365.874	307.79
366.256	325.19
366.637	313.44
367.019	313.89
367.4	317.28
367.781	329.93
368.163	335.36
368.544	305.75
368.925	316.83
369.306	321.12
369.688	309.6
370.069	317.96
370.45	307.34
370.831	305.98
371.212	298.98
371.593	304.4
371.974	315.02
372.355	315.92
372.736	335.36
373.117	313.89
373.498	323.38
373.879	317.05
374.26	301.46
374.641	315.92
375.021	296.94
375.402	316.83
375.783	324.51
376.163	324.51
376.544	318.64
376.925	345.3
377.305	335.13
377.686	334
378.066	330.39
378.447	319.09
378.827	319.09
379.208	316.15
379.588	323.83
379.968	328.13
380.349	344.62
380.729	350.73
381.109	334.91
381.489	324.06
381.87	338.97
382.25	333.1
382.63	333.1
383.01	338.97
383.39	341.69
383.77	322.48
384.15	328.35
384.53	336.94
384.91	336.04
385.29	334.23
385.67	324.96
386.049	330.61
386.429	359.99
386.809	341.23
387.189	352.76
387.568	357.5
387.948	361.12
388.328	339.2
388.707	380.78
389.087	354.79
389.466	352.31
389.846	367
390.225	348.24
390.605	350.05
390.984	364.51
391.363	377.62
391.743	363.15
392.122	365.19
392.501	365.19
392.881	380.1
393.26	361.35
393.639	367.22
394.018	367
394.397	376.71
394.776	355.92
395.155	364.06
395.534	402.93
395.913	363.83
396.292	376.71
396.671	365.41
397.05	377.84
397.429	382.59
397.808	389.82
398.186	386.43
398.565	370.61
398.944	388.01
399.323	404.06
399.701	400.22
400.08	395.7
400.458	378.75
400.837	389.14
401.215	381.46
401.594	379.65
401.972	409.48
402.351	388.46
402.729	413.77
403.107	394.79
403.486	413.1
403.864	417.84
404.242	396.37
404.62	407.45
404.999	382.14
405.377	409.25
405.755	418.75
406.133	420.1
406.511	430.05
406.889	433.89
407.267	412.42
407.645	435.02
408.023	455.13
408.401	422.36
408.779	437.73
409.156	451.97
409.534	423.94
409.912	440.44
410.29	416.94
410.667	446.09
411.045	451.97
411.422	441.12
411.8	452.42
412.178	456.71
412.555	461.91
412.933	470.04
413.31	463.94
413.687	469.59
414.065	471.63
414.442	456.71
414.819	469.37
415.197	485.41
415.574	463.94
415.951	503.72
416.328	486.99
416.705	484.73
417.082	485.18
417.46	480.67
417.837	492.64
418.214	495.58
418.591	496.71
418.967	507.78
419.344	502.59
419.721	491.29
420.098	520.44
420.475	494.45
420.852	510.5
421.228	513.66
421.605	529.48
421.982	508.69
422.358	516.6
422.735	536.26
423.111	540.1
423.488	538.74
423.864	542.13
424.241	545.75
424.617	560.44
424.994	548.01
425.37	544.39
425.746	566.09
426.123	570.38
426.499	577.39
426.875	580.32
427.251	585.75
427.627	604.28
428.003	566.09
428.379	604.05
428.756	577.84
429.132	595.24
429.507	620.77
429.883	608.8
430.259	617.16
430.635	610.61
431.011	614
431.387	623.26
431.763	628.91
432.138	628.91
432.514	639.53
432.89	616.71
433.265	643.82
433.641	665.07
434.016	634.56
434.392	655.35
434.767	692.19
435.143	662.13
435.518	661.45
435.894	663.49
436.269	673.88
436.644	692.41
437.02	705.52
437.395	686.08
437.77	719.76
438.145	720.43
438.52	718.17
438.895	716.37
439.271	720.43
439.646	733.09
440.021	742.13
440.395	739.19
440.77	716.59
441.145	738.29
441.52	762.24
441.895	777.38
442.27	772.41
442.645	779.19
443.019	778.51
443.394	773.54
443.769	776.93
444.143	819.41
444.518	818.74
444.892	799.98
445.267	793.88
445.641	778.96
446.016	792.3
446.39	832.29
446.764	828.68
447.139	819.41
447.513	860.32
447.887	835.46
448.262	833.65
448.636	851.95
449.01	850.6
449.384	868.23
449.758	855.34
450.132	870.49
450.506	874.1
450.88	893.99
451.254	872.29
451.628	896.7
452.002	882.01
452.376	920.2
452.75	900.99
453.123	924.95
453.497	914.33
453.871	943.03
454.244	957.04
454.618	971.5
454.992	973.76
455.365	962.46
455.739	1002.23
456.112	1010.82
456.486	1014.21
456.859	1020.54
457.232	1029.58
457.606	1023.7
457.979	1039.97
458.352	1053.76
458.725	1062.8
459.099	1063.02
459.472	1110.25
459.845	1100.76
460.218	1123.13
460.591	1142.79
460.964	1128.11
461.337	1147.31
461.71	1169.91
462.083	1209.23
462.456	1202.45
462.829	1209.01
463.201	1218.27
463.574	1209.23
463.947	1240.42
464.32	1269.35
464.692	1269.57
465.065	1271.83
465.438	1343.69
465.81	1332.17
466.183	1333.52
466.555	1375.78
466.928	1416.46
467.3	1391.83
467.672	1434.76
468.045	1490.36
468.417	1465.05
468.789	1462.33
469.161	1496.01
469.534	1540.75
469.906	1576.68
470.278	1585.04
470.65	1594.76
471.022	1640.63
471.394	1672.95
471.766	1695.55
472.138	1712.05
472.51	1780.97
472.882	1801.08
473.253	1848.54
473.625	1866.17
473.997	1941.64
474.369	1929.89
474.74	2001.98
475.112	1986.84
475.484	2061.64
475.855	2134.63
476.227	2155.42
476.598	2198.59
476.97	2268.19
477.341	2322.2
477.713	2388.64
478.084	2424.57
478.455	2486.94
478.827	2545.47
479.198	2637.22
479.569	2684.68
479.94	2748.63
480.311	2848.96
480.682	2893.71
481.053	2985.23
481.424	3050.99
481.795	3083.76
482.166	3259.8
482.537	3287.37
482.908	3416.41
483.279	3496.18
483.65	3555.16
484.021	3679
484.391	3770.97
484.762	3816.17
485.133	3906.34
485.503	4017.75
485.874	4153.11
486.244	4233.79
486.615	4348.81
486.985	4477.85
487.356	4571.63
487.726	4660.67
488.097	4787.22
488.467	4864.05
488.837	5026.31
489.207	5161.9
489.578	5258.39
489.948	5360.76
490.318	5514.88
490.688	5552.62
491.058	5713.97
491.428	5829.68
491.798	5943.35
492.168	6128.43
492.538	6193.06
492.908	6286.39
493.278	6442.54
493.648	6553.73
494.017	6672.82
494.387	6731.12
494.757	6925.47
495.126	7044.79
495.496	7022.19
495.866	7266.93
496.235	7280.26
496.605	7435.06
496.974	7567.48
497.344	7657.43
497.713	7776.07
498.082	7921.83
498.452	8019.45
498.821	8111.2
499.19	8117.3
499.559	8242.5
499.928	8418.31
500.298	8500.34
500.667	8590.73
501.036	8613.78
501.405	8740.34
501.774	8739.88
502.143	8875.02
502.512	8952.53
502.88	9055.13
503.249	9106.88
503.618	9198.18
503.987	9239.08
504.356	9282.24
504.724	9428.9
505.093	9538.05
505.462	9528.34
505.83	9616.47
506.199	9719.74
506.567	9825.05
506.936	9784.6
507.304	9957.7
507.672	10019.62
508.041	10110.02
508.409	10143.01
508.777	10206.74
509.145	10260.97
509.514	10323.57
509.882	10433.85
510.25	10408.99
510.618	10453.06
510.986	10479.72
511.354	10660.28
511.722	10688.08
512.09	10797.68
512.458	10736.67
512.826	10860.73
513.193	10905.93
513.561	10949.77
513.929	11006.04
514.297	10984.34
514.664	11077.22
515.032	11074.74
515.4	11180.27
515.767	11192.02
516.135	11267.27
516.502	11164.68
516.869	11350.44
517.237	11417.78
517.604	11288.29
517.972	11389.08
518.339	11538.23
518.706	11433.82
519.073	11460.04
519.44	11499.58
519.808	11704.78
520.175	11606.02
520.542	11758.11
520.909	11741.84
521.276	11678.79
521.643	11764.21
522.009	11888.5
522.376	11824.32
522.743	11861.16
523.11	11935.73
523.477	12132.56
523.843	12044.2
524.21	12092.56
524.577	12215.27
524.943	12175.05
525.31	12166.23
525.676	12260.92
526.043	12277.19
526.409	12241.03
526.776	12420.69
527.142	12255.72
527.508	12289.39
527.874	12452.1
528.241	12459.11
528.607	12456.4
528.973	12465.89
529.339	12426.57
529.705	12437.19
530.071	12580.91
530.437	12558.09
530.803	12598.99
531.169	12588.6
531.535	12494.36
531.901	12507.02
532.267	12501.14
532.632	12574.36
532.998	12561.03
533.364	12487.58
533.73	12512.89
534.095	12581.59
534.461	12493.68
534.826	12539.78
535.192	12538.88
535.557	12592.89
535.923	12562.38
536.288	12561.25
536.653	12532.55
537.019	12490.52
537.384	12546.79
537.749	12414.14
538.114	12421.82
538.479	12352.44
538.845	12435.61
539.21	12308.6
539.575	12282.84
539.94	12279.9
540.305	12372.1
540.67	12196.52
541.034	12211.66
541.399	12277.42
541.764	12229.51
542.129	12224.76
542.494	12161.49
542.858	12175.5
543.223	12161.04
543.587	12127.14
543.952	12075.84
544.316	12143.86
544.681	12004.2
545.045	11969.18
545.41	12102.51
545.774	11982.74
546.138	12013.47
546.503	11976.41
546.867	11981.15
547.231	11938.22
547.595	11999.46
547.959	11872.23
548.324	11804.44
548.688	11868.39
549.052	11890.08
549.416	11803.08
549.779	11705.23
550.143	11701.16
550.507	11751.1
550.871	11672.91
551.235	11683.08
551.599	11719.69
551.962	11615.06
552.326	11693.03
552.689	11647.38
553.053	11583.2
553.417	11577.1
553.78	11737.54
554.143	11577.32
554.507	11602.63
554.87	11548.62
555.234	11568.96
555.597	11478.79
555.96	11514.05
556.323	11603.99
556.686	11458.91
557.05	11568.96
557.413	11497.78
557.776	11513.6
558.139	11492.35
558.502	11540.26
558.865	11513.37
559.228	11477.89
559.59	11522.41
559.953	11484.67
560.316	11525.8
560.679	11561.05
561.041	11554.95
561.404	11600.6
561.767	11508.4
562.129	11523.99
562.492	11594.72
562.854	11517.66
563.217	11498.45
563.579	11639.69
563.941	11660.26
564.304	11587.94
564.666	11663.65
565.028	11535.52
565.39	11607.15
565.753	11683.99
566.115	11700.03
566.477	11686.7
566.839	11683.31
567.201	11717.88
567.563	11649.41
567.925	11832.46
568.287	11716.08
568.648	11688.28
569.01	11816.19
569.372	11817.54
569.734	11781.84
570.095	11861.83
570.457	11856.19
570.819	11859.12
571.18	11794.04
571.542	11844.21
571.903	11887.6
572.265	11897.77
572.626	11892.34
572.987	11918.1
573.349	11935.51
573.71	11968.27
574.071	11940.7
574.432	11913.13
574.794	11971.21
575.155	11983.87
575.516	11918.33
575.877	11985
576.238	11960.14
576.599	12078.55
576.96	11961.95
577.32	11993.36
577.681	12017.09
578.042	12085.33
578.403	11982.06
578.763	12047.37
579.124	12016.63
579.485	12060.25
579.845	12088.95
580.206	12048.5
580.566	12053.92
580.927	12033.58
581.287	12107.7
581.648	11941.61
582.008	12046.91
582.368	12048.04
582.728	12015.05
583.089	12045.78
583.449	12092.34
583.809	12022.28
584.169	12027.25
584.529	12023.19
584.889	12121.94
585.249	11942.74
585.609	11936.18
585.969	12026.12
586.329	12033.36
586.688	11938.9
587.048	11997.65
587.408	11955.17
587.768	12002.62
588.127	11924.21
588.487	11952
588.846	11938.67
589.206	11946.58
589.565	11825.23
589.925	11948.16
590.284	11872
590.643	11924.21
591.003	11873.13
591.362	11961.95
591.721	11914.04
592.08	11885.56
592.44	11938.44
592.799	11876.3
593.158	11828.62
593.517	11885.34
593.876	11877.43
594.235	11846.47
594.593	11840.82
594.952	11867.03
595.311	11804.66
595.67	11875.17
596.029	11858.22
596.387	11908.16
596.746	11888.95
597.104	11882.63
597.463	11871.33
597.822	11868.39
598.18	11825
598.538	11778
598.897	11902.74
599.255	11741.39
599.613	11883.53
599.972	11846.92
600.33	11862.06
600.688	11804.89
601.046	11799.69
601.404	11873.59
601.762	11799.92
602.12	11814.38
602.478	11836.52
602.836	11872.46
603.194	11748.39
603.552	11778
603.91	11782.29
604.268	11829.97
604.625	11806.7
604.983	11823.19
605.341	11778.22
605.698	11845.11
606.056	11840.59
606.413	11835.62
606.771	11820.93
607.128	11912.23
607.485	11815.73
607.843	11779.58
608.2	11806.92
608.557	12008.95
608.914	11915.62
609.272	11951.32
609.629	11906.81
609.986	11952.23
610.343	11890.08
610.7	12018.67
611.057	12035.16
611.414	11936.86
611.771	11971.66
612.127	12003.3
612.484	11969.85
612.841	12006.92
613.198	11975.28
613.554	12026.12
613.911	12054.37
614.267	12055.95
614.624	12026.35
614.98	12038.55
615.337	12076.74
615.693	12096.41
616.05	11998.1
616.406	12067.03
616.762	12066.8
617.118	12124.88
617.475	12176.63
617.831	12130.08
618.187	12078.78
618.543	12208.49
618.899	12183.18
619.255	12178.21
619.611	12073.58
619.967	12150.19
620.323	12217.31
620.678	12227.25
621.034	12159.45
621.39	12170.08
621.746	12029.29
622.101	12267.25
622.457	12165.1
622.812	12184.76
623.168	12245.78
623.523	12141.83
623.879	12294.37
624.234	12080.13
624.589	12194.48
624.945	12096.86
625.3	12229.28
625.655	12205.1
626.01	12200.58
626.365	12189.96
626.72	12132.11
627.075	12225.44
627.43	12151.09
627.785	12129.62
628.14	12150.64
628.495	12223.18
628.85	12211.2
629.205	12166.91
629.559	12224.54
629.914	12030.87
630.269	12088.5
630.623	12066.8
630.978	12059.8
631.332	12103.18
631.687	12065.67
632.041	12013.7
632.396	12101.83
632.75	12035.16
633.104	12006.69
633.459	11955.39
633.813	11948.61
634.167	11954.26
634.521	12032.68
634.875	11938.9
635.229	11924.43
635.583	11892.12
635.937	11779.58
636.291	11832.91
636.645	11846.47
636.999	11854.83
637.352	11863.87
637.706	11829.07
638.06	11880.82
638.413	11849.86
638.767	11729.18
639.121	11846.47
639.474	11746.58
639.828	11831.78
640.181	11726.92
640.534	11748.84
640.888	11726.7
641.241	11689.86
641.594	11789.52
641.947	11773.93
642.301	11643.31
642.654	11698.68
643.007	11705.68
643.36	11628.85
643.713	11671.56
644.066	11637.66
644.419	11640.6
644.771	11539.58
645.124	11455.07
645.477	11393.6
645.83	11351.57
646.182	11298.46
646.535	11297.56
646.888	11284.9
647.24	11187.5
647.593	11324.22
647.945	11225.47
648.298	11119.93
648.65	11186.6
649.002	11161.51
649.355	11251.46
649.707	11211.91
650.059	11280.83
650.411	11394.28
650.763	11469.3
651.115	11580.49
651.467	11568.28
651.819	11513.82
652.171	11540.26
652.523	11515.4
652.875	11514.05
653.227	11489.87
653.578	11540.26
653.93	11504.33
654.282	11450.09
654.633	11419.36
654.985	11482.18
655.337	11439.47
655.688	11489.87
656.039	11583.88
656.391	11422.07
656.742	11526.48
657.094	11459.36
657.445	11439.47
657.796	11408.74
658.147	11388.4
658.498	11485.35
658.849	11496.87
659.2	11441.73
659.551	11388.63
659.902	11458.46
660.253	11484.22
660.604	11456.42
660.955	11366.48
661.306	11515.86
661.656	11524.67
662.007	11485.57
662.358	11525.57
662.708	11470.66
663.059	11481.73
663.409	11420.49
663.76	11507.27
664.11	11555.85
664.461	11527.61
664.811	11522.41
665.161	11506.59
665.511	11504.33
665.862	11538.45
666.212	11529.64
666.562	11542.97
666.912	11500.04
667.262	11504.1
667.612	11543.43
667.962	11512.24
668.312	11499.58
668.662	11540.04
669.011	11488.29
669.361	11494.61
669.711	11504.33
670.06	11446.03
670.41	11410.32
670.76	11436.99
671.109	11484.9
671.459	11456.65
671.808	11471.11
672.157	11495.06
672.507	11449.19
672.856	11436.31
673.205	11384.11
673.554	11445.12
673.904	11407.38
674.253	11449.19
674.602	11398.34
674.951	11192.93
675.3	11168.29
675.649	11421.85
675.998	11333.26
676.346	11337.56
676.695	11434.05
677.044	11221.63
677.393	11281.74
677.741	11288.29
678.09	11351.57
678.438	11261.85
678.787	11307.05
679.135	11230.44
679.484	11192.47
679.832	11275.18
680.181	11193.83
680.529	11247.84
680.877	11153.15
681.225	11233.38
681.573	11147.05
681.922	11083.78
682.27	11118.8
682.618	11070.44
682.966	11080.84
683.314	11065.25
683.661	11058.24
684.009	10931.69
684.357	10974.4
684.705	10903.89
685.053	10896.89
685.4	10912.71
685.748	10776.67
686.095	10878.58
686.443	10869.32
686.79	10763.78
687.138	10798.81
687.485	10792.48
687.832	10727.18
688.18	10739.15
688.527	10627.29
688.874	10638.36
689.221	10621.42
689.568	10602.66
689.915	10475.2
690.262	10547.97
690.609	10542.55
690.956	10497.35
691.303	10483.11
691.65	10404.02
691.997	10399.05
692.344	10269.56
692.69	10342.1
693.037	10351.37
693.383	10249.67
693.73	10261.43
694.077	10160.86
694.423	10141.65
694.769	10241.54
695.116	10078.15
695.462	10055.1
695.808	10000.87
696.155	10027.76
696.501	9990.7
696.847	9901.21
697.193	9865.5
697.539	9909.12
697.885	9791.38
698.231	9829.57
698.577	9875.67
698.923	9730.37
699.269	9707.77
699.614	9669.35
699.96	9653.08
700.306	9669.12
700.651	9572.63
700.997	9522.69
701.342	9498.96
701.688	9444.72
702.033	9374.44
702.379	9413.31
702.724	9362.24
703.069	9428
703.415	9267.55
703.76	9296.93
704.105	9297.83
704.45	9179.87
704.795	9219.42
705.14	9180.32
705.485	9103.26
705.83	9178.97
706.175	9100.55
706.52	9093.32
706.865	9021.23
707.209	9037.5
707.554	8939.65
707.899	8976.49
708.243	8891.74
708.588	8931.74
708.932	8882.93
709.277	8868.24
709.621	8872.31
709.966	8797.96
710.31	8867.11
710.654	8728.36
710.998	8714.35
711.342	8743.27
711.687	8745.76
712.031	8710.96
712.375	8607.23
712.719	8621.47
713.063	8633.9
713.407	8708.47
713.75	8609.94
714.094	8593.9
714.438	8566.33
714.782	8582.83
715.125	8547.8
715.469	8484.97
715.812	8494.24
716.156	8472.09
716.499	8487.69
716.843	8492.66
717.186	8403.39
717.53	8459.66
717.873	8436.39
718.216	8426.9
718.559	8382.38
718.902	8336.28
719.246	8360.46
719.589	8318.88
719.932	8258.54
720.275	8316.84
720.617	8316.17
720.96	8335.37
721.303	8324.3
721.646	8251.53
721.989	8248.37
722.331	8224.64
722.674	8277.97
723.016	8271.65
723.359	8261.25
723.701	8225.32
724.044	8146.45
724.386	8165.21
724.729	8166.34
725.071	8231.42
725.413	8139
725.755	8110.3
726.097	8120.69
726.439	8143.51
726.782	8128.83
727.124	8170.18
727.465	8084.99
727.807	8089.28
728.149	8078.66
728.491	8093.12
728.833	8120.92
729.175	8015.38
729.516	8052.22
729.858	8020.13
730.199	8108.71
730.541	8066.23
730.882	8031.2
731.224	8089.28
731.565	8095.83
731.906	8063.06
732.248	8070.3
732.589	8023.52
732.93	8013.57
733.271	8064.19
733.612	8031.65
733.953	8050.18
734.294	7987.36
734.635	7979.9
734.976	8027.81
735.317	8024.65
735.658	7961.82
735.999	8044.31
736.339	7978.32
736.68	8088.15
737.021	8071.2
737.361	7983.29
737.702	8068.94
738.042	8068.71
738.383	8040.01
738.723	8082.27
739.063	8107.36
739.404	8081.14
739.744	8057.42
740.084	8041.14
740.424	8099.67
740.764	8086.12
741.104	8065.1
741.444	8080.92
741.784	8126.57
742.124	8149.39
742.464	8145.77
742.804	8165.66
743.143	8183.06
743.483	8191.42
743.823	8163.4
744.162	8215.38
744.502	8249.73
744.841	8262.16
745.181	8305.77
745.52	8313.45
745.86	8357.75
746.199	8388.48
746.538	8391.19
746.877	8469.16
747.216	8518.42
747.556	8529.49
747.895	8522.49
748.234	8559.77
748.573	8606.55
748.911	8652.88
749.25	8725.65
749.589	8722.48
749.928	8804.29
750.267	8896.49
750.605	8947.56
750.944	8956.37
751.283	8997.5
751.621	9067.78
751.96	9124.96
752.298	9231.85
752.636	9319.3
752.975	9334.22
753.313	9384.61
753.651	9529.01
753.989	9601.78
754.327	9741.21
754.666	9757.48
755.004	9916.8
755.342	10040.64
755.679	10181.88
756.017	10219.39
756.355	10366.28
756.693	10442.44
757.031	10578.7
757.368	10650.34
757.706	10819.38
758.044	10866.83
758.381	11058.24
758.719	11181.17
759.056	11311.12
759.394	11425.91
759.731	11517.89
760.068	11595.63
760.405	11760.82
760.743	11840.82
761.08	12051.89
761.417	12187.48
761.754	12305.89
762.091	12420.01
762.428	12629.95
762.765	12651.87
763.102	12812.09
763.438	12917.17
763.775	12955.59
764.112	13164.85
764.449	13381.57
764.785	13486.65
765.122	13489.14
765.458	13624.05
765.795	13759.64
766.131	13887.09
766.467	13999.86
766.804	13994.21
767.14	14192.85
767.476	14245.95
767.812	14354.65
768.148	14540.18
768.485	14545.61
768.821	14683.68
769.157	14809.78
769.492	14895.43
769.828	14970.23
770.164	14974.07
770.5	15125.48
770.836	15196.44
771.171	15170.9
771.507	15280.95
771.842	15299.94
772.178	15442.53
772.513	15526.37
772.849	15559.82
773.184	15584.9
773.519	15646.14
773.855	15779.47
774.19	15700.6
774.525	15748.29
774.86	15919.13
775.195	15940.37
775.53	15974.27
775.865	15998.45
776.2	15926.59
776.535	15897.44
776.87	15926.13
777.205	15988.05
777.539	15983.31
777.874	16080.71
778.209	15965.68
778.543	16053.82
778.878	16033.25
779.212	16075.74
779.547	16089.29
779.881	16165.68
780.215	16062.63
780.55	16096.98
780.884	16077.54
781.218	16145.34
781.552	16127.26
781.886	16082.06
782.22	15999.35
782.554	16039.8
782.888	15903.54
783.222	15947.15
783.556	15943.99
783.889	15951.9
784.223	15946.47
784.557	15898.57
784.89	15990.31
785.224	15840.26
785.557	15854.5
785.891	15805.01
786.224	15859.7
786.558	15772.24
786.891	15774.95
787.224	15734.05
787.557	15724.11
787.891	15770.66
788.224	15676.65
788.557	15783.31
788.89	15631
789.223	15694.28
789.556	15599.82
789.888	15574.28
790.221	15562.75
790.554	15512.81
790.887	15514.85
791.219	15417.67
791.552	15446.37
791.884	15402.98
792.217	15384.23
792.549	15353.49
792.882	15259.71
793.214	15309.65
793.546	15296.55
793.879	15174.97
794.211	15170.67
794.543	15133.84
794.875	15103.78
795.207	15179.26
795.539	15124.8
795.871	15085.03
796.203	14975.65
796.535	14921.87
796.867	14863.11
797.198	14805.94
797.53	14856.33
797.862	14904.01
798.193	14812.72
798.525	14729.78
798.856	14787.63
799.188	14675.77
799.519	14614.98
799.85	14553.74
800.182	14566.62
800.513	14551.26
800.844	14396.23
801.175	14456.57
801.506	14492.27
801.837	14398.94
802.168	14449.79
802.499	14392.62
802.83	14272.85
803.161	14218.84
803.491	14247.31
803.822	14160.76
804.153	14101.55
804.483	14037.15
804.814	14003.47
805.145	14065.62
805.475	13964.6
805.805	14001.67
806.136	13946.75
806.466	14039.18
806.796	13973.19
807.126	13856.36
807.457	13864.95
807.787	13850.26
808.117	13778.62
808.447	13751.95
808.777	13757.83
809.107	13688.91
809.436	13646.42
809.766	13631.28
810.096	13577.27
810.426	13518.51
810.755	13563.03
811.085	13501.79
811.414	13520.55
811.744	13395.13
812.073	13350.38
812.403	13374.56
812.732	13296.37
813.061	13331.4
813.39	13229.26
813.719	13279.42
814.049	13292.08
814.378	13235.13
814.707	13173.89
815.036	13158.75
815.365	13113.55
815.693	13071.52
816.022	13052.31
816.351	13118.3
816.68	12938.87
817.008	12958.08
817.337	12894.35
817.665	12826.56
817.994	12963.95
818.322	12811.19
818.651	12849.83
818.979	12748.14
819.307	12883.05
819.636	12763.28
819.964	12662.27
820.292	12739.78
820.62	12655.03
820.948	12698.42
821.276	12673.34
821.604	12641.7
821.932	12663.62
822.259	12691.42
822.587	12706.33
822.915	12655.03
823.243	12759.44
823.57	12610.74
823.898	12747.24
824.225	12612.1
824.553	12613.45
824.88	12631.98
825.207	12683.73
825.535	12697.75
825.862	12717.41
826.189	12550.18
826.516	12704.52
826.843	12677.18
827.17	12769.16
827.497	12719.44
827.824	12702.04
828.151	12775.03
828.478	12663.4
828.805	12701.59
829.131	12630.85
829.458	12670.18
829.785	12668.37
830.111	12696.84
830.438	12688.03
830.764	12682.15
831.09	12727.57
831.417	12630.85
831.743	12722.6
832.069	12638.99
832.395	12561.03
832.722	12642.38
833.048	12569.84
833.374	12596.73
833.7	12582.49
834.026	12589.27
834.351	12565.09
834.677	12540.46
835.003	12608.26
835.329	12559.9
835.654	12454.14
835.98	12480.35
836.306	12519.67
836.631	12423.85
836.956	12478.32
837.282	12445.55
837.607	12337.75
837.932	12363.06
838.258	12406.23
838.583	12354.03
838.908	12250.07
839.233	12340.24
839.558	12245.55
839.883	12267.25
840.208	12229.96
840.533	12278.32
840.858	12170.08
841.182	12237.19
841.507	12228.15
841.832	12121.49
842.156	12125.1
842.481	12204.42
842.805	12050.08
843.13	11977.76
843.454	12149.06
843.778	11992.23
844.103	12012.79
844.427	11915.39
844.751	11917.43
845.075	11972.34
845.399	11847.15
845.723	11817.77
846.047	11889.63
846.371	11768.05
846.695	11779.8
847.019	11706.13
847.343	11554.72
847.666	11547.72
847.99	11478.34
848.313	11518.57
848.637	11429.98
848.96	11382.75
849.284	11345.01
849.607	11306.37
849.931	11298.01
850.254	11208.07
850.577	11141.4
850.9	11094.62
851.223	11042.87
851.546	11015.53
851.869	10864.8
852.192	11053.72
852.515	10856.89
852.838	10791.13
853.161	10877.68
853.483	10777.8
853.806	10710
854.129	10697.35
854.451	10658.02
854.774	10574.64
855.096	10599.72
855.419	10620.51
855.741	10566.5
856.063	10488.31
856.385	10468.65
856.708	10424.58
857.03	10391.59
857.352	10419.84
857.674	10288.77
857.996	10313.63
858.318	10268.66
858.64	10228.88
858.961	10210.8
859.283	10184.36
859.605	10056.01
859.926	10161.31
860.248	10101.88
860.57	10071.37
860.891	10096.91
861.212	10012.62
861.534	10009
861.855	9992.05
862.176	10036.57
862.498	9975.1
862.819	9983.24
863.14	9948.21
863.461	9843.13
863.782	9880.64
864.103	9871.6
864.424	9793.87
864.745	9834.32
865.065	9808.1
865.386	9786.41
865.707	9777.37
866.027	9751.61
866.348	9686.98
866.668	9677.94
866.989	9717.26
867.309	9663.02
867.63	9684.94
867.95	9621.44
868.27	9628.22
868.59	9637.94
868.91	9574.66
869.23	9591.39
869.55	9582.8
869.87	9573.99
870.19	9474.55
870.51	9512.29
870.83	9508.68
871.15	9491.73
871.469	9417.38
871.789	9446.98
872.109	9456.93
872.428	9404.95
872.748	9435.91
873.067	9399.75
873.386	9376.7
873.706	9355.91
874.025	9369.47
874.344	9398.4
874.663	9366.99
874.982	9313.43
875.301	9335.57
875.62	9301.68
875.939	9226.42
876.258	9273.43
876.577	9218.06
876.896	9219.19
877.214	9225.97
877.533	9237.05
877.852	9181.68
878.17	9152.53
878.489	9193.2
878.807	9159.99
879.125	9184.62
879.444	9154.56
879.762	9124.28
880.08	9057.39
880.398	9084.51
880.716	9075.69
881.034	9019.2
881.352	9077.95
881.67	9022.14
881.988	8976.26
882.306	8946.88
882.624	8941.69
882.941	8849.94
883.259	8888.35
883.577	8879.09
883.894	8851.97
884.212	8876.83
884.529	8787.79
884.846	8702.37
885.164	8792.99
885.481	8724.52
885.798	8754.35
886.115	8694.23
886.432	8654.69
886.75	8683.39
887.067	8666.89
887.383	8541.02
887.7	8640.22
888.017	8587.8
888.334	8585.54
888.651	8562.49
888.967	8565.88
889.284	8473.22
889.6	8473.68
889.917	8340.12
890.233	8436.39
890.55	8357.29
890.866	8374.02
891.182	8332.44
891.498	8324.53
891.815	8346.67
892.131	8284.53
892.447	8265.32
892.763	8202.5
893.079	8244.3
893.395	8255.6
893.71	8137.87
894.026	8097.87
894.342	8082.95
894.657	8030.52
894.973	8025.78
895.289	8025.1
895.604	8014.03
895.92	7966.8
896.235	7877.76
896.55	7995.72
896.865	7945.1
897.181	7949.62
897.496	7887.7
897.811	7805.22
898.126	7812.9
898.441	7787.37
898.756	7748.95
899.071	7717.99
899.386	7734.26
899.7	7637.99
900.015	7538.11
900.33	7544.66
900.644	7505.11
900.959	7528.16
901.273	7532.23
901.588	7450.65
901.902	7400.94
902.216	7338.34
902.531	7418.56
902.845	7351.22
903.159	7276.42
903.473	7301.95
903.787	7214.5
904.101	7219.47
904.415	7222.63
904.729	7207.95
905.042	7160.04
905.356	7170.66
905.67	7104.9
905.984	7086.14
906.297	7077.78
906.611	7016.31
906.924	7049.98
907.237	6991.45
907.551	6951.46
907.864	7007.95
908.177	6935.86
908.491	6894.28
908.804	6808.86
909.117	6815.41
909.43	6756.21
909.743	6757.11
910.056	6762.08
910.368	6693.38
910.681	6675.08
910.994	6656.77
911.307	6657
911.619	6585.14
911.932	6590.56
912.244	6518.47
912.557	6531.13
912.869	6527.74
913.181	6436.44
913.494	6495.87
913.806	6407.29
914.118	6364.35
914.43	6360.06
914.742	6372.04
915.054	6283.45
915.366	6289.1
915.678	6227.18
915.99	6223.11
916.302	6205.49
916.613	6173.4
916.925	6177.24
917.236	6150.57
917.548	6135.43
917.859	6110.35
918.171	6081.65
918.482	6018.6
918.794	6001.65
919.105	6020.63
919.416	5919.84
919.727	5978.37
920.038	5927.98
920.349	5893.86
920.66	5882.78
920.971	5886.4
921.282	5852.95
921.593	5820.19
921.903	5804.82
922.214	5767.31
922.525	5772.96
922.835	5711.94
923.146	5687.31
923.456	5702.67
923.767	5627.42
924.077	5719.62
924.387	5571.15
924.697	5603.24
925.008	5566.86
925.318	5524.37
925.628	5517.14
925.938	5512.4
926.248	5458.84
926.558	5417.71
926.867	5431.5
927.177	5400.99
927.487	5366.64
927.796	5332.06
928.106	5317.83
928.416	5245.96
928.725	5326.87
929.034	5252.29
929.344	5275.79
929.653	5246.42
929.962	5195.12
930.271	5225.17
930.581	5174.33
930.89	5127.1
931.199	5100.2
931.508	5058.85
931.817	5072.63
932.125	5046.19
932.434	5048.91
932.743	5036.7
933.051	4984.05
933.36	4996.7
933.669	4902.7
933.977	4950.15
934.286	4930.27
934.594	4900.89
934.902	4840.78
935.21	4809.14
935.519	4832.42
935.827	4814.11
936.135	4771.17
936.443	4747.67
936.751	4784.06
937.059	4744.96
937.367	4749.25
937.674	4739.31
937.982	4662.02
938.29	4629.93
938.597	4621.35
938.905	4594.68
939.213	4579.09
939.52	4576.6
939.827	4572.08
940.135	4570.28
940.442	4529.15
940.749	4503.16
941.056	4537.96
941.363	4446.21
941.67	4433.1
941.977	4432.2
942.284	4413.9
942.591	4427.68
942.898	4373.44
943.205	4357.85
943.511	4348.36
943.818	4326.89
944.125	4303.62
944.431	4256.39
944.738	4257.06
945.044	4283.05
945.35	4196.27
945.657	4175.48
945.963	4140.46
946.269	4139.78
946.575	4166.9
946.881	4147.24
947.187	4098.65
947.493	4100.23
947.799	4093.9
948.105	4045.09
948.41	3987.01
948.716	4061.59
949.022	4025.2
949.327	3983.85
949.633	3959.44
949.938	3966.68
950.244	3976.84
950.549	3931.87
950.854	3907.92
951.16	3909.5
951.465	3891.88
951.77	3862.95
952.075	3837.87
952.38	3845.32
952.685	3819.56
952.99	3785.89
953.294	3809.39
953.599	3776.85
953.904	3724.42
954.209	3734.59
954.513	3731.2
954.818	3708.38
955.122	3675.38
955.426	3686.68
955.731	3668.38
956.035	3634.93
956.339	3596.06
956.643	3626.57
956.948	3600.81
957.252	3546.8
957.556	3555.39
957.86	3521.49
958.163	3560.13
958.467	3523.98
958.771	3520.36
959.075	3526.91
959.378	3451.89
959.682	3441.94
959.985	3469.74
960.289	3409.63
960.592	3447.82
960.896	3403.75
961.199	3391.32
961.502	3380.25
961.805	3370.08
962.108	3353.13
962.411	3334.6
962.714	3301.16
963.017	3276.3
963.32	3274.94
963.623	3306.13
963.926	3295.96
964.228	3246.02
964.531	3281.27
964.833	3253.7
965.136	3205.79
965.438	3198.56
965.741	3152.01
966.043	3181.84
966.345	3185.45
966.648	3165.57
966.95	3130.77
967.252	3109.3
967.554	3119.24
967.856	3091.9
968.158	3039.02
968.46	3047.6
968.761	3031.33
969.063	3018.9
969.365	3036.76
969.666	3034.72
969.968	2976.87
970.269	2956.98
970.571	3002.41
970.872	2971.45
971.174	2956.08
971.475	2920.6
971.776	2928.96
972.077	2884.22
972.378	2908.17
972.679	2893.71
972.98	2884.67
973.281	2865.69
973.582	2826.37
973.883	2849.64
974.183	2811.23
974.484	2799.7
974.785	2812.58
975.085	2784.56
975.386	2750.44
975.686	2763.32
975.986	2735.97
976.287	2748.85
976.587	2737.33
976.887	2725.8
977.187	2698.69
977.487	2727.39
977.787	2666.37
978.087	2651.46
978.387	2681.29
978.687	2667.73
978.987	2665.69
979.286	2610.33
979.586	2605.81
979.885	2612.13
980.185	2583.21
980.484	2584.34
980.784	2544.57
981.083	2546.6
981.382	2543.44
981.682	2530.78
981.981	2486.04
982.28	2517.22
982.579	2488.07
982.878	2519.26
983.177	2475.87
983.475	2489.43
983.774	2460.27
984.073	2424.57
984.372	2409.43
984.67	2437
984.969	2393.38
985.267	2429.54
985.566	2362.88
985.864	2396.55
986.162	2387.51
986.461	2366.94
986.759	2359.94
987.057	2342.09
987.355	2295.08
987.653	2337.34
987.951	2308.19
988.249	2275.19
988.547	2285.82
988.844	2270.45
989.142	2274.29
989.44	2275.19
989.737	2237.23
990.035	2227.06
990.332	2220.51
990.63	2214.63
990.927	2228.87
991.224	2174.86
991.521	2177.8
991.819	2145.03
992.116	2171.02
992.413	2165.14
992.71	2143.9
993.006	2120.4
993.303	2142.99
993.6	2121.53
993.897	2097.8
994.193	2112.71
994.49	2059.38
994.787	2091.47
995.083	2058.48
995.379	2067.74
995.676	2073.39
995.972	2004.92
996.268	2029.78
996.565	2018.03
996.861	2022.77
997.157	2000.17
997.453	1980.29
997.749	1986.16
998.044	1981.42
998.34	1979.16
998.636	1942.55
998.932	1950.91
999.227	1935.32
999.523	1910.68
999.818	1909.78
1000.114	1927.63
1000.409	1924.7
1000.704	1870.91
1001	1894.19
1001.295	1872.72
1001.59	1837.01
1001.885	1889.67
1002.18	1861.87
1002.475	1836.34
1002.77	1800.86
1003.065	1808.31
1003.359	1788.43
1003.654	1791.14
1003.949	1802.89
1004.243	1794.53
1004.538	1755.89
1004.832	1748.2
1005.127	1738.26
1005.421	1689
1005.715	1725.83
1006.009	1695.77
1006.304	1688.32
1006.598	1699.62
1006.892	1649.45
1007.186	1691.93
1007.48	1679.73
1007.773	1659.84
1008.067	1680.18
1008.361	1616
1008.655	1649
1008.948	1619.84
1009.242	1619.39
1009.535	1603.12
1009.829	1593.4
1010.122	1589.11
1010.415	1570.35
1010.708	1567.42
1011.001	1564.03
1011.295	1539.62
1011.588	1534.42
1011.881	1512.05
1012.173	1519.51
1012.466	1520.64
1012.759	1476.57
1013.052	1472.28
1013.344	1506.4
1013.637	1470.47
1013.93	1472.73
1014.222	1507.08
1014.514	1469.11
1014.807	1465.95
1015.099	1447.87
1015.391	1447.19
1015.683	1432.28
1015.976	1405.61
1016.268	1412.84
1016.56	1396.35
1016.851	1405.61
1017.143	1403.35
1017.435	1357.7
1017.727	1379.17
1018.018	1356.57
1018.31	1373.3
1018.602	1354.54
1018.893	1335.56
1019.185	1329.23
1019.476	1337.37
1019.767	1299.85
1020.058	1289.91
1020.35	1283.36
1020.641	1270.93
1020.932	1270.7
1021.223	1253.98
1021.514	1269.35
1021.804	1239.74
1022.095	1259.18
1022.386	1221.66
1022.677	1231.83
1022.967	1215.79
1023.258	1238.16
1023.548	1206.52
1023.839	1211.27
1024.129	1200.87
1024.419	1190.48
1024.709	1176.01
1025	1202.68
1025.29	1150.25
1025.58	1171.49
1025.87	1145.96
1026.16	1145.51
1026.449	1131.5
1026.739	1084.27
1027.029	1105.73
1027.319	1110.48
1027.608	1112.97
1027.898	1086.53
1028.187	1103.7
1028.477	1102.8
1028.766	1093.3
1029.055	1077.94
1029.344	1059.18
1029.634	1063.02
1029.923	1042.46
1030.212	1063.25
1030.501	1018.73
1030.79	1049.01
1031.078	1039.29
1031.367	1017.6
1031.656	1036.13
1031.945	981.44
1032.233	1035
1032.522	1000.65
1032.81	989.8
1033.099	982.12
1033.387	960.65
1033.675	972.18
1033.963	965.4
1034.251	979.41
1034.54	967.88
1034.828	957.26
1035.116	916.36
1035.403	911.39
1035.691	946.42
1035.979	920.88
1036.267	919.75
1036.554	928.11
1036.842	903.25
1037.129	904.38
1037.417	896.47
1037.704	924.72
1037.992	884.5
1038.279	894.67
1038.566	898.51
1038.853	898.51
1039.14	898.51
