Data from hue_70_FLMS001491_72.txt Node
Date: Mon Feb 06 15:21:24 GMT 2017
User: dcchb
Spectrometer: FLMS00149
Trigger mode: 0
Integration Time (sec): 2.000000E-2
Scans to average: 10
Electric dark correction enabled: true
Nonlinearity correction enabled: false
Boxcar width: 0
XAxis mode: Wavelengths
Number of Pixels in Spectrum: 2048
>>>>>Begin Spectral Data<<<<<
341.393	-13.81
341.776	-13.81
342.16	-13.81
342.543	-55.17
342.927	-80.25
343.31	-69.86
343.693	-51.1
344.077	-60.82
344.46	-62.85
344.843	-53.59
345.226	-30.76
345.61	-25.11
345.993	-16.3
346.376	-4.1
346.759	4.04
347.142	18.05
347.525	34.77
347.908	60.54
348.291	71.38
348.674	87.2
349.057	98.5
349.44	122.68
349.823	136.24
350.206	169.23
350.588	199.74
350.971	200.19
351.354	207.88
351.737	220.08
352.119	258.72
352.502	289.46
352.884	263.92
353.267	273.86
353.65	301.43
354.032	285.16
354.414	291.94
354.797	282.68
355.179	306.86
355.562	309.34
355.944	346.86
356.326	331.04
356.709	326.52
357.091	343.24
357.473	331.94
357.855	338.04
358.238	333.52
358.62	339.85
359.002	367.42
359.384	337.59
359.766	320.42
360.148	329.23
360.53	319.96
360.912	325.39
361.294	311.6
361.676	320.42
362.057	325.39
362.439	322.45
362.821	311.6
363.203	319.06
363.584	312.51
363.966	322.68
364.348	321.09
364.729	305.95
365.111	321.09
365.493	301.21
365.874	316.12
366.256	306.4
366.637	319.06
367.019	296.46
367.4	309.79
367.781	316.57
368.163	303.47
368.544	306.86
368.925	324.71
369.306	311.15
369.688	309.79
370.069	314.31
370.45	318.38
370.831	312.96
371.212	318.61
371.593	333.3
371.974	301.66
372.355	311.38
372.736	317.25
373.117	322.68
373.498	320.87
373.879	327.42
374.26	339.4
374.641	297.82
375.021	315.44
375.402	316.8
375.783	326.29
376.163	322.68
376.544	323.58
376.925	318.61
377.305	340.53
377.686	316.57
378.066	328.1
378.447	341.88
378.827	315.67
379.208	329.68
379.588	328.55
379.968	324.26
380.349	326.97
380.729	317.48
381.109	320.42
381.489	338.95
381.87	306.63
382.25	352.5
382.63	329.23
383.01	337.36
383.39	325.39
383.77	349.12
384.15	328.32
384.53	322.9
384.91	346.4
385.29	324.71
385.67	341.66
386.049	342.56
386.429	336.01
386.809	348.66
387.189	353.18
387.568	343.01
387.948	347.08
388.328	365.84
388.707	359.06
389.087	345.27
389.466	340.75
389.846	361.09
390.225	351.83
390.605	373.07
390.984	351.15
391.363	349.12
391.743	355.44
392.122	368.1
392.501	356.8
392.881	348.89
393.26	359.06
393.639	362.22
394.018	353.41
394.397	363.8
394.776	375.78
395.155	376.91
395.534	370.58
395.913	378.72
396.292	396.35
396.671	377.59
397.05	377.81
397.429	371.26
397.808	365.61
398.186	375.1
398.565	406.74
398.944	386.85
399.323	376.69
399.701	387.08
400.08	372.17
400.458	369.68
400.837	397.93
401.215	388.21
401.594	363.58
401.972	368.1
402.351	406.97
402.729	386.4
403.107	381.2
403.486	400.64
403.864	408.32
404.242	387.76
404.62	388.89
404.999	409.9
405.377	408.77
405.755	391.37
406.133	411.26
406.511	406.51
406.889	433.41
407.267	398.83
407.645	427.98
408.023	427.08
408.401	424.37
408.779	405.84
409.156	427.31
409.534	419.4
409.912	417.14
410.29	417.36
410.667	434.31
411.045	450.13
411.422	436.34
411.8	443.12
412.178	460.07
412.555	458.72
412.933	444.93
413.31	447.42
413.687	475.89
414.065	443.8
414.442	469.79
414.819	452.62
415.197	463.91
415.574	463.24
415.951	447.42
416.328	478.83
416.705	460.52
417.082	473.86
417.46	492.16
417.837	500.07
418.214	476.57
418.591	468.89
418.967	504.14
419.344	496.46
419.721	496.91
420.098	474.08
420.475	486.06
420.852	490.81
421.228	501.88
421.605	492.39
421.982	510.47
422.358	488.55
422.735	502.11
423.111	524.25
423.488	512.95
423.864	512.5
424.241	527.87
424.617	509.56
424.994	534.87
425.37	534.65
425.746	524.7
426.123	536.91
426.499	527.19
426.875	544.14
427.251	547.08
427.627	542.56
428.003	561.09
428.379	550.47
428.756	557.92
429.132	574.42
429.507	569.45
429.883	572.84
430.259	581.2
430.635	588.43
431.011	585.72
431.387	609.67
431.763	598.6
432.138	609.9
432.514	606.28
432.89	604.25
433.265	606.51
433.641	648.77
434.016	630.46
434.392	633.18
434.767	631.37
435.143	634.31
435.518	636.79
435.894	637.92
436.269	642.67
436.644	645.38
437.02	656.45
437.395	662.55
437.77	682.67
438.145	645.6
438.52	672.72
438.895	666.85
439.271	685.6
439.646	683.57
440.021	709.11
440.395	704.59
440.77	679.28
441.145	693.29
441.52	725.83
441.895	721.53
442.27	722.44
442.645	707.07
443.019	715.89
443.394	734.42
443.769	751.36
444.143	738.48
444.518	747.97
444.892	750.01
445.267	752.27
445.641	763.12
446.016	752.49
446.39	740.97
446.764	749.78
447.139	753.17
447.513	777.35
447.887	776.22
448.262	768.31
448.636	784.81
449.01	794.98
449.384	776.67
449.758	765.83
450.132	808.99
450.506	780.06
450.88	793.17
451.254	810.35
451.628	818.48
452.002	839.5
452.376	834.98
452.75	837.69
453.123	833.62
453.497	843.79
453.871	843.34
454.244	900.74
454.618	879.27
454.992	898.48
455.365	905.26
455.739	903.9
456.112	911.59
456.486	932.83
456.859	940.06
457.232	938.7
457.606	921.08
457.979	943
458.352	967.86
458.725	978.03
459.099	989.32
459.472	1021.64
459.845	1005.82
460.218	974.41
460.591	1017.8
460.964	1045.37
461.337	1060.96
461.71	1068.87
462.083	1073.39
462.456	1074.75
462.829	1101.41
463.201	1099.38
463.574	1132.82
463.947	1124.91
464.32	1148.19
464.692	1185.7
465.065	1176.21
465.438	1186.16
465.81	1207.4
466.183	1204.01
466.555	1299.37
466.928	1240.39
467.3	1277.68
467.672	1262.54
468.045	1312.03
468.417	1358.35
468.789	1334.17
469.161	1372.14
469.534	1392.03
469.906	1433.83
470.278	1435.19
470.65	1473.83
471.022	1460.05
471.394	1551.12
471.766	1548.86
472.138	1568.07
472.51	1595.18
472.882	1640.38
473.253	1703.88
473.625	1738.46
473.997	1729.42
474.369	1746.37
474.74	1819.58
475.112	1846.02
475.484	1888.96
475.855	1945.68
476.227	1980.03
476.598	2073.14
476.97	2056.87
477.341	2154.72
477.713	2193.81
478.084	2230.87
478.455	2293.24
478.827	2340.93
479.198	2424.99
479.569	2466.8
479.94	2565.1
480.311	2620.69
480.682	2690.07
481.053	2766.9
481.424	2890.29
481.795	2912.66
482.166	3003.06
482.537	3120.57
482.908	3185.42
483.279	3278.3
483.65	3382.03
484.021	3481.69
484.391	3571.4
484.762	3623.38
485.133	3761
485.503	3861.57
485.874	3945.4
486.244	4042.58
486.615	4207.32
486.985	4336.13
487.356	4461.78
487.726	4522.11
488.097	4664.03
488.467	4755.33
488.837	4879.62
489.207	4996
489.578	5132.49
489.948	5275.31
490.318	5446.16
490.688	5519.37
491.058	5655.42
491.428	5822.42
491.798	5914.39
492.168	6100.6
492.538	6204.55
492.908	6366.58
493.278	6477.32
493.648	6630.08
494.017	6803.41
494.387	6936.96
494.757	7004.31
495.126	7186.68
495.496	7302.38
495.866	7455.14
496.235	7588.92
496.605	7710.96
496.974	7912.76
497.344	7974
497.713	8161.11
498.082	8298.96
498.452	8390.49
498.821	8559.97
499.19	8628.22
499.559	8815.56
499.928	8949.11
500.298	9019.62
500.667	9169.45
501.036	9267.98
501.405	9399.05
501.774	9520.17
502.143	9606.05
502.512	9745.48
502.88	9857.57
503.249	9902.31
503.618	10100.5
503.987	10221.62
504.356	10320.38
504.724	10498
505.093	10526.25
505.462	10638.11
505.83	10748.84
506.199	10978.67
506.567	11163.07
506.936	11119.68
507.304	11310.41
507.672	11430.63
508.041	11479.67
508.409	11595.83
508.777	11725.54
509.145	11782.26
509.514	11896.61
509.882	12045.08
510.25	12126.88
510.618	12174.11
510.986	12310.61
511.354	12462.47
511.722	12568.68
512.09	12730.48
512.458	12713.99
512.826	12813.65
513.193	12982.46
513.561	13029.91
513.929	13123.92
514.297	13242.34
514.664	13405.72
515.032	13378.6
515.4	13581.31
515.767	13692.95
516.135	13667.86
516.502	13679.61
516.869	14042.54
517.237	13999.15
517.604	13970.68
517.972	14069.88
518.339	14233.72
518.706	14306.71
519.073	14449.31
519.44	14456.54
519.808	14583.32
520.175	14649.76
520.542	14833.03
520.909	14835.06
521.276	14886.81
521.643	15056.98
522.009	15069.41
522.376	15224.2
522.743	15238.89
523.11	15440.92
523.477	15607.92
523.843	15617.19
524.21	15809.95
524.577	15906.9
524.943	15962.94
525.31	16025.54
525.676	16174.24
526.043	16269.83
526.409	16286.32
526.776	16524.28
527.142	16481.8
527.508	16577.39
527.874	16709.36
528.241	16651.29
528.607	16810.15
528.973	16743.26
529.339	16842.01
529.705	17038.17
530.071	17195.45
530.437	17198.62
530.803	17267.77
531.169	17315
531.535	17258.5
531.901	17390.47
532.267	17354.09
532.632	17514.54
532.998	17589.79
533.364	17672.95
533.73	17594.54
534.095	17758.83
534.461	17741.2
534.826	17857.13
535.192	17934.19
535.557	18064.36
535.923	18028.88
536.288	17966.73
536.653	18110.91
537.019	17955.88
537.384	18108.65
537.749	18053.28
538.114	18098.48
538.479	18095.09
538.845	18159.27
539.21	18156.78
539.575	18258.93
539.94	18158.14
540.305	18348.42
540.67	18357.46
541.034	18417.34
541.399	18494.85
541.764	18415.53
542.129	18447.17
542.494	18473.38
542.858	18412.82
543.223	18429.09
543.587	18463.44
543.952	18483.78
544.316	18500.95
544.681	18574.17
545.045	18465.93
545.41	18636.09
545.774	18690.1
546.138	18666.6
546.503	18703.89
546.867	18640.84
547.231	18745.02
547.595	18708.63
547.959	18831.12
548.324	18814.17
548.688	18830.44
549.052	18836.09
549.416	18805.13
549.779	18788.63
550.143	18926.71
550.507	18925.58
550.871	18981.39
551.235	18991.79
551.599	19083.54
551.962	19029.3
552.326	19148.17
552.689	19100.71
553.053	18990.66
553.417	19063.65
553.78	19293.02
554.143	19077.21
554.507	19160.37
554.87	19214.61
555.234	19450.76
555.597	19180.94
555.96	19288.73
556.323	19346.58
556.686	19485.56
557.05	19457.77
557.413	19530.08
557.776	19561.04
558.139	19596.29
558.502	19660.92
558.865	19671.77
559.228	19797.19
559.59	19707.02
559.953	19798.1
560.316	19999.67
560.679	19979.33
561.041	20149.05
561.404	20121.25
561.767	20181.59
562.129	20215.03
562.492	20340.91
562.854	20237.18
563.217	20285.99
563.579	20335.71
563.941	20460.22
564.304	20460
564.666	20574.12
565.028	20643.72
565.39	20645.08
565.753	20648.69
566.115	20819.31
566.477	20888.91
566.839	20894.11
567.201	20938.63
567.563	20989.02
567.925	21028.12
568.287	21137.27
568.648	21079.19
569.01	21263.14
569.372	21307.21
569.734	21335.91
570.095	21404.38
570.457	21366.87
570.819	21546.75
571.18	21521.89
571.542	21683.47
571.903	21590.36
572.265	21786.29
572.626	21734.99
572.987	21765.95
573.349	21799.62
573.71	21875.33
574.071	21939.28
574.432	21955.55
574.794	22131.14
575.155	22038.49
575.516	21985.38
575.877	22057.7
576.238	22104.7
576.599	22283.68
576.96	22274.87
577.32	22136.56
577.681	22319.16
578.042	22324.36
578.403	22210.69
578.763	22184.25
579.124	22369.33
579.485	22380.85
579.845	22471.25
580.206	22452.04
580.566	22380.17
580.927	22410.23
581.287	22411.59
581.648	22537.23
582.008	22569.77
582.368	22442.09
582.728	22525.71
583.089	22521.41
583.449	22450.23
583.809	22432.83
584.169	22622.65
584.529	22475.99
584.889	22586.95
585.249	22506.05
585.609	22371.36
585.969	22515.99
586.329	22400.51
586.688	22581.07
587.048	22549.89
587.408	22460.4
587.768	22422.66
588.127	22551.47
588.487	22382.66
588.846	22524.35
589.206	22372.72
589.565	22531.81
589.925	22624.24
590.284	22458.59
590.643	22478.93
591.003	22628.76
591.362	22681.64
591.721	22600.96
592.08	22582.2
592.44	22648.19
592.799	22663.1
593.158	22468.31
593.517	22558.47
593.876	22601.19
594.235	22503.79
594.593	22512.6
594.952	22679.83
595.311	22509.66
595.67	22530
596.029	22645.7
596.387	22694.29
596.746	22767.51
597.104	22572.49
597.463	22588.98
597.822	22640.05
598.18	22639.6
598.538	22659.04
598.897	22734.52
599.255	22554.41
599.613	22785.59
599.972	22703.33
600.33	22804.12
600.688	22688.19
601.046	22769.32
601.404	22900.16
601.762	22917.11
602.12	22849.99
602.478	22855.42
602.836	22885.02
603.194	22698.36
603.552	22798.02
603.91	22758.7
604.268	22874.4
604.625	22836.43
604.983	22986.26
605.341	22865.59
605.698	22917.56
606.056	22963.44
606.413	22914.85
606.771	22953.27
607.128	23033.94
607.485	22969.54
607.843	23024.68
608.2	23066.94
608.557	23193.94
608.914	23098.35
609.272	23154.17
609.629	23212.92
609.986	23339.02
610.343	23229.87
610.7	23284.56
611.057	23343.09
611.414	23349.64
611.771	23290.21
612.127	23377.89
612.484	23472.12
612.841	23506.25
613.198	23343.54
613.554	23487.26
613.911	23495.85
614.267	23599.58
614.624	23576.53
614.98	23517.32
615.337	23692.23
615.693	23727.03
616.05	23680.03
616.406	23889.51
616.762	23769.06
617.118	23741.04
617.475	23897.42
617.831	23853.36
618.187	23854.71
618.543	23904.43
618.899	24003.18
619.255	23882.96
619.611	23986.23
619.967	24129.73
620.323	23941.72
620.678	23965.22
621.034	23870.76
621.39	23917.53
621.746	23961.6
622.101	24213.57
622.457	24021.49
622.812	24017.42
623.168	24105.33
623.523	24223.29
623.879	24279.79
624.234	24105.55
624.589	24127.92
624.945	24138.32
625.3	24202.27
625.655	24164.31
626.01	24274.59
626.365	24101.03
626.72	24198.21
627.075	24127.25
627.43	24166.34
627.785	24155.49
628.14	24270.75
628.495	24173.35
628.85	24129.28
629.205	24083.41
629.559	24178.55
629.914	24062.16
630.269	24064.2
630.623	24175.16
630.978	23959.12
631.332	24130.86
631.687	24181.93
632.041	24069.85
632.396	24023.07
632.75	23943.07
633.104	24118.43
633.459	23930.64
633.813	23976.74
634.167	23916.86
634.521	23958.44
634.875	23963.86
635.229	23904.43
635.583	23756.64
635.937	23848.84
636.291	23758.44
636.645	23780.36
636.999	23724.09
637.352	23876.86
637.706	23690.65
638.06	23788.27
638.413	23645.9
638.767	23637.54
639.121	23646.81
639.474	23655.17
639.828	23595.96
640.181	23637.77
640.534	23560.48
640.888	23531.56
641.241	23529.75
641.594	23445.23
641.947	23506.02
642.301	23467.38
642.654	23472.35
643.007	23475.96
643.36	23463.31
643.713	23438.9
644.066	23532.23
644.419	23333.14
644.771	23254.28
645.124	23012.93
645.477	22925.02
645.83	22879.14
646.182	22917.11
646.535	22733.39
646.888	22765.25
647.24	22714.85
647.593	22746.27
647.945	22646.38
648.298	22548.53
648.65	22516.89
649.002	22535.65
649.355	22599.83
649.707	22609.55
650.059	22671.24
650.411	23007.5
650.763	22889.77
651.115	23195.52
651.467	23004.79
651.819	23176.31
652.171	23134.5
652.523	22963.89
652.875	23074.85
653.227	23030.1
653.578	23155.75
653.93	23100.16
654.282	23090.21
654.633	22944.68
654.985	23024
655.337	23062.42
655.688	23023.77
656.039	23116.88
656.391	22853.61
656.742	22929.76
657.094	22942.65
657.445	23110.1
657.796	23004.34
658.147	22953.27
658.498	22888.64
658.849	23059.48
659.2	22866.49
659.551	22890.44
659.902	22977.22
660.253	22991.91
660.604	22977.45
660.955	22916.66
661.306	22983.32
661.656	22874.17
662.007	22946.94
662.358	23028.29
662.708	22827.39
663.059	23024.9
663.409	22864.68
663.76	22993.27
664.11	22975.86
664.461	23004.79
664.811	23002.3
665.161	22870.33
665.511	23036.43
665.862	22953.49
666.212	23078.01
666.562	23032.36
666.912	23003.43
667.262	22966.37
667.612	22925.24
667.962	22943.1
668.312	22953.49
668.662	23112.81
669.011	22902.19
669.361	22883.89
669.711	22790.56
670.06	22796.21
670.41	22798.02
670.76	22793.5
671.109	22848.41
671.459	22806.38
671.808	22775.42
672.157	22790.56
672.507	22652.71
672.856	22765.93
673.205	22783.33
673.554	22853.83
673.904	22659.26
674.253	23024.68
674.602	22805.7
674.951	22464.24
675.3	22308.31
675.649	22766.38
675.998	22698.58
676.346	22722.31
676.695	22719.37
677.044	22530.23
677.393	22618.81
677.741	22637.12
678.09	22581.3
678.438	22646.61
678.787	22570.23
679.135	22490.68
679.484	22448.87
679.832	22523.9
680.181	22313.74
680.529	22395.99
680.877	22243.68
681.225	22289.33
681.573	22487.74
681.922	22239.61
682.27	22213.17
682.618	22314.87
682.966	22229.22
683.314	22169.11
683.661	22077.13
684.009	21992.84
684.357	21993.29
684.705	22017.02
685.053	21982.9
685.4	21856.8
685.748	21774.54
686.095	21777.48
686.443	21699.51
686.79	21706.97
687.138	21729.57
687.485	21662.68
687.832	21616.58
688.18	21558.05
688.527	21461.78
688.874	21513.3
689.221	21416.13
689.568	21345.17
689.915	21224.27
690.262	21208.91
690.609	21239.41
690.956	21113.09
691.303	21165.29
691.65	20987.22
691.997	21103.82
692.344	20905.86
692.69	20796.04
693.037	20946.54
693.383	20684.63
693.73	20712.65
694.077	20613.89
694.423	20603.27
694.769	20536.61
695.116	20449.15
695.462	20504.52
695.808	20321.7
696.155	20411.64
696.501	20187.01
696.847	20162.38
697.193	20095.94
697.539	20173
697.885	19907.7
698.231	19877.64
698.577	19991.08
698.923	19858.43
699.269	19835.16
699.614	19676.29
699.96	19627.25
700.306	19674.26
700.651	19497.09
700.997	19603.98
701.342	19438.56
701.688	19403.98
702.033	19283.31
702.379	19216.19
702.724	19204.44
703.069	19293.48
703.415	19015.52
703.76	18907.27
704.105	18970.77
704.45	18877.67
704.795	18805.35
705.14	18815.97
705.485	18678.35
705.83	18589.09
706.175	18654.85
706.52	18556.09
706.865	18569.2
707.209	18479.03
707.554	18453.72
707.899	18399.26
708.243	18339.83
708.588	18343.44
708.932	18221.41
709.277	18209.44
709.621	18198.36
709.966	18175.09
710.31	18102.55
710.654	17905.94
710.998	17979.84
711.342	17893.29
711.687	17886.28
712.031	17824.81
712.375	17751.37
712.719	17857.13
713.063	17756.57
713.407	17775.78
713.75	17631.6
714.094	17740.52
714.438	17515.22
714.782	17594.31
715.125	17507.76
715.469	17580.3
715.812	17377.37
716.156	17423.47
716.499	17367.65
716.843	17416.46
717.186	17194.77
717.53	17359.06
717.873	17375.79
718.216	17318.16
718.559	17219.18
718.902	17033.87
719.246	17172.4
719.589	17067.77
719.932	17054.21
720.275	16979.41
720.617	17053.31
720.96	17035.68
721.303	16941.67
721.646	16995.68
721.989	16808.12
722.331	16992.52
722.674	16871.17
723.016	16957.49
723.359	16906.42
723.701	16913.43
724.044	16730.83
724.386	16671.62
724.729	16756.82
725.071	16675.47
725.413	16738.74
725.755	16625.75
726.097	16656.26
726.439	16500.78
726.782	16583.04
727.124	16606.77
727.465	16558.41
727.807	16539.42
728.149	16502.36
728.491	16527.67
728.833	16481.35
729.175	16485.87
729.516	16445.19
729.858	16431.63
730.199	16404.96
730.541	16420.78
730.882	16385.53
731.224	16442.93
731.565	16344.4
731.906	16302.37
732.248	16331.75
732.589	16226.44
732.93	16251.75
733.271	16291.29
733.612	16341.69
733.953	16289.71
734.294	16220.56
734.635	16152.77
734.976	16230.05
735.317	16242.26
735.658	16204.97
735.999	16203.61
736.339	16195.25
736.68	16159.09
737.021	16129.72
737.361	16070.74
737.702	16218.98
738.042	16209.94
738.383	16137.63
738.723	16209.49
739.063	16116.38
739.404	16193.67
739.744	16132.65
740.084	16094.24
740.424	16046.33
740.764	16204.74
741.104	16131.75
741.444	16044.97
741.784	16115.25
742.124	16161.13
742.464	16022.83
742.804	16135.82
743.143	16115.25
743.483	16133.33
743.823	16121.36
744.162	16116.61
744.502	16168.13
744.841	16218.3
745.181	16260.34
745.52	16278.41
745.86	16206.78
746.199	16275.48
746.538	16338.3
746.877	16327.9
747.216	16322.93
747.556	16335.59
747.895	16401.12
748.234	16375.59
748.573	16395.7
748.911	16463.04
749.25	16483.83
749.589	16435.47
749.928	16485.64
750.267	16604.28
750.605	16555.92
750.944	16565.41
751.283	16691.74
751.621	16715.69
751.96	16738.74
752.298	16850.15
752.636	16879.75
752.975	16917.72
753.313	16898.06
753.651	17110.03
753.989	17039.07
754.327	17008.56
754.666	17141.89
755.004	17247.2
755.342	17347.99
755.679	17418.27
756.017	17357.03
756.355	17573.07
756.693	17547.98
757.031	17541.88
757.368	17650.81
757.706	17594.54
758.044	17813.29
758.381	17849.45
758.719	17851.25
759.056	18044.24
759.394	18106.16
759.731	18038.37
760.068	18082.43
760.405	18139.83
760.743	18281.75
761.08	18314.97
761.417	18303.22
761.754	18351.58
762.091	18355.2
762.428	18443.78
762.765	18515.42
763.102	18568.98
763.438	18531.69
763.775	18576.43
764.112	18661.85
764.449	18712.93
764.785	18679.03
765.122	18674.06
765.458	18660.72
765.795	18794.96
766.131	18754.96
766.467	18825.92
766.804	18806.03
767.14	18770.33
767.476	18844.67
767.812	18773.26
768.148	18853.71
768.485	18904.33
768.821	18756.09
769.157	18872.7
769.492	18844.9
769.828	18838.12
770.164	18802.64
770.5	18869.31
770.836	18752.92
771.171	18818.69
771.507	18799.93
771.842	18596.32
772.178	18718.35
772.513	18626.6
772.849	18671.57
773.184	18602.42
773.519	18674.96
773.855	18599.71
774.19	18628.63
774.525	18508.64
774.86	18617.79
775.195	18543.66
775.53	18512.93
775.865	18420.5
776.2	18271.81
776.535	18237.01
776.87	18416.66
777.205	18230.9
777.539	18245.59
777.874	18231.13
778.209	18021.64
778.543	18058.25
778.878	18050.12
779.212	18023
779.547	17964.47
779.881	17994.98
780.215	17829.56
780.55	18001.76
780.884	17942.32
781.218	17856
781.552	17815.32
781.886	17660.75
782.22	17541.88
782.554	17590.7
782.888	17506.86
783.222	17371.27
783.556	17425.05
783.889	17292.62
784.223	17229.35
784.557	17194.55
784.89	17253.08
785.224	17130.37
785.557	17073.2
785.891	17068.45
786.224	17103.25
786.558	16974.67
786.891	16927.44
787.224	16809.25
787.557	16803.82
787.891	16675.24
788.224	16706.88
788.557	16762.02
788.89	16681.57
789.223	16626.2
789.556	16529.48
789.888	16501.46
790.221	16436.15
790.554	16249.49
790.887	16299.2
791.219	16285.42
791.552	16251.97
791.884	16195.03
792.217	16094.92
792.549	16074.8
792.882	15959.33
793.214	15873
793.546	15897.63
793.879	15809.95
794.211	15790.52
794.543	15836.84
794.875	15719.11
795.207	15643.18
795.539	15715.72
795.871	15654.25
796.203	15524.76
796.535	15435.05
796.867	15433.24
797.198	15415.61
797.53	15401.15
797.862	15271.89
798.193	15304.43
798.525	15158.44
798.856	15187.37
799.188	15139.01
799.519	15009.29
799.85	14939.92
800.182	14978.56
800.513	14863.08
800.844	14781.73
801.175	14863.31
801.506	14877.77
801.837	14780.6
802.168	14718.91
802.499	14705.35
802.83	14655.18
803.161	14630.1
803.491	14577.89
803.822	14573.83
804.153	14503.77
804.483	14436.2
804.814	14375.86
805.145	14350.55
805.475	14396.66
805.805	14303.1
806.136	14246.15
806.466	14279.6
806.796	14299.03
807.126	14123.44
807.457	14031.92
807.787	13992.37
808.117	14052.26
808.447	13960.96
808.777	14074.63
809.107	13978.81
809.436	13846.84
809.766	13961.64
810.096	13821.53
810.426	13764.58
810.755	13825.37
811.085	13807.74
811.414	13696.33
811.744	13592.83
812.073	13603.46
812.403	13529.33
812.732	13466.74
813.061	13486.4
813.39	13452.05
813.719	13358.49
814.049	13488.66
814.378	13403.46
814.707	13305.16
815.036	13247.08
815.365	13277.81
815.693	13116.24
816.022	13135.22
816.351	13078.95
816.68	13021.55
817.008	13094.09
817.337	12979.29
817.665	12942.68
817.994	12993.98
818.322	12924.38
818.651	12829.24
818.979	12811.39
819.307	12939.07
819.636	12886.86
819.964	12743.82
820.292	12802.12
820.62	12767.77
820.948	12752.63
821.276	12918.73
821.604	12763.48
821.932	12823.36
822.259	12686.19
822.587	12733.87
822.915	12745.63
823.243	12734.1
823.57	12613.65
823.898	12759.86
824.225	12736.13
824.553	12723.7
824.88	12681.22
825.207	12793.76
825.535	12702.46
825.862	12711.73
826.189	12715.34
826.516	12703.82
826.843	12715.57
827.17	12746.76
827.497	12750.14
827.824	12758.05
828.151	12725.96
828.478	12692.75
828.805	12679.86
829.131	12693.88
829.458	12700.2
829.785	12523.94
830.111	12579.3
830.438	12662.01
830.764	12688.23
831.09	12651.84
831.417	12618.85
831.743	12630.15
832.069	12641.22
832.395	12605.29
832.722	12624.5
833.048	12578.17
833.374	12563.71
833.7	12526.42
834.026	12528.46
834.351	12584.05
834.677	12512.64
835.003	12549.92
835.329	12535.46
835.654	12511.51
835.98	12420.66
836.306	12463.6
836.631	12394.22
836.956	12452.75
837.282	12421.79
837.607	12367.56
837.932	12378.4
838.258	12372.08
838.583	12386.99
838.908	12341.79
839.233	12301.12
839.558	12266.09
839.883	12213.44
840.208	12177.28
840.533	12182.93
840.858	12180.22
841.182	12165.75
841.507	12172.08
841.832	12133.44
842.156	12049.37
842.481	12132.99
842.805	12058.86
843.13	11985.42
843.454	11951.07
843.778	11907.91
844.103	11914.01
844.427	11893.9
844.751	11871.07
845.075	11820.23
845.399	11835.37
845.723	11821.81
846.047	11758.53
846.371	11663.17
846.695	11680.12
847.019	11632.43
847.343	11527.58
847.666	11432.67
847.99	11432.89
848.313	11442.38
848.637	11390.18
848.96	11346.57
849.284	11334.36
849.607	11196.97
849.931	11241.94
850.254	11150.86
850.577	11065.44
850.9	11001.04
851.223	10999.23
851.546	10974.6
851.869	10846.24
852.192	10951.55
852.515	10787.48
852.838	10795.39
853.161	10766.24
853.483	10775.96
853.806	10707.49
854.129	10622.29
854.451	10639.47
854.774	10526.7
855.096	10582.29
855.419	10459.81
855.741	10502.52
856.063	10371.45
856.385	10436.53
856.708	10362.64
857.03	10300.27
857.352	10397.21
857.674	10295.07
857.996	10203.77
858.318	10187.27
858.64	10229.08
858.961	10211.23
859.283	10158.35
859.605	10112.47
859.926	10050.33
860.248	10037.9
860.57	9956.77
860.891	10077.45
861.212	9973.04
861.534	9907.28
861.855	9907.73
862.176	9911.12
862.498	9900.73
862.819	9909.32
863.14	9851.01
863.461	9803.56
863.782	9744.8
864.103	9799.04
864.424	9790.67
864.745	9736.66
865.065	9710.9
865.386	9671.58
865.707	9671.36
866.027	9705.93
866.348	9691.69
866.668	9677.23
866.989	9590
867.309	9579.38
867.63	9571.7
867.95	9573.73
868.27	9565.37
868.59	9508.42
868.91	9583
869.23	9461.19
869.55	9408.09
869.87	9435.66
870.19	9465.71
870.51	9484.24
870.83	9452.6
871.15	9406.96
871.469	9398.14
871.789	9378.03
872.109	9397.92
872.428	9362.89
872.748	9327.18
873.067	9364.92
873.386	9305.04
873.706	9344.13
874.025	9252.61
874.344	9224.14
874.663	9263.01
874.982	9254.64
875.301	9250.58
875.62	9244.25
875.939	9104.82
876.258	9191.14
876.577	9124.48
876.896	9171.03
877.214	9129
877.533	9183.46
877.852	9070.02
878.17	9116.79
878.489	9084.48
878.807	9047.64
879.125	8986.18
879.444	9064.82
879.762	8987.76
880.08	9006.97
880.398	8974.43
880.716	8921.32
881.034	8936.23
881.352	8956.35
881.67	8842.68
881.988	8865.73
882.306	8831.83
882.624	8864.37
882.941	8863.92
883.259	8787.09
883.577	8830.25
883.894	8734.21
884.212	8710.7
884.529	8705.28
884.846	8706.18
885.164	8763.81
885.481	8690.59
885.798	8659.63
886.115	8538.28
886.432	8552.97
886.75	8598.62
887.067	8585.28
887.383	8457.83
887.7	8504.83
888.017	8532.18
888.334	8457.38
888.651	8441.56
888.967	8480.88
889.284	8391.16
889.6	8336.25
889.917	8345.29
890.233	8370.15
890.55	8303.48
890.866	8303.26
891.182	8288.34
891.498	8252.41
891.815	8195.69
892.131	8220.32
892.447	8182.36
892.763	8161.34
893.079	8134.22
893.395	8092.41
893.71	8104.39
894.026	8072.3
894.342	8047.67
894.657	8039.08
894.973	7985.3
895.289	7950.27
895.604	8006.77
895.92	7868.24
896.235	7867.34
896.55	7845.42
896.865	7844.51
897.181	7808.13
897.496	7814.91
897.811	7757.73
898.126	7669.6
898.441	7690.39
898.756	7684.06
899.071	7631.41
899.386	7629.83
899.7	7561.13
900.015	7560.9
900.33	7489.27
900.644	7524.52
900.959	7518.19
901.273	7423.28
901.588	7465.54
901.902	7380.12
902.216	7330.4
902.531	7347.12
902.845	7304.41
903.159	7249.05
903.473	7264.19
903.787	7181.7
904.101	7078.88
904.415	7211.99
904.729	7106
905.042	7134.25
905.356	7109.39
905.67	7066.23
905.984	7054.25
906.297	7058.09
906.611	7002.95
906.924	6956.4
907.237	6870.53
907.551	6880.02
907.864	6893.8
908.177	6847.02
908.491	6844.99
908.804	6819.23
909.117	6788.49
909.43	6724.09
909.743	6738.78
910.056	6725.9
910.368	6697.65
910.681	6649.74
910.994	6662.85
911.307	6610.42
911.619	6486.58
911.932	6521.83
912.244	6498.56
912.557	6504.89
912.869	6508.95
913.181	6467.6
913.494	6412.23
913.806	6431.44
914.118	6316.42
914.43	6322.29
914.742	6289.98
915.054	6255.85
915.366	6202.29
915.678	6236.87
915.99	6188.28
916.302	6167.04
916.613	6151.9
916.925	6126.36
917.236	6126.82
917.548	6076.87
917.859	6071.68
918.171	6007.72
918.482	5977.89
918.794	5964.79
919.105	5949.65
919.416	5988.97
919.727	5892.25
920.038	5882.3
920.349	5823.32
920.66	5828.07
920.971	5856.99
921.282	5797.11
921.593	5751.01
921.903	5697.22
922.214	5699.26
922.525	5696.09
922.835	5667.62
923.146	5649.31
923.456	5569.32
923.767	5554.85
924.077	5570.22
924.387	5563.89
924.697	5521.41
925.008	5470.56
925.318	5498.36
925.628	5480.96
925.938	5450.68
926.248	5422.2
926.558	5403.22
926.867	5384.91
927.177	5348.98
927.487	5293.62
927.796	5294.52
928.106	5283.22
928.416	5243.68
928.725	5251.81
929.034	5156.9
929.344	5179.5
929.653	5199.38
929.962	5141.53
930.271	5114.41
930.581	5119.84
930.89	5087.07
931.199	5066.28
931.508	5068.99
931.817	5033.51
932.125	4977.69
932.434	4963.01
932.743	4929.79
933.051	4873.06
933.36	4928.43
933.669	4871.26
933.977	4857.02
934.286	4873.52
934.594	4845.72
934.902	4816.57
935.21	4813.86
935.519	4774.54
935.827	4721.66
936.135	4718.72
936.443	4672.62
936.751	4661.77
937.059	4650.02
937.367	4629.68
937.674	4652.5
937.982	4611.38
938.29	4612.28
938.597	4602.79
938.905	4509.01
939.213	4535.45
939.52	4500.19
939.827	4481.21
940.135	4495.67
940.442	4457.26
940.749	4444.15
941.056	4433.3
941.363	4382.68
941.67	4373.19
941.977	4377.48
942.284	4358.73
942.591	4326.41
942.898	4318.5
943.205	4298.62
943.511	4270.59
943.818	4298.84
944.125	4189.47
944.431	4212.29
944.738	4256.13
945.044	4169.81
945.35	4157.83
945.657	4135.46
945.963	4114.89
946.269	4102.24
946.575	4082.12
946.881	4076.93
947.187	4073.31
947.493	4043.48
947.799	4057.49
948.105	3983.82
948.41	4008.68
948.716	3995.8
949.022	3960.32
949.327	3979.98
949.633	3922.13
949.938	3913.77
950.244	3887.33
950.549	3871.96
950.854	3854.33
951.16	3863.15
951.465	3817.72
951.77	3797.84
952.075	3785.63
952.38	3801.23
952.685	3774.79
952.99	3718.52
953.294	3765.07
953.599	3734.34
953.904	3704.96
954.209	3673.55
954.513	3651.63
954.818	3630.84
955.122	3630.84
955.426	3626.54
955.731	3611.4
956.035	3596.71
956.339	3539.54
956.643	3587
956.948	3511.52
957.252	3524.17
957.556	3554.23
957.86	3512.65
958.163	3470.39
958.467	3492.08
958.771	3469.71
959.075	3451.18
959.378	3384.06
959.682	3419.09
959.985	3375.93
960.289	3381.13
960.592	3375.48
960.896	3328.7
961.199	3344.29
961.502	3348.81
961.805	3309.72
962.108	3289.38
962.411	3283.73
962.714	3245.08
963.017	3289.38
963.32	3226.33
963.623	3221.58
963.926	3213.67
964.228	3160.57
964.531	3161.92
964.833	3147.23
965.136	3131.64
965.438	3132.32
965.741	3133.45
966.043	3113.79
966.345	3116.05
966.648	3085.09
966.95	3086.9
967.252	3056.61
967.554	3080.57
967.856	3018.65
968.158	3040.57
968.46	3008.48
968.761	2985.66
969.063	2991.76
969.365	3005.77
969.666	3002.6
969.968	2915.83
970.269	2975.49
970.571	2926
970.872	2905.21
971.174	2904.53
971.475	2865.21
971.776	2868.37
972.077	2882.16
972.378	2808.49
972.679	2796.73
972.98	2796.51
973.281	2810.52
973.582	2802.61
973.883	2792.21
974.183	2789.28
974.484	2782.05
974.785	2751.09
975.085	2732.56
975.386	2707.47
975.686	2724.65
975.986	2753.12
976.287	2710.41
976.587	2692.1
976.887	2644.65
977.187	2656.17
977.487	2664.76
977.787	2642.39
978.087	2624.08
978.387	2603.75
978.687	2627.7
978.987	2571.2
979.286	2568.94
979.586	2562.16
979.885	2548.61
980.185	2547.93
980.484	2520.58
980.784	2524.88
981.083	2509.28
981.382	2514.48
981.682	2508.83
981.981	2461.6
982.28	2467.25
982.579	2462.73
982.878	2454.14
983.177	2432.22
983.475	2429.51
983.774	2437.2
984.073	2421.6
984.372	2392.45
984.67	2408.72
984.969	2398.78
985.267	2365.11
985.566	2360.81
985.864	2345.45
986.162	2336.41
986.461	2317.42
986.759	2320.81
987.057	2292.11
987.355	2304.54
987.653	2268.84
987.951	2262.06
988.249	2267.48
988.547	2262.96
988.844	2248.5
989.142	2222.51
989.44	2243.98
989.737	2203.3
990.035	2203.3
990.332	2156.75
990.63	2175.28
990.927	2171.44
991.224	2136.19
991.521	2149.97
991.819	2135.06
992.116	2161.95
992.413	2133.02
992.71	2094.83
993.006	2107.26
993.303	2097.54
993.6	2089.18
993.897	2071.33
994.193	2089.63
994.49	2064.55
994.787	2035.85
995.083	2035.85
995.379	2053.03
995.676	2032.46
995.972	1999.69
996.268	2009.18
996.565	2007.6
996.861	1993.37
997.157	1961.73
997.453	1970.99
997.749	1960.15
998.044	1920.6
998.34	1944.78
998.636	1920.6
998.932	1893.26
999.227	1897.1
999.523	1871.33
999.818	1859.36
1000.114	1847.15
1000.409	1872.92
1000.704	1867.04
1001	1840.38
1001.295	1844.89
1001.59	1825.23
1001.885	1828.17
1002.18	1825.46
1002.475	1821.17
1002.77	1799.47
1003.065	1780.04
1003.359	1760.15
1003.654	1766.93
1003.949	1742.98
1004.243	1750.89
1004.538	1753.82
1004.832	1749.3
1005.127	1711.57
1005.421	1710.21
1005.715	1706.14
1006.009	1667.05
1006.304	1678.8
1006.598	1661.85
1006.892	1644.22
1007.186	1643.54
1007.48	1648.06
1007.773	1629.99
1008.067	1608.97
1008.361	1605.58
1008.655	1623.21
1008.948	1609.19
1009.242	1604
1009.535	1575.98
1009.829	1556.77
1010.122	1545.02
1010.415	1578.01
1010.708	1578.69
1011.001	1521.51
1011.295	1525.58
1011.588	1514.28
1011.881	1529.88
1012.173	1488.75
1012.466	1509.08
1012.759	1472.48
1013.052	1487.16
1013.344	1458.92
1013.637	1469.09
1013.93	1439.03
1014.222	1444.91
1014.514	1451.68
1014.807	1429.31
1015.099	1434.74
1015.391	1409.65
1015.683	1426.37
1015.976	1410.1
1016.268	1403.55
1016.56	1367.62
1016.851	1364.91
1017.143	1377.11
1017.435	1362.42
1017.727	1344.34
1018.018	1347.73
1018.31	1354.96
1018.602	1336.43
1018.893	1310.22
1019.185	1324.91
1019.476	1286.27
1019.767	1298.69
1020.058	1322.87
1020.35	1270.45
1020.641	1229.09
1020.932	1268.64
1021.223	1251.92
1021.514	1252.37
1021.804	1239.04
1022.095	1237.91
1022.386	1191.8
1022.677	1226.15
1022.967	1188.87
1023.258	1190.67
1023.548	1207.17
1023.839	1204.01
1024.129	1175.53
1024.419	1171.69
1024.709	1161.07
1025	1166.95
1025.29	1145.03
1025.58	1158.81
1025.87	1130.11
1026.16	1116.33
1026.449	1104.58
1026.739	1088.98
1027.029	1102.54
1027.319	1113.39
1027.608	1093.05
1027.898	1098.25
1028.187	1085.14
1028.477	1053.28
1028.766	1047.85
1029.055	1052.6
1029.344	1063.45
1029.634	1070.68
1029.923	1053.73
1030.212	1037.68
1030.501	1049.89
1030.79	1024.58
1031.078	1029.32
1031.367	1005.82
1031.656	990.91
1031.945	999.49
1032.233	990.23
1032.522	993.39
1032.81	986.39
1033.099	998.14
1033.387	951.36
1033.675	959.49
1033.963	947.97
1034.251	931.47
1034.54	947.29
1034.828	949.78
1035.116	923.79
1035.403	930.79
1035.691	909.33
1035.979	924.69
1036.267	869.1
1036.554	876.11
1036.842	926.73
1037.129	897.58
1037.417	881.76
1037.704	881.76
1037.992	866.84
1038.279	877.91
1038.566	867.75
1038.853	867.75
1039.14	867.75
