Data from hue_210_FLMS001491_00093.txt Node
Date: Tue Feb 07 16:42:00 GMT 2017
User: dcchb
Spectrometer: FLMS00149
Trigger mode: 0
Integration Time (sec): 2.000000E-2
Scans to average: 10
Electric dark correction enabled: true
Nonlinearity correction enabled: false
Boxcar width: 0
XAxis mode: Wavelengths
Number of Pixels in Spectrum: 2048
>>>>>Begin Spectral Data<<<<<
341.393	-4.72
341.776	-4.72
342.16	-4.72
342.543	-67.77
342.927	-71.38
343.31	-72.29
343.693	-70.93
344.077	-64.83
344.46	-56.24
344.843	-32.51
345.226	-36.35
345.61	-30.25
345.993	-38.16
346.376	-12.17
346.759	12.91
347.142	12.23
347.525	27.37
347.908	76.41
348.291	84.55
348.674	92.23
349.057	108.05
349.44	123.64
349.823	130.65
350.206	147.37
350.588	207.93
350.971	232.56
351.354	222.85
351.737	230.53
352.119	241.38
352.502	256.52
352.884	279.12
353.267	273.92
353.65	303.75
354.032	304.43
354.414	305.33
354.797	303.07
355.179	318.89
355.562	293.13
355.944	324.77
356.326	322.96
356.709	334.48
357.091	335.16
357.473	345.33
357.855	355.05
358.238	366.12
358.62	357.08
359.002	340.58
359.384	351.43
359.766	347.14
360.148	348.49
360.53	320.25
360.912	329.74
361.294	318.89
361.676	327.7
362.057	316.63
362.439	327.7
362.821	324.31
363.203	324.31
363.584	328.61
363.966	320.47
364.348	317.31
364.729	325.44
365.111	321.6
365.493	324.99
365.874	318.44
366.256	314.37
366.637	301.26
367.019	289.29
367.4	310.53
367.781	307.59
368.163	300.59
368.544	307.14
368.925	318.66
369.306	315.27
369.688	315.73
370.069	301.72
370.45	298.33
370.831	315.73
371.212	320.7
371.593	315.95
371.974	312.34
372.355	315.73
372.736	330.64
373.117	316.4
373.498	320.7
373.879	312.79
374.26	309.4
374.641	331.77
375.021	334.26
375.402	319.79
375.783	317.53
376.163	345.33
376.544	322.28
376.925	307.14
377.305	327.48
377.686	321.15
378.066	319.57
378.447	313.92
378.827	339.23
379.208	329.51
379.588	348.95
379.968	334.48
380.349	351.88
380.729	327.7
381.109	336.06
381.489	344.43
381.87	334.48
382.25	334.26
382.63	345.1
383.01	353.69
383.39	317.53
383.77	323.64
384.15	333.35
384.53	350.98
384.91	348.72
385.29	357.53
385.67	352.34
386.049	345.56
386.429	350.53
386.809	359.79
387.189	338.55
387.568	348.95
387.948	364.09
388.328	360.92
388.707	368.15
389.087	368.83
389.466	354.14
389.846	357.31
390.225	360.24
390.605	363.86
390.984	355.5
391.363	372.67
391.743	383.3
392.122	387.14
392.501	383.3
392.881	372
393.26	365.44
393.639	367.7
394.018	394.59
394.397	390.07
394.776	374.93
395.155	368.61
395.534	374.48
395.913	378.1
396.292	386.68
396.671	400.7
397.05	382.17
397.429	384.42
397.808	404.99
398.186	388.72
398.565	390.98
398.944	393.01
399.323	414.48
399.701	406.57
400.08	416.29
400.458	407.25
400.837	407.02
401.215	424.42
401.594	432.11
401.972	415.16
402.351	428.94
402.729	440.92
403.107	435.72
403.486	432.33
403.864	432.79
404.242	460.13
404.62	438.43
404.999	442.95
405.377	445.67
405.755	440.69
406.133	450.86
406.511	461.71
406.889	481.15
407.267	483.41
407.645	488.15
408.023	492.44
408.401	507.81
408.779	488.6
409.156	494.03
409.534	514.82
409.912	518.88
410.29	516.17
410.667	519.34
411.045	542.61
411.422	562.95
411.8	567.92
412.178	556.85
412.555	586.68
412.933	585.55
413.31	569.73
413.687	581.71
414.065	591.65
414.442	623.97
414.819	624.42
415.197	656.51
415.574	647.24
415.951	648.82
416.328	658.09
416.705	653.57
417.082	663.51
417.46	681.37
417.837	681.82
418.214	708.26
418.591	712.78
418.967	726.79
419.344	699.44
419.721	738.31
420.098	746.9
420.475	723.85
420.852	774.92
421.228	787.8
421.605	793.91
421.982	794.13
422.358	825.54
422.735	849.72
423.111	847.69
423.488	856.73
423.864	884.75
424.241	867.35
424.617	910.06
424.994	904.41
425.37	907.35
425.746	934.47
426.123	927.24
426.499	963.62
426.875	963.39
427.251	992.32
427.627	1031.64
428.003	1017.63
428.379	1048.36
428.756	1024.63
429.132	1049.04
429.507	1079.1
429.883	1088.36
430.259	1090.85
430.635	1105.31
431.011	1115.71
431.387	1137.85
431.763	1150.28
432.138	1167.68
432.514	1178.08
432.89	1206.32
433.265	1248.13
433.641	1235.93
434.016	1246.1
434.392	1296.49
434.767	1302.82
435.143	1313.44
435.518	1355.92
435.894	1371.52
436.269	1410.61
436.644	1422.36
437.02	1465.07
437.395	1438.41
437.77	1471.18
438.145	1516.82
438.52	1554.11
438.895	1527.67
439.271	1564.96
439.646	1627.56
440.021	1644.96
440.395	1641.12
440.77	1673.66
441.145	1715.24
441.52	1722.47
441.895	1729.25
442.27	1721.11
442.645	1733.77
443.019	1781.68
443.394	1782.58
443.769	1813.54
444.143	1815.12
444.518	1839.98
444.892	1822.81
445.267	1873.43
445.641	1879.07
446.016	1868
446.39	1919.75
446.764	1946.19
447.139	1960.65
447.513	1982.57
447.887	1968.56
448.262	2002.01
448.636	2008.34
449.01	2004.04
449.384	2067.54
449.758	2078.17
450.132	2075.91
450.506	2095.79
450.88	2112.06
451.254	2111.61
451.628	2159.97
452.002	2169.69
452.376	2200.2
452.75	2230.03
453.123	2237.94
453.497	2264.38
453.871	2269.12
454.244	2331.27
454.618	2355.9
454.992	2354.99
455.365	2381.43
455.739	2422.11
456.112	2405.61
456.486	2457.59
456.859	2463.24
457.232	2546.18
457.606	2524.71
457.979	2524.03
458.352	2590.69
458.725	2629.79
459.099	2655.78
459.472	2689.22
459.845	2700.97
460.218	2703.01
460.591	2765.61
460.964	2755.66
461.337	2836.56
461.71	2872.27
462.083	2913.17
462.456	2886.96
462.829	2913.17
463.201	3013.28
463.574	3006.5
463.947	3046.05
464.32	3085.14
464.692	3124.69
465.065	3142.09
465.438	3167.85
465.81	3217.34
466.183	3246.72
466.555	3298.7
466.928	3331.24
467.3	3323.56
467.672	3376.66
468.045	3468.19
468.417	3454.63
468.789	3491.91
469.161	3528.52
469.534	3642.19
469.906	3676.77
470.278	3668.41
470.65	3708.63
471.022	3762.87
471.394	3839.25
471.766	3851.45
472.138	3884.22
472.51	3990.88
472.882	4029.53
473.253	4032.24
473.625	4108.39
473.997	4209.18
474.369	4266.81
474.74	4277.66
475.112	4352.91
475.484	4372.34
475.855	4477.88
476.227	4502.51
476.598	4618.66
476.97	4654.37
477.341	4746.8
477.713	4792.22
478.084	4855.49
478.455	4970.07
478.827	5015.94
479.198	5130.97
479.569	5103.17
479.94	5234.24
480.311	5283.73
480.682	5416.16
481.053	5455.25
481.424	5540
481.795	5598.53
482.166	5685.98
482.537	5735.92
482.908	5789.48
483.279	5923.04
483.65	5992.41
484.021	6104.27
484.391	6173.88
484.762	6195.57
485.133	6275.8
485.503	6311.5
485.874	6405.28
486.244	6489.35
486.615	6615
486.985	6689.12
487.356	6745.84
487.726	6800.98
488.097	6919.62
488.467	6947.19
488.837	7135.89
489.207	7123.91
489.578	7232.38
489.948	7319.84
490.318	7416.1
490.688	7401.64
491.058	7462.2
491.428	7535.88
491.798	7698.13
492.168	7782.2
492.538	7732.25
492.908	7844.57
493.278	7938.12
493.648	7941.29
494.017	8108.29
494.387	8101.74
494.757	8191.68
495.126	8231.22
495.496	8209.76
495.866	8247.27
496.235	8410.65
496.605	8422.63
496.974	8417.89
497.344	8478.9
497.713	8512.35
498.082	8585.57
498.452	8678.9
498.821	8664.43
499.19	8734.71
499.559	8763.19
499.928	8819.68
500.298	8765.9
500.667	8873.69
501.036	8824.65
501.405	9010.86
501.774	8942.39
502.143	8976.74
502.512	8986.01
502.88	9115.72
503.249	9016.29
503.618	9179
503.987	9162.73
504.356	9187.58
504.724	9227.36
505.093	9215.38
505.462	9295.15
505.83	9279.56
506.199	9343.06
506.567	9445.43
506.936	9426.45
507.304	9484.98
507.672	9459.89
508.041	9492.89
508.409	9452.44
508.777	9619.44
509.145	9632.77
509.514	9612.88
509.882	9610.62
510.25	9578.31
510.618	9717.74
510.986	9745.99
511.354	9662.37
511.722	9756.16
512.09	9791.86
512.458	9744.86
512.826	9810.39
513.193	9838.64
513.561	9847.45
513.929	9901.01
514.297	9930.84
514.664	9966.55
515.032	9955.92
515.4	9957.73
515.767	10039.54
516.135	10030.05
516.502	9967.22
516.869	10065.75
517.237	10096.26
517.604	10020.1
517.972	10086.32
518.339	10035.7
518.706	10027.34
519.073	10146.43
519.44	10097.84
519.808	10201.34
520.175	10128.35
520.542	10207.44
520.909	10214.9
521.276	10212.42
521.643	10248.35
522.009	10258.06
522.376	10232.98
522.743	10232.3
523.11	10289.7
523.477	10307.33
523.843	10352.52
524.21	10398.4
524.577	10530.82
524.943	10432.3
525.31	10432.52
525.676	10483.37
526.043	10520.66
526.409	10446.31
526.776	10553.42
527.142	10468.45
527.508	10514.33
527.874	10548.45
528.241	10454.89
528.607	10528.34
528.973	10566.53
529.339	10507.32
529.705	10534.67
530.071	10629.13
530.437	10573.54
530.803	10522.01
531.169	10605.4
531.535	10522.92
531.901	10489.7
532.267	10521.11
532.632	10586.19
532.998	10545.97
533.364	10473.2
533.73	10524.5
534.095	10507.1
534.461	10522.46
534.826	10479.75
535.192	10526.53
535.557	10525.63
535.923	10449.92
536.288	10452.63
536.653	10391.62
537.019	10396.14
537.384	10311.62
537.749	10305.29
538.114	10396.82
538.479	10238.18
538.845	10324.73
539.21	10201.12
539.575	10226.65
539.94	10217.39
540.305	10165.41
540.67	10070.72
541.034	10233.66
541.399	10165.18
541.764	10061.91
542.129	10076.15
542.494	10021.46
542.858	10086.54
543.223	9967.68
543.587	9973.1
543.952	9944.17
544.316	9919.99
544.681	9902.82
545.045	9885.87
545.41	9837.06
545.774	9801.8
546.138	9830.5
546.503	9803.39
546.867	9680.68
547.231	9761.13
547.595	9704.86
547.959	9705.31
548.324	9637.29
548.688	9606.1
549.052	9582.15
549.416	9590.96
549.779	9515.03
550.143	9512.77
550.507	9570.85
550.871	9466.22
551.235	9425.77
551.599	9489.04
551.962	9454.24
552.326	9363.17
552.689	9476.62
553.053	9299.22
553.417	9316.62
553.78	9368.14
554.143	9268.71
554.507	9270.97
554.87	9269.84
555.234	9293.57
555.597	9257.64
555.96	9277.3
556.323	9242.27
556.686	9139.9
557.05	9198.2
557.413	9236.62
557.776	9123.63
558.139	9141.71
558.502	9137.19
558.865	9104.42
559.228	9110.07
559.59	9137.87
559.953	9129.96
560.316	9171.99
560.679	9077.53
561.041	9104.42
561.404	9144.19
561.767	9136.06
562.129	9044.99
562.492	9146.45
562.854	9144.87
563.217	9131.99
563.579	9072.56
563.941	9087.02
564.304	9142.61
564.666	9132.22
565.028	9144.19
565.39	9124.99
565.753	9122.05
566.115	9170.41
566.477	9206.11
566.839	9214.02
567.201	9178.54
567.563	9160.24
567.925	9231.2
568.287	9157.3
568.648	9193.23
569.01	9203.18
569.372	9261.48
569.734	9217.19
570.095	9225.32
570.457	9337.18
570.819	9288.15
571.18	9231.65
571.542	9273.23
571.903	9306.45
572.265	9291.31
572.626	9280.69
572.987	9304.42
573.349	9353.91
573.71	9306.22
574.071	9352.1
574.432	9355.49
574.794	9409.27
575.155	9343.06
575.516	9372.66
575.877	9419.44
576.238	9418.09
576.599	9426.22
576.96	9427.58
577.32	9380.35
577.681	9488.59
578.042	9469.61
578.403	9490.17
578.763	9475.49
579.124	9462.38
579.485	9537.63
579.845	9556.16
580.206	9519.78
580.566	9470.29
580.927	9569.27
581.287	9575.14
581.648	9475.26
582.008	9568.82
582.368	9519.1
582.728	9590.74
583.089	9593.45
583.449	9636.84
583.809	9629.38
584.169	9562.26
584.529	9615.37
584.889	9684.75
585.249	9600
585.609	9598.87
585.969	9628.25
586.329	9602.04
586.688	9568.14
587.048	9621.92
587.408	9624.63
587.768	9573.79
588.127	9634.13
588.487	9574.01
588.846	9689.72
589.206	9617.63
589.565	9595.26
589.925	9712.77
590.284	9672.54
590.643	9636.61
591.003	9675.03
591.362	9715.7
591.721	9623.05
592.08	9601.58
592.44	9685.42
592.799	9720.68
593.158	9748.7
593.517	9621.24
593.876	9707.8
594.235	9680.9
594.593	9666.67
594.952	9684.29
595.311	9653.56
595.67	9750.05
596.029	9734.46
596.387	9827.57
596.746	9766.78
597.104	9720.68
597.463	9663.05
597.822	9720.9
598.18	9733.78
598.538	9668.7
598.897	9726.55
599.255	9669.15
599.613	9723.16
599.972	9707.57
600.33	9747.57
600.688	9737.63
601.046	9713.9
601.404	9788.7
601.762	9757.74
602.12	9761.58
602.478	9750.96
602.836	9824.85
603.194	9680
603.552	9727
603.91	9742.6
604.268	9793.22
604.625	9691.98
604.983	9795.7
605.341	9759.77
605.698	9750.96
606.056	9789.6
606.413	9796.15
606.771	9798.41
607.128	9843.84
607.485	9745.53
607.843	9767.46
608.2	9783.05
608.557	9830.28
608.914	9828.92
609.272	9875.93
609.629	9881.58
609.986	9845.42
610.343	9797.96
610.7	9887.9
611.057	9943.04
611.414	9880.9
611.771	9884.51
612.127	9949.82
612.484	9894.23
612.841	9922.71
613.198	9914.34
613.554	9962.03
613.911	9957.05
614.267	9981.01
614.624	9906.66
614.98	9870.5
615.337	9973.1
615.693	9967.45
616.05	9899.65
616.406	10010.84
616.762	9953.21
617.118	9942.14
617.475	10047.45
617.831	10031.63
618.187	10037.05
618.543	10038.18
618.899	10044.06
619.255	10045.64
619.611	10048.8
619.967	10091.51
620.323	10086.32
620.678	10019.43
621.034	9995.47
621.39	10021.91
621.746	10004.28
622.101	10145.52
622.457	10024.4
622.812	10045.19
623.168	10036.6
623.523	10060.1
623.879	10032.53
624.234	10030.72
624.589	10042.48
624.945	10049.48
625.3	10081.57
625.655	10034.34
626.01	10030.05
626.365	9992.76
626.72	10009.03
627.075	10001.57
627.43	10047.45
627.785	9965.87
628.14	10039.54
628.495	10055.36
628.85	10061.46
629.205	9957.96
629.559	9995.02
629.914	9951.41
630.269	9935.36
630.623	9972.42
630.978	9872.76
631.332	9977.62
631.687	9938.75
632.041	9896.27
632.396	9987.11
632.75	9911.86
633.104	9947.11
633.459	9850.16
633.813	9838.87
634.167	9856.72
634.521	9874.12
634.875	9835.25
635.229	9781.47
635.583	9759.55
635.937	9786.89
636.291	9781.24
636.645	9749.6
636.999	9774.91
637.352	9744.63
637.706	9733.33
638.06	9739.89
638.413	9715.03
638.767	9740.34
639.121	9706.21
639.474	9620.79
639.828	9738.08
640.181	9652.2
640.534	9661.92
640.888	9614.46
641.241	9589.38
641.594	9626.22
641.947	9673.9
642.301	9716.38
642.654	9595.71
643.007	9616.27
643.36	9618.98
643.713	9602.49
644.066	9592.32
644.419	9539.66
644.771	9482.04
645.124	9414.92
645.477	9397.75
645.83	9242.5
646.182	9363.17
646.535	9245.66
646.888	9307.13
647.24	9180.13
647.593	9257.19
647.945	9282.72
648.298	9208.37
648.65	9219.9
649.002	9183.52
649.355	9241.37
649.707	9306.22
650.059	9262.61
650.411	9387.58
650.763	9360.46
651.115	9483.39
651.467	9471.87
651.819	9497.63
652.171	9519.1
652.523	9421.93
652.875	9445.88
653.227	9422.61
653.578	9517.07
653.93	9468.03
654.282	9425.09
654.633	9397.75
654.985	9365.21
655.337	9411.53
655.688	9455.6
656.039	9477.52
656.391	9381.25
656.742	9419.22
657.094	9430.74
657.445	9505.32
657.796	9437.52
658.147	9409.72
658.498	9483.62
658.849	9442.27
659.2	9444.07
659.551	9420.57
659.902	9443.85
660.253	9430.97
660.604	9435.03
660.955	9420.12
661.306	9461.25
661.656	9519.33
662.007	9479.33
662.358	9550.51
662.708	9541.25
663.059	9468.71
663.409	9403.62
663.76	9509.61
664.11	9518.42
664.461	9496.95
664.811	9571.53
665.161	9486.56
665.511	9481.13
665.862	9516.84
666.212	9495.82
666.562	9424.19
666.912	9488.59
667.262	9476.16
667.612	9515.94
667.962	9482.26
668.312	9469.61
668.662	9562.49
669.011	9488.59
669.361	9547.57
669.711	9432.1
670.06	9469.38
670.41	9492.43
670.76	9538.99
671.109	9537.4
671.459	9462.83
671.808	9427.13
672.157	9452.21
672.507	9413.11
672.856	9404.3
673.205	9415.37
673.554	9459.67
673.904	9405.66
674.253	9489.95
674.602	9387.13
674.951	9250.63
675.3	9208.83
675.649	9326.34
675.998	9366.34
676.346	9411.76
676.695	9397.3
677.044	9356.39
677.393	9350.06
677.741	9416.5
678.09	9241.82
678.438	9346.9
678.787	9336.51
679.135	9357.75
679.484	9204.08
679.832	9298.99
680.181	9202.95
680.529	9307.58
680.877	9188.71
681.225	9173.57
681.573	9183.97
681.922	9172.67
682.27	9131.77
682.618	9100.35
682.966	9153.23
683.314	9183.29
683.661	9113.91
684.009	9013.12
684.357	9009.96
684.705	8992.79
685.053	9066.23
685.4	9036.85
685.748	8953.24
686.095	8917.76
686.443	8980.13
686.79	8894.48
687.138	8941.71
687.485	8915.95
687.832	8791.89
688.18	8823.3
688.527	8730.19
688.874	8786.24
689.221	8753.92
689.568	8721.83
689.915	8666.24
690.262	8646.58
690.609	8593.25
690.956	8646.13
691.303	8599.58
691.65	8553.93
691.997	8542.4
692.344	8533.14
692.69	8445.68
693.037	8539.69
693.383	8361.16
693.73	8441.61
694.077	8335.85
694.423	8312.13
694.769	8319.36
695.116	8334.72
695.462	8261.51
695.808	8227.61
696.155	8227.16
696.501	8199.81
696.847	8155.52
697.193	8136.54
697.539	8128.4
697.885	8085.92
698.231	8050.66
698.577	8016.77
698.923	8001.17
699.269	7999.82
699.614	7936.32
699.96	7924.79
700.306	7918.24
700.651	7862.42
700.997	7802.99
701.342	7816.77
701.688	7755.76
702.033	7763.21
702.379	7715.31
702.724	7692.26
703.069	7673.05
703.415	7612.03
703.76	7597.12
704.105	7589.21
704.45	7516.89
704.795	7577
705.14	7439.83
705.485	7479.15
705.83	7430.34
706.175	7460.62
706.52	7384.01
706.865	7335.2
707.209	7364.81
707.554	7312.83
707.899	7301.31
708.243	7307.18
708.588	7279.61
708.932	7189.67
709.277	7190.8
709.621	7212.49
709.966	7148.54
710.31	7230.8
710.654	7074.87
710.998	7087.98
711.342	7119.16
711.687	7088.88
712.031	7032.84
712.375	7035.55
712.719	7031.93
713.063	6999.39
713.407	7034.65
713.75	6977.92
714.094	6968.21
714.438	6971.37
714.782	6921.88
715.125	6907.19
715.469	6987.87
715.812	6895.89
716.156	6909
716.499	6854.54
716.843	6934.76
717.186	6846.63
717.53	6869.9
717.873	6843.46
718.216	6855.67
718.559	6843.69
718.902	6730.7
719.246	6757.36
719.589	6761.43
719.932	6754.65
720.275	6737.48
720.617	6765.05
720.96	6751.49
721.303	6697.48
721.646	6715.33
721.989	6704.48
722.331	6745.16
722.674	6700.87
723.016	6727.31
723.359	6669.91
723.701	6708.1
724.044	6662.9
724.386	6632.17
724.729	6649.34
725.071	6638.95
725.413	6603.24
725.755	6626.29
726.097	6597.37
726.439	6568.22
726.782	6626.52
727.124	6639.4
727.465	6632.62
727.807	6594.21
728.149	6522.34
728.491	6586.52
728.833	6657.71
729.175	6577.93
729.516	6623.13
729.858	6570.93
730.199	6560.76
730.541	6564.6
730.882	6513.98
731.224	6599.63
731.565	6548.78
731.906	6539.29
732.248	6616.8
732.589	6520.53
732.93	6512.4
733.271	6582
733.612	6567.09
733.953	6566.41
734.294	6527.54
734.635	6532.29
734.976	6521.21
735.317	6547.43
735.658	6590.59
735.999	6565.28
736.339	6562.34
736.68	6566.64
737.021	6578.84
737.361	6557.6
737.702	6615.45
738.042	6578.61
738.383	6551.27
738.723	6561.66
739.063	6599.63
739.404	6599.63
739.744	6636.69
740.084	6640.08
740.424	6671.72
740.764	6663.81
741.104	6628.1
741.444	6642.34
741.784	6641.89
742.124	6701.77
742.464	6793.52
742.804	6739.74
743.143	6793.97
743.483	6799.17
743.823	6718.5
744.162	6790.36
744.502	6887.08
744.841	6839.85
745.181	6943.12
745.52	6899.96
745.86	6939.51
746.199	6934.54
746.538	7019.73
746.877	7045.27
747.216	7057.02
747.556	7155.32
747.895	7169.78
748.234	7199.39
748.573	7314.86
748.911	7348.54
749.25	7386.73
749.589	7424.47
749.928	7509.66
750.267	7585.14
750.605	7626.04
750.944	7677.34
751.283	7785.59
751.621	7823.55
751.96	7958.92
752.298	8033.04
752.636	8107.39
752.975	8198
753.313	8257.66
753.651	8402.97
753.989	8461.73
754.327	8633.47
754.666	8677.77
755.004	8813.81
755.342	8957.76
755.679	9102.61
756.017	9164.53
756.355	9316.17
756.693	9418.76
757.031	9542.15
757.368	9639.77
757.706	9839.77
758.044	9939.65
758.381	10162.92
758.719	10248.12
759.056	10420.55
759.394	10529.92
759.731	10685.62
760.068	10913.19
760.405	11027.53
760.743	11122.9
761.08	11320.86
761.417	11503.23
761.754	11667.29
762.091	11802.66
762.428	11978.47
762.765	12138.24
763.102	12345.47
763.438	12540.72
763.775	12634.72
764.112	12827.04
764.449	13055.28
764.785	13149.51
765.122	13252.34
765.458	13401.03
765.795	13521.25
766.131	13752.21
766.467	13848.25
766.804	13954.01
767.14	14151.52
767.476	14324.62
767.812	14499.53
768.148	14605.07
768.485	14651.85
768.821	14791.28
769.157	14967.09
769.492	15117.82
769.828	15238.27
770.164	15220.42
770.5	15316.69
770.836	15556.68
771.171	15557.36
771.507	15705.6
771.842	15719.16
772.178	15865.37
772.513	16020.85
772.849	16026.27
773.184	16095.2
773.519	16247.74
773.855	16304.46
774.19	16387.17
774.525	16409.77
774.86	16518.01
775.195	16630.55
775.53	16754.62
775.865	16738.57
776.2	16640.27
776.535	16718.23
776.87	16731.79
777.205	16871
777.539	16863.99
777.874	17056.3
778.209	16870.77
778.543	16920.04
778.878	16947.15
779.212	17089.52
779.547	17008.17
779.881	17151.89
780.215	17089.97
780.55	17166.36
780.884	17181.05
781.218	17124.32
781.552	17323.87
781.886	17252.23
782.22	17260.82
782.554	17249.07
782.888	17266.47
783.222	17155.74
783.556	17180.37
783.889	17145.11
784.223	17139.46
784.557	17101.27
784.89	17194.38
785.224	17243.87
785.557	17122.06
785.891	17104.66
786.224	17107.6
786.558	17185.11
786.891	17091.56
787.224	17036.42
787.557	17056.75
787.891	17047.26
788.224	17031.67
788.557	17068.96
788.89	17030.77
789.223	17058.79
789.556	16965.01
789.888	16933.59
790.221	16946.25
790.554	16753.26
790.887	16919.36
791.219	16885.23
791.552	16787.84
791.884	16803.2
792.217	16817.21
792.549	16790.1
792.882	16660.83
793.214	16694.96
793.546	16725.24
793.879	16565.69
794.211	16561.85
794.543	16594.17
794.875	16597.56
795.207	16576.32
795.539	16559.37
795.871	16578.58
796.203	16495.64
796.535	16402.76
796.867	16243.22
797.198	16344.46
797.53	16312.82
797.862	16251.13
798.193	16190.56
798.525	16126.61
798.856	16156.67
799.188	16102.66
799.519	15992.15
799.85	15882.55
800.182	15946.73
800.513	15896.33
800.844	15824.02
801.175	15971.81
801.506	15880.06
801.837	15892.49
802.168	15754.42
802.499	15692.27
802.83	15649.33
803.161	15688.2
803.491	15663.57
803.822	15614.31
804.153	15579.28
804.483	15470.13
804.814	15471.26
805.145	15409.57
805.475	15515.33
805.805	15371.38
806.136	15376.35
806.466	15342.22
806.796	15340.87
807.126	15233.75
807.457	15190.14
807.787	15154.88
808.117	15181.32
808.447	15120.76
808.777	15003.02
809.107	15077.37
809.436	15065.85
809.766	15048.45
810.096	15031.5
810.426	14952.18
810.755	14966.64
811.085	14905.63
811.414	14839.41
811.744	14779.75
812.073	14840.99
812.403	14892.97
812.732	14696.59
813.061	14710.15
813.39	14645.29
813.719	14656.37
814.049	14670.6
814.378	14596.03
814.707	14570.72
815.036	14490.72
815.365	14485.98
815.693	14298.18
816.022	14425.86
816.351	14420.89
816.68	14389.48
817.008	14354.23
817.337	14245.3
817.665	14207.79
817.994	14310.16
818.322	14280.1
818.651	14198.75
818.979	14147.23
819.307	14183.61
819.636	14203.72
819.964	14117.62
820.292	14152.65
820.62	14196.72
820.948	14092.77
821.276	14198.3
821.604	14064.29
821.932	14108.81
822.259	14057.96
822.587	14058.64
822.915	14022.26
823.243	14076.27
823.57	14062.03
823.898	14018.64
824.225	14098.41
824.553	14001.69
824.88	14052.54
825.207	14080.79
825.535	13974.8
825.862	14127.11
826.189	14062.26
826.516	14102.48
826.843	14117.62
827.17	14133.22
827.497	14093.89
827.824	14103.39
828.151	14198.98
828.478	14102.26
828.805	14201.69
829.131	14129.6
829.458	14054.12
829.785	14049.15
830.111	14114.69
830.438	14065.42
830.764	14111.97
831.09	14175.93
831.417	14101.35
831.743	14062.71
832.069	14049.83
832.395	14046.66
832.722	14100.67
833.048	14044.86
833.374	14081.47
833.7	13992.65
834.026	14002.37
834.351	14080.11
834.677	14020.9
835.003	13912.66
835.329	13955.14
835.654	14016.16
835.98	13876.95
836.306	13978.19
836.631	13897.29
836.956	13942.94
837.282	13877.18
837.607	13864.97
837.932	13849.61
838.258	13797.41
838.583	13789.72
838.908	13668.82
839.233	13718.54
839.558	13758.31
839.883	13749.72
840.208	13678.31
840.533	13590.18
840.858	13656.62
841.182	13680.57
841.507	13600.57
841.832	13505.89
842.156	13546.56
842.481	13532.55
842.805	13486
843.13	13442.84
843.454	13455.04
843.778	13322.62
844.103	13323.52
844.427	13387.02
844.751	13323.29
845.075	13290.3
845.399	13281.26
845.723	13116.75
846.047	13138.67
846.371	13050.76
846.695	13086.46
847.019	13013.47
847.343	12947.94
847.666	12802.86
847.99	12801.95
848.313	12813.25
848.637	12712.01
848.96	12776.42
849.284	12681.5
849.607	12601.96
849.931	12480.6
850.254	12521.05
850.577	12496.65
850.9	12420.27
851.223	12429.08
851.546	12225.02
851.869	12176.21
852.192	12289.2
852.515	12146.15
852.838	12042.2
853.161	12093.95
853.483	12001.07
853.806	11938.7
854.129	11882.2
854.451	11913.16
854.774	11867.06
855.096	11737.57
855.419	11792.26
855.741	11717.69
856.063	11607.63
856.385	11673.17
856.708	11703.9
857.03	11552.94
857.352	11567.18
857.674	11543.68
857.996	11541.19
858.318	11423.23
858.64	11467.3
858.961	11432.5
859.283	11342.78
859.605	11363.57
859.926	11369.9
860.248	11239.05
860.57	11192.05
860.891	11280.18
861.212	11189.56
861.534	11187.3
861.855	11121.77
862.176	11098.04
862.498	11114.09
862.819	11133.52
863.14	11069.34
863.461	11040.87
863.782	11048.1
864.103	11041.09
864.424	10938.72
864.745	10967.65
865.065	10912.28
865.386	10907.99
865.707	10884.71
866.027	10852.85
866.348	10866.64
866.668	10871.38
866.989	10842.46
867.309	10769.69
867.63	10804.04
867.95	10808.56
868.27	10695.11
868.59	10761.55
868.91	10671.16
869.23	10658.05
869.55	10625.29
869.87	10747.32
870.19	10677.94
870.51	10658.28
870.83	10644.72
871.15	10608.79
871.469	10568.79
871.789	10643.36
872.109	10587.32
872.428	10509.13
872.748	10546.87
873.067	10476.81
873.386	10508.45
873.706	10486.76
874.025	10477.49
874.344	10405.4
874.663	10456.25
874.982	10445.4
875.301	10413.77
875.62	10369.02
875.939	10436.82
876.258	10404.27
876.577	10287.89
876.896	10319.98
877.214	10287.22
877.533	10237.5
877.852	10231.62
878.17	10298.06
878.489	10264.17
878.807	10270.04
879.125	10286.54
879.444	10164.28
879.762	10122.02
880.08	10195.69
880.398	10068.69
880.716	10118.63
881.034	10037.05
881.352	10106.43
881.67	10007.67
881.988	9976.26
882.306	10028.92
882.624	9912.54
882.941	9913.44
883.259	9873.21
883.577	9866.66
883.894	9857.17
884.212	9941.46
884.529	9872.54
884.846	9881.58
885.164	9815.36
885.481	9720
885.798	9737.17
886.115	9686.78
886.432	9701.92
886.75	9583.28
887.067	9671.19
887.383	9488.82
887.7	9581.47
888.017	9559.1
888.334	9521.81
888.651	9563.39
888.967	9529.95
889.284	9442.27
889.6	9499.21
889.917	9350.29
890.233	9381.7
890.55	9283.63
890.866	9388.93
891.182	9285.66
891.498	9321.37
891.815	9276.62
892.131	9190.75
892.447	9146.23
892.763	9146.68
893.079	9159.34
893.395	9119.79
893.71	9080.24
894.026	9084.76
894.342	9040.47
894.657	8949.4
894.973	8973.8
895.289	9028.04
895.604	8917.76
895.92	8859.68
896.235	8824.65
896.55	8863.07
896.865	8816.29
897.181	8756.86
897.496	8761.83
897.811	8747.14
898.126	8622.85
898.441	8675.28
898.756	8557.77
899.071	8581.05
899.386	8594.83
899.7	8504.89
900.015	8447.94
900.33	8409.52
900.644	8371.33
900.959	8376.76
901.273	8365.23
901.588	8309.19
901.902	8243.2
902.216	8228.29
902.531	8275.97
902.845	8240.49
903.159	8123.2
903.473	8129.98
903.787	8108.29
904.101	8083.43
904.415	8104.22
904.729	8002.08
905.042	7950.78
905.356	7960.27
905.67	7934.28
905.984	7918.24
906.297	7847.96
906.611	7868.3
906.924	7814.29
907.237	7791.46
907.551	7689.54
907.864	7716.66
908.177	7734.51
908.491	7650.67
908.804	7638.02
909.117	7532.94
909.43	7474.41
909.743	7464.69
910.056	7503.33
910.368	7475.09
910.681	7400.74
910.994	7404.58
911.307	7404.13
911.619	7296.56
911.932	7345.15
912.244	7224.47
912.557	7202.1
912.869	7176.79
913.181	7200.06
913.494	7232.83
913.806	7120.29
914.118	7110.35
914.43	7021.54
914.742	7085.04
915.054	6974.31
915.366	6994.65
915.678	6967.08
915.99	6947.64
916.302	6868.55
916.613	6875.55
916.925	6844.82
917.236	6786.06
917.548	6717.82
917.859	6788.78
918.171	6698.16
918.482	6706.52
918.794	6672.17
919.105	6670.36
919.416	6596.01
919.727	6601.21
920.038	6605.05
920.349	6475.34
920.66	6513.3
920.971	6508.56
921.282	6497.26
921.593	6432.4
921.903	6393.08
922.214	6377.04
922.525	6359.64
922.835	6338.39
923.146	6312.63
923.456	6315.12
923.767	6228.79
924.077	6256.81
924.387	6206.42
924.697	6162.58
925.008	6153.31
925.318	6138.62
925.628	6116.03
925.938	6031.73
926.248	6026.31
926.558	6030.6
926.867	6020.89
927.177	5970.94
927.487	5963.94
927.796	5881.68
928.106	5920.1
928.416	5828.12
928.725	5889.82
929.034	5802.36
929.344	5831.29
929.653	5822.25
929.962	5796.71
930.271	5746.54
930.581	5672.87
930.89	5676.04
931.199	5638.07
931.508	5629.94
931.817	5606.21
932.125	5637.39
932.434	5646.89
932.743	5565.53
933.051	5483.5
933.36	5514.91
933.669	5470.62
933.977	5493.9
934.286	5439.66
934.594	5429.49
934.902	5403.5
935.21	5373.22
935.519	5379.77
935.827	5391.75
936.135	5342.26
936.443	5266.56
936.751	5230.4
937.059	5264.75
937.367	5249.83
937.674	5230.17
937.982	5174.13
938.29	5217.97
938.597	5153.57
938.905	5100.69
939.213	5116.5
939.52	5048.94
939.827	5097.97
940.135	5003.74
940.442	5014.13
940.749	5005.09
941.056	5027.47
941.363	4992.89
941.67	4935.49
941.977	4924.19
942.284	4858.21
942.591	4841.93
942.898	4868.37
943.205	4829.96
943.511	4871.31
943.818	4782.5
944.125	4731.2
944.431	4726.01
944.738	4707.93
945.044	4724.65
945.35	4683.52
945.657	4645.1
945.963	4667.25
946.269	4645.1
946.575	4625.44
946.881	4651.88
947.187	4572.56
947.493	4509.06
947.799	4518.55
948.105	4502.96
948.41	4453.24
948.716	4518.55
949.022	4460.48
949.327	4424.77
949.633	4399.69
949.938	4394.26
950.244	4397.65
950.549	4327.6
950.854	4326.92
951.16	4344.09
951.465	4308.16
951.77	4218
952.075	4271.55
952.38	4284.21
952.685	4237.66
952.99	4180.26
953.294	4154.27
953.599	4102.52
953.904	4145.23
954.209	4114.95
954.513	4114.27
954.818	4081.28
955.122	4071.11
955.426	4063.65
955.731	4032.92
956.035	4056.42
956.339	4035.63
956.643	3986.59
956.948	3934.84
957.252	3945.01
957.556	3946.14
957.86	3952.24
958.163	3971
958.467	3870.21
958.771	3890.32
959.075	3917.21
959.378	3876.76
959.682	3867.95
959.985	3840.15
960.289	3818.68
960.592	3803.09
960.896	3767.61
961.199	3747.27
961.502	3734.39
961.805	3736.88
962.108	3700.27
962.411	3676.77
962.714	3665.69
963.017	3672.7
963.32	3680.61
963.623	3628.41
963.926	3603.78
964.228	3597.45
964.531	3571.69
964.833	3540.95
965.136	3540.27
965.438	3523.1
965.741	3519.94
966.043	3475.42
966.345	3522.42
966.648	3510.67
966.95	3446.49
967.252	3407.17
967.554	3420.73
967.856	3406.04
968.158	3399.26
968.46	3408.3
968.761	3345.03
969.063	3351.58
969.365	3335.76
969.666	3352.26
969.968	3282.43
970.269	3288.76
970.571	3272.94
970.872	3296.66
971.174	3258.47
971.475	3249.66
971.776	3248.08
972.077	3215.54
972.378	3214.18
972.679	3180.74
972.98	3219.6
973.281	3160.85
973.582	3134.86
973.883	3145.26
974.183	3124.47
974.484	3111.58
974.785	3103.45
975.085	3082.21
975.386	3077.01
975.686	3056.9
975.986	3044.24
976.287	3052.6
976.587	3011.02
976.887	3037.69
977.187	3011.25
977.487	2961.08
977.787	2958.59
978.087	2962.44
978.387	2951.59
978.687	2910.23
978.987	2909.56
979.286	2907.07
979.586	2892.16
979.885	2859.16
980.185	2833.17
980.484	2822.78
980.784	2834.08
981.083	2836.34
981.382	2828.2
981.682	2798.37
981.981	2774.87
982.28	2741.2
982.579	2759.73
982.878	2746.17
983.177	2741.88
983.475	2713.86
983.774	2691.26
984.073	2670.92
984.372	2652.16
984.67	2638.6
984.969	2663.01
985.267	2646.74
985.566	2620.07
985.864	2618.04
986.162	2616
986.461	2617.13
986.759	2566.51
987.057	2564.25
987.355	2564.25
987.653	2571.71
987.951	2536.46
988.249	2548.21
988.547	2519.28
988.844	2474.77
989.142	2518.61
989.44	2475.22
989.737	2508.66
990.035	2468.44
990.332	2448.1
990.63	2423.02
990.927	2426.86
991.224	2407.87
991.521	2384.37
991.819	2405.39
992.116	2391.83
992.413	2345.05
992.71	2368.78
993.006	2355.45
993.303	2337.14
993.6	2308.89
993.897	2308.22
994.193	2311.15
994.49	2319.74
994.787	2295.34
995.083	2304.6
995.379	2254.21
995.676	2251.04
995.972	2241.55
996.268	2220.99
996.565	2239.97
996.861	2225.51
997.157	2212.63
997.453	2152.74
997.749	2155.9
998.044	2163.36
998.34	2152.97
998.636	2112.74
998.932	2167.2
999.227	2148.22
999.523	2091.95
999.818	2100.09
1000.114	2079.75
1000.409	2086.53
1000.704	2067.09
1001	2077.71
1001.295	2047.21
1001.59	2017.38
1001.885	2032.97
1002.18	2024.38
1002.475	2007.89
1002.77	2014.21
1003.065	2004.72
1003.359	1966.3
1003.654	1944.16
1003.949	1954.33
1004.243	1963.82
1004.538	1919.98
1004.832	1923.82
1005.127	1910.71
1005.421	1900.32
1005.715	1898.51
1006.009	1895.57
1006.304	1883.14
1006.598	1825.74
1006.892	1835.46
1007.186	1840.88
1007.48	1803.6
1007.773	1810.6
1008.067	1794.33
1008.361	1744.62
1008.655	1797.72
1008.948	1740.55
1009.242	1773.31
1009.535	1705.97
1009.829	1746.87
1010.122	1735.58
1010.415	1705.97
1010.708	1705.07
1011.001	1698.29
1011.295	1690.61
1011.588	1676.14
1011.881	1683.83
1012.173	1656.03
1012.466	1671.62
1012.759	1652.87
1013.052	1643.83
1013.344	1618.06
1013.637	1596.6
1013.93	1628.01
1014.222	1604.96
1014.514	1594.11
1014.807	1560.89
1015.099	1563.6
1015.391	1547.11
1015.683	1535.58
1015.976	1561.57
1016.268	1520.44
1016.56	1518.86
1016.851	1524.51
1017.143	1521.12
1017.435	1482.25
1017.727	1492.42
1018.018	1480.67
1018.31	1499.65
1018.602	1464.62
1018.893	1447.67
1019.185	1428.47
1019.476	1420.56
1019.767	1397.73
1020.058	1411.29
1020.35	1425.08
1020.641	1392.99
1020.932	1400.9
1021.223	1394.57
1021.514	1362.93
1021.804	1346.89
1022.095	1370.39
1022.386	1335.36
1022.677	1359.99
1022.967	1306.21
1023.258	1286.77
1023.548	1308.24
1023.839	1331.07
1024.129	1306.21
1024.419	1285.19
1024.709	1273.44
1025	1259.43
1025.29	1256.94
1025.58	1261.69
1025.87	1224.63
1026.16	1228.7
1026.449	1230.73
1026.739	1209.94
1027.029	1201.58
1027.319	1209.04
1027.608	1216.04
1027.898	1193.44
1028.187	1175.82
1028.477	1195.7
1028.766	1176.49
1029.055	1169.72
1029.344	1137.63
1029.634	1129.72
1029.923	1128.81
1030.212	1139.89
1030.501	1108.7
1030.79	1108.25
1031.078	1131.98
1031.367	1107.12
1031.656	1080.9
1031.945	1078.87
1032.233	1088.36
1032.522	1098.08
1032.81	1065.08
1033.099	1051.07
1033.387	1084.75
1033.675	1062.15
1033.963	1054.69
1034.251	1027.35
1034.54	1045.65
1034.828	1018.76
1035.116	1017.63
1035.403	1015.37
1035.691	1012.21
1035.979	959.78
1036.267	967.01
1036.554	975.82
1036.842	980.12
1037.129	988.7
1037.417	948.93
1037.704	969.27
1037.992	964.3
1038.279	948.03
1038.566	938.99
1038.853	938.99
1039.14	938.99
