Data from hue_150_FLMS001491_00062.txt Node
Date: Tue Feb 07 16:54:21 GMT 2017
User: dcchb
Spectrometer: FLMS00149
Trigger mode: 0
Integration Time (sec): 2.000000E-2
Scans to average: 10
Electric dark correction enabled: true
Nonlinearity correction enabled: false
Boxcar width: 0
XAxis mode: Wavelengths
Number of Pixels in Spectrum: 2048
>>>>>Begin Spectral Data<<<<<
341.393	1.57
341.776	1.57
342.16	1.57
342.543	-62.61
342.927	-64.87
343.31	-75.72
343.693	-64.19
344.077	-51.31
344.46	-71.2
344.843	-56.06
345.226	-50.41
345.61	-38.21
345.993	-15.61
346.376	3.83
346.759	15.13
347.142	22.81
347.525	40.66
347.908	59.87
348.291	81.79
348.674	92.64
349.057	105.97
349.44	126.31
349.823	138.97
350.206	163.37
350.588	192.75
350.971	201.34
351.354	227.1
351.737	245.18
352.119	250.37
352.502	260.09
352.884	273.65
353.267	282.69
353.65	276.81
354.032	287.21
354.414	302.8
354.797	310.26
355.179	319.3
355.562	324.72
355.944	331.28
356.326	346.42
356.709	321.33
357.091	338.73
357.473	334.67
357.855	339.41
358.238	337.15
358.62	358.62
359.002	332.86
359.384	336.02
359.766	338.28
360.148	348.68
360.53	344.38
360.912	327.43
361.294	350.03
361.676	336.7
362.057	334.67
362.439	341.9
362.821	343.48
363.203	337.38
363.584	331.95
363.966	309.58
364.348	310.94
364.729	332.86
365.111	327.66
365.493	325.85
365.874	325.18
366.256	322.46
366.637	317.27
367.019	303.48
367.4	318.62
367.781	321.33
368.163	319.75
368.544	292.18
368.925	323.59
369.306	299.41
369.688	312.97
370.069	285.4
370.45	290.37
370.831	321.56
371.212	317.49
371.593	314.33
371.974	322.01
372.355	318.85
372.736	326.3
373.117	306.19
373.498	312.07
373.879	314.33
374.26	328.34
374.641	318.62
375.021	318.4
375.402	346.87
375.783	323.14
376.163	335.57
376.544	328.79
376.925	320.88
377.305	314.78
377.686	323.82
378.066	329.24
378.447	337.6
378.827	331.95
379.208	347.32
379.588	355
379.968	341.45
380.349	329.24
380.729	345.97
381.109	358.39
381.489	347.32
381.87	342.35
382.25	348.45
382.63	349.58
383.01	347.55
383.39	357.26
383.77	340.09
384.15	344.61
384.53	346.42
384.91	356.36
385.29	348.68
385.67	372.18
386.049	382.12
386.429	353.87
386.809	356.13
387.189	367.66
387.568	364.5
387.948	373.76
388.328	362.69
388.707	372.63
389.087	389.81
389.466	365.63
389.846	370.82
390.225	377.15
390.605	377.15
390.984	371.73
391.363	374.67
391.743	372.41
392.122	376.7
392.501	368.79
392.881	378.96
393.26	369.47
393.639	373.99
394.018	412.4
394.397	376.25
394.776	388.68
395.155	406.75
395.534	395.68
395.913	392.29
396.292	413.31
396.671	397.94
397.05	418.28
397.429	399.07
397.808	391.84
398.186	385.29
398.565	418.73
398.944	395.91
399.323	413.31
399.701	392.29
400.08	400.43
400.458	416.47
400.837	436.81
401.215	395.91
401.594	400.2
401.972	423.48
402.351	434.1
402.729	412.4
403.107	419.41
403.486	427.55
403.864	426.87
404.242	425.06
404.62	423.93
404.999	449.01
405.377	451.05
405.755	434.78
406.133	463.25
406.511	443.14
406.889	451.5
407.267	452.18
407.645	474.32
408.023	462.35
408.401	470.71
408.779	489.24
409.156	490.37
409.534	486.98
409.912	476.13
410.29	487.66
410.667	480.88
411.045	472.52
411.422	484.27
411.8	495.79
412.178	516.81
412.555	518.39
412.933	498.28
413.31	503.25
413.687	499.86
414.065	527.66
414.442	531.5
414.819	540.08
415.197	517.26
415.574	515.23
415.951	524.49
416.328	546.64
416.705	548.45
417.082	516.36
417.46	543.47
417.837	552.51
418.214	550.71
418.591	551.61
418.967	547.77
419.344	565.62
419.721	561.33
420.098	566.98
420.475	568.78
420.852	593.87
421.228	578.05
421.605	576.47
421.982	599.07
422.358	579.63
422.735	630.93
423.111	629.35
423.488	604.49
423.864	609.46
424.241	612.4
424.617	637.94
424.994	635.45
425.37	607.65
425.746	641.1
426.123	620.76
426.499	658.73
426.875	642.45
427.251	654.88
427.627	665.96
428.003	659.86
428.379	673.41
428.756	688.1
429.132	689.46
429.507	699.63
429.883	696.24
430.259	719.51
430.635	696.46
431.011	721.77
431.387	712.51
431.763	731.04
432.138	728.55
432.514	751.6
432.89	747.31
433.265	748.89
433.641	774.2
434.016	774.88
434.392	758.84
434.767	793.41
435.143	788.89
435.518	841.09
435.894	816.91
436.269	799.06
436.644	820.98
437.02	825.5
437.395	819.4
437.77	839.51
438.145	850.81
438.52	852.39
438.895	902.79
439.271	877.25
439.646	871.38
440.021	934.2
440.395	915.89
440.77	889.91
441.145	919.06
441.52	901.43
441.895	914.99
442.27	938.94
442.645	910.92
443.019	942.79
443.394	955.67
443.769	965.61
444.143	953.41
444.518	985.27
444.892	952.73
445.267	978.27
445.641	971.49
446.016	999.96
446.39	989.11
446.764	958.38
447.139	994.99
447.513	1013.29
447.887	1000.41
448.262	1000.19
448.636	1049.45
449.01	1041.99
449.384	1063.46
449.758	1042.9
450.132	1079.73
450.506	1066.85
450.88	1106.62
451.254	1104.14
451.628	1097.58
452.002	1121.99
452.376	1124.93
452.75	1121.76
453.123	1117.24
453.497	1141.42
453.871	1152.5
454.244	1181.42
454.618	1168.54
454.992	1186.62
455.365	1215.1
455.739	1234.3
456.112	1235.43
456.486	1237.47
456.859	1263.46
457.232	1300.52
457.606	1303.23
457.979	1297.58
458.352	1339.16
458.725	1360.4
459.099	1366.96
459.472	1367.41
459.845	1375.09
460.218	1413.06
460.591	1426.62
460.964	1425.49
461.337	1460.74
461.71	1498.25
462.083	1514.3
462.456	1527.4
462.829	1522.43
463.201	1537.57
463.574	1550.68
463.947	1584.58
464.32	1611.02
464.692	1627.06
465.065	1666.83
465.438	1685.14
465.81	1695.31
466.183	1691.24
466.555	1805.14
466.928	1788.87
467.3	1805.59
467.672	1828.64
468.045	1869.77
468.417	1852.37
468.789	1897.56
469.161	1954.28
469.534	1953.38
469.906	2020.72
470.278	2038.35
470.65	2086.71
471.022	2099.37
471.394	2146.82
471.766	2227.27
472.138	2194.73
472.51	2270.21
472.882	2321.96
473.253	2374.39
473.625	2406.93
473.997	2431.33
474.369	2496.42
474.74	2535.51
475.112	2628.84
475.484	2693.47
475.855	2760.82
476.227	2778.9
476.598	2886.69
476.97	2914.26
477.341	3046.46
477.713	3042.62
478.084	3137.08
478.455	3220.92
478.827	3266.11
479.198	3387.69
479.569	3427.01
479.94	3573.9
480.311	3632.66
480.682	3712.2
481.053	3825.87
481.424	3948.36
481.795	4025.19
482.166	4114.45
482.537	4232.42
482.908	4353.32
483.279	4362.58
483.65	4565.06
484.021	4683.25
484.391	4763.93
484.762	4865.39
485.133	5002.79
485.503	5112.85
485.874	5224.48
486.244	5352.39
486.615	5515.1
486.985	5615.66
487.356	5774.3
487.726	5854.07
488.097	6036.66
488.467	6172.7
488.837	6360.27
489.207	6413.83
489.578	6575.18
489.948	6754.16
490.318	6869.86
490.688	6954.83
491.058	7144.88
491.428	7254.71
491.798	7366.35
492.168	7586.45
492.538	7700.8
492.908	7885.88
493.278	8029.38
493.648	8062.82
494.017	8265.53
494.387	8356.83
494.757	8508.91
495.126	8708.46
495.496	8733.77
495.866	8867.32
496.235	9076.81
496.605	9124.72
496.974	9275
497.344	9393.19
497.713	9461.43
498.082	9616
498.452	9784.36
498.821	9873.4
499.19	9908.43
499.559	10062.55
499.928	10145.26
500.298	10279.26
500.667	10414.85
501.036	10449.43
501.405	10631.8
501.774	10627.28
502.143	10766.03
502.512	10837.22
502.88	10936.87
503.249	10944.56
503.618	11122.18
503.987	11194.04
504.356	11307.94
504.724	11346.81
505.093	11458.89
505.462	11510.87
505.83	11625.67
506.199	11706.8
506.567	11952.21
506.936	11890.75
507.304	11992.21
507.672	12090.97
508.041	12070.63
508.409	12209.38
508.777	12341.81
509.145	12386.33
509.514	12386.33
509.882	12533.67
510.25	12566.44
510.618	12637.39
510.986	12656.15
511.354	12780.89
511.722	12782.02
512.09	12955.8
512.458	12884.39
512.826	12971.17
513.193	13094.56
513.561	13061.11
513.929	13132.07
514.297	13188.79
514.664	13299.98
515.032	13297.72
515.4	13373.65
515.767	13417.26
516.135	13570.93
516.502	13418.84
516.869	13626.52
517.237	13649.34
517.604	13615
517.972	13746.97
518.339	13778.15
518.706	13782.67
519.073	13709.23
519.44	13866.74
519.808	13989.9
520.175	13810.47
520.542	14077.58
520.909	14066.96
521.276	13999.84
521.643	14138.15
522.009	14195.09
522.376	14217.92
522.743	14305.15
523.11	14346.73
523.477	14452.71
523.843	14433.05
524.21	14530.68
524.577	14610.45
524.943	14587.85
525.31	14620.17
525.676	14719.82
526.043	14750.33
526.409	14817.45
526.776	14924.11
527.142	14850.67
527.508	14927.73
527.874	14897.22
528.241	14932.7
528.607	14950.55
528.973	15057.22
529.339	15033.94
529.705	15023.55
530.071	15051.79
530.437	15128.18
530.803	15128.63
531.169	15147.16
531.535	14974.96
531.901	15083.66
532.267	15139.25
532.632	15138.34
532.998	15203.2
533.364	15130.66
533.73	15124.79
534.095	15210.89
534.461	15194.61
534.826	15184.45
535.192	15198.91
535.557	15191.22
535.923	15136.76
536.288	15092.47
536.653	15167.5
537.019	15174.5
537.384	15042.98
537.749	15116.88
538.114	15093.15
538.479	15060.38
538.845	15049.53
539.21	14960.27
539.575	14988.74
539.94	14949.2
540.305	14949.65
540.67	14905.81
541.034	14901.74
541.399	14859.48
541.764	14837.34
542.129	14764.12
542.494	14809.09
542.858	14712.14
543.223	14711.01
543.587	14718.69
543.952	14730.9
544.316	14744
544.681	14613.39
545.045	14577.68
545.41	14598.47
545.774	14611.35
546.138	14552.15
546.503	14585.82
546.867	14438.7
547.231	14565.25
547.595	14419.95
547.959	14438.25
548.324	14398.25
548.688	14354.86
549.052	14389.89
549.416	14383.34
549.779	14367.97
550.143	14411.36
550.507	14353.96
550.871	14340.17
551.235	14242.78
551.599	14374.52
551.962	14243.23
552.326	14228.99
552.689	14230.35
553.053	14163.91
553.417	14152.61
553.78	14278.48
554.143	14175.43
554.507	14147.18
554.87	14033.29
555.234	14149.44
555.597	14058.6
555.96	14099.28
556.323	14096.79
556.686	14090.24
557.05	14030.13
557.413	14117.81
557.776	14101.54
558.139	14099.95
558.502	14066.73
558.865	14011.37
559.228	14165.72
559.59	14150.57
559.953	14148.31
560.316	14182.21
560.679	14213.62
561.041	14116.68
561.404	14135.89
561.767	14185.83
562.129	14095.89
562.492	14225.37
562.854	14178.14
563.217	14192.16
563.579	14147.18
563.941	14269.67
564.304	14306.95
564.666	14304.02
565.028	14377.69
565.39	14299.27
565.753	14371.81
566.115	14292.49
566.477	14388.99
566.839	14414.97
567.201	14423.11
567.563	14385.6
567.925	14512.37
568.287	14486.84
568.648	14419.49
569.01	14505.59
569.372	14509.43
569.734	14445.71
570.095	14577.46
570.457	14595.53
570.819	14590.56
571.18	14615.42
571.542	14723.44
571.903	14595.31
572.265	14699.49
572.626	14703.55
572.987	14662.43
573.349	14683.67
573.71	14769.99
574.071	14743.1
574.432	14787.39
574.794	14849.31
575.155	14919.59
575.516	14791.91
575.877	14746.72
576.238	14815.64
576.599	14838.24
576.96	14911.91
577.32	14797.11
577.681	14909.2
578.042	14937.22
578.403	14838.92
578.763	14908.52
579.124	14881.18
579.485	14924.11
579.845	15035.97
580.206	14925.47
580.566	14949.88
580.927	14918.92
581.287	14944.9
581.648	14849.09
582.008	14955.52
582.368	14880.05
582.728	14913.49
583.089	14844.79
583.449	14929.08
583.809	14869.88
584.169	14935.41
584.529	14855.19
584.889	14890.44
585.249	14864
585.609	14839.6
585.969	14859.48
586.329	14839.82
586.688	14823.55
587.048	14826.94
587.408	14800.05
587.768	14754.17
588.127	14803.89
588.487	14690.45
588.846	14860.84
589.206	14808.86
589.565	14771.8
589.925	14783.55
590.284	14764.8
590.643	14852.93
591.003	14773.16
591.362	14836.66
591.721	14713.72
592.08	14829.88
592.44	14816.77
592.799	14788.3
593.158	14707.62
593.517	14642.31
593.876	14759.82
594.235	14693.84
594.593	14717.34
594.952	14746.04
595.311	14627.17
595.67	14655.87
596.029	14758.24
596.387	14743.55
596.746	14790.33
597.104	14749.2
597.463	14686.83
597.822	14712.59
598.18	14737.23
598.538	14655.42
598.897	14711.69
599.255	14582.43
599.613	14828.75
599.972	14708.3
600.33	14724.34
600.688	14624.01
601.046	14751.69
601.404	14730.22
601.762	14741.97
602.12	14726.83
602.478	14731.12
602.836	14722.76
603.194	14690.67
603.552	14658.81
603.91	14602.31
604.268	14741.75
604.625	14669.88
604.983	14754.17
605.341	14723.21
605.698	14734.74
606.056	14802.76
606.413	14779.71
606.771	14814.29
607.128	14762.99
607.485	14670.79
607.843	14715.08
608.2	14772.7
608.557	14871.23
608.914	14794.4
609.272	14918.24
609.629	14888.41
609.986	14887.05
610.343	14885.7
610.7	14829.88
611.057	14885.7
611.414	14824.68
611.771	14936.09
612.127	14909.2
612.484	14951.91
612.841	15007.73
613.198	14929.54
613.554	14920.27
613.911	15004.34
614.267	14985.58
614.624	14970.67
614.98	14899.71
615.337	14999.59
615.693	14969.99
616.05	14999.37
616.406	15073.94
616.762	15045.01
617.118	14972.02
617.475	14993.26
617.831	15059.25
618.187	15079.59
618.543	15040.95
618.899	15207.95
619.255	15161.85
619.611	15161.4
619.967	15142.86
620.323	15108.74
620.678	15166.14
621.034	14994.62
621.39	15122.07
621.746	15011.12
622.101	15243.65
622.457	15075.3
622.812	15050.89
623.168	15137.44
623.523	15158.91
623.879	15115.07
624.234	15151.68
624.589	15184.45
624.945	15186.48
625.3	15191.45
625.655	15172.47
626.01	15178.12
626.365	15269.64
626.72	15174.5
627.075	15169.53
627.43	15172.47
627.785	15159.14
628.14	15223.99
628.495	15149.87
628.85	15215.18
629.205	15168.4
629.559	15290.66
629.914	15120.27
630.269	15162.98
630.623	15083.21
630.978	15063.32
631.332	15133.37
631.687	15080.95
632.041	15087.95
632.396	15089.31
632.75	15036.2
633.104	15010.89
633.459	14960.5
633.813	14946.03
634.167	14963.89
634.521	14999.37
634.875	14992.81
635.229	14949.88
635.583	14787.17
635.937	14792.82
636.291	14817
636.645	14848.18
636.999	14787.62
637.352	14747.62
637.706	14657
638.06	14793.95
638.413	14658.36
638.767	14675.08
639.121	14683.89
639.474	14521.41
639.828	14598.92
640.181	14651.35
640.534	14688.64
640.888	14521.64
641.241	14503.33
641.594	14598.47
641.947	14570.68
642.301	14586.49
642.654	14570.45
643.007	14595.53
643.36	14610.68
643.713	14499.94
644.066	14542.65
644.419	14456.78
644.771	14425.37
645.124	14300.17
645.477	14236.67
645.83	14203.23
646.182	14112.61
646.535	14042.78
646.888	14115.32
647.24	13991.26
647.593	14024.02
647.945	14007.53
648.298	13998.49
648.65	14019.73
649.002	13872.62
649.355	13977.47
649.707	13988.77
650.059	14082.1
650.411	14212.27
650.763	14260.63
651.115	14330.46
651.467	14245.26
651.819	14354.18
652.171	14323.68
652.523	14181.08
652.875	14182.66
653.227	14229.44
653.578	14330.91
653.93	14271.93
654.282	14314.86
654.633	14235.09
654.985	14314.19
655.337	14244.58
655.688	14273.06
656.039	14290.01
656.391	14254.53
656.742	14232.38
657.094	14226.5
657.445	14300.63
657.796	14324.58
658.147	14196.22
658.498	14297.92
658.849	14259.5
659.2	14248.88
659.551	14233.96
659.902	14354.18
660.253	14238.48
660.604	14268.54
660.955	14308.31
661.306	14245.94
661.656	14181.31
662.007	14300.4
662.358	14246.62
662.708	14212.95
663.059	14280.74
663.409	14170.23
663.76	14310.12
664.11	14306.28
664.461	14396.67
664.811	14363.45
665.161	14330.68
665.511	14242.55
665.862	14278.71
666.212	14313.51
666.562	14364.13
666.912	14281.19
667.262	14248.65
667.612	14278.93
667.962	14303.11
668.312	14349.89
668.662	14346.73
669.011	14307.41
669.361	14247.52
669.711	14212.04
670.06	14302.89
670.41	14266.96
670.76	14240.52
671.109	14291.81
671.459	14191.93
671.808	14166.85
672.157	14285.03
672.507	14075.77
672.856	14186.51
673.205	14113.74
673.554	14265.83
673.904	14092.04
674.253	14155.77
674.602	14134.3
674.951	14048.43
675.3	13850.02
675.649	14127.07
675.998	14047.3
676.346	14128.2
676.695	14108.09
677.044	13998.71
677.393	14004.82
677.741	14048.2
678.09	13999.84
678.438	14016.11
678.787	13952.61
679.135	13825.84
679.484	13882.33
679.832	13951.48
680.181	13852.05
680.529	13848.66
680.877	13816.8
681.225	13773.18
681.573	13816.8
681.922	13607.09
682.27	13676.69
682.618	13694.54
682.966	13629.91
683.314	13612.96
683.661	13647.54
684.009	13538.16
684.357	13610.7
684.705	13534.55
685.053	13603.92
685.4	13513.75
685.748	13446.41
686.095	13416.81
686.443	13443.7
686.79	13447.99
687.138	13404.61
687.485	13412.06
687.832	13348.56
688.18	13309.01
688.527	13255.46
688.874	13222.69
689.221	13212.29
689.568	13180.43
689.915	13151.28
690.262	13124.61
690.609	13001.68
690.956	13036.71
691.303	12954.45
691.65	12944.05
691.997	12831.96
692.344	12800.33
692.69	12721.01
693.037	12756.26
693.383	12631.74
693.73	12653.44
694.077	12636.72
694.423	12697.51
694.769	12589.71
695.116	12532.76
695.462	12445.53
695.808	12434.01
696.155	12426.78
696.501	12394.24
696.847	12338.42
697.193	12245.77
697.539	12391.75
697.885	12249.38
698.231	12119.89
698.577	12152.89
698.923	12118.99
699.269	12065.66
699.614	12014.36
699.96	11975.49
700.306	11918.77
700.651	11818.88
700.997	11819.11
701.342	11775.95
701.688	11767.81
702.033	11710.86
702.379	11747.25
702.724	11647.36
703.069	11665.67
703.415	11517.88
703.76	11578.44
704.105	11530.98
704.45	11517.88
704.795	11419.35
705.14	11386.81
705.485	11369.86
705.83	11252.57
706.175	11358.33
706.52	11249.86
706.865	11288.05
707.209	11235.85
707.554	11074.95
707.899	11180.03
708.243	11065.46
708.588	11058.45
708.932	10952.24
709.277	10998.34
709.621	11020.26
709.966	10890.55
710.31	10856.2
710.654	10783.21
710.998	10894.16
711.342	10892.35
711.687	10883.99
712.031	10844.22
712.375	10764.67
712.719	10853.71
713.063	10705.24
713.407	10740.72
713.75	10656.65
714.094	10658.69
714.438	10678.58
714.782	10620.05
715.125	10621.4
715.469	10625.92
715.812	10544.12
716.156	10474.74
716.499	10475.87
716.843	10446.26
717.186	10480.16
717.53	10476.55
717.873	10523.1
718.216	10392.48
718.559	10316.78
718.902	10366.94
719.246	10424.8
719.589	10387.51
719.932	10308.42
720.275	10294.18
720.617	10277.23
720.96	10247.17
721.303	10217.8
721.646	10232.71
721.989	10221.64
722.331	10201.07
722.674	10219.83
723.016	10241.98
723.359	10206.95
723.701	10188.64
724.044	10116.1
724.386	10061.19
724.729	10163.56
725.071	10115.88
725.413	10141.87
725.755	10022.1
726.097	10080.17
726.439	10094.18
726.782	10042.21
727.124	10103.22
727.465	10025.03
727.807	10028.87
728.149	10030.68
728.491	9944.58
728.833	9988.2
729.175	10020.06
729.516	9947.75
729.858	9918.14
730.199	9999.72
730.541	9993.62
730.882	9950.68
731.224	9966.96
731.565	9920.63
731.906	9927.41
732.248	10076.56
732.589	9889.44
732.93	9889.9
733.271	9922.21
733.612	9968.31
733.953	9928.76
734.294	9866.85
734.635	9885.15
734.976	9900.06
735.317	9850.57
735.658	9916.56
735.999	9909.1
736.339	9880.18
736.68	9917.92
737.021	9870.69
737.361	9806.06
737.702	9915.88
738.042	9887.64
738.383	9852.61
738.723	9893.51
739.063	9946.84
739.404	9907.52
739.744	9874.98
740.084	9940.74
740.424	9881.99
740.764	9897.58
741.104	9959.05
741.444	9931.7
741.784	9854.64
742.124	9976.9
742.464	9963.11
742.804	10019.38
743.143	10024.13
743.483	10043.34
743.823	10028.2
744.162	10037.91
744.502	10070.91
744.841	10112.94
745.181	10174.18
745.52	10124.47
745.86	10186.16
746.199	10281.3
746.538	10349.32
746.877	10340.05
747.216	10357
747.556	10368.53
747.895	10460.28
748.234	10458.24
748.573	10498.69
748.911	10563.1
749.25	10677.9
749.589	10681.29
749.928	10774.84
750.267	10797.44
750.605	10789.31
750.944	10912.69
751.283	10999.92
751.621	11059.13
751.96	11178.67
752.298	11198.79
752.636	11321.72
752.975	11353.36
753.313	11398.33
753.651	11566.01
753.989	11624.54
754.327	11705.89
754.666	11734.82
755.004	11973.46
755.342	12117.41
755.679	12194.24
756.017	12290.06
756.355	12446.66
756.693	12550.39
757.031	12688.24
757.368	12758.52
757.706	12946.54
758.044	13024.5
758.381	13245.97
758.719	13353.08
759.056	13513.53
759.394	13596.46
759.731	13790.58
760.068	13850.7
760.405	13961.2
760.743	14219.72
761.08	14391.92
761.417	14469.44
761.754	14593.5
762.091	14795.08
762.428	14952.59
762.765	15063.09
763.102	15281.84
763.438	15369.07
763.775	15451.78
764.112	15680.25
764.449	15874.14
764.785	15940.13
765.122	16043.41
765.458	16123.63
765.795	16423.51
766.131	16496.73
766.467	16664.18
766.804	16720.45
767.14	16800.67
767.476	16949.82
767.812	17084.06
768.148	17254.67
768.485	17303.94
768.821	17356.37
769.157	17560.88
769.492	17687.88
769.828	17762.46
770.164	17858.73
770.5	17958.16
770.836	18049.68
771.171	18133.97
771.507	18206.51
771.842	18279.28
772.178	18461.42
772.513	18467.3
772.849	18466.62
773.184	18519.72
773.519	18610.34
773.855	18648.76
774.19	18703.9
774.525	18740.74
774.86	19008.53
775.195	18930.56
775.53	18962.65
775.865	18971.24
776.2	18957.68
776.535	19002.42
776.87	19081.52
777.205	19085.59
777.539	19099.82
777.874	19238.58
778.209	19062.99
778.543	19154.06
778.878	19091.01
779.212	19156.32
779.547	19088.75
779.881	19299.14
780.215	19233.83
780.55	19443.32
780.884	19246.03
781.218	19164.91
781.552	19362.19
781.886	19319.25
782.22	19284.22
782.554	19326.94
782.888	19173.94
783.222	19118.13
783.556	19093.95
783.889	19186.6
784.223	19044.68
784.557	19058.24
784.89	19042.2
785.224	19046.26
785.557	19041.07
785.891	19027.96
786.224	18954.97
786.558	18998.81
786.891	18843.33
787.224	18905.7
787.557	18873.16
787.891	18810.34
788.224	18813.5
788.557	18898.02
788.89	18865.03
789.223	18863.9
789.556	18760.4
789.888	18732.83
790.221	18606.95
790.554	18526.05
790.887	18621.87
791.219	18521.76
791.552	18522.44
791.884	18544.81
792.217	18411.71
792.549	18413.51
792.882	18314.76
793.214	18264.82
793.546	18314.76
793.879	18153.63
794.211	18095.78
794.543	18209.9
794.875	18101.43
795.207	18162.9
795.539	18222.11
795.871	18123.13
796.203	18017.82
796.535	17920.87
796.867	17948.89
797.198	17810.14
797.53	17837.71
797.862	17778.95
798.193	17820.08
798.525	17604.04
798.856	17691.5
799.188	17562.01
799.519	17588.22
799.85	17484.95
800.182	17465.97
800.513	17466.42
800.844	17362.24
801.175	17415.12
801.506	17408.12
801.837	17235.92
802.168	17213.54
802.499	17221.23
802.83	17134.22
803.161	17083.6
803.491	17207.89
803.822	17032.76
804.153	16970.39
804.483	16897.62
804.814	16864.4
805.145	16866.21
805.475	16856.72
805.805	16854.91
806.136	16805.87
806.466	16795.25
806.796	16751.41
807.126	16539.89
807.457	16505.31
807.787	16564.97
808.117	16521.13
808.447	16432.55
808.777	16528.14
809.107	16433.9
809.436	16440.46
809.766	16478.65
810.096	16351.42
810.426	16260.35
810.755	16229.62
811.085	16232.33
811.414	16257.19
811.744	16120.24
812.073	16117.08
812.403	16032.11
812.732	16047.02
813.061	16024.65
813.39	15877.99
813.719	15888.16
814.049	15960.92
814.378	15975.16
814.707	15888.83
815.036	15844.54
815.365	15740.14
815.693	15623.76
816.022	15660.59
816.351	15619.69
816.68	15617.65
817.008	15685
817.337	15495.62
817.665	15449.98
817.994	15445.23
818.322	15491.1
818.651	15378.79
818.979	15345.35
819.307	15436.19
819.636	15438
819.964	15296.53
820.292	15307.61
820.62	15276.65
820.948	15260.6
821.276	15215.63
821.604	15268.51
821.932	15277.78
822.259	15241.62
822.587	15283.88
822.915	15194.61
823.243	15263.99
823.57	15243.43
823.898	15257.89
824.225	15228.29
824.553	15184.67
824.88	15194.39
825.207	15235.29
825.535	15218.34
825.862	15216.76
826.189	15219.25
826.516	15284.56
826.843	15289.75
827.17	15306.93
827.497	15278.23
827.824	15291.11
828.151	15329.3
828.478	15280.04
828.805	15301.5
829.131	15155.97
829.458	15220.83
829.785	15208.85
830.111	15355.74
830.438	15311.22
830.764	15287.27
831.09	15200.26
831.417	15145.58
831.743	15258.57
832.069	15214.95
832.395	15141.73
832.722	15200.94
833.048	15150.77
833.374	15120.94
833.7	14995.3
834.026	15070.32
834.351	15113.94
834.677	15124.79
835.003	15108.06
835.329	15054.51
835.654	15123.43
835.98	15078.23
836.306	15076.2
836.631	14989.2
836.956	15075.52
837.282	15065.58
837.607	14939.48
837.932	14926.15
838.258	15032.13
838.583	14904.9
838.908	14902.19
839.233	14918.92
839.558	14753.95
839.883	14804.12
840.208	14714.85
840.533	14790.33
840.858	14768.64
841.182	14666.04
841.507	14746.72
841.832	14657.68
842.156	14644.57
842.481	14631.92
842.805	14555.31
843.13	14535.87
843.454	14458.59
843.778	14450
844.103	14346.95
844.427	14350.79
844.751	14419.27
845.075	14364.35
845.399	14363.68
845.723	14224.7
846.047	14220.85
846.371	14069.22
846.695	14011.14
847.019	14003.91
847.343	13974.76
847.666	13887.98
847.99	13819.28
848.313	13795.56
848.637	13710.36
848.96	13738.38
849.284	13646.63
849.607	13487.77
849.931	13470.82
850.254	13382.68
850.577	13456.36
850.9	13302.46
851.223	13316.47
851.546	13212.29
851.869	13155.57
852.192	13192.41
852.515	13110.6
852.838	13010.27
853.161	13002.58
853.483	12904.51
853.806	12870.61
854.129	12828.35
854.451	12870.83
854.774	12727.33
855.096	12757.16
855.419	12787.9
855.741	12681.01
856.063	12553.55
856.385	12623.83
856.708	12639.2
857.03	12532.76
857.352	12528.24
857.674	12390.17
857.996	12440.34
858.318	12335.48
858.64	12347.01
858.961	12319.44
859.283	12211.19
859.605	12201.47
859.926	12194.92
860.248	12135.49
860.57	12088.03
860.891	12135.03
861.212	12072.89
861.534	11961.25
861.855	12008.03
862.176	12032.66
862.498	12031.31
862.819	11990.18
863.14	11942.72
863.461	11993.12
863.782	11858.66
864.103	11891.42
864.424	11834.7
864.745	11851.2
865.065	11744.31
865.386	11751.09
865.707	11714.93
866.027	11750.64
866.348	11652.79
866.668	11725.1
866.989	11670.19
867.309	11560.81
867.63	11652.79
867.95	11645.33
868.27	11528.27
868.59	11563.52
868.91	11588.16
869.23	11541.15
869.55	11444.43
869.87	11501.6
870.19	11457.09
870.51	11463.64
870.83	11500.47
871.15	11347.48
871.469	11439.69
871.789	11360.14
872.109	11399.01
872.428	11312.91
872.748	11379.12
873.067	11329.63
873.386	11360.14
873.706	11260.25
874.025	11228.39
874.344	11217.77
874.663	11209.41
874.982	11195.85
875.301	11228.84
875.62	11047.83
875.939	11085.34
876.258	11163.53
876.577	11071.79
876.896	11048.28
877.214	11053.03
877.533	11078.56
877.852	10976.42
878.17	11062.29
878.489	11076.08
878.807	10990.43
879.125	10935.52
879.444	11002.18
879.762	10860.94
880.08	10903.65
880.398	10879.25
880.716	10906.14
881.034	10797.67
881.352	10860.94
881.67	10794.28
881.988	10745.24
882.306	10754.96
882.624	10715.64
882.941	10725.13
883.259	10650.55
883.577	10614.17
883.894	10592.02
884.212	10541.63
884.529	10620.5
884.846	10620.05
885.164	10572.82
885.481	10391.13
885.798	10498.92
886.115	10378.92
886.432	10420.5
886.75	10351.8
887.067	10368.53
887.383	10323.56
887.7	10358.81
888.017	10301.64
888.334	10321.52
888.651	10195.42
888.967	10234.07
889.284	10187.74
889.6	10198.81
889.917	10120.4
890.233	10054.18
890.55	10014.64
890.866	10023.23
891.182	10048.76
891.498	9989.55
891.815	9983.23
892.131	9910.01
892.447	9917.47
892.763	9865.26
893.079	9836.79
893.395	9818.26
893.71	9799.95
894.026	9759.96
894.342	9762.44
894.657	9658.94
894.973	9685.83
895.289	9655.78
895.604	9673.4
895.92	9553.18
896.235	9535.33
896.55	9569.45
896.865	9516.57
897.181	9518.83
897.496	9512.05
897.811	9392.51
898.126	9338.27
898.441	9351.15
898.756	9310.93
899.071	9195.9
899.386	9196.13
899.7	9172.85
900.015	9107.77
900.33	9042.46
900.644	9023.93
900.959	9025.96
901.273	8912.29
901.588	8944.61
901.902	8937.38
902.216	8900.77
902.531	8976.7
902.845	8868.45
903.159	8804.73
903.473	8751.62
903.787	8767.44
904.101	8675.46
904.415	8663.94
904.729	8654.67
905.042	8576.03
905.356	8586.2
905.67	8531.29
905.984	8528.35
906.297	8530.61
906.611	8383.95
906.924	8423.49
907.237	8330.39
907.551	8417.39
907.864	8240
908.177	8314.12
908.491	8271.41
908.804	8174.01
909.117	8207.23
909.43	8136.95
909.743	8044.97
910.056	8030.51
910.368	8047.01
910.681	8000.68
910.994	8014.92
911.307	7944.41
911.619	7844.3
911.932	7888.37
912.244	7814.7
912.557	7830.06
912.869	7736.28
913.181	7663.29
913.494	7725.66
913.806	7621.71
914.118	7676.39
914.43	7568.83
914.742	7594.14
915.054	7534.03
915.366	7551.2
915.678	7462.61
915.99	7454.25
916.302	7384.2
916.613	7386.91
916.925	7417.87
917.236	7305.33
917.548	7337.42
917.859	7347.14
918.171	7283.64
918.482	7237.08
918.794	7195.5
919.105	7200.93
919.416	7127.03
919.727	7102.17
920.038	7091.55
920.349	7013.36
920.66	6981.95
920.971	7071.66
921.282	6951.89
921.593	6912.57
921.903	6872.8
922.214	6843.87
922.525	6868.73
922.835	6846.81
923.146	6777.66
923.456	6788.06
923.767	6737.44
924.077	6748.28
924.387	6642.07
924.697	6599.59
925.008	6626.03
925.318	6579.02
925.628	6595.07
925.938	6538.35
926.248	6466.71
926.558	6443.66
926.867	6530.21
927.177	6446.82
927.487	6393.72
927.796	6389.2
928.106	6390.1
928.416	6324.34
928.725	6319.59
929.034	6296.54
929.344	6306.03
929.653	6264.23
929.962	6200.05
930.271	6231.23
930.581	6140.62
930.89	6133.38
931.199	6062.88
931.508	6038.92
931.817	6095.64
932.125	6059.94
932.434	5970.22
932.743	5991.01
933.051	5938.36
933.36	5902.88
933.669	5856.78
933.977	5896.1
934.286	5878.7
934.594	5840.51
934.902	5783.34
935.21	5763
935.519	5816.56
935.827	5687.75
936.135	5672.15
936.443	5658.14
936.751	5684.81
937.059	5623.79
937.367	5640.06
937.674	5600.29
937.982	5569.56
938.29	5565.26
938.597	5489.11
938.905	5454.31
939.213	5444.59
939.52	5428.54
939.827	5438.26
940.135	5398.94
940.442	5360.52
940.749	5343.12
941.056	5365.72
941.363	5324.37
941.67	5270.36
941.977	5266.06
942.284	5222.22
942.591	5270.81
942.898	5172.51
943.205	5184.03
943.511	5123.92
943.818	5124.6
944.125	5074.88
944.431	5053.19
944.738	5111.04
945.044	5082.34
945.35	5023.81
945.657	4994.88
945.963	4924.38
946.269	4949.69
946.575	4942.23
946.881	4893.19
947.187	4905.62
947.493	4855
947.799	4867.2
948.105	4816.81
948.41	4807.32
948.716	4793.08
949.022	4784.27
949.327	4727.32
949.633	4678.51
949.938	4746.53
950.244	4705.17
950.549	4644.16
950.854	4648.9
951.16	4590.6
951.465	4583.14
951.77	4578.85
952.075	4555.12
952.38	4493.65
952.685	4505.18
952.99	4531.62
953.294	4539.08
953.599	4465.18
953.904	4445.07
954.209	4429.93
954.513	4440.55
954.818	4348.35
955.122	4377.72
955.426	4339.53
955.731	4318.74
956.035	4298.86
956.339	4360.55
956.643	4308.57
956.948	4271.74
957.252	4199.42
957.556	4198.07
957.86	4200.55
958.163	4217.05
958.467	4185.41
958.771	4168.46
959.075	4132.08
959.378	4108.58
959.682	4142.02
959.985	4093.44
960.289	4057.73
960.592	4070.84
960.896	3999.43
961.199	4029.26
961.502	4017.28
961.805	3997.17
962.108	3970.05
962.411	3989.94
962.714	3891.86
963.017	3926.66
963.32	3898.64
963.623	3896.61
963.926	3854.8
964.228	3820
964.531	3830.39
964.833	3839.66
965.136	3826.1
965.438	3775.48
965.741	3723.96
966.043	3694.58
966.345	3729.61
966.648	3688.02
966.95	3699.32
967.252	3712.88
967.554	3625.43
967.856	3628.59
968.158	3622.94
968.46	3585.65
968.761	3590.17
969.063	3571.87
969.365	3575.71
969.666	3582.94
969.968	3523.74
970.269	3533
970.571	3536.39
970.872	3474.47
971.174	3448.03
971.475	3482.38
971.776	3442.61
972.077	3412.78
972.378	3407.13
972.679	3427.01
972.98	3382.95
973.281	3409.16
973.582	3344.98
973.883	3327.13
974.183	3345.43
974.484	3262.72
974.785	3270.63
975.085	3257.53
975.386	3309.5
975.686	3267.47
975.986	3250.75
976.287	3240.8
976.587	3209.39
976.887	3232.9
977.187	3210.52
977.487	3180.69
977.787	3153.58
978.087	3140.69
978.387	3102.73
978.687	3122.39
978.987	3095.05
979.286	3082.39
979.586	3076.74
979.885	3052.11
980.185	3045.33
980.484	3012.34
980.784	3039.68
981.083	2972.34
981.382	3027.02
981.682	2992.9
981.981	2974.37
982.28	2947.03
982.579	2945.22
982.878	2921.26
983.177	2958.55
983.475	2884.43
983.774	2886.46
984.073	2902.96
984.372	2861.83
984.67	2832
984.969	2813.47
985.267	2834.94
985.566	2842.17
985.864	2786.13
986.162	2787.03
986.461	2740.48
986.759	2745
987.057	2763.3
987.355	2716.3
987.653	2736.64
987.951	2713.13
988.249	2699.12
988.547	2669.29
988.844	2672.23
989.142	2645.79
989.44	2642.18
989.737	2623.65
990.035	2596.53
990.332	2624.78
990.63	2565.12
990.927	2603.08
991.224	2570.31
991.521	2577.32
991.819	2537.77
992.116	2547.26
992.413	2527.38
992.71	2504.1
993.006	2509.98
993.303	2470.66
993.6	2456.87
993.897	2488.06
994.193	2484.44
994.49	2454.38
994.787	2431.33
995.083	2431.79
995.379	2396.31
995.676	2378
995.972	2404.67
996.268	2384.56
996.565	2321.51
996.861	2347.04
997.157	2358.34
997.453	2340.26
997.749	2302.75
998.044	2255.97
998.34	2289.64
998.636	2260.04
998.932	2265.69
999.227	2234.5
999.523	2244.9
999.818	2237.67
1000.114	2222.3
1000.409	2220.49
1000.704	2195.63
1001	2166.71
1001.295	2183.43
1001.59	2156.31
1001.885	2144.11
1002.18	2125.81
1002.475	2170.1
1002.77	2144.79
1003.065	2109.99
1003.359	2120.61
1003.654	2106.37
1003.949	2072.25
1004.243	2067.05
1004.538	2076.32
1004.832	2048.97
1005.127	2036.54
1005.421	1992.7
1005.715	2004.23
1006.009	2018.92
1006.304	1989.31
1006.598	1995.19
1006.892	1976.66
1007.186	1936.43
1007.48	1944.57
1007.773	1918.81
1008.067	1902.08
1008.361	1895.76
1008.655	1879.26
1008.948	1908.18
1009.242	1877.9
1009.535	1846.04
1009.829	1879.26
1010.122	1837.9
1010.415	1820.95
1010.708	1816.44
1011.001	1798.36
1011.295	1826.38
1011.588	1793.39
1011.881	1796.77
1012.173	1743.89
1012.466	1737.12
1012.759	1753.61
1013.052	1735.31
1013.344	1726.04
1013.637	1710
1013.93	1682.88
1014.222	1693.73
1014.514	1700.96
1014.807	1676.1
1015.099	1688.08
1015.391	1663.22
1015.683	1639.72
1015.976	1661.86
1016.268	1640.85
1016.56	1635.65
1016.851	1595.42
1017.143	1572.15
1017.435	1570.11
1017.727	1587.06
1018.018	1573.5
1018.31	1537.57
1018.602	1543.9
1018.893	1532.6
1019.185	1521.75
1019.476	1501.64
1019.767	1502.32
1020.058	1495.09
1020.35	1505.26
1020.641	1456.67
1020.932	1486.27
1021.223	1460.51
1021.514	1464.81
1021.804	1441.76
1022.095	1397.92
1022.386	1428.87
1022.677	1406.05
1022.967	1413.06
1023.258	1404.02
1023.548	1396.33
1023.839	1380.06
1024.129	1368.54
1024.419	1360.18
1024.709	1350.68
1025	1334.19
1025.29	1340.52
1025.58	1346.17
1025.87	1303.91
1026.16	1303.68
1026.449	1303.68
1026.739	1292.38
1027.029	1263.91
1027.319	1283.57
1027.608	1262.55
1027.898	1244.92
1028.187	1223.46
1028.477	1246.05
1028.766	1227.07
1029.055	1245.83
1029.344	1222.1
1029.634	1195.21
1029.923	1210.35
1030.212	1173.06
1030.501	1172.38
1030.79	1159.5
1031.078	1146.85
1031.367	1157.24
1031.656	1156.57
1031.945	1166.28
1032.233	1117.02
1032.522	1116.79
1032.81	1121.99
1033.099	1133.97
1033.387	1111.6
1033.675	1087.87
1033.963	1095.78
1034.251	1095.78
1034.54	1093.06
1034.828	1058.49
1035.116	1070.24
1035.403	1061.65
1035.691	1051.94
1035.979	1023.69
1036.267	1037.25
1036.554	1025.5
1036.842	1024.59
1037.129	1007.42
1037.417	1001.77
1037.704	996.57
1037.992	1005.16
1038.279	980.53
1038.566	984.59
1038.853	984.59
1039.14	984.59
