Data from hue_200_FLMS001491_00087.txt Node
Date: Tue Feb 07 16:44:04 GMT 2017
User: dcchb
Spectrometer: FLMS00149
Trigger mode: 0
Integration Time (sec): 2.000000E-2
Scans to average: 10
Electric dark correction enabled: true
Nonlinearity correction enabled: false
Boxcar width: 0
XAxis mode: Wavelengths
Number of Pixels in Spectrum: 2048
>>>>>Begin Spectral Data<<<<<
341.393	1.43
341.776	1.43
342.16	1.43
342.543	-59.14
342.927	-53.94
343.31	-70.44
343.693	-67.72
344.077	-80.61
344.46	-61.85
344.843	-58.91
345.226	-43.54
345.61	-27.05
345.993	-22.98
346.376	7.3
346.759	7.75
347.142	22.44
347.525	41.88
347.908	65.38
348.291	75.1
348.674	89.56
349.057	123.68
349.44	131.59
349.823	150.8
350.206	167.75
350.588	195.09
350.971	211.59
351.354	241.87
351.737	254.08
352.119	254.08
352.502	263.11
352.884	288.42
353.267	283.23
353.65	308.31
354.032	300.63
354.414	290.46
354.797	325.26
355.179	323.68
355.562	313.51
355.944	326.62
356.326	326.62
356.709	342.43
357.091	337.46
357.473	332.72
357.855	349.89
358.238	337.91
358.62	336.11
359.002	355.54
359.384	338.82
359.766	348.08
360.148	347.41
360.53	345.82
360.912	334.98
361.294	353.51
361.676	313.96
362.057	357.12
362.439	325.03
362.821	343.11
363.203	321.19
363.584	338.14
363.966	309.22
364.348	323.23
364.729	316.67
365.111	331.81
365.493	297.46
365.874	324.81
366.256	313.51
366.637	317.8
367.019	308.99
367.4	327.07
367.781	333.17
368.163	294.53
368.544	315.54
368.925	327.07
369.306	331.81
369.688	305.83
370.069	322.55
370.45	335.88
370.831	315.09
371.212	312.15
371.593	326.62
371.974	304.24
372.355	312.83
372.736	314.86
373.117	346.95
373.498	316.45
373.879	325.03
374.26	320.97
374.641	313.06
375.021	307.41
375.402	323.23
375.783	344.92
376.163	333.17
376.544	342.66
376.925	331.14
377.305	327.52
377.686	320.74
378.066	331.59
378.447	326.39
378.827	343.11
379.208	337.01
379.588	328.2
379.968	334.3
380.349	355.32
380.729	337.91
381.109	351.25
381.489	361.87
381.87	335.88
382.25	346.95
382.63	354.19
383.01	356.45
383.39	343.11
383.77	342.66
384.15	339.72
384.53	354.86
384.91	366.61
385.29	370.46
385.67	360.51
386.049	362.77
386.429	376.11
386.809	344.24
387.189	353.73
387.568	346.28
387.948	358.93
388.328	378.59
388.707	378.59
389.087	357.35
389.466	370.91
389.846	374.52
390.225	390.79
390.605	379.95
390.984	374.75
391.363	383.11
391.743	388.53
392.122	362.77
392.501	377.91
392.881	358.93
393.26	382.89
393.639	384.24
394.018	397.57
394.397	391.7
394.776	404.35
395.155	403.22
395.534	393.28
395.913	397.8
396.292	391.7
396.671	415.88
397.05	411.59
397.429	405.26
397.808	404.13
398.186	398.25
398.565	403.68
398.944	402.32
399.323	403
399.701	423.11
400.08	428.53
400.458	412.04
400.837	421.08
401.215	429.66
401.594	425.14
401.972	460.62
402.351	432.38
402.729	442.77
403.107	429.66
403.486	440.06
403.864	458.14
404.242	439.61
404.62	473.05
404.999	488.65
405.377	478.48
405.755	469.21
406.133	473.73
406.511	479.83
406.889	494.29
407.267	496.33
407.645	488.87
408.023	488.65
408.401	517.57
408.779	493.16
409.156	525.03
409.534	533.16
409.912	534.29
410.29	554.41
410.667	556.44
411.045	576.78
411.422	544.01
411.8	579.49
412.178	571.36
412.555	612.94
412.933	618.81
413.31	613.16
413.687	617
414.065	633.05
414.442	646.38
414.819	651.35
415.197	684.57
415.574	678.47
415.951	685.25
416.328	682.31
416.705	673.05
417.082	699.94
417.46	711.24
417.837	736.1
418.214	732.71
418.591	733.16
418.967	752.37
419.344	779.71
419.721	793.27
420.098	772.48
420.475	818.13
420.852	812.48
421.228	840.27
421.605	816.55
421.982	851.12
422.358	869.43
422.735	886.15
423.111	893.15
423.488	894.96
423.864	921.18
424.241	941.97
424.617	991.68
424.994	973.15
425.37	1013.6
425.746	1004.79
426.123	1017.22
426.499	1050.21
426.875	1009.99
427.251	1066.26
427.627	1078.91
428.003	1089.76
428.379	1114.39
428.756	1112.81
429.132	1128.85
429.507	1148.06
429.883	1169.08
430.259	1175.86
430.635	1183.54
431.011	1199.59
431.387	1223.54
431.763	1245.46
432.138	1275.29
432.514	1294.05
432.89	1307.61
433.265	1329.75
433.641	1375.63
434.016	1378.11
434.392	1414.5
434.767	1426.93
435.143	1458.79
435.518	1492.23
435.894	1488.62
436.269	1522.06
436.644	1550.09
437.02	1582.85
437.395	1613.36
437.77	1627.37
438.145	1658.11
438.52	1689.07
438.895	1723.64
439.271	1712.79
439.646	1773.81
440.021	1818.33
440.395	1808.61
440.77	1811.55
441.145	1843.41
441.52	1932.45
441.895	1907.59
442.27	1934.93
442.645	1947.82
443.019	1990.3
443.394	1966.35
443.769	2000.47
444.143	2004.31
444.518	2067.36
444.892	2092.22
445.267	2088.38
445.641	2128.83
446.016	2126.12
446.39	2158.88
446.764	2174.7
447.139	2192.56
447.513	2205.66
447.887	2248.37
448.262	2260.12
448.636	2212.89
449.01	2275.94
449.384	2301.25
449.758	2317.3
450.132	2346
450.506	2361.36
450.88	2404.53
451.254	2393.68
451.628	2378.99
452.002	2447.69
452.376	2468.25
452.75	2510.51
453.123	2546.44
453.497	2552.77
453.871	2568.14
454.244	2634.58
454.618	2646.33
454.992	2685.88
455.365	2665.31
455.739	2786.21
456.112	2730.39
456.486	2818.3
456.859	2797.74
457.232	2872.76
457.606	2867.34
457.979	2910.73
458.352	2946.89
458.725	2997.51
459.099	3011.52
459.472	3077.73
459.845	3099.2
460.218	3177.16
460.591	3146.65
460.964	3193.21
461.337	3256.71
461.71	3294.45
462.083	3372.86
462.456	3334.22
462.829	3337.38
463.201	3438.4
463.574	3441.79
463.947	3465.06
464.32	3538.28
464.692	3575.8
465.065	3583.93
465.438	3635.23
465.81	3697.37
466.183	3731.05
466.555	3815.56
466.928	3816.47
467.3	3814.21
467.672	3904.37
468.045	3990.93
468.417	4032.73
468.789	4058.49
469.161	4093.07
469.534	4139.62
469.906	4260.75
470.278	4254.65
470.65	4284.93
471.022	4376.9
471.394	4437.92
471.766	4484.02
472.138	4547.07
472.51	4648.54
472.882	4660.97
473.253	4727.63
473.625	4752.71
473.997	4870.45
474.369	4889.21
474.74	4977.57
475.112	5010.33
475.484	5129.88
475.855	5194.28
476.227	5273.15
476.598	5357.9
476.97	5418.23
477.341	5522.64
477.713	5574.84
478.084	5658.9
478.455	5734.38
478.827	5775.06
479.198	5924.89
479.569	5931.89
479.94	6146.12
480.311	6177.76
480.682	6296.85
481.053	6399.22
481.424	6519.45
481.795	6563.74
482.166	6633.79
482.537	6736.39
482.908	6863.39
483.279	6913.56
483.65	6992.66
484.021	7116.95
484.391	7165.31
484.762	7276.49
485.133	7323.04
485.503	7448.91
485.874	7543.38
486.244	7608.23
486.615	7762.8
486.985	7793.76
487.356	7908.34
487.726	8011.61
488.097	8153.98
488.467	8152.85
488.837	8311.49
489.207	8399.4
489.578	8461.32
489.948	8568.21
490.318	8728.43
490.688	8675.55
491.058	8832.38
491.428	8922.32
491.798	8940.85
492.168	9137.91
492.538	9085.48
492.908	9224.69
493.278	9306.04
493.648	9267.85
494.017	9455.87
494.387	9507.17
494.757	9586.49
495.126	9711.91
495.496	9665.81
495.866	9747.84
496.235	9781.51
496.605	9858.34
496.974	9859.47
497.344	9937.89
497.713	9977.44
498.082	10062.63
498.452	10183.31
498.821	10120.48
499.19	10184.89
499.559	10246.58
499.928	10300.82
500.298	10335.17
500.667	10363.64
501.036	10425.11
501.405	10452.23
501.774	10448.84
502.143	10479.57
502.512	10520.02
502.88	10492.45
503.249	10644.08
503.618	10617.64
503.987	10666.46
504.356	10735.16
504.724	10765.44
505.093	10766.34
505.462	10785.32
505.83	10802.72
506.199	10803.18
506.567	10973.79
506.936	10998.88
507.304	11037.29
507.672	11041.59
508.041	11045.2
508.409	11039.55
508.777	11166.78
509.145	11151.42
509.514	11139.66
509.882	11195.03
510.25	11159.33
510.618	11240.9
510.986	11227.57
511.354	11224.18
511.722	11365.65
512.09	11393.22
512.458	11305.31
512.826	11404.97
513.193	11398.19
513.561	11415.82
513.929	11491.07
514.297	11490.16
514.664	11498.07
515.032	11498.98
515.4	11528.36
515.767	11567.22
516.135	11595.92
516.502	11498.98
516.869	11614.23
517.237	11595.7
517.604	11564.29
517.972	11631.18
518.339	11648.35
518.706	11602.48
519.073	11659.43
519.44	11676.83
519.808	11689.25
520.175	11666.43
520.542	11756.82
520.909	11801.79
521.276	11733.1
521.643	11829.14
522.009	11759.99
522.376	11780.78
522.743	11818.06
523.11	11835.92
523.477	11888.8
523.843	11873.2
524.21	11969.25
524.577	12016.48
524.943	11941.9
525.31	11929.02
525.676	12032.52
526.043	11919.98
526.409	12021.22
526.776	12076.82
527.142	11986.42
527.508	12025.07
527.874	11975.8
528.241	12013.54
528.607	11948.68
528.973	12024.16
529.339	11981.9
529.705	11965.41
530.071	12023.48
530.437	12065.97
530.803	11972.41
531.169	11954.11
531.535	11907.1
531.901	11859.65
532.267	11959.08
532.632	11908.68
532.998	11831.62
533.364	11764.73
533.73	11834.56
534.095	11786.65
534.461	11774.22
534.826	11805.41
535.192	11744.85
535.557	11723.83
535.923	11727.9
536.288	11626.88
536.653	11647.67
537.019	11601.12
537.384	11570.39
537.749	11561.8
538.114	11454.46
538.479	11439.32
538.845	11474.35
539.21	11290.85
539.575	11252.43
539.94	11298.53
540.305	11235.03
540.67	11197.74
541.034	11205.65
541.399	11122.04
541.764	11104.86
542.129	11077.52
542.494	11045.66
542.858	11087.01
543.223	10930.63
543.587	10986.67
543.952	10876.39
544.316	10826
544.681	10841.59
545.045	10804.53
545.41	10747.81
545.774	10623.07
546.138	10528.38
546.503	10630.3
546.867	10586.23
547.231	10590.07
547.595	10548.72
547.959	10453.13
548.324	10397.31
548.688	10392.11
549.052	10359.35
549.416	10316.64
549.779	10273.47
550.143	10249.52
550.507	10237.09
550.871	10136.98
551.235	10131.78
551.599	10168.16
551.962	10075.74
552.326	10042.97
552.689	10010.65
553.053	9895.86
553.417	9897.66
553.78	9981.05
554.143	9891.34
554.507	9894.5
554.87	9791.23
555.234	9783.09
555.597	9777.21
555.96	9789.87
556.323	9735.18
556.686	9753.26
557.05	9751.45
557.413	9700.83
557.776	9628.52
558.139	9649.08
558.502	9659.93
558.865	9621.06
559.228	9579.71
559.59	9583.77
559.953	9589.2
560.316	9616.31
560.679	9534.96
561.041	9569.99
561.404	9608.63
561.767	9628.52
562.129	9473.72
562.492	9575.41
562.854	9514.85
563.217	9503.78
563.579	9424.23
563.941	9536.09
564.304	9533.38
564.666	9545.58
565.028	9528.41
565.39	9441.63
565.753	9447.51
566.115	9534.51
566.477	9514.62
566.839	9501.06
567.201	9570.67
567.563	9494.28
567.925	9539.93
568.287	9508.52
568.648	9517.56
569.01	9537.67
569.372	9604.79
569.734	9547.39
570.095	9632.81
570.457	9613.6
570.819	9522.76
571.18	9614.96
571.542	9591.46
571.903	9603.89
572.265	9610.89
572.626	9603.21
572.987	9598.91
573.349	9627.39
573.71	9621.51
574.071	9626.71
574.432	9601.85
574.794	9637.56
575.155	9716.88
575.516	9577.22
575.877	9648.63
576.238	9585.58
576.599	9687.73
576.96	9666.26
577.32	9607.95
577.681	9578.58
578.042	9638.91
578.403	9664.68
578.763	9588.75
579.124	9651.57
579.485	9664.9
579.845	9722.07
580.206	9628.74
580.566	9682.98
580.927	9660.38
581.287	9632.13
581.648	9650.21
582.008	9685.01
582.368	9654.73
582.728	9627.61
583.089	9699.93
583.449	9723.88
583.809	9697.22
584.169	9638.46
584.529	9659.25
584.889	9663.55
585.249	9586.94
585.609	9568.86
585.969	9655.64
586.329	9630.33
586.688	9588.75
587.048	9659.93
587.408	9632.59
587.768	9559.14
588.127	9529.99
588.487	9592.13
588.846	9658.8
589.206	9553.94
589.565	9503.78
589.925	9597.33
590.284	9569.99
590.643	9626.94
591.003	9571.34
591.362	9563.66
591.721	9560.95
592.08	9557.33
592.44	9505.36
592.799	9536.77
593.158	9518.01
593.517	9555.98
593.876	9557.11
594.235	9516.66
594.593	9533.38
594.952	9506.49
595.311	9505.36
595.67	9468.52
596.029	9525.47
596.387	9496.54
596.746	9620.83
597.104	9521.63
597.463	9512.81
597.822	9502.65
598.18	9528.63
598.538	9420.61
598.897	9505.13
599.255	9395.98
599.613	9538.8
599.972	9492.25
600.33	9540.61
600.688	9445.47
601.046	9491.35
601.404	9529.76
601.762	9458.8
602.12	9536.99
602.478	9527.05
602.836	9493.15
603.194	9467.84
603.552	9471.69
603.91	9466.04
604.268	9471.23
604.625	9391.91
604.983	9464.91
605.341	9380.61
605.698	9466.71
606.056	9439.14
606.413	9412.25
606.771	9478.01
607.128	9429.65
607.485	9436.43
607.843	9430.11
608.2	9498.58
608.557	9511.91
608.914	9508.07
609.272	9545.13
609.629	9520.95
609.986	9620.61
610.343	9462.42
610.7	9635.52
611.057	9568.63
611.414	9528.18
611.771	9537.45
612.127	9600.5
612.484	9569.31
612.841	9581.06
613.198	9588.75
613.554	9586.03
613.911	9565.92
614.267	9654.96
614.624	9564.56
614.98	9569.99
615.337	9637.56
615.693	9703.77
616.05	9652.02
616.406	9734.5
616.762	9629.42
617.118	9654.05
617.475	9655.41
617.831	9716.43
618.187	9652.7
618.543	9643.43
618.899	9709.65
619.255	9745.58
619.611	9679.36
619.967	9717.56
620.323	9722.75
620.678	9642.53
621.034	9699.7
621.39	9624.68
621.746	9677.78
622.101	9737.89
622.457	9750.55
622.812	9703.32
623.168	9694.96
623.523	9729.98
623.879	9743.32
624.234	9649.31
624.589	9722.53
624.945	9758.23
625.3	9728.18
625.655	9703.09
626.01	9693.83
626.365	9708.52
626.72	9685.69
627.075	9652.92
627.43	9685.01
627.785	9647.95
628.14	9711.68
628.495	9689.53
628.85	9710.78
629.205	9662.64
629.559	9697.89
629.914	9713.49
630.269	9704.45
630.623	9655.18
630.978	9650.89
631.332	9635.3
631.687	9581.06
632.041	9601.17
632.396	9591.46
632.75	9536.99
633.104	9591.46
633.459	9473.27
633.813	9523.21
634.167	9529.99
634.521	9495.64
634.875	9499.26
635.229	9495.41
635.583	9442.31
635.937	9440.73
636.291	9428.52
636.645	9467.39
636.999	9337.9
637.352	9449.99
637.706	9326.83
638.06	9306.27
638.413	9393.95
638.767	9323.44
639.121	9339.94
639.474	9306.49
639.828	9336.32
640.181	9352.59
640.534	9270.11
640.888	9287.74
641.241	9248.42
641.594	9279.15
641.947	9292.48
642.301	9234.86
642.654	9245.48
643.007	9268.75
643.36	9301.97
643.713	9248.87
644.066	9264.91
644.419	9235.76
644.771	9125.48
645.124	9151.69
645.477	9074.18
645.83	9010
646.182	8989.21
646.535	8961.42
646.888	8976.33
647.24	8935.2
647.593	9000.74
647.945	8994.18
648.298	8918.48
648.65	8869.22
649.002	8871.93
649.355	8982.89
649.707	8874.19
650.059	8899.72
650.411	9012.04
650.763	9102.88
651.115	9205.03
651.467	9156.21
651.819	9139.04
652.171	9172.03
652.523	9052.94
652.875	9119.6
653.227	9079.83
653.578	9089.32
653.93	9158.02
654.282	9091.58
654.633	9086.61
654.985	9077.57
655.337	9142.88
655.688	9122.32
656.039	9152.37
656.391	9100.85
656.742	9130.9
657.094	9089.78
657.445	9184.46
657.796	9051.81
658.147	9079.38
658.498	9059.72
658.849	9166.16
659.2	9081.87
659.551	9134.29
659.902	9093.16
660.253	9101.07
660.604	9140.62
660.955	9114.86
661.306	9091.13
661.656	9151.47
662.007	9190.34
662.358	9123.9
662.708	9161.41
663.059	9188.76
663.409	9079.61
663.76	9137.68
664.11	9202.99
664.461	9205.7
664.811	9149.89
665.161	9167.74
665.511	9233.27
665.862	9097.68
666.212	9239.15
666.562	9188.53
666.912	9184.24
667.262	9208.42
667.612	9189.21
667.962	9226.72
668.312	9094.97
668.662	9203.9
669.011	9159.15
669.361	9192.6
669.711	9170.45
670.06	9180.62
670.41	9143.33
670.76	9086.61
671.109	9173.61
671.459	9139.49
671.808	9141.75
672.157	9141.07
672.507	9037.57
672.856	9118.93
673.205	9066.05
673.554	9099.72
673.904	9085.03
674.253	9100.85
674.602	9114.18
674.951	8926.84
675.3	8966.84
675.649	9025.37
675.998	9033.51
676.346	9062.66
676.695	9087.06
677.044	8987.4
677.393	9006.39
677.741	8983.56
678.09	9011.81
678.438	8906.73
678.787	8954.64
679.135	8923
679.484	8903.34
679.832	8869.89
680.181	8839.39
680.529	8947.86
680.877	8868.09
681.225	8813.62
681.573	8984.24
681.922	8826.51
682.27	8755.55
682.618	8821.08
682.966	8731.82
683.314	8779.73
683.661	8722.1
684.009	8669.67
684.357	8691.14
684.705	8645.27
685.053	8751.25
685.4	8632.61
685.748	8572.05
686.095	8691.14
686.443	8606.4
686.79	8556
687.138	8575.89
687.485	8577.7
687.832	8494.76
688.18	8474.2
688.527	8493.41
688.874	8456.35
689.221	8424.93
689.568	8406.18
689.915	8371.6
690.262	8405.73
690.609	8382.9
690.956	8320.98
691.303	8313.52
691.65	8250.48
691.997	8319.4
692.344	8220.87
692.69	8182.68
693.037	8167.31
693.383	8139.07
693.73	8141.78
694.077	8020.2
694.423	8055.23
694.769	7988.11
695.116	8023.59
695.462	7936.36
695.808	8004.38
696.155	7999.18
696.501	7953.31
696.847	7835.8
697.193	7831.28
697.539	7856.36
697.885	7822.92
698.231	7793.99
698.577	7767.1
698.923	7685.29
699.269	7737.27
699.614	7670.6
699.96	7673.09
700.306	7576.37
700.651	7576.59
700.997	7531.62
701.342	7469.03
701.688	7467.67
702.033	7525.52
702.379	7426.77
702.724	7389.03
703.069	7399.65
703.415	7302.93
703.76	7312.87
704.105	7306.77
704.45	7333.21
704.795	7248.02
705.14	7253.44
705.485	7169.37
705.83	7170.73
706.175	7189.71
706.52	7093.9
706.865	7122.82
707.209	7181.58
707.554	7091.86
707.899	7080.11
708.243	7010.06
708.588	6972.99
708.932	6992.2
709.277	6930.06
709.621	6984.07
709.966	6915.82
710.31	6913.79
710.654	6834.02
710.998	6899.78
711.342	6935.26
711.687	6841.7
712.031	6786.33
712.375	6767.12
712.719	6834.69
713.063	6781.59
713.407	6737.52
713.75	6799.44
714.094	6756.96
714.438	6738.42
714.782	6754.7
715.125	6724.64
715.469	6748.14
715.812	6671.76
716.156	6667.01
716.499	6691.65
716.843	6668.37
717.186	6657.75
717.53	6689.16
717.873	6606
718.216	6606.45
718.559	6556.06
718.902	6543.85
719.246	6592.89
719.589	6534.59
719.932	6542.72
720.275	6574.59
720.617	6568.71
720.96	6547.02
721.303	6510.18
721.646	6568.26
721.989	6513.35
722.331	6480.8
722.674	6531.65
723.016	6475.15
723.359	6443.52
723.701	6548.37
724.044	6448.71
724.386	6433.57
724.729	6448.49
725.071	6450.75
725.413	6429.28
725.755	6483.74
726.097	6422.27
726.439	6399.68
726.782	6377.3
727.124	6437.64
727.465	6378.89
727.807	6403.29
728.149	6383.41
728.491	6386.57
728.833	6394.25
729.175	6412.56
729.516	6396.96
729.858	6422.05
730.199	6371.88
730.541	6392.9
730.882	6342.28
731.224	6386.34
731.565	6339.11
731.906	6392.22
732.248	6367.36
732.589	6387.93
732.93	6358.1
733.271	6337.53
733.612	6369.17
733.953	6422.73
734.294	6350.86
734.635	6358.77
734.976	6421.14
735.317	6370.3
735.658	6368.26
735.999	6362.84
736.339	6385.89
736.68	6356.74
737.021	6333.46
737.361	6404.2
737.702	6423.4
738.042	6387.25
738.383	6360.36
738.723	6414.37
739.063	6348.38
739.404	6437.64
739.744	6462.27
740.084	6446
740.424	6483.29
740.764	6453.69
741.104	6480.58
741.444	6491.2
741.784	6410.98
742.124	6544.08
742.464	6523.97
742.804	6543.18
743.143	6577.07
743.483	6539.56
743.823	6617.98
744.162	6585.89
744.502	6659.78
744.841	6661.82
745.181	6671.76
745.52	6718.09
745.86	6755.15
746.199	6766.45
746.538	6796.73
746.877	6873.11
747.216	6851.87
747.556	6920.11
747.895	6947.68
748.234	7048.47
748.573	7044.63
748.911	7055.93
749.25	7162.59
749.589	7247.11
749.928	7293.66
750.267	7362.36
750.605	7410.95
750.944	7458.18
751.283	7497.5
751.621	7657.95
751.96	7669.93
752.298	7795.12
752.636	7857.04
752.975	7940.2
753.313	8044.83
753.651	8251.38
753.989	8270.59
754.327	8419.74
754.666	8496.12
755.004	8627.19
755.342	8748.77
755.679	8833.74
756.017	8973.62
756.355	9109.21
756.693	9214.97
757.031	9438.01
757.368	9541.97
757.706	9687.5
758.044	9804.78
758.381	10008.85
758.719	10194.15
759.056	10341.27
759.394	10422.17
759.731	10604.76
760.068	10786.91
760.405	10960.23
760.743	11118.2
761.08	11283.16
761.417	11491.29
761.754	11637.96
762.091	11830.95
762.428	11891.74
762.765	12113.65
763.102	12411.04
763.438	12449.69
763.775	12614.2
764.112	12955.89
764.449	13097.35
764.785	13255.09
765.122	13387.52
765.458	13481.98
765.795	13644.46
766.131	13865.02
766.467	14010.1
766.804	14225.46
767.14	14286.02
767.476	14561.95
767.812	14678.78
768.148	14898.21
768.485	14897.76
768.821	15070.86
769.157	15211.87
769.492	15361.47
769.828	15596.04
770.164	15587.68
770.5	15678.98
770.836	15883.72
771.171	15933.89
771.507	16168.01
771.842	16137.95
772.178	16365.29
772.513	16465.63
772.849	16493.2
773.184	16529.13
773.519	16655.23
773.855	16712.17
774.19	16820.19
774.525	16894.32
774.86	17072.16
775.195	17067.64
775.53	17162.78
775.865	17191.48
776.2	17202.1
776.535	17175.21
776.87	17398.03
777.205	17401.19
777.539	17444.36
777.874	17593.96
778.209	17457.01
778.543	17562.55
778.878	17515.54
779.212	17650.91
779.547	17626.05
779.881	17748.53
780.215	17731.58
780.55	17829.43
780.884	17765.25
781.218	17735.42
781.552	17872.14
781.886	17788.53
782.22	17904.46
782.554	17919.83
782.888	17737.91
783.222	17675.54
783.556	17716.89
783.889	17789.21
784.223	17669.21
784.557	17723.22
784.89	17767.06
785.224	17748.53
785.557	17725.48
785.891	17762.99
786.224	17714.63
786.558	17789.89
786.891	17685.26
787.224	17673.5
787.557	17698.81
787.891	17762.32
788.224	17695.88
788.557	17826.72
788.89	17846.16
789.223	17730
789.556	17639.38
789.888	17673.96
790.221	17597.35
790.554	17550.57
790.887	17613.17
791.219	17527.97
791.552	17513.28
791.884	17384.47
792.217	17494.75
792.549	17447.97
792.882	17457.69
793.214	17312.16
793.546	17380.86
793.879	17210.24
794.211	17164.82
794.543	17328.43
794.875	17227.87
795.207	17297.92
795.539	17255.89
795.871	17145.83
796.203	17037.14
796.535	17110.81
796.867	16980.19
797.198	17021.54
797.53	16943.58
797.862	16913.75
798.193	16926.41
798.525	16807.99
798.856	16909.68
799.188	16666.3
799.519	16644.38
799.85	16502.01
800.182	16589.46
800.513	16609.35
800.844	16421.11
801.175	16585.62
801.506	16612.52
801.837	16548.79
802.168	16493.2
802.499	16375.01
802.83	16238.51
803.161	16301.79
803.491	16315.57
803.822	16380.2
804.153	16227.21
804.483	16114.22
804.814	16066.54
805.145	16081.46
805.475	16083.04
805.805	16022.7
806.136	16033.55
806.466	16059.99
806.796	16036.71
807.126	15957.62
807.457	15909.26
807.787	15911.29
808.117	15876.26
808.447	15799.66
808.777	15783.61
809.107	15788.36
809.436	15678.53
809.766	15640.56
810.096	15612.09
810.426	15589.49
810.755	15564.18
811.085	15508.14
811.414	15541.36
811.744	15453.45
812.073	15404.86
812.403	15375.71
812.732	15317.63
813.061	15334.36
813.39	15306.33
813.719	15300.46
814.049	15313.11
814.378	15269.27
814.707	15197.19
815.036	15189.05
815.365	15091.65
815.693	14971.65
816.022	15035.38
816.351	14936.4
816.68	15018.43
817.008	14977.08
817.337	14940.24
817.665	14847.59
817.994	14876.52
818.322	14952.9
818.651	14846.01
818.979	14834.48
819.307	14860.92
819.636	14834.71
819.964	14684.66
820.292	14869.74
820.62	14687.37
820.948	14688.5
821.276	14757.2
821.604	14727.82
821.932	14714.49
822.259	14776.86
822.587	14733.24
822.915	14593.13
823.243	14747.25
823.57	14639.01
823.898	14669.74
824.225	14671.78
824.553	14690.08
824.88	14668.16
825.207	14745.22
825.535	14695.73
825.862	14781.83
826.189	14697.09
826.516	14713.58
826.843	14672.23
827.17	14698.67
827.497	14760.59
827.824	14738.21
828.151	14730.3
828.478	14735.5
828.805	14834.26
829.131	14729.4
829.458	14779.57
829.785	14702.51
830.111	14749.29
830.438	14747.48
830.764	14773.24
831.09	14707.71
831.417	14690.31
831.743	14818.66
832.069	14733.47
832.395	14642.17
832.722	14720.36
833.048	14741.6
833.374	14739.34
833.7	14603.75
834.026	14754.26
834.351	14672.45
834.677	14619.35
835.003	14700.25
835.329	14616.64
835.654	14582.51
835.98	14573.47
836.306	14620.25
836.631	14568.05
836.956	14599.69
837.282	14532.57
837.607	14415.06
837.932	14475.85
838.258	14461.16
838.583	14439.69
838.908	14378.68
839.233	14364.89
839.558	14298.23
839.883	14300.49
840.208	14288.51
840.533	14299.36
840.858	14255.51
841.182	14252.8
841.507	14166.93
841.832	14195.18
842.156	14163.09
842.481	14104.78
842.805	14168.51
843.13	14056.42
843.454	14068.85
843.778	13959.93
844.103	13986.14
844.427	13924.22
844.751	13952.92
845.075	13860.95
845.399	13832.02
845.723	13665.93
846.047	13737.56
846.371	13586.61
846.695	13630.9
847.019	13563.56
847.343	13486.72
847.666	13328.76
847.99	13431.81
848.313	13386.39
848.637	13295.09
848.96	13358.59
849.284	13277.24
849.607	13152.04
849.931	13040.63
850.254	13017.13
850.577	12990.69
850.9	12889
851.223	12870.47
851.546	12856.68
851.869	12725.84
852.192	12821.88
852.515	12660.53
852.838	12666.4
853.161	12626.18
853.483	12529.46
853.806	12523.36
854.129	12471.16
854.451	12524.04
854.774	12372.85
855.096	12303.25
855.419	12373.98
855.741	12374.21
856.063	12242.46
856.385	12164.5
856.708	12199.75
857.03	12120.2
857.352	12144.61
857.674	12090.15
857.996	12013.99
858.318	11956.59
858.64	12018.96
858.961	11925.63
859.283	11846.31
859.605	11823.49
859.926	11879.76
860.248	11808.12
860.57	11795.47
860.891	11821
861.212	11744.39
861.534	11627.34
861.855	11630.5
862.176	11727.9
862.498	11640.44
862.819	11637.28
863.14	11649.71
863.461	11539.43
863.782	11522.03
864.103	11495.14
864.424	11421.24
864.745	11457.62
865.065	11415.36
865.386	11412.2
865.707	11324.74
866.027	11398.41
866.348	11334.91
866.668	11267.34
866.989	11339.66
867.309	11244.29
867.63	11358.42
867.95	11251.75
868.27	11158.2
868.59	11183.51
868.91	11245.2
869.23	11185.99
869.55	11084.98
869.87	11251.3
870.19	11161.81
870.51	11089.72
870.83	11225.99
871.15	11059.67
871.469	11084.75
871.789	11085.2
872.109	11034.13
872.428	11019.89
872.748	11059.21
873.067	10964.98
873.386	11031.64
873.706	10961.14
874.025	10927.24
874.344	10855.6
874.663	10902.16
874.982	10917.98
875.301	10857.86
875.62	10864.87
875.939	10829.39
876.258	10841.59
876.577	10760.01
876.896	10766.12
877.214	10728.6
877.533	10666.68
877.852	10662.39
878.17	10762.73
878.489	10751.88
878.807	10679.79
879.125	10612.9
879.444	10650.86
879.762	10658.1
880.08	10640.24
880.398	10583.3
880.716	10604.09
881.034	10503.52
881.352	10600.7
881.67	10534.71
881.988	10436.18
882.306	10412.9
882.624	10429.85
882.941	10338.78
883.259	10410.19
883.577	10341.04
883.894	10287.71
884.212	10276.86
884.529	10275.28
884.846	10181.72
885.164	10156.41
885.481	10193.47
885.798	10136.08
886.115	10129.3
886.432	10140.14
886.75	10073.03
887.067	10109.86
887.383	10073.25
887.7	10079.13
888.017	9998.68
888.334	9995.06
888.651	9948.96
888.967	9970.88
889.284	9895.18
889.6	9837.55
889.917	9842.3
890.233	9845.24
890.55	9797.1
890.866	9741.74
891.182	9758.91
891.498	9724.33
891.815	9725.24
892.131	9685.92
892.447	9649.08
892.763	9575.86
893.079	9598.91
893.395	9546.49
893.71	9549.88
894.026	9508.07
894.342	9464.23
894.657	9383.1
894.973	9360.28
895.289	9351.69
895.604	9351.24
895.92	9327.06
896.235	9252.26
896.55	9318.92
896.865	9218.13
897.181	9219.04
897.496	9143.11
897.811	9152.6
898.126	9079.61
898.441	9076.44
898.756	9060.4
899.071	8966.84
899.386	8970.91
899.7	8876.9
900.015	8832.61
900.33	8817.92
900.644	8793.29
900.959	8816.56
901.273	8760.07
901.588	8692.72
901.902	8640.3
902.216	8666.06
902.531	8659.96
902.845	8563.24
903.159	8509.68
903.473	8567.75
903.787	8490.69
904.101	8460.19
904.415	8420.64
904.729	8432.84
905.042	8375.22
905.356	8333.18
905.67	8304.49
905.984	8315.11
906.297	8232.85
906.611	8233.07
906.924	8171.16
907.237	8152.4
907.551	8084.38
907.864	8095.9
908.177	8064.04
908.491	8012.29
908.804	8021.1
909.117	7932.52
909.43	7861.78
909.743	7856.36
910.056	7822.69
910.368	7761.67
910.681	7790.83
910.994	7754.67
911.307	7755.12
911.619	7703.82
911.932	7657.27
912.244	7588.35
912.557	7586.31
912.869	7552.41
913.181	7510.83
913.494	7541.12
913.806	7430.61
914.118	7381.57
914.43	7370.27
914.742	7375.92
915.054	7305.42
915.366	7299.09
915.678	7294.12
915.99	7252.76
916.302	7222.03
916.613	7214.57
916.925	7184.97
917.236	7187.45
917.548	7118.08
917.859	7064.07
918.171	7066.78
918.482	6995.37
918.794	7017.97
919.105	6940.45
919.416	6902.94
919.727	6945.42
920.038	6893.67
920.349	6816.61
920.66	6833.56
920.971	6812.09
921.282	6763.73
921.593	6747.46
921.903	6753.57
922.214	6683.96
922.525	6678.31
922.835	6655.94
923.146	6625.21
923.456	6604.19
923.767	6496.17
924.077	6548.37
924.387	6528.94
924.697	6487.81
925.008	6398.55
925.318	6430.41
925.628	6361.03
925.938	6377.53
926.248	6288.49
926.558	6338.66
926.867	6353.58
927.177	6284.65
927.487	6209.4
927.796	6220.25
928.106	6210.08
928.416	6168.27
928.725	6169.63
929.034	6118.55
929.344	6132.79
929.653	6133.69
929.962	6030.65
930.271	6083.53
930.581	5973.47
930.89	5966.47
931.199	5920.14
931.508	5949.97
931.817	5915.62
932.125	5896.86
932.434	5865
932.743	5766.92
933.051	5782.07
933.36	5781.84
933.669	5745.46
933.977	5719.02
934.286	5690.77
934.594	5709.3
934.902	5636.53
935.21	5672.69
935.519	5636.08
935.827	5598.79
936.135	5595.63
936.443	5474.95
936.751	5485.35
937.059	5480.6
937.367	5478.12
937.674	5472.47
937.982	5418.01
938.29	5396.54
938.597	5406.71
938.905	5322.19
939.213	5324.68
939.52	5287.62
939.827	5268.63
940.135	5279.48
940.442	5214.17
940.749	5229.09
941.056	5264.34
941.363	5173.27
941.67	5148.64
941.977	5146.15
942.284	5072.93
942.591	5059.6
942.898	5054.63
943.205	5060.95
943.511	5017.34
943.818	5051.46
944.125	4988.41
944.431	4964.69
944.738	4922.65
945.044	4935.31
945.35	4894.63
945.657	4818.47
945.963	4866.38
946.269	4848.98
946.575	4816.89
946.881	4799.94
947.187	4766.27
947.493	4792.94
947.799	4758.59
948.105	4735.54
948.41	4707.74
948.716	4665.94
949.022	4663.9
949.327	4653.96
949.633	4549.78
949.938	4580.06
950.244	4566.5
950.549	4559.95
950.854	4521.31
951.16	4519.5
951.465	4524.25
951.77	4519.95
952.075	4465.04
952.38	4420.52
952.685	4440.41
952.99	4403.12
953.294	4330.58
953.599	4362.44
953.904	4351.14
954.209	4264.37
954.513	4313.4
954.818	4301.88
955.122	4248.77
955.426	4257.13
955.731	4240.64
956.035	4206.06
956.339	4211.94
956.643	4168.77
956.948	4134.43
957.252	4161.09
957.556	4120.64
957.86	4117.02
958.163	4080.87
958.467	4069.12
958.771	4053.98
959.075	4046.29
959.378	4022.56
959.682	4007.2
959.985	4015.78
960.289	3977.59
960.592	3948.44
960.896	3954.99
961.199	3907.54
961.502	3906.86
961.805	3911.61
962.108	3873.64
962.411	3844.26
962.714	3807.2
963.017	3846.3
963.32	3803.81
963.623	3748.45
963.926	3747.54
964.228	3765.17
964.531	3696.02
964.833	3701.89
965.136	3658.73
965.438	3717.71
965.741	3680.2
966.043	3621.67
966.345	3610.15
966.648	3611.5
966.95	3611.95
967.252	3585.51
967.554	3580.77
967.856	3559.3
968.158	3540.32
968.46	3553.88
968.761	3496.48
969.063	3463.26
969.365	3493.76
969.666	3498.06
969.968	3459.19
970.269	3430.94
970.571	3444.73
970.872	3427.1
971.174	3362.24
971.475	3361.79
971.776	3376.03
972.077	3359.53
972.378	3379.42
972.679	3325.18
972.98	3306.2
973.281	3328.34
973.582	3310.49
973.883	3277.95
974.183	3280.44
974.484	3225.52
974.785	3250.15
975.085	3207.44
975.386	3239.31
975.686	3195.24
975.986	3173.77
976.287	3177.61
976.587	3177.39
976.887	3139.42
977.187	3112.76
977.487	3091.97
977.787	3053.1
978.087	3060.1
978.387	3039.99
978.687	3044.06
978.987	3008.81
979.286	3003.61
979.586	2981.24
979.885	2999.77
980.185	2972.87
980.484	2938.98
980.784	2955.93
981.083	2942.37
981.382	2930.39
981.682	2897.85
981.981	2889.71
982.28	2877.96
982.579	2880.67
982.878	2892.88
983.177	2821.47
983.475	2854.23
983.774	2809.71
984.073	2843.84
984.372	2783.73
984.67	2780.34
984.969	2795.48
985.267	2787.34
985.566	2769.94
985.864	2736.5
986.162	2685.2
986.461	2697.4
986.759	2702.82
987.057	2628.02
987.355	2693.33
987.653	2673.67
987.951	2640.91
988.249	2618.98
988.547	2639.32
988.844	2601.58
989.142	2586.22
989.44	2586.22
989.737	2616.95
990.035	2552.55
990.332	2529.27
990.63	2535.37
990.927	2531.98
991.224	2488.14
991.521	2495.37
991.819	2511.64
992.116	2503.51
992.413	2469.38
992.71	2441.14
993.006	2445.88
993.303	2458.09
993.6	2449.05
993.897	2405.88
994.193	2434.58
994.49	2411.08
994.787	2376.73
995.083	2361.59
995.379	2371.08
995.676	2336.51
995.972	2358.65
996.268	2306.9
996.565	2290.41
996.861	2296.06
997.157	2296.73
997.453	2278.2
997.749	2253.12
998.044	2247.92
998.34	2224.19
998.636	2234.14
998.932	2223.51
999.227	2200.69
999.523	2230.75
999.818	2175.38
1000.114	2213.12
1000.409	2187.36
1000.704	2146.91
1001	2137.42
1001.295	2126.34
1001.59	2100.13
1001.885	2090.19
1002.18	2108.04
1002.475	2110.07
1002.77	2094.48
1003.065	2035.72
1003.359	2060.36
1003.654	2046.34
1003.949	2029.4
1004.243	2010.87
1004.538	1990.98
1004.832	2004.31
1005.127	1962.05
1005.421	1979.23
1005.715	1928.16
1006.009	1962.73
1006.304	1964.99
1006.598	1907.59
1006.892	1910.08
1007.186	1898.78
1007.48	1903.52
1007.773	1856.74
1008.067	1855.16
1008.361	1848.84
1008.655	1838.89
1008.948	1827.37
1009.242	1861.04
1009.535	1830.98
1009.829	1811.55
1010.122	1793.7
1010.415	1782.62
1010.708	1795.96
1011.001	1779.23
1011.295	1755.73
1011.588	1752.79
1011.881	1753.24
1012.173	1696.98
1012.466	1753.02
1012.759	1704.66
1013.052	1683.87
1013.344	1662.17
1013.637	1662.17
1013.93	1675.96
1014.222	1664.21
1014.514	1635.96
1014.807	1671.44
1015.099	1628.73
1015.391	1624.66
1015.683	1612.68
1015.976	1622.85
1016.268	1604.55
1016.56	1584.21
1016.851	1580.59
1017.143	1558.67
1017.435	1561.61
1017.727	1525.68
1018.018	1556.87
1018.31	1505.34
1018.602	1528.17
1018.893	1516.64
1019.185	1511.67
1019.476	1490.65
1019.767	1494.72
1020.058	1485.23
1020.35	1436.64
1020.641	1444.78
1020.932	1464.89
1021.223	1435.97
1021.514	1419.02
1021.804	1443.65
1022.095	1398
1022.386	1366.81
1022.677	1381.96
1022.967	1401.62
1023.258	1364.33
1023.548	1358.45
1023.839	1368.17
1024.129	1334.5
1024.419	1317.1
1024.709	1338.11
1025	1308.74
1025.29	1313.93
1025.58	1288.62
1025.87	1277.78
1026.16	1298.34
1026.449	1278.91
1026.739	1228.74
1027.029	1267.16
1027.319	1247.95
1027.608	1247.27
1027.898	1223.99
1028.187	1238
1028.477	1231.68
1028.766	1229.19
1029.055	1213.37
1029.344	1213.6
1029.634	1160.94
1029.923	1182.41
1030.212	1156.65
1030.501	1182.41
1030.79	1177.21
1031.078	1160.94
1031.367	1163.88
1031.656	1099.25
1031.945	1122.53
1032.233	1112.13
1032.522	1104
1032.81	1075.97
1033.099	1089.53
1033.387	1108.74
1033.675	1089.08
1033.963	1068.52
1034.251	1068.74
1034.54	1045.01
1034.828	1079.59
1035.116	1049.31
1035.403	1045.24
1035.691	1016.09
1035.979	1042.76
1036.267	1011.34
1036.554	1009.76
1036.842	1013.6
1037.129	991.01
1037.417	1017.67
1037.704	983.55
1037.992	967.95
1038.279	971.34
1038.566	958.92
1038.853	958.92
1039.14	958.92
