Data from hue_210_FLMS001491_00080.txt Node
Date: Tue Feb 07 16:41:42 GMT 2017
User: dcchb
Spectrometer: FLMS00149
Trigger mode: 0
Integration Time (sec): 2.000000E-2
Scans to average: 10
Electric dark correction enabled: true
Nonlinearity correction enabled: false
Boxcar width: 0
XAxis mode: Wavelengths
Number of Pixels in Spectrum: 2048
>>>>>Begin Spectral Data<<<<<
341.393	-26.44
341.776	-26.44
342.16	-26.44
342.543	-67.12
342.927	-61.02
343.31	-69.38
343.693	-77.74
344.077	-71.41
344.46	-81.81
344.843	-35.03
345.226	-40.22
345.61	-51.98
345.993	-3.62
346.376	-8.36
346.759	15.14
347.142	42.48
347.525	32.54
347.908	68.25
348.291	68.92
348.674	98.75
349.057	113.44
349.44	130.84
349.823	130.84
350.206	170.62
350.588	193.44
350.971	230.73
351.354	219.88
351.737	231.41
352.119	251.29
352.502	265.53
352.884	269.82
353.267	296.04
353.65	296.26
354.032	306.66
354.414	309.14
354.797	282.93
355.179	304.17
355.562	318.86
355.944	318.64
356.326	315.47
356.709	325.87
357.091	331.29
357.473	339.2
357.855	335.13
358.238	350.5
358.62	363.38
359.002	346.21
359.384	362.25
359.766	329.26
360.148	325.64
360.53	332.65
360.912	337.39
361.294	327.9
361.676	342.36
362.057	354.11
362.439	322.25
362.821	340.56
363.203	310.05
363.584	312.76
363.966	329.93
364.348	324.74
364.729	297.62
365.111	323.61
365.493	321.12
365.874	328.13
366.256	319.09
366.637	298.3
367.019	334.45
367.4	312.76
367.781	321.12
368.163	308.24
368.544	294.23
368.925	310.95
369.306	301.24
369.688	300.78
370.069	299.65
370.45	295.81
370.831	302.82
371.212	320.22
371.593	338.07
371.974	317.05
372.355	316.83
372.736	314.12
373.117	296.04
373.498	307.11
373.879	290.39
374.26	317.73
374.641	324.29
375.021	323.61
375.402	318.41
375.783	327.9
376.163	322.7
376.544	315.7
376.925	329.71
377.305	327.67
377.686	319.99
378.066	336.71
378.447	325.19
378.827	342.36
379.208	323.61
379.588	329.93
379.968	329.48
380.349	338.07
380.729	338.52
381.109	336.04
381.489	349.82
381.87	355.7
382.25	344.85
382.63	342.82
383.01	353.66
383.39	334.91
383.77	344.4
384.15	362.7
384.53	323.83
384.91	333.32
385.29	364.06
385.67	342.36
386.049	357.96
386.429	335.36
386.809	361.12
387.189	360.22
387.568	361.8
387.948	357.96
388.328	382.81
388.707	338.75
389.087	364.06
389.466	367.9
389.846	369.93
390.225	382.59
390.605	364.74
390.984	387.33
391.363	366.09
391.743	361.35
392.122	367.45
392.501	380.78
392.881	394.11
393.26	373.78
393.639	397.96
394.018	409.71
394.397	393.21
394.776	386.88
395.155	390.05
395.534	382.59
395.913	403.61
396.292	404.74
396.671	384.4
397.05	383.04
397.429	411.74
397.808	394.34
398.186	404.28
398.565	402.48
398.944	392.08
399.323	433.89
399.701	407.22
400.08	423.04
400.458	410.61
400.837	431.18
401.215	415.81
401.594	436.82
401.972	420.1
402.351	411.74
402.729	428.24
403.107	447.9
403.486	457.84
403.864	461.91
404.242	437.28
404.62	453.32
404.999	445.86
405.377	459.2
405.755	457.39
406.133	482.47
406.511	477.5
406.889	470.95
407.267	484.73
407.645	489.48
408.023	473.66
408.401	491.29
408.779	507.11
409.156	517.27
409.534	531.74
409.912	510.04
410.29	539.19
410.667	524.96
411.045	553.88
411.422	549.59
411.8	557.05
412.178	564.96
412.555	558.63
412.933	576.03
413.31	601.11
413.687	611.51
414.065	629.81
414.442	631.62
414.819	621
415.197	638.85
415.574	643.82
415.951	673.43
416.328	669.13
416.705	666.2
417.082	682.24
417.46	694.22
417.837	679.3
418.214	714.56
418.591	713.65
418.967	741
419.344	731.05
419.721	735.57
420.098	749.58
420.475	765.18
420.852	765.4
421.228	774.89
421.605	800.2
421.982	815.12
422.358	818.28
422.735	846.08
423.111	855.34
423.488	859.86
423.864	900.99
424.241	898.73
424.617	903.25
424.994	961.33
425.37	957.26
425.746	977.15
426.123	970.14
426.499	953.2
426.875	991.39
427.251	998.39
427.627	1020.09
428.003	1029.58
428.379	1046.07
428.756	1051.72
429.132	1064.15
429.507	1089.01
429.883	1092.85
430.259	1126.52
430.635	1128.78
431.011	1128.11
431.387	1161.78
431.763	1169.91
432.138	1167.43
432.514	1228.67
432.89	1232.74
433.265	1234.32
433.641	1287.65
434.016	1303.02
434.392	1322.45
434.767	1352.96
435.143	1353.64
435.518	1375.78
435.894	1425.73
436.269	1433.18
436.644	1434.54
437.02	1485.84
437.395	1501.88
437.77	1503.92
438.145	1556.34
438.52	1567.19
438.895	1596.57
439.271	1605.61
439.646	1657.58
440.021	1672.95
440.395	1660.3
440.77	1689.67
441.145	1714.53
441.52	1744.36
441.895	1733.29
442.27	1764.02
442.645	1792.72
443.019	1844.92
443.394	1846.96
443.769	1852.83
444.143	1851.93
444.518	1898.93
444.892	1903
445.267	1906.16
445.641	1946.39
446.016	1951.59
446.39	1969.89
446.764	1975.99
447.139	1984.35
447.513	2019.16
447.887	2005.6
448.262	2036.78
448.636	2053.96
449.01	2035.43
449.384	2082.43
449.758	2095.54
450.132	2134.63
450.506	2146.84
450.88	2131.24
451.254	2183.22
451.628	2180.28
452.002	2222.09
452.376	2249.88
452.75	2237.91
453.123	2262.31
453.497	2307.96
453.871	2312.48
454.244	2365.59
454.618	2386.6
454.992	2362.42
455.365	2406.72
455.739	2453.95
456.112	2511.57
456.486	2466.6
456.859	2525.36
457.232	2589.54
457.606	2552.02
457.979	2579.14
458.352	2659.82
458.725	2657.56
459.099	2721.96
459.472	2733.04
459.845	2792.92
460.218	2772.58
460.591	2807.16
460.964	2820.26
461.337	2856.65
461.71	2920.15
462.083	2992.69
462.456	2992.92
462.829	2980.49
463.201	3033.59
463.574	3042.86
463.947	3074.04
464.32	3165.79
464.692	3202.63
465.065	3203.76
465.438	3256.41
465.81	3299.12
466.183	3321.27
466.555	3383.87
466.928	3380.25
467.3	3418.44
467.672	3465.9
468.045	3514.94
468.417	3567.14
468.789	3573.47
469.161	3597.65
469.534	3646.68
469.906	3691.43
470.278	3728.26
470.65	3822.27
471.022	3849.39
471.394	3888.71
471.766	3916.73
472.138	3977.52
472.51	4061.81
472.882	4112.89
473.253	4150.17
473.625	4213.22
473.997	4255.71
474.369	4311.53
474.74	4354.01
475.112	4447.34
475.484	4461.13
475.855	4523.72
476.227	4554.23
476.598	4720.55
476.97	4698.41
477.341	4798.29
477.713	4871.96
478.084	4900.89
478.455	5063.6
478.827	5042.13
479.198	5185.85
479.569	5217.72
479.94	5298.62
480.311	5317.37
480.682	5473.53
481.053	5589.23
481.424	5639.4
481.795	5637.14
482.166	5745.16
482.537	5826.06
482.908	5901.77
483.279	5963.91
483.65	6042.1
484.021	6160.74
484.391	6222.21
484.762	6268.54
485.133	6352.83
485.503	6400.51
485.874	6505.37
486.244	6567.28
486.615	6657.68
486.985	6784.45
487.356	6813.83
487.726	6879.59
488.097	6998.69
488.467	6994.84
488.837	7158
489.207	7188.74
489.578	7287.04
489.948	7340.6
490.318	7416.53
490.688	7444.55
491.058	7560.93
491.428	7675.5
491.798	7685.45
492.168	7863.97
492.538	7823.52
492.908	7930.86
493.278	7955.72
493.648	7965.89
494.017	8137.41
494.387	8152.55
494.757	8174.93
495.126	8255.15
495.496	8303.96
495.866	8298.76
496.235	8351.64
496.605	8427.8
496.974	8525.65
497.344	8507.8
497.713	8598.64
498.082	8593.45
498.452	8744.85
498.821	8680.9
499.19	8785.31
499.559	8796.83
499.928	8794.57
500.298	8910.95
500.667	8964.74
501.036	8929.26
501.405	9040.44
501.774	8911.63
502.143	9009.25
502.512	9056.94
502.88	9045.64
503.249	9094
503.618	9170.15
503.987	9122.25
504.356	9183.94
504.724	9219.42
505.093	9303.03
505.462	9275.69
505.83	9308.91
506.199	9327.89
506.567	9418.96
506.936	9417.38
507.304	9470.03
507.672	9541.67
508.041	9506.64
508.409	9526.76
508.777	9582.12
509.145	9576.92
509.514	9586.64
509.882	9626.41
510.25	9618.05
510.618	9609.24
510.986	9636.36
511.354	9750.25
511.722	9695.11
512.09	9774.66
512.458	9744.6
512.826	9835
513.193	9741.44
513.561	9872.51
513.929	9859.85
514.297	9901.89
514.664	9897.37
515.032	9932.17
515.4	9977.59
515.767	10001.09
516.135	9953.64
516.502	9873.64
516.869	9972.17
517.237	10028.66
517.604	9969.46
517.972	10018.04
518.339	10050.58
518.706	10048.78
519.073	10036.57
519.44	10067.08
519.808	10129.68
520.175	10073.18
520.542	10119.51
520.909	10175.1
521.276	10133.07
521.643	10147.3
522.009	10218.71
522.376	10142.33
522.743	10244.48
523.11	10197.92
523.477	10303.46
523.843	10280.86
524.21	10378.48
524.577	10392.27
524.943	10370.12
525.31	10328.99
525.676	10436.56
526.043	10427.75
526.409	10402.44
526.776	10428.65
527.142	10410.35
527.508	10412.38
527.874	10415.77
528.241	10444.25
528.607	10374.19
528.973	10443.12
529.339	10392.95
529.705	10475.2
530.071	10477.46
530.437	10442.21
530.803	10397.24
531.169	10479.5
531.535	10382.1
531.901	10360.86
532.267	10320.63
532.632	10359.5
532.998	10373.51
533.364	10459.84
533.73	10299.62
534.095	10389.33
534.461	10385.72
534.826	10301.65
535.192	10378.03
535.557	10315.89
535.923	10240.18
536.288	10286.51
536.653	10271.37
537.019	10138.49
537.384	10155.21
537.749	10209
538.114	10160.41
538.479	10078.61
538.845	10206.29
539.21	10019.62
539.575	10104.37
539.94	10000.64
540.305	10088.32
540.67	9966.07
541.034	9911.38
541.399	9905.5
541.764	9906.18
542.129	9899.63
542.494	9891.04
542.858	9800.42
543.223	9807.43
543.587	9771.95
543.952	9787.99
544.316	9758.39
544.681	9693.76
545.045	9696.69
545.41	9730.82
545.774	9657.37
546.138	9572.18
546.503	9581.67
546.867	9549.81
547.231	9588
547.595	9493.31
547.959	9515
548.324	9457.15
548.688	9411.96
549.052	9395.91
549.416	9382.8
549.779	9333.99
550.143	9303.03
550.507	9346.42
550.871	9311.62
551.235	9224.84
551.599	9276.14
551.962	9197.95
552.326	9209.25
552.689	9205.41
553.053	9190.94
553.417	9081.12
553.78	9173.54
554.143	9089.03
554.507	9081.57
554.87	9077.95
555.234	9134
555.597	9028.46
555.96	9025.53
556.323	9024.85
556.686	8970.39
557.05	9022.59
557.413	8970.61
557.776	8944.4
558.139	8940.78
558.502	8998.18
558.865	8865.76
559.228	8939.65
559.59	8930.84
559.953	8898.75
560.316	8995.92
560.679	8904.17
561.041	8929.93
561.404	8930.84
561.767	8965.64
562.129	8849.48
562.492	8983.94
562.854	8974.68
563.217	8883.38
563.579	8943.95
563.941	8956.83
564.304	8883.83
564.666	9001.35
565.028	8966.09
565.39	8984.85
565.753	8960.22
566.115	9014.68
566.477	9021.91
566.839	9019.2
567.201	8924.51
567.563	9022.36
567.925	9075.24
568.287	9061
568.648	9022.81
569.01	9110.49
569.372	9074.34
569.734	9050.84
570.095	9110.49
570.457	9157.73
570.819	9091.06
571.18	9140.32
571.542	9156.82
571.903	9124.73
572.265	9156.6
572.626	9159.76
572.987	9166.31
573.349	9195.24
573.71	9235.24
574.071	9245.41
574.432	9204.5
574.794	9312.3
575.155	9259.87
575.516	9230.27
575.877	9276.37
576.238	9269.59
576.599	9346.87
576.96	9255.58
577.32	9251.28
577.681	9381.22
578.042	9414.22
578.403	9290.15
578.763	9341.45
579.124	9358.17
579.485	9360.88
579.845	9411.28
580.206	9421.45
580.566	9449.24
580.927	9331.96
581.287	9425.74
581.648	9421.9
582.008	9551.16
582.368	9504.83
582.728	9529.69
583.089	9449.47
583.449	9469.81
583.809	9436.59
584.169	9513.87
584.529	9465.29
584.889	9465.29
585.249	9523.37
585.609	9562.01
585.969	9557.94
586.329	9538.96
586.688	9548.45
587.048	9544.38
587.408	9475.91
587.768	9509.81
588.127	9530.37
588.487	9568.56
588.846	9571.27
589.206	9561.78
589.565	9523.37
589.925	9580.09
590.284	9570.6
590.643	9575.34
591.003	9583.7
591.362	9664.38
591.721	9628.9
592.08	9611.95
592.44	9616.24
592.799	9601.1
593.158	9637.94
593.517	9609.01
593.876	9658.28
594.235	9628.67
594.593	9613.53
594.952	9603.14
595.311	9634.1
595.67	9623.25
596.029	9663.7
596.387	9644.72
596.746	9751.83
597.104	9632.74
597.463	9644.27
597.822	9652.18
598.18	9620.99
598.538	9638.39
598.897	9649.24
599.255	9654.44
599.613	9743.92
599.972	9643.14
600.33	9634.1
600.688	9648.56
601.046	9626.87
601.404	9741.44
601.762	9706.41
602.12	9679.29
602.478	9705.28
602.836	9733.76
603.194	9646.53
603.552	9736.24
603.91	9656.92
604.268	9692.85
604.625	9670.71
604.983	9681.55
605.341	9655.11
605.698	9715.45
606.056	9670.03
606.413	9689.01
606.771	9729.91
607.128	9702.57
607.485	9681.55
607.843	9766.07
608.2	9701.21
608.557	9776.24
608.914	9790.7
609.272	9706.86
609.629	9759.52
609.986	9862.57
610.343	9738.28
610.7	9851.49
611.057	9776.47
611.414	9794.54
611.771	9835
612.127	9877.25
612.484	9760.87
612.841	9896.69
613.198	9863.24
613.554	9848.1
613.911	9925.16
614.267	9892.4
614.624	9868.44
614.98	9853.53
615.337	9910.7
615.693	9878.38
616.05	9944.82
616.406	9966.29
616.762	9898.04
617.118	9913.41
617.475	9934.88
617.831	9935.78
618.187	9983.92
618.543	9978.49
618.899	10063.01
619.255	9917.93
619.611	9845.16
619.967	10010.36
620.323	10004.71
620.678	9982.11
621.034	9909.12
621.39	9961.09
621.746	9975.56
622.101	10110.02
622.457	9985.95
622.812	10016.46
623.168	9996.12
623.523	10049.68
623.879	10111.15
624.234	9969.23
624.589	9967.65
624.945	10000.64
625.3	10019.17
625.655	10045.84
626.01	9990.02
626.365	10011.49
626.72	9952.73
627.075	10046.97
627.43	10084.93
627.785	9943.69
628.14	10021.66
628.495	9965.16
628.85	10011.26
629.205	9972.17
629.559	9960.42
629.914	9890.81
630.269	9974.65
630.623	9934.2
630.978	9927.65
631.332	10009.45
631.687	9968.1
632.041	9887.65
632.396	9872.73
632.75	9854.66
633.104	9905.73
633.459	9875.22
633.813	9812.17
634.167	9842.23
634.521	9802.45
634.875	9877.03
635.229	9797.71
635.583	9757.71
635.937	9830.02
636.291	9730.59
636.645	9740.76
636.999	9731.27
637.352	9664.38
637.706	9645.85
638.06	9711.84
638.413	9740.99
638.767	9623.7
639.121	9678.62
639.474	9624.38
639.828	9594.32
640.181	9599.3
640.534	9632.97
640.888	9559.3
641.241	9533.31
641.594	9559.3
641.947	9648.11
642.301	9584.61
642.654	9567.21
643.007	9588.9
643.36	9559.75
643.713	9536.7
644.066	9578.96
644.419	9470.49
644.771	9507.09
645.124	9385.52
645.477	9350.49
645.83	9284.95
646.182	9283.37
646.535	9280.43
646.888	9265.29
647.24	9218.97
647.593	9139.87
647.945	9213.32
648.298	9142.58
648.65	9131.96
649.002	9170.15
649.355	9221.23
649.707	9183.94
650.059	9255.35
650.411	9390.04
650.763	9344.61
651.115	9445.4
651.467	9435.23
651.819	9439.07
652.171	9428.45
652.523	9404.5
652.875	9406.53
653.227	9386.87
653.578	9443.82
653.93	9458.51
654.282	9352.3
654.633	9305.07
654.985	9375.57
655.337	9458.06
655.688	9375.35
656.039	9450.82
656.391	9376.02
656.742	9360.66
657.094	9383.03
657.445	9456.25
657.796	9435.68
658.147	9367.89
658.498	9421.67
658.849	9430.26
659.2	9426.87
659.551	9372.18
659.902	9444.27
660.253	9414.22
660.604	9439.07
660.955	9361.79
661.306	9445.4
661.656	9432.29
662.007	9473.65
662.358	9514.55
662.708	9423.48
663.059	9468.45
663.409	9371.51
663.76	9476.36
664.11	9459.19
664.461	9545.96
664.811	9500.09
665.161	9483.14
665.511	9453.08
665.862	9486.76
666.212	9470.03
666.562	9527.21
666.912	9494.44
667.262	9518.39
667.612	9476.14
667.962	9437.27
668.312	9488.79
668.662	9502.57
669.011	9439.53
669.361	9442.69
669.711	9343.03
670.06	9429.58
670.41	9450.6
670.76	9432.97
671.109	9442.92
671.459	9426.42
671.808	9410.37
672.157	9447.66
672.507	9448.34
672.856	9437.72
673.205	9386.42
673.554	9368.34
673.904	9358.17
674.253	9425.06
674.602	9437.72
674.951	9236.14
675.3	9203.15
675.649	9326.31
675.998	9311.85
676.346	9324.05
676.695	9343.71
677.044	9229.81
677.393	9291.28
677.741	9387.55
678.09	9269.36
678.438	9241.56
678.787	9221
679.135	9254.9
679.484	9192.75
679.832	9193.43
680.181	9128.8
680.529	9167.67
680.877	9146.43
681.225	9126.77
681.573	9220.32
681.922	9117.95
682.27	9065.07
682.618	9071.17
682.966	9052.19
683.314	9068.69
683.661	8969.71
684.009	8937.17
684.357	8967.9
684.705	9011.29
685.053	8911.86
685.4	8894.91
685.748	8902.82
686.095	8867.79
686.443	8826.43
686.79	8816.27
687.138	8851.97
687.485	8807.23
687.832	8796.83
688.18	8816.94
688.527	8731.75
688.874	8749.15
689.221	8773.55
689.568	8745.31
689.915	8703.95
690.262	8673.44
690.609	8666.89
690.956	8604.75
691.303	8513.67
691.65	8492.43
691.997	8485.43
692.344	8468.25
692.69	8481.36
693.037	8425.99
693.383	8294.7
693.73	8389.84
694.077	8308.03
694.423	8323.4
694.769	8310.06
695.116	8263.29
695.462	8217.86
695.808	8235.72
696.155	8230.52
696.501	8163.85
696.847	8184.42
697.193	8080.47
697.539	8123.4
697.885	8060.8
698.231	8050.86
698.577	8010.18
698.923	7978.55
699.269	7946.23
699.614	7896.06
699.96	7865.56
700.306	7838.44
700.651	7767.48
700.997	7787.59
701.342	7724.99
701.688	7704.88
702.033	7703.3
702.379	7690.65
702.724	7713.47
703.069	7678.89
703.415	7607.48
703.76	7555.96
704.105	7592.57
704.45	7495.85
704.795	7427.83
705.14	7447.94
705.485	7457.88
705.83	7360.71
706.175	7365.23
706.52	7341.5
706.865	7336.76
707.209	7348.51
707.554	7323.42
707.899	7298.34
708.243	7275.29
708.588	7296.98
708.932	7200.49
709.277	7206.59
709.621	7176.31
709.966	7160.72
710.31	7233.48
710.654	7076.65
710.998	7132.24
711.342	7156.42
711.687	7132.69
712.031	7016.99
712.375	7031.23
712.719	7017.44
713.063	7011.57
713.407	6990.1
713.75	6975.41
714.094	7015.86
714.438	6943.77
714.782	7032.81
715.125	6980.83
715.469	6948.29
715.812	6853.38
716.156	6819.26
716.499	6914.17
716.843	6878.69
717.186	6820.84
717.53	6871.01
717.873	6872.14
718.216	6833.27
718.559	6839.82
718.902	6770.44
719.246	6823.55
719.589	6762.53
719.932	6735.87
720.275	6712.37
720.617	6714.17
720.96	6786.49
721.303	6742.65
721.646	6746.49
721.989	6689.99
722.331	6750.78
722.674	6740.16
723.016	6715.98
723.359	6740.84
723.701	6698.13
724.044	6731.57
724.386	6616.55
724.729	6704.46
725.071	6670.11
725.413	6633.05
725.755	6653.38
726.097	6683.89
726.439	6607.06
726.782	6574.74
727.124	6652.71
727.465	6627.17
727.807	6644.57
728.149	6555.08
728.491	6598.92
728.833	6640.05
729.175	6578.36
729.516	6631.24
729.858	6540.17
730.199	6596.21
730.541	6563.9
730.882	6605.25
731.224	6613.39
731.565	6557.12
731.906	6590.79
732.248	6635.08
732.589	6566.83
732.93	6539.94
733.271	6592.14
733.612	6582.88
733.953	6614.06
734.294	6566.83
734.635	6518.47
734.976	6591.47
735.317	6592.82
735.658	6573.61
735.999	6570.22
736.339	6548.75
736.68	6583.78
737.021	6593.27
737.361	6503.56
737.702	6624.46
738.042	6626.04
738.383	6562.77
738.723	6617.45
739.063	6602.54
739.404	6678.47
739.744	6639.15
740.084	6619.49
740.424	6650.67
740.764	6664.91
741.104	6691.8
741.444	6647.28
741.784	6713.72
742.124	6691.8
742.464	6724.12
742.804	6768.64
743.143	6733.61
743.483	6790.1
743.823	6757.34
744.162	6807.96
744.502	6823.55
744.841	6888.18
745.181	6894.51
745.52	6895.64
745.86	6977.67
746.199	6976.09
746.538	7030.55
746.877	7113.26
747.216	7106.93
747.556	7163.2
747.895	7212.47
748.234	7224.44
748.573	7320.26
748.911	7312.35
749.25	7421.5
749.589	7383.99
749.928	7451.78
750.267	7568.61
750.605	7604.77
750.944	7667.37
751.283	7733.81
751.621	7886.35
751.96	7911.88
752.298	7954.59
752.636	8057.64
752.975	8180.12
753.313	8216.51
753.651	8435.94
753.989	8475.71
754.327	8578.08
754.666	8619.89
755.004	8814.23
755.342	8910.5
755.679	9042.25
756.017	9118.86
756.355	9283.15
756.693	9436.36
757.031	9584.15
757.368	9726.3
757.706	9859.18
758.044	9987.99
758.381	10113.86
758.719	10264.59
759.056	10438.82
759.394	10585.26
759.731	10774.86
760.068	10932.82
760.405	11030.22
760.743	11239.93
761.08	11415.07
761.417	11534.39
761.754	11726.47
762.091	11941.15
762.428	12105.67
762.765	12217.98
763.102	12539.33
763.438	12547.24
763.775	12717.41
764.112	12968.02
764.449	13136.83
764.785	13413.88
765.122	13460.44
765.458	13573.88
765.795	13737.94
766.131	13937.03
766.467	14108.56
766.804	14220.87
767.14	14391.26
767.476	14572.5
767.812	14670.35
768.148	14899.27
768.485	14859.95
768.821	15046.38
769.157	15276.43
769.492	15344
769.828	15479.14
770.164	15588.74
770.5	15754.61
770.836	15848.85
771.171	15882.29
771.507	16014.95
771.842	16116.64
772.178	16308.95
772.513	16302.85
772.849	16317.99
773.184	16459
773.519	16633.23
773.855	16717.98
774.19	16760.69
774.525	16830.07
774.86	16907.58
775.195	16977.18
775.53	17115.26
775.865	17132.88
776.2	17046.56
776.535	17104.18
776.87	17221.92
777.205	17301.69
777.539	17326.32
777.874	17477.51
778.209	17402.71
778.543	17441.8
778.878	17404.06
779.212	17584.62
779.547	17535.58
779.881	17630.5
780.215	17506.88
780.55	17686.54
780.884	17681.57
781.218	17682.92
781.552	17749.59
781.886	17759.98
782.22	17777.16
782.554	17700.1
782.888	17702.81
783.222	17716.14
783.556	17661.46
783.889	17688.57
784.223	17694.68
784.557	17614
784.89	17681.79
785.224	17616.71
785.557	17599.99
785.891	17571.52
786.224	17636.15
786.558	17673.21
786.891	17555.24
787.224	17496.26
787.557	17597.05
787.891	17613.77
788.224	17550.05
788.557	17633.43
788.89	17573.78
789.223	17547.11
789.556	17592.31
789.888	17455.81
790.221	17394.8
790.554	17310.05
790.887	17397.51
791.219	17417.85
791.552	17281.81
791.884	17252.2
792.217	17229.15
792.549	17334.69
792.882	17216.5
793.214	17234.12
793.546	17178.98
793.879	17129.72
794.211	17067.8
794.543	17094.69
794.875	17083.39
795.207	17102.83
795.539	16955.71
795.871	17004.3
796.203	16890.86
796.535	16816.28
796.867	16853.57
797.198	16824.19
797.53	16850.86
797.862	16785.1
798.193	16716.17
798.525	16653.35
798.856	16701.03
799.188	16540.13
799.519	16489.51
799.85	16404.77
800.182	16495.16
800.513	16503.75
800.844	16324.99
801.175	16508.72
801.506	16482.05
801.837	16343.53
802.168	16333.13
802.499	16226.47
802.83	16193.92
803.161	16205.45
803.491	16173.81
803.822	16202.51
804.153	16121.16
804.483	15969.3
804.814	15952.57
805.145	15886.59
805.475	15931.56
805.805	15900.37
806.136	15869.19
806.466	15903.76
806.796	15821.96
807.126	15736.08
807.457	15772.69
807.787	15655.18
808.117	15662.86
808.447	15686.59
808.777	15554.62
809.107	15601.62
809.436	15535.86
809.766	15531.34
810.096	15469.65
810.426	15422.42
810.755	15490.21
811.085	15442.08
811.414	15435.53
811.744	15328.86
812.073	15264.01
812.403	15261.75
812.732	15276.43
813.061	15200.5
813.39	15155.76
813.719	15137.68
814.049	15173.84
814.378	15043.67
814.707	15006.39
815.036	15087.74
815.365	15058.81
815.693	14838.48
816.022	14935.65
816.351	14856.11
816.68	14804.58
817.008	14857.01
817.337	14711.25
817.665	14662.44
817.994	14766.84
818.322	14692.27
818.651	14684.13
818.979	14618.15
819.307	14719.39
819.636	14706.05
819.964	14548.09
820.292	14608.88
820.62	14609.33
820.948	14531.82
821.276	14623.12
821.604	14613.63
821.932	14614.3
822.259	14693.85
822.587	14554.19
822.915	14511.26
823.243	14588.54
823.57	14541.99
823.898	14541.76
824.225	14450.02
824.553	14541.09
824.88	14497.7
825.207	14544.7
825.535	14495.21
825.862	14589.22
826.189	14497.92
826.516	14697.69
826.843	14667.18
827.17	14685.04
827.497	14622.89
827.824	14595.1
828.151	14537.7
828.478	14645.49
828.805	14612.5
829.131	14649.56
829.458	14614.31
829.785	14416.34
830.111	14544.48
830.438	14651.59
830.764	14642.55
831.09	14494.08
831.417	14533.4
831.743	14580.18
832.069	14612.05
832.395	14512.61
832.722	14582.22
833.048	14485.04
833.374	14548.32
833.7	14469.9
834.026	14509
834.351	14526.85
834.677	14522.56
835.003	14481.43
835.329	14464.03
835.654	14434.65
835.98	14340.41
836.306	14438.04
836.631	14393.97
836.956	14384.93
837.282	14426.29
837.607	14336.35
837.932	14223.81
838.258	14324.6
838.583	14226.07
838.908	14220.87
839.233	14226.74
839.558	14163.02
839.883	14144.71
840.208	14142.68
840.533	14202.34
840.858	14104.94
841.182	14064.94
841.507	14043.02
841.832	13993.3
842.156	14033.76
842.481	13948.79
842.805	14037.15
843.13	13842.57
843.454	13863.14
843.778	13890.03
844.103	13766.42
844.427	13835.79
844.751	13836.92
845.075	13674.22
845.399	13589.47
845.723	13675.8
846.047	13660.66
846.371	13502.02
846.695	13531.4
847.019	13407.56
847.343	13407.78
847.666	13283.04
847.99	13265.87
848.313	13322.81
848.637	13167.11
848.96	13144.74
849.284	13126.66
849.607	13011.18
849.931	12969.38
850.254	12885.31
850.577	12790.17
850.9	12754.92
851.223	12753.56
851.546	12667.69
851.869	12659.55
852.192	12669.72
852.515	12503.4
852.838	12464.76
853.161	12452.78
853.483	12378.43
853.806	12377.08
854.129	12325.78
854.451	12330.07
854.774	12274.93
855.096	12232.45
855.419	12170.75
855.741	12146.57
856.063	12112.9
856.385	12059.12
856.708	12003.98
857.03	11974.6
857.352	11967.82
857.674	11924.43
857.996	11850.08
858.318	11808.96
858.64	11862.06
858.961	11788.84
859.283	11762.4
859.605	11758.33
859.926	11744.55
860.248	11696.19
860.57	11641.73
860.891	11666.81
861.212	11501.84
861.534	11510.43
861.855	11467.95
862.176	11488.96
862.498	11498.91
862.819	11442.19
863.14	11438.8
863.461	11439.93
863.782	11437.44
864.103	11408.74
864.424	11287.61
864.745	11380.72
865.065	11231.34
865.386	11268.86
865.707	11218.01
866.027	11278.8
866.348	11226.15
866.668	11190.67
866.989	11211.23
867.309	11104.34
867.63	11080.61
867.95	11160.61
868.27	11128.97
868.59	11032.03
868.91	11010.56
869.23	11060.05
869.55	11001.74
869.87	11024.57
870.19	11000.61
870.51	10970.11
870.83	10963.33
871.15	10952.03
871.469	10930.11
871.789	10994.97
872.109	10965.14
872.428	10891.92
872.748	10916.1
873.067	10874.06
873.386	10864.8
873.706	10877
874.025	10764.46
874.344	10749.55
874.663	10817.79
874.982	10794.07
875.301	10781.64
875.62	10660.96
875.939	10696.44
876.258	10692.6
876.577	10628.2
876.896	10654.41
877.214	10532.6
877.533	10568.54
877.852	10580.96
878.17	10591.36
878.489	10638.82
878.807	10583.45
879.125	10563.11
879.444	10572.38
879.762	10458.48
880.08	10517.24
880.398	10431.14
880.716	10493.28
881.034	10401.08
881.352	10388.65
881.67	10335.32
881.988	10293.06
882.306	10309.11
882.624	10309.56
882.941	10234.53
883.259	10229.11
883.577	10241.09
883.894	10216.91
884.212	10192.5
884.529	10126.51
884.846	10142.56
885.164	10091.26
885.481	10115.44
885.798	10088.32
886.115	9980.75
886.432	10010.36
886.75	9978.95
887.067	9975.33
887.383	9871.38
887.7	9920.87
888.017	9904.6
888.334	9897.82
888.651	9799.97
888.967	9816.47
889.284	9832.74
889.6	9733.76
889.917	9759.74
890.233	9705.28
890.55	9679.75
890.866	9677.71
891.182	9659.18
891.498	9535.57
891.815	9531.5
892.131	9549.81
892.447	9551.84
892.763	9349.13
893.079	9415.8
893.395	9437.94
893.71	9348.68
894.026	9404.27
894.342	9395.91
894.657	9254.9
894.973	9255.35
895.289	9265.75
895.604	9265.29
895.92	9140.78
896.235	9145.3
896.55	9156.37
896.865	9148.69
897.181	9039.54
897.496	9080.44
897.811	9036.15
898.126	8993.89
898.441	8943.27
898.756	8891.52
899.071	8840.22
899.386	8823.04
899.7	8743.72
900.015	8783.05
900.33	8696.49
900.644	8654.01
900.959	8720.67
901.273	8649.49
901.588	8603.16
901.902	8581.92
902.216	8552.32
902.531	8546.44
902.845	8575.59
903.159	8483.39
903.473	8435.71
903.787	8357.75
904.101	8358.42
904.415	8342.61
904.729	8355.71
905.042	8265.77
905.356	8264.64
905.67	8160.01
905.984	8204.3
906.297	8155.04
906.611	8043.4
906.924	8102.84
907.237	8093.12
907.551	7993.01
907.864	7950.3
908.177	7972.45
908.491	7991.65
908.804	7881.15
909.117	7856.74
909.43	7775.61
909.743	7834.14
910.056	7773.81
910.368	7725.22
910.681	7717.99
910.994	7624.21
911.307	7658.33
911.619	7583.98
911.932	7632.12
912.244	7557.77
912.557	7529.97
912.869	7443.19
913.181	7382.4
913.494	7435.06
913.806	7386.02
914.118	7369.98
914.43	7348.51
914.742	7274.84
915.054	7272.8
915.366	7236.65
915.678	7151.22
915.99	7158.91
916.302	7113.26
916.613	7094.73
916.925	7090.44
917.236	7059.25
917.548	7040.49
917.859	6960.49
918.171	6979.03
918.482	6941.29
918.794	6898.35
919.105	6887.05
919.416	6806.6
919.727	6850.22
920.038	6831.68
920.349	6704.68
920.66	6730.22
920.971	6712.14
921.282	6705.36
921.593	6636.44
921.903	6648.64
922.214	6622.65
922.525	6622.2
922.835	6565.93
923.146	6510.34
923.456	6538.36
923.767	6447.74
924.077	6452.26
924.387	6447.51
924.697	6428.76
925.008	6379.04
925.318	6308.99
925.628	6349.66
925.938	6365.93
926.248	6219.27
926.558	6262.43
926.867	6264.24
927.177	6210.01
927.487	6154.87
927.796	6138.14
928.106	6110.12
928.416	6118.26
928.725	6078.03
929.034	6048.88
929.344	6047.75
929.653	6044.81
929.962	5988.54
930.271	5954.65
930.581	5916.23
930.89	5887.3
931.199	5887.53
931.508	5860.86
931.817	5826.06
932.125	5800.53
932.434	5801.2
932.743	5759.17
933.051	5744.03
933.36	5682.79
933.669	5654.31
933.977	5631.94
934.286	5636.24
934.594	5639.85
934.902	5578.38
935.21	5575.67
935.519	5558.95
935.827	5558.72
936.135	5511.04
936.443	5445.28
936.751	5462.91
937.059	5438.73
937.367	5431.72
937.674	5449.12
937.982	5363.47
938.29	5341.78
938.597	5339.97
938.905	5313.31
939.213	5229.47
939.52	5241.67
939.827	5241.22
940.135	5191.95
940.442	5181.11
940.749	5158.06
941.056	5166.64
941.363	5076.25
941.67	5118.06
941.977	5025.18
942.284	5006.65
942.591	4998.74
942.898	5016.14
943.205	5002.81
943.511	4979.98
943.818	4927.1
944.125	4899.53
944.431	4890.27
944.738	4871.74
945.044	4886.43
945.35	4788.57
945.657	4787.44
945.963	4798.97
946.269	4784.96
946.575	4748.8
946.881	4718.75
947.187	4710.16
947.493	4656.83
947.799	4683.94
948.105	4632.87
948.41	4640.78
948.716	4607.11
949.022	4612.08
949.327	4541.58
949.633	4575.47
949.938	4530.95
950.244	4516.04
950.549	4504.51
950.854	4518.75
951.16	4477.17
951.465	4421.13
951.77	4429.04
952.075	4420.45
952.38	4375.03
952.685	4366.44
952.99	4325.54
953.294	4319.89
953.599	4321.69
953.904	4309.04
954.209	4244.86
954.513	4266.78
954.818	4201.7
955.122	4220.45
955.426	4204.41
955.731	4165.54
956.035	4175.26
956.339	4171.87
956.643	4146.33
956.948	4105.2
957.252	4109.04
957.556	4063.4
957.86	4062.94
958.163	4037.86
958.467	4002.15
958.771	3984.98
959.075	3986.11
959.378	4002.61
959.682	3968.03
959.985	3952.21
960.289	3915.15
960.592	3905.89
960.896	3888.49
961.199	3923.06
961.502	3862.95
961.805	3860.92
962.108	3818.88
962.411	3831.54
962.714	3798.54
963.017	3790.41
963.32	3723.74
963.623	3782.73
963.926	3728.49
964.228	3732.33
964.531	3632.9
964.833	3647.81
965.136	3662.73
965.438	3644.65
965.741	3580.47
966.043	3615.05
966.345	3603.07
966.648	3603.75
966.95	3584.99
967.252	3557.87
967.554	3558.1
967.856	3507.7
968.158	3507.93
968.46	3455.5
968.761	3448.5
969.063	3462.06
969.365	3448.72
969.666	3450.08
969.968	3381.15
970.269	3417.09
970.571	3361.04
970.872	3341.61
971.174	3354.04
971.475	3356.75
971.776	3318.1
972.077	3328.05
972.378	3309.52
972.679	3294.38
972.98	3280.59
973.281	3216.19
973.582	3198.56
973.883	3237.2
974.183	3208.73
974.484	3189.29
974.785	3188.16
975.085	3192.01
975.386	3184.78
975.686	3159.69
975.986	3133.25
976.287	3134.38
976.587	3108.84
976.887	3078.11
977.187	3080.37
977.487	3065.68
977.787	3062.52
978.087	2979.36
978.387	3013.48
978.687	2991.11
978.987	2983.88
979.286	2981.16
979.586	2967.38
979.885	2957.21
980.185	2956.98
980.484	2971
980.784	2911.11
981.083	2912.47
981.382	2889.87
981.682	2924.89
981.981	2844.9
982.28	2881.51
982.579	2830.89
982.878	2851.9
983.177	2814.84
983.475	2811
983.774	2797.67
984.073	2738.91
984.372	2749.76
984.67	2742.98
984.969	2738.46
985.267	2734.62
985.566	2712.92
985.864	2695.07
986.162	2691.91
986.461	2664.56
986.759	2689.65
987.057	2626.15
987.355	2622.08
987.653	2637.22
987.951	2633.15
988.249	2606.49
988.547	2607.84
988.844	2566.26
989.142	2585.02
989.44	2554.06
989.737	2535.07
990.035	2535.3
990.332	2499.6
990.63	2511.8
990.927	2540.05
991.224	2504.57
991.521	2468.86
991.819	2491.23
992.116	2456.88
992.413	2418.69
992.71	2427.96
993.006	2438.13
993.303	2383.89
993.6	2402.2
993.897	2354.51
994.193	2375.3
994.49	2396.32
994.787	2357.45
995.083	2325.14
995.379	2336.89
995.676	2319.04
995.972	2306.15
996.268	2273.16
996.565	2271.8
996.861	2248.08
997.157	2272.93
997.453	2247.62
997.749	2263.67
998.044	2222.99
998.34	2232.03
998.636	2189.77
998.932	2222.54
999.227	2147.06
999.523	2145.48
999.818	2159.27
1000.114	2127.63
1000.409	2163.78
1000.704	2149.77
1001	2129.44
1001.295	2104.8
1001.59	2089.21
1001.885	2112.49
1002.18	2067.52
1002.475	2074.75
1002.77	2075.2
1003.065	2026.16
1003.359	2049.66
1003.654	2000.85
1003.949	2000.85
1004.243	1980.51
1004.538	1980.06
1004.832	1959.72
1005.127	1981.87
1005.421	1951.36
1005.715	1917.92
1006.009	1913.85
1006.304	1918.37
1006.598	1879.05
1006.892	1910.46
1007.186	1893.51
1007.48	1871.82
1007.773	1846.73
1008.067	1863.68
1008.361	1844.92
1008.655	1810.12
1008.948	1814.42
1009.242	1788.43
1009.535	1800.18
1009.829	1784.81
1010.122	1788.88
1010.415	1774.19
1010.708	1759.28
1011.001	1740.29
1011.295	1758.82
1011.588	1737.58
1011.881	1693.51
1012.173	1693.51
1012.466	1668.2
1012.759	1694.64
1013.052	1687.41
1013.344	1665.49
1013.637	1656.68
1013.93	1661.65
1014.222	1671.59
1014.514	1623.23
1014.807	1595.44
1015.099	1603.35
1015.391	1613.74
1015.683	1602.44
1015.976	1567.64
1016.268	1554.31
1016.56	1548.66
1016.851	1533.52
1017.143	1533.97
1017.435	1545.27
1017.727	1529.68
1018.018	1530.13
1018.31	1504.59
1018.602	1516.8
1018.893	1483.8
1019.185	1489.68
1019.476	1466.18
1019.767	1448.78
1020.058	1442.9
1020.35	1446.97
1020.641	1428.66
1020.932	1397.7
1021.223	1400.19
1021.514	1409.45
1021.804	1383.69
1022.095	1399.29
1022.386	1383.24
1022.677	1372.62
1022.967	1362.9
1023.258	1349.12
1023.548	1338.04
1023.839	1373.98
1024.129	1335.56
1024.419	1330.13
1024.709	1291.49
1025	1307.08
1025.29	1294.88
1025.58	1268.44
1025.87	1265.73
1026.16	1296.24
1026.449	1264.15
1026.739	1255.56
1027.029	1253.3
1027.319	1241.78
1027.608	1237.48
1027.898	1202.23
1028.187	1206.07
1028.477	1203.81
1028.766	1224.6
1029.055	1208.56
1029.344	1171.04
1029.634	1171.49
1029.923	1132.63
1030.212	1141.66
1030.501	1149.57
1030.79	1132.17
1031.078	1141.21
1031.367	1106.64
1031.656	1164.04
1031.945	1109.8
1032.233	1105.06
1032.522	1096.69
1032.81	1078.39
1033.099	1078.84
1033.387	1098.5
1033.675	1082.01
1033.963	1069.12
1034.251	1042.46
1034.54	1065.96
1034.828	1041.78
1035.116	1025.51
1035.403	1012.4
1035.691	1048.11
1035.979	1021.89
1036.267	992.74
1036.554	998.62
1036.842	989.35
1037.129	992.29
1037.417	976.47
1037.704	981.44
1037.992	926.08
1038.279	952.29
1038.566	963.14
1038.853	963.14
1039.14	963.14
