Data from hue_330_FLMS001491_40.txt Node
Date: Mon Feb 06 15:45:19 GMT 2017
User: dcchb
Spectrometer: FLMS00149
Trigger mode: 0
Integration Time (sec): 2.000000E-2
Scans to average: 10
Electric dark correction enabled: true
Nonlinearity correction enabled: false
Boxcar width: 0
XAxis mode: Wavelengths
Number of Pixels in Spectrum: 2048
>>>>>Begin Spectral Data<<<<<
341.393	-18.23
341.776	-18.23
342.16	-18.23
342.543	-77.67
342.927	-66.59
343.31	-67.05
343.693	-63.66
344.077	-58.46
344.46	-51.68
344.843	-58.68
345.226	-50.1
345.61	-38.12
345.993	-15.07
346.376	-4.22
346.759	-1.06
347.142	24.48
347.525	37.81
347.908	57.02
348.291	69.22
348.674	100.63
349.057	118.94
349.44	114.87
349.823	142.21
350.206	153.74
350.588	198.48
350.971	203.91
351.354	228.99
351.737	226.05
352.119	224.92
352.502	258.82
352.884	264.7
353.267	281.42
353.65	270.8
354.032	275.09
354.414	306.5
354.797	295.2
355.179	307.18
355.562	324.13
355.944	316.67
356.326	338.59
356.709	346.05
357.091	323.9
357.473	325.26
357.855	323
358.238	326.62
358.62	331.14
359.002	331.59
359.384	322.32
359.766	335.88
360.148	335.66
360.53	334.53
360.912	325.71
361.294	329.1
361.676	313.51
362.057	332.27
362.439	320.74
362.821	336.33
363.203	322.1
363.584	310.34
363.966	316.67
364.348	305.6
364.729	300.63
365.111	301.08
365.493	308.54
365.874	302.44
366.256	297.69
366.637	304.47
367.019	323.9
367.4	302.66
367.781	292.94
368.163	320.97
368.544	307.18
368.925	302.66
369.306	309.22
369.688	283.9
370.069	315.54
370.45	300.18
370.831	324.58
371.212	311.02
371.593	311.02
371.974	309.89
372.355	288.88
372.736	293.4
373.117	320.97
373.498	328.2
373.879	301.98
374.26	314.86
374.641	292.94
375.021	307.18
375.402	308.31
375.783	323
376.163	321.42
376.544	316.9
376.925	335.66
377.305	308.31
377.686	330.68
378.066	328.2
378.447	322.32
378.827	351.47
379.208	340.63
379.588	310.8
379.968	323.9
380.349	319.16
380.729	316.67
381.109	321.19
381.489	340.4
381.87	310.34
382.25	337.01
382.63	341.3
383.01	341.08
383.39	353.06
383.77	320.06
384.15	337.24
384.53	334.98
384.91	351.93
385.29	313.96
385.67	325.26
386.049	339.95
386.429	322.32
386.809	325.71
387.189	343.79
387.568	364.81
387.948	359.84
388.328	330.68
388.707	344.92
389.087	337.91
389.466	323
389.846	341.53
390.225	357.35
390.605	329.33
390.984	341.98
391.363	362.32
391.743	361.64
392.122	325.71
392.501	353.06
392.881	355.54
393.26	374.75
393.639	364.35
394.018	373.85
394.397	359.84
394.776	363.9
395.155	365.03
395.534	352.15
395.913	363.68
396.292	373.85
396.671	396.67
397.05	365.03
397.429	360.74
397.808	374.52
398.186	378.37
398.565	370.46
398.944	380.4
399.323	370.46
399.701	382.21
400.08	367.07
400.458	384.92
400.837	389.21
401.215	384.69
401.594	396.9
401.972	367.29
402.351	415.88
402.729	390.79
403.107	404.35
403.486	407.74
403.864	377.24
404.242	396.9
404.62	400.96
404.999	389.66
405.377	398.48
405.755	388.53
406.133	399.38
406.511	410.46
406.889	419.49
407.267	425.6
407.645	424.01
408.023	412.94
408.401	427.18
408.779	427.4
409.156	433.05
409.534	427.4
409.912	462.43
410.29	473.73
410.667	432.83
411.045	449.32
411.422	454.07
411.8	476.67
412.178	467.63
412.555	478.25
412.933	468.98
413.31	488.19
413.687	506.72
414.065	518.02
414.442	512.6
414.819	507.18
415.197	542.43
415.574	527.74
415.951	520.51
416.328	525.25
416.705	539.72
417.082	536.1
417.46	542.88
417.837	542.88
418.214	579.49
418.591	567.97
418.967	565.25
419.344	565.25
419.721	599.38
420.098	608.19
420.475	586.27
420.852	586.72
421.228	607.74
421.605	606.16
421.982	603.22
422.358	602.09
422.735	610.9
423.111	616.33
423.488	625.82
423.864	625.14
424.241	654.52
424.617	649.77
424.994	653.16
425.37	668.53
425.746	641.18
426.123	657.91
426.499	661.97
426.875	694.29
427.251	696.1
427.627	692.03
428.003	701.07
428.379	716.66
428.756	725.02
429.132	711.69
429.507	740.16
429.883	746.04
430.259	767.96
430.635	780.16
431.011	766.15
431.387	760.5
431.763	792.82
432.138	809.54
432.514	795.98
432.89	801.63
433.265	812.93
433.641	816.09
434.016	828.3
434.392	827.17
434.767	835.3
435.143	845.7
435.518	854.29
435.894	871.46
436.269	895.19
436.644	895.41
437.02	861.74
437.395	898.58
437.77	893.83
438.145	915.75
438.52	929.76
438.895	918.01
439.271	925.24
439.646	941.97
440.021	942.64
440.395	964.34
440.77	964.57
441.145	964.57
441.52	984.9
441.895	985.81
442.27	980.16
442.645	998.01
443.019	977.67
443.394	972.7
443.769	1008.18
444.143	997.78
444.518	991.23
444.892	1009.54
445.267	1015.64
445.641	1017.9
446.016	1038.69
446.39	1040.95
446.764	1014.96
447.139	1023.32
447.513	1059.25
447.887	1040.27
448.262	1032.36
448.636	1037.78
449.01	1040.72
449.384	1042.3
449.758	1047.73
450.132	1085.47
450.506	1091.12
450.88	1094.51
451.254	1062.87
451.628	1085.24
452.002	1102.41
452.376	1119.14
452.75	1110.78
453.123	1095.86
453.497	1112.81
453.871	1132.92
454.244	1130.89
454.618	1146.48
454.992	1161.17
455.365	1132.02
455.739	1173.37
456.112	1173.15
456.486	1160.94
456.859	1177.44
457.232	1218.34
457.606	1197.1
457.979	1214.73
458.352	1223.32
458.725	1254.05
459.099	1249.76
459.472	1258.57
459.845	1289.3
460.218	1267.83
460.591	1281.39
460.964	1302.64
461.337	1305.35
461.71	1330.88
462.083	1328.62
462.456	1372.24
462.829	1341.96
463.201	1326.14
463.574	1362.29
463.947	1374.95
464.32	1382.18
464.692	1380.15
465.065	1401.39
465.438	1422.18
465.81	1445.68
466.183	1463.53
466.555	1453.37
466.928	1455.17
467.3	1460.37
467.672	1480.48
468.045	1498.11
468.417	1511.22
468.789	1513.7
469.161	1532.23
469.534	1551.44
469.906	1577.43
470.278	1558
470.65	1592.12
471.022	1623.08
471.394	1648.84
471.766	1663.53
472.138	1669.41
472.51	1684.32
472.882	1699.91
473.253	1742.85
473.625	1740.59
473.997	1797.31
474.369	1785.33
474.74	1774.71
475.112	1813.58
475.484	1826.24
475.855	1848.84
476.227	1888.16
476.598	1931.77
476.97	1934.48
477.341	1958.44
477.713	1983.52
478.084	1972.67
478.455	2044.08
478.827	2074.37
479.198	2076.17
479.569	2104.65
479.94	2141.26
480.311	2151.43
480.682	2176.28
481.053	2239.11
481.424	2235.04
481.795	2258.09
482.166	2314.13
482.537	2335.6
482.908	2333.12
483.279	2356.39
483.65	2405.88
484.021	2430.06
484.391	2458.54
484.762	2447.92
485.133	2493.56
485.503	2499.89
485.874	2577.63
486.244	2590.28
486.615	2621.47
486.985	2622.15
487.356	2682.26
487.726	2682.26
488.097	2733.33
488.467	2718.64
488.837	2762.94
489.207	2824.86
489.578	2847.23
489.948	2861.24
490.318	2891.52
490.688	2950.05
491.058	2933.1
491.428	2977.17
491.798	2965.42
492.168	3025.08
492.538	3038.41
492.908	3091.29
493.278	3102.36
493.648	3073.89
494.017	3168.57
494.387	3155.92
494.757	3187.56
495.126	3228.91
495.496	3249.7
495.866	3232.98
496.235	3246.76
496.605	3300.32
496.974	3289.93
497.344	3292.64
497.713	3355.46
498.082	3374.45
498.452	3376.7
498.821	3369.02
499.19	3420.77
499.559	3433.65
499.928	3490.83
500.298	3478.85
500.667	3475.23
501.036	3489.7
501.405	3503.93
501.774	3483.82
502.143	3558.62
502.512	3585.06
502.88	3574.21
503.249	3590.94
503.618	3571.95
503.987	3604.95
504.356	3623.03
504.724	3614.21
505.093	3660.77
505.462	3654.66
505.83	3707.32
506.199	3677.94
506.567	3671.16
506.936	3740.31
507.304	3743.25
507.672	3757.49
508.041	3777.6
508.409	3764.49
508.777	3805.85
509.145	3793.42
509.514	3800.65
509.882	3791.38
510.25	3810.59
510.618	3866.18
510.986	3820.76
511.354	3898.27
511.722	3866.86
512.09	3900.31
512.458	3908.44
512.826	3987.76
513.193	3932.17
513.561	3952.74
513.929	3937.37
514.297	3976.69
514.664	3952.06
515.032	3991.15
515.4	4020.3
515.767	4002
516.135	4048.33
516.502	4003.36
516.869	4039.06
517.237	4085.61
517.604	4049.91
517.972	4051.26
518.339	4072.96
518.706	4093.3
519.073	4094.2
519.44	4094.65
519.808	4157.25
520.175	4157.48
520.542	4211.49
520.909	4185.27
521.276	4179.4
521.643	4210.36
522.009	4216
522.376	4203.35
522.743	4259.39
523.11	4306.17
523.477	4292.39
523.843	4301.43
524.21	4346.62
524.577	4344.36
524.943	4368.09
525.31	4347.98
525.676	4418.71
526.043	4423.68
526.409	4415.1
526.776	4436.34
527.142	4449.45
527.508	4456.68
527.874	4470.91
528.241	4540.29
528.607	4509.78
528.973	4538.48
529.339	4552.27
529.705	4579.39
530.071	4640.17
530.437	4645.6
530.803	4708.65
531.169	4660.74
531.535	4695.31
531.901	4703
532.267	4682.89
532.632	4760.4
532.998	4761.98
533.364	4778.02
533.73	4784.58
534.095	4868.87
534.461	4839.27
534.826	4874.29
535.192	4880.62
535.557	4934.86
535.923	4961.75
536.288	4971.92
536.653	5022.76
537.019	4964.91
537.384	5022.31
537.749	5048.3
538.114	5029.32
538.479	5068.86
538.845	5055.53
539.21	5086.49
539.575	5140.5
539.94	5116.77
540.305	5114.74
540.67	5180.27
541.034	5213.04
541.399	5202.19
541.764	5230.67
542.129	5222.08
542.494	5299.82
542.858	5342.3
543.223	5276.99
543.587	5373.94
543.952	5356.77
544.316	5384.56
544.681	5420.95
545.045	5439.25
545.41	5435.41
545.774	5476.54
546.138	5477.44
546.503	5526.93
546.867	5527.83
547.231	5581.39
547.595	5543.88
547.959	5568.74
548.324	5583.2
548.688	5599.7
549.052	5609.64
549.416	5674.05
549.779	5647.38
550.143	5682.86
550.507	5746.13
550.871	5748.85
551.235	5738.68
551.599	5784.55
551.962	5790.88
552.326	5798.56
552.689	5818.45
553.053	5806.92
553.417	5844.89
553.78	5887.6
554.143	5876.53
554.507	5884.21
554.87	5890.09
555.234	6018.67
555.597	5932.57
555.96	5941.61
556.323	5988.84
556.686	5994.94
557.05	6040.59
557.413	6022.74
557.776	6020.7
558.139	6034.04
558.502	6092.11
558.865	6144.54
559.228	6192
559.59	6208.49
559.953	6146.12
560.316	6195.61
560.679	6227.48
561.041	6252.11
561.404	6236.74
561.767	6304.76
562.129	6251.43
562.492	6321.49
562.854	6351.09
563.217	6300.92
563.579	6341.82
563.941	6332.79
564.304	6415.5
564.666	6396.51
565.028	6438.09
565.39	6470.18
565.753	6467.47
566.115	6458.66
566.477	6516.06
566.839	6502.27
567.201	6559.9
567.563	6556.28
567.925	6691.42
568.287	6618.43
568.648	6623.4
569.01	6703.62
569.372	6758.99
569.734	6759.44
570.095	6756.05
570.457	6795.37
570.819	6855.48
571.18	6825.65
571.542	6864.3
571.903	6902.94
572.265	6969.38
572.626	6981.81
572.987	7074.01
573.349	7145.42
573.71	7142.71
574.071	7112.65
574.432	7227.9
574.794	7301.8
575.155	7296.83
575.516	7324.85
575.877	7438.97
576.238	7443.94
576.599	7504.96
576.96	7539.99
577.32	7658.4
577.681	7779.53
578.042	7821.56
578.403	7889.13
578.763	7980.43
579.124	8036.7
579.485	8219.52
579.845	8283.92
580.206	8309.68
580.566	8431.26
580.927	8589.22
581.287	8752.83
581.648	8823.57
582.008	8963.9
582.368	9043
582.728	9214.97
583.089	9300.62
583.449	9494.51
583.809	9592.59
584.169	9749.42
584.529	9999.36
584.889	10253.36
585.249	10262.4
585.609	10482.51
585.969	10769.28
586.329	10938.99
586.688	11146.44
587.048	11392.09
587.408	11532.65
587.768	11715.92
588.127	12030.71
588.487	12136.25
588.846	12509.57
589.206	12726.06
589.565	12995.66
589.925	13243.79
590.284	13437.68
590.643	13712.48
591.003	13994.05
591.362	14281.5
591.721	14464.32
592.08	14860.47
592.44	15137.53
592.799	15497.74
593.158	15612.99
593.517	15885.08
593.876	16232.41
594.235	16483.03
594.593	16712.63
594.952	17084.59
595.311	17292.27
595.67	17614.3
596.029	18021.97
596.387	18258.57
596.746	18576.98
597.104	18814.04
597.463	19077.08
597.822	19401.14
598.18	19709.83
598.538	19950.05
598.897	20242.93
599.255	20492.87
599.613	20991.16
599.972	21093.53
600.33	21423.91
600.688	21665.04
601.046	21921.08
601.404	22312.93
601.762	22493.94
602.12	22846.25
602.478	23094.38
602.836	23427.25
603.194	23588.6
603.552	23856.39
603.91	24068.36
604.268	24327.34
604.625	24617.05
604.983	24850.94
605.341	25026.08
605.698	25392.4
606.056	25663.35
606.413	25873.74
606.771	26250.68
607.128	26444.12
607.485	26548.07
607.843	26863.77
608.2	27219.02
608.557	27457.65
608.914	27507.82
609.272	27864.87
609.629	28068.26
609.986	28418.08
610.343	28370.62
610.7	28838.86
611.057	28852.65
611.414	29092.86
611.771	29330.37
612.127	29551.38
612.484	29784.37
612.841	30106.4
613.198	30036.57
613.554	30225.26
613.911	30499.61
614.267	30674.52
614.624	30860.05
614.98	31028.86
615.337	31307.95
615.693	31343.43
616.05	31497.55
616.406	31825.22
616.762	31689.86
617.118	31961.94
617.475	32067.25
617.831	32374.59
618.187	32502.49
618.543	32592.43
618.899	32950.16
619.255	32880.34
619.611	33001.24
619.967	33060.22
620.323	33404.62
620.678	33294.79
621.034	33472.64
621.39	33537.72
621.746	33506.76
622.101	34018.16
622.457	33817.03
622.812	33988.1
623.168	34118.5
623.523	34269.45
623.879	34463.12
624.234	34269.45
624.589	34415.89
624.945	34633.28
625.3	34789.66
625.655	34793.05
626.01	34994.18
626.365	34930.45
626.72	35072.14
627.075	35064.69
627.43	35030.11
627.785	35012.48
628.14	35282.08
628.495	35290.89
628.85	35312.14
629.205	35204.57
629.559	35540.15
629.914	35358.01
630.269	35518.01
630.623	35461.06
630.978	35514.84
631.332	35671.22
631.687	35750.32
632.041	35606.59
632.396	35740.83
632.75	35690.88
633.104	35792.8
633.459	35617.21
633.813	35702.18
634.167	35635.74
634.521	35716.65
634.875	35839.35
635.229	35854.5
635.583	35640.49
635.937	35753.93
636.291	35492.7
636.645	35894.49
636.999	35754.16
637.352	35940.82
637.706	35734.27
638.06	35823.76
638.413	35704.22
638.767	35698.79
639.121	35854.72
639.474	35529.31
639.828	35658.12
640.181	35711
640.534	35877.09
640.888	35802.29
641.241	35605.46
641.594	35738.11
641.947	35764.55
642.301	35774.27
642.654	35661.05
643.007	35739.02
643.36	35642.98
643.713	35614.73
644.066	35832.8
644.419	35671.22
644.771	35401.17
645.124	35059.94
645.477	35089.77
645.83	34760.06
646.182	34775.2
646.535	34697.46
646.888	34730
647.24	34497.02
647.593	34844.13
647.945	34744.69
648.298	34537.92
648.65	34478.94
649.002	34407.3
649.355	34514.87
649.707	34610.69
650.059	34650.91
650.411	35057.23
650.763	35081.63
651.115	35508.74
651.467	35380.38
651.819	35453.15
652.171	35392.59
652.523	35212.25
652.875	35220.61
653.227	35167.06
653.578	35363.21
653.93	35225.59
654.282	35170.45
654.633	35104.68
654.985	35247.51
655.337	35178.35
655.688	35202.31
656.039	35303.1
656.391	35073.27
656.742	35074.4
657.094	35130.22
657.445	35239.37
657.796	35099.03
658.147	35126.15
658.498	35049.77
658.849	35083.67
659.2	35122.54
659.551	34990.11
659.902	35179.94
660.253	35102.2
660.604	35090.67
660.955	34914.18
661.306	35156.43
661.656	34853.62
662.007	34961.86
662.358	35026.27
662.708	35066.27
663.059	35049.09
663.409	34789.89
663.76	35010.9
664.11	34927.51
664.461	35210.22
664.811	34992.6
665.161	35019.71
665.511	34904.92
665.862	35058.36
666.212	34932.49
666.562	35030.34
666.912	34907.85
667.262	34848.19
667.612	34967.96
667.962	34958.02
668.312	34931.58
668.662	35056.55
669.011	34990.11
669.361	34903.56
669.711	34861.07
670.06	34752.83
670.41	34921.64
670.76	34863.11
671.109	34961.64
671.459	34872.83
671.808	34731.13
672.157	34850.45
672.507	34519.84
672.856	34778.59
673.205	34807.29
673.554	34861.53
673.904	34584.7
674.253	34922.54
674.602	34654.3
674.951	34319.62
675.3	34198.27
675.649	34601.87
675.998	34605.71
676.346	34621.76
676.695	34792.15
677.044	34521.87
677.393	34549.67
677.741	34595.55
678.09	34482.55
678.438	34469.67
678.787	34474.42
679.135	34581.08
679.484	34269.23
679.832	34385.38
680.181	34252.05
680.529	34343.35
680.877	34147.87
681.225	34205.5
681.573	34376.79
681.922	34042.34
682.27	34076.91
682.618	34248.66
682.966	33908.78
683.314	33951.49
683.661	33884.6
684.009	33769.35
684.357	33618.85
684.705	33725.29
685.053	33715.79
685.4	33636.47
685.748	33530.26
686.095	33480.09
686.443	33405.97
686.79	33371.62
687.138	33479.87
687.485	33470.15
687.832	33306.09
688.18	33460.21
688.527	33083.95
688.874	33212.53
689.221	33084.17
689.568	33104.74
689.915	32918.98
690.262	32947.9
690.609	32884.18
690.956	32812.77
691.303	32669.95
691.65	32603.51
691.997	32622.26
692.344	32359.9
692.69	32350.41
693.037	32313.12
693.383	32118.1
693.73	32230.18
694.077	32091.66
694.423	32094.82
694.769	32007.82
695.116	31872.45
695.462	31933.47
695.808	31795.84
696.155	31843.75
696.501	31603.53
696.847	31526.7
697.193	31329.19
697.539	31434.27
697.885	31408.96
698.231	31177.33
698.577	31128.52
698.923	31100.95
699.269	30906.6
699.614	30987.28
699.96	30822.09
700.306	30762.88
700.651	30667.06
700.997	30550.45
701.342	30593.84
701.688	30315.43
702.033	30366.73
702.379	30347.97
702.724	30187.53
703.069	30292.83
703.415	29941.66
703.76	29945.5
704.105	29994.99
704.45	29939.17
704.795	29759.29
705.14	29692.4
705.485	29717.26
705.83	29577.82
706.175	29580.31
706.52	29501.67
706.865	29363.14
707.209	29319.53
707.554	29227.1
707.899	29209.92
708.243	29131.51
708.588	29059.87
708.932	28876.83
709.277	28964.51
709.621	28924.06
709.966	28635.02
710.31	28840.22
710.654	28607.68
710.998	28674.8
711.342	28536.27
711.687	28531.98
712.031	28457.18
712.375	28358.42
712.719	28280.46
713.063	28179.89
713.407	28358.65
713.75	28091.76
714.094	28121.59
714.438	28000.92
714.782	28066.45
715.125	27897.19
715.469	27918.66
715.812	27746.46
716.156	27699.46
716.499	27694.03
716.843	27742.17
717.186	27521.61
717.53	27631.66
717.873	27640.25
718.216	27405.23
718.559	27411.1
718.902	27263.53
719.246	27358.9
719.589	27189.41
719.932	27116.65
720.275	27203.88
720.617	27145.57
720.96	27116.19
721.303	26973.37
721.646	27082.52
721.989	26899.25
722.331	27007.5
722.674	26969.76
723.016	26753.49
723.359	26752.14
723.701	26868.06
724.044	26688.86
724.386	26516.89
724.729	26727.05
725.071	26526.6
725.413	26666.94
725.755	26471.24
726.097	26522.54
726.439	26312.6
726.782	26374.07
727.124	26435.08
727.465	26221.98
727.807	26215.65
728.149	26146.5
728.491	26212.94
728.833	26208.42
729.175	26120.06
729.516	26056.56
729.858	25971.82
730.199	26045.94
730.541	25987.18
730.882	25981.53
731.224	25875.32
731.565	25786.29
731.906	25751.26
732.248	25846.85
732.589	25666.06
732.93	25500.19
733.271	25565.27
733.612	25605.05
733.953	25653.41
734.294	25504.71
734.635	25414.09
734.976	25465.62
735.317	25389.69
735.658	25363.47
735.999	25410.7
736.339	25261.55
736.68	25381.1
737.021	25296.81
737.361	25101.78
737.702	25331.61
738.042	25125.74
738.383	25211.61
738.723	25121.22
739.063	25090.03
739.404	25113.53
739.744	24990.83
740.084	24896.37
740.424	24939.53
740.764	24772.98
741.104	24847.55
741.444	24768.91
741.784	24650.04
742.124	24708.12
742.464	24671.51
742.804	24759.65
743.143	24553.78
743.483	24487.11
743.823	24375.93
744.162	24405.08
744.502	24426.77
744.841	24417.06
745.181	24448.24
745.52	24321.24
745.86	24443.95
746.199	24196.5
746.538	24271.75
746.877	24307
747.216	24317.17
747.556	24211.86
747.895	24192.65
748.234	24021.81
748.573	24046.67
748.911	24107.91
749.25	24014.13
749.589	23981.81
749.928	23885.09
750.267	23986.78
750.605	23820.46
750.944	23793.57
751.283	23712.67
751.621	23753.8
751.96	23512.67
752.298	23589.73
752.636	23534.37
752.975	23436.74
753.313	23438.1
753.651	23556.74
753.989	23339.57
754.327	23297.76
754.666	23175.28
755.004	23185
755.342	23292.34
755.679	23195.39
756.017	23042.18
756.355	23199.01
756.693	22941.61
757.031	23108.62
757.368	22852.13
757.706	22833.37
758.044	22828.17
758.381	22772.35
758.719	22710.89
759.056	22676.54
759.394	22577.1
759.731	22493.72
760.068	22447.84
760.405	22313.83
760.743	22352.93
761.08	22354.74
761.417	22240.62
761.754	22157.23
762.091	22085.59
762.428	22026.84
762.765	21923.34
763.102	21945.71
763.438	21771.48
763.775	21718.82
764.112	21743.23
764.449	21744.81
764.785	21576
765.122	21486.51
765.458	21374.42
765.795	21396.12
766.131	21381.88
766.467	21215.33
766.804	21245.39
767.14	21064.83
767.476	21075
767.812	20953.64
768.148	20916.58
768.485	20715.68
768.821	20744.61
769.157	20738.28
769.492	20642.24
769.828	20569.25
770.164	20504.84
770.5	20425.3
770.836	20506.42
771.171	20282.02
771.507	20229.37
771.842	20195.92
772.178	20151.18
772.513	20130.84
772.849	19916.84
773.184	19931.52
773.519	19922.71
773.855	19771.98
774.19	19643.4
774.525	19701.7
774.86	19629.38
775.195	19618.99
775.53	19404.08
775.865	19346.68
776.2	19199.57
776.535	19122.28
776.87	19107.82
777.205	19088.61
777.539	18908.05
777.874	18993.7
778.209	18771.78
778.543	18771.78
778.878	18678.45
779.212	18710.31
779.547	18492.69
779.881	18618.56
780.215	18407.27
780.55	18397.1
780.884	18349.42
781.218	18324.56
781.552	18286.14
781.886	18129.99
782.22	18092.25
782.554	17955.98
782.888	17928.19
783.222	17879.37
783.556	17654.07
783.889	17754.63
784.223	17560.29
784.557	17589.21
784.89	17596.67
785.224	17432.38
785.557	17401.87
785.891	17359.61
786.224	17276
786.558	17241.88
786.891	17044.14
787.224	17083.01
787.557	16992.62
787.891	16979.06
788.224	16911.26
788.557	16964.82
788.89	16866.97
789.223	16929.34
789.556	16670.14
789.888	16735.9
790.221	16591.72
790.554	16523.25
790.887	16502.91
791.219	16508.79
791.552	16358.74
791.884	16275.8
792.217	16262.24
792.549	16185.63
792.882	16074.22
793.214	16016.82
793.546	16043.26
793.879	15811.86
794.211	15828.13
794.543	15998.52
794.875	15745.65
795.207	15885.53
795.539	15742.71
795.871	15671.07
796.203	15555.14
796.535	15552.43
796.867	15487.35
797.198	15488.7
797.53	15438.99
797.862	15380.68
798.193	15344.75
798.525	15185.66
798.856	15287.58
799.188	15152.21
799.519	15054.59
799.85	14968.94
800.182	14931.88
800.513	14956.74
800.844	14816.63
801.175	14949.28
801.506	14801.04
801.837	14761.04
802.168	14733.24
802.499	14682.85
802.83	14627.71
803.161	14616.86
803.491	14607.82
803.822	14670.65
804.153	14441.72
804.483	14369.18
804.814	14349.75
805.145	14315.85
805.475	14281.73
805.805	14186.36
806.136	14295.97
806.466	14209.19
806.796	14148.63
807.126	14069.53
807.457	14036.76
807.787	13990.21
808.117	13874.73
808.447	13831.12
808.777	13840.16
809.107	13891
809.436	13863.89
809.766	13826.6
810.096	13778.01
810.426	13643.1
810.755	13726.94
811.085	13613.5
811.414	13653.04
811.744	13585.93
812.073	13494.18
812.403	13429.77
812.732	13457.8
813.061	13449.66
813.39	13378.02
813.719	13367.4
814.049	13410.34
814.378	13313.39
814.707	13289.66
815.036	13214.64
815.365	13157.01
815.693	13111.36
816.022	13104.58
816.351	13018.71
816.68	12924.93
817.008	13048.54
817.337	12863.69
817.665	12825.95
817.994	12925.38
818.322	12810.81
818.651	12786.85
818.979	12792.73
819.307	12839.73
819.636	12773.75
819.964	12626.18
820.292	12717.48
820.62	12707.99
820.948	12559.06
821.276	12732.62
821.604	12619.63
821.932	12717.7
822.259	12622.79
822.587	12679.74
822.915	12609.46
823.243	12627.08
823.57	12548.22
823.898	12644.71
824.225	12594.77
824.553	12587.08
824.88	12517.48
825.207	12594.99
825.535	12639.06
825.862	12650.13
826.189	12569.23
826.516	12640.42
826.843	12703.69
827.17	12632.05
827.497	12562.45
827.824	12610.81
828.151	12642.9
828.478	12577.37
828.805	12623.92
829.131	12588.89
829.458	12462.79
829.785	12465.96
830.111	12510.02
830.438	12612.17
830.764	12555.9
831.09	12627.31
831.417	12483.36
831.743	12521.1
832.069	12475.67
832.395	12467.54
832.722	12477.26
833.048	12453.98
833.374	12607.42
833.7	12448.78
834.026	12463.47
834.351	12489.91
834.677	12423.7
835.003	12439.52
835.329	12414.89
835.654	12418.05
835.98	12372.85
836.306	12344.6
836.631	12260.09
836.956	12350.93
837.282	12313.42
837.607	12291.72
837.932	12235
838.258	12245.17
838.583	12224.61
838.908	12074.56
839.233	12172.86
839.558	12159.07
839.883	12164.95
840.208	12056.48
840.533	12093.31
840.858	12106.64
841.182	12020.77
841.507	11969.7
841.832	11938.29
842.156	11950.26
842.481	11952.98
842.805	11931.06
843.13	11899.87
843.454	11883.6
843.778	11799.53
844.103	11835.69
844.427	11792.98
844.751	11764.96
845.075	11701.46
845.399	11649.71
845.723	11733.1
846.047	11692.19
846.371	11546.66
846.695	11566.55
847.019	11439.09
847.343	11375.59
847.666	11340.79
847.99	11328.81
848.313	11284.52
848.637	11155.94
848.96	11133.34
849.284	11148.03
849.607	11100.12
849.931	11006.56
850.254	10920.91
850.577	10946.22
850.9	10871.42
851.223	10780.58
851.546	10794.36
851.869	10726.57
852.192	10743.06
852.515	10633.69
852.838	10632.11
853.161	10592.33
853.483	10643.63
853.806	10566.57
854.129	10491.32
854.451	10488.83
854.774	10369.52
855.096	10423.53
855.419	10395.73
855.741	10354.83
856.063	10261.04
856.385	10269.41
856.708	10218.11
857.03	10158
857.352	10228.05
857.674	10129.52
857.996	10127.49
858.318	10066.7
858.64	10098.56
858.961	10057.21
859.283	9986.93
859.605	9946.93
859.926	9967.04
860.248	9945.57
860.57	9862.64
860.891	9931.33
861.212	9805.91
861.534	9881.39
861.855	9783.09
862.176	9803.43
862.498	9682.75
862.819	9788.29
863.14	9727.27
863.461	9732.7
863.782	9656.31
864.103	9648.86
864.424	9642.3
864.745	9613.15
865.065	9599.82
865.386	9567.05
865.707	9582.64
866.027	9587.62
866.348	9613.38
866.668	9526.15
866.989	9502.19
867.309	9438.01
867.63	9469.2
867.95	9410.67
868.27	9399.82
868.59	9409.54
868.91	9458.58
869.23	9344.01
869.55	9367.96
869.87	9392.82
870.19	9339.03
870.51	9329.09
870.83	9330.22
871.15	9292.03
871.469	9235.31
871.789	9233.73
872.109	9344.01
872.428	9229.66
872.748	9213.39
873.067	9216.33
873.386	9151.02
873.706	9185.59
874.025	9176.1
874.344	9102.88
874.663	9134.07
874.982	9046.16
875.301	9051.58
875.62	9085.26
875.939	9015.2
876.258	9010
876.577	9012.49
876.896	9037.12
877.214	9036.9
877.533	8989.89
877.852	8964.81
878.17	8958.71
878.489	8929.1
878.807	8944.47
879.125	8954.19
879.444	8939.5
879.762	8919.84
880.08	8822.89
880.398	8804.13
880.716	8754.19
881.034	8843.91
881.352	8802.55
881.67	8743.12
881.988	8772.72
882.306	8796.68
882.624	8729.11
882.941	8699.05
883.259	8670.35
883.577	8599.39
883.894	8636.23
884.212	8603.69
884.529	8580.41
884.846	8597.58
885.164	8556.46
885.481	8548.09
885.798	8508.55
886.115	8498.15
886.432	8566.4
886.75	8417.02
887.067	8480.75
887.383	8436.01
887.7	8468.1
888.017	8354.2
888.334	8404.82
888.651	8391.71
888.967	8377.7
889.284	8281.21
889.6	8238.27
889.917	8174.09
890.233	8181.1
890.55	8123.92
890.866	8241.89
891.182	8180.65
891.498	8143.36
891.815	8150.82
892.131	8125.05
892.447	8104.26
892.763	8070.59
893.079	8074.21
893.395	7984.95
893.71	7943.82
894.026	7981.33
894.342	7931.16
894.657	7902.91
894.973	7880.32
895.289	7844.61
895.604	7841.45
895.92	7685.07
896.235	7705.63
896.55	7737.27
896.865	7737.27
897.181	7676.25
897.496	7757.38
897.811	7694.56
898.126	7601.45
898.441	7610.94
898.756	7579.08
899.071	7570.27
899.386	7504.96
899.7	7427.67
900.015	7436.71
900.33	7432.42
900.644	7396.94
900.959	7350.39
901.273	7361.91
901.588	7381.57
901.902	7299.31
902.216	7232.87
902.531	7254.8
902.845	7173.44
903.159	7134.8
903.473	7195.81
903.787	7106.78
904.101	7096.16
904.415	7088.7
904.729	7112.65
905.042	6990.62
905.356	6999.89
905.67	7002.82
905.984	6922.6
906.297	6893
906.611	6918.53
906.924	6910.17
907.237	6814.35
907.551	6785.65
907.864	6789.27
908.177	6790.17
908.491	6730.06
908.804	6741.36
909.117	6671.99
909.43	6666.11
909.743	6621.82
910.056	6610.74
910.368	6588.37
910.681	6481.71
910.994	6545.89
911.307	6541.14
911.619	6440.81
911.932	6523.29
912.244	6423.86
912.557	6435.83
912.869	6380.92
913.181	6333.92
913.494	6298.66
913.806	6279.23
914.118	6285.33
914.43	6235.61
914.742	6251.66
915.054	6268.38
915.366	6190.42
915.678	6154.71
915.99	6163.52
916.302	6104.77
916.613	6092.11
916.925	6031.1
917.236	6044.88
917.548	6014.6
917.859	6031.55
918.171	5919.46
918.482	5928.05
918.794	5914.27
919.105	5869.75
919.416	5809.86
919.727	5808.96
920.038	5813.48
920.349	5797.43
920.66	5718.11
920.971	5739.13
921.282	5702.07
921.593	5734.84
921.903	5674.95
922.214	5642.63
922.525	5616.19
922.835	5592.92
923.146	5573.71
923.456	5527.61
923.767	5552.24
924.077	5518.57
924.387	5488.74
924.697	5442.41
925.008	5516.31
925.318	5446.26
925.628	5356.77
925.938	5449.64
926.248	5387.5
926.558	5318.57
926.867	5265.47
927.177	5289.42
927.487	5259.82
927.796	5190.44
928.106	5222.76
928.416	5180.27
928.725	5154.06
929.034	5155.64
929.344	5104.12
929.653	5157.9
929.962	5133.95
930.271	5057.34
930.581	5027.06
930.89	5033.38
931.199	4935.31
931.508	4961.97
931.817	4959.26
932.125	4978.7
932.434	4880.85
932.743	4895.31
933.051	4848.98
933.36	4854.18
933.669	4827.97
933.977	4827.74
934.286	4778.02
934.594	4744.58
934.902	4733.51
935.21	4696.22
935.519	4735.77
935.827	4697.35
936.135	4636.78
936.443	4644.92
936.751	4651.47
937.059	4610.57
937.367	4596.11
937.674	4609.21
937.982	4569.22
938.29	4533.06
938.597	4515.88
938.905	4487.41
939.213	4467.3
939.52	4412.16
939.827	4471.59
940.135	4416.45
940.442	4369.9
940.749	4317.92
941.056	4412.61
941.363	4316.34
941.67	4287.42
941.977	4307.08
942.284	4255.33
942.591	4269.11
942.898	4259.85
943.205	4238.38
943.511	4204.71
943.818	4234.76
944.125	4169.68
944.431	4110.25
944.738	4115.22
945.044	4107.53
945.35	4093.97
945.657	4142.56
945.963	4092.17
946.269	4069.12
946.575	4043.13
946.881	4007.2
947.187	4006.29
947.493	3993.86
947.799	3998.16
948.105	3953.86
948.41	3935.33
948.716	3943.92
949.022	3906.18
949.327	3938.5
949.633	3836.81
949.938	3863.92
950.244	3820.08
950.549	3838.16
950.854	3770.14
951.16	3793.64
951.465	3775.79
951.77	3770.82
952.075	3757.94
952.38	3715.68
952.685	3729.46
952.99	3673.87
953.294	3667.09
953.599	3645.85
953.904	3635.91
954.209	3582.58
954.513	3594.33
954.818	3558.62
955.122	3582.8
955.426	3565.85
955.731	3540.32
956.035	3540.54
956.339	3557.72
956.643	3529.02
956.948	3489.02
957.252	3498.51
957.556	3467.1
957.86	3438.17
958.163	3423.94
958.467	3407.44
958.771	3395.01
959.075	3414.44
959.378	3377.61
959.682	3406.31
959.985	3372.64
960.289	3315.92
960.592	3305.97
960.896	3286.09
961.199	3286.09
961.502	3293.77
961.805	3225.75
962.108	3240.89
962.411	3235.24
962.714	3209.93
963.017	3208.8
963.32	3208.8
963.623	3183.49
963.926	3180.78
964.228	3151.85
964.531	3123.6
964.833	3126.54
965.136	3117.95
965.438	3098.75
965.741	3083.15
966.043	3077.73
966.345	3061.01
966.648	3033.66
966.95	3051.74
967.252	3019.43
967.554	3036.83
967.856	3003.61
968.158	2962.03
968.46	2947.79
968.761	2974.68
969.063	2937.39
969.365	2925.42
969.666	2915.47
969.968	2865.08
970.269	2872.76
970.571	2845.87
970.872	2875.25
971.174	2841.58
971.475	2834.12
971.776	2836.38
972.077	2797.96
972.378	2801.58
972.679	2812.43
972.98	2809.49
973.281	2773.33
973.582	2753.44
973.883	2734.69
974.183	2751.86
974.484	2737.63
974.785	2703.05
975.085	2715.71
975.386	2689.49
975.686	2662.6
975.986	2658.98
976.287	2657.85
976.587	2633
976.887	2620.57
977.187	2618.98
977.487	2602.04
977.787	2590.06
978.087	2562.94
978.387	2555.71
978.687	2555.48
978.987	2562.94
979.286	2532.66
979.586	2510.29
979.885	2545.99
980.185	2509.84
980.484	2502.6
980.784	2492.66
981.083	2489.27
981.382	2442.27
981.682	2445.88
981.981	2459.21
982.28	2404.53
982.579	2452.44
982.878	2426
983.177	2421.25
983.475	2426
983.774	2391.65
984.073	2391.42
984.372	2381.93
984.67	2347.81
984.969	2331.76
985.267	2333.57
985.566	2300.8
985.864	2336.05
986.162	2310.74
986.461	2264.42
986.759	2260.8
987.057	2252.89
987.355	2263.74
987.653	2265.77
987.951	2237.3
988.249	2219.67
988.547	2209.73
988.844	2222.39
989.142	2183.97
989.44	2202.05
989.737	2178.32
990.035	2156.4
990.332	2165.21
990.63	2149.84
990.927	2161.82
991.224	2117.3
991.521	2115.04
991.819	2120.01
992.116	2101.48
992.413	2088.15
992.71	2083.63
993.006	2095.38
993.303	2045.67
993.6	2040.92
993.897	2049.73
994.193	2059
994.49	2028.04
994.787	2035.27
995.083	2007.93
995.379	2007.93
995.676	1979.91
995.972	1982.62
996.268	1984.2
996.565	1952.34
996.861	1928.61
997.157	1961.83
997.453	1945.56
997.749	1932
998.044	1916.18
998.34	1883.86
998.636	1894.94
998.932	1868.95
999.227	1862.62
999.523	1848.61
999.818	1843.86
1000.114	1849.97
1000.409	1836.63
1000.704	1865.33
1001	1825.56
1001.295	1859.68
1001.59	1822.17
1001.885	1767.71
1002.18	1799.8
1002.475	1787.37
1002.77	1782.62
1003.065	1767.93
1003.359	1738.78
1003.654	1761.83
1003.949	1743.98
1004.243	1737.88
1004.538	1704.66
1004.832	1687.26
1005.127	1675.28
1005.421	1671.89
1005.715	1664.89
1006.009	1654.72
1006.304	1658.78
1006.598	1628.73
1006.892	1638.45
1007.186	1633.02
1007.48	1636.86
1007.773	1647.26
1008.067	1610.42
1008.361	1589.86
1008.655	1577.88
1008.948	1594.83
1009.242	1573.59
1009.535	1548.96
1009.829	1557.54
1010.122	1567.26
1010.415	1519.8
1010.708	1529.75
1011.001	1494.27
1011.295	1523.65
1011.588	1506.92
1011.881	1495.17
1012.173	1483.42
1012.466	1478
1012.759	1459.69
1013.052	1455.17
1013.344	1450.2
1013.637	1460.6
1013.93	1452.91
1014.222	1444.1
1014.514	1429.86
1014.807	1412.69
1015.099	1392.58
1015.391	1402.52
1015.683	1369.75
1015.976	1359.36
1016.268	1352.8
1016.56	1351.22
1016.851	1353.71
1017.143	1360.94
1017.435	1336.53
1017.727	1344.22
1018.018	1328.85
1018.31	1320.94
1018.602	1294.73
1018.893	1296.08
1019.185	1329.75
1019.476	1300.38
1019.767	1280.04
1020.058	1263.54
1020.35	1256.76
1020.641	1242.52
1020.932	1252.24
1021.223	1235.07
1021.514	1259.02
1021.804	1190.55
1022.095	1198.91
1022.386	1214.95
1022.677	1186.25
1022.967	1182.64
1023.258	1200.04
1023.548	1199.81
1023.839	1177.44
1024.129	1191.68
1024.419	1152.81
1024.709	1156.2
1025	1135.86
1025.29	1133.6
1025.58	1115.97
1025.87	1122.3
1026.16	1087.5
1026.449	1110.1
1026.739	1094.73
1027.029	1089.99
1027.319	1091.34
1027.608	1026.71
1027.898	1066.71
1028.187	1079.36
1028.477	1079.14
1028.766	1040.5
1029.055	1054.05
1029.344	1044.79
1029.634	1050.66
1029.923	1032.13
1030.212	1021.51
1030.501	1024.22
1030.79	1003.66
1031.078	992.81
1031.367	999.37
1031.656	982.19
1031.945	959.37
1032.233	969.76
1032.522	954.4
1032.81	953.04
1033.099	960.27
1033.387	970.44
1033.675	983.55
1033.963	926.15
1034.251	935.64
1034.54	911.23
1034.828	929.54
1035.116	899.71
1035.403	916.88
1035.691	915.98
1035.979	930.22
1036.267	918.01
1036.554	895.87
1036.842	876.88
1037.129	894.74
1037.417	860.61
1037.704	870.33
1037.992	855.19
1038.279	859.94
1038.566	872.82
1038.853	872.82
1039.14	872.82
