Data from hue_270_FLMS001491_00054.txt Node
Date: Tue Feb 07 15:57:23 GMT 2017
User: dcchb
Spectrometer: FLMS00149
Trigger mode: 0
Integration Time (sec): 2.000000E-2
Scans to average: 10
Electric dark correction enabled: true
Nonlinearity correction enabled: false
Boxcar width: 0
XAxis mode: Wavelengths
Number of Pixels in Spectrum: 2048
>>>>>Begin Spectral Data<<<<<
341.393	-19.38
341.776	-19.38
342.16	-19.38
342.543	-44.46
342.927	-43.78
343.31	-49.89
343.693	-82.43
344.077	-70.68
344.46	-57.8
344.843	-66.83
345.226	-47.17
345.61	-38.81
345.993	-21.64
346.376	-12.15
346.759	16.33
347.142	42.32
347.525	57.46
347.908	47.29
348.291	80.05
348.674	99.04
349.057	104.91
349.44	117.12
349.823	139.26
350.206	173.39
350.588	183.78
350.971	178.58
351.354	208.86
351.737	244.57
352.119	248.41
352.502	247.73
352.884	282.08
353.267	254.97
353.65	289.99
354.032	280.5
354.414	292.25
354.797	287.05
355.179	290.44
355.562	298.81
355.944	313.04
356.326	308.3
356.709	335.87
357.091	327.51
357.473	315.98
357.855	316.21
358.238	343.32
358.62	337.67
359.002	334.96
359.384	333.38
359.766	328.18
360.148	334.96
360.53	331.8
360.912	326.15
361.294	326.6
361.676	306.94
362.057	298.81
362.439	305.59
362.821	321.86
363.203	315.53
363.584	342.42
363.966	320.05
364.348	310.56
364.729	328.18
365.111	306.26
365.493	329.77
365.874	334.28
366.256	302.42
366.637	304.91
367.019	316.21
367.4	308.75
367.781	296.77
368.163	305.81
368.544	320.73
368.925	312.36
369.306	317.34
369.688	306.94
370.069	304.46
370.45	312.82
370.831	310.1
371.212	317.11
371.593	310.78
371.974	329.99
372.355	316.21
372.736	325.7
373.117	324.12
373.498	304.68
373.879	308.3
374.26	303.78
374.641	295.64
375.021	299.48
375.402	325.25
375.783	314.85
376.163	332.48
376.544	325.25
376.925	310.1
377.305	328.18
377.686	332.25
378.066	308.3
378.447	328.64
378.827	332.03
379.208	342.42
379.588	329.31
379.968	310.56
380.349	322.53
380.729	332.03
381.109	328.86
381.489	339.71
381.87	353.49
382.25	337.67
382.63	335.19
383.01	322.08
383.39	358.92
383.77	338.13
384.15	334.96
384.53	346.49
384.91	348.3
385.29	374.74
385.67	345.81
386.049	354.4
386.429	337.9
386.809	359.14
387.189	353.04
387.568	351.69
387.948	337.67
388.328	363.44
388.707	376.32
389.087	375.87
389.466	372.48
389.846	359.14
390.225	374.74
390.605	380.16
390.984	351.91
391.363	391.46
391.743	384.91
392.122	362.53
392.501	395.98
392.881	389.2
393.26	371.12
393.639	362.31
394.018	393.72
394.397	385.13
394.776	378.8
395.155	391.01
395.534	403.44
395.913	399.59
396.292	398.69
396.671	391.23
397.05	396.88
397.429	391.91
397.808	400.72
398.186	392.14
398.565	425.81
398.944	409.76
399.323	401.63
399.701	434.17
400.08	411.35
400.458	429.42
400.837	446.37
401.215	419.48
401.594	430.1
401.972	422.19
402.351	414.28
402.729	445.47
403.107	427.16
403.486	425.13
403.864	437.11
404.242	437.33
404.62	455.86
404.999	446.37
405.377	443.66
405.755	454.06
406.133	468.97
406.511	447.95
406.889	475.3
407.267	472.59
407.645	455.86
408.023	471.91
408.401	482.76
408.779	485.92
409.156	510.55
409.534	501.06
409.912	517.11
410.29	517.56
410.667	532.02
411.045	517.78
411.422	518.23
411.8	540.38
412.178	542.87
412.555	550.1
412.933	547.61
413.31	580.83
413.687	586.03
414.065	593.71
414.442	589.19
414.819	578.57
415.197	595.52
415.574	602.3
415.951	596.65
416.328	624.22
416.705	619.25
417.082	640.49
417.46	619.25
417.837	672.13
418.214	671.45
418.591	650.43
418.967	662.19
419.344	671.23
419.721	678.91
420.098	712.35
420.475	704.22
420.852	710.55
421.228	707.16
421.605	739.25
421.982	736.76
422.358	770.43
422.735	749.87
423.111	803.65
423.488	778.57
423.864	809.3
424.241	795.74
424.617	802.75
424.994	826.25
425.37	801.17
425.746	833.71
426.123	845.46
426.499	833.93
426.875	870.77
427.251	879.36
427.627	866.47
428.003	884.78
428.379	915.96
428.756	933.59
429.132	918.22
429.507	916.64
429.883	955.51
430.259	948.96
430.635	954.38
431.011	970.88
431.387	1008.17
431.763	1001.84
432.138	995.28
432.514	1060.37
432.89	1045
433.265	1073.02
433.641	1083.19
434.016	1078.9
434.392	1137.2
434.767	1121.38
435.143	1153.25
435.518	1168.16
435.894	1179.91
436.269	1185.79
436.644	1209.74
437.02	1206.35
437.395	1255.84
437.77	1249.29
438.145	1281.83
438.52	1292.45
438.895	1283.19
439.271	1313.24
439.646	1372.45
440.021	1357.53
440.395	1385.1
440.77	1354.15
441.145	1365.9
441.52	1419.45
441.895	1415.61
442.27	1411.32
442.645	1420.81
443.019	1459
443.394	1479.34
443.769	1498.32
444.143	1462.16
444.518	1498.55
444.892	1491.32
445.267	1541.26
445.641	1524.76
446.016	1549.85
446.39	1531.54
446.764	1579.45
447.139	1557.76
447.513	1608.15
447.887	1569.96
448.262	1615.83
448.636	1597.08
449.01	1628.04
449.384	1637.08
449.758	1607.47
450.132	1669.39
450.506	1669.62
450.88	1685.21
451.254	1692.89
451.628	1697.64
452.002	1702.61
452.376	1715.04
452.75	1727.47
453.123	1736.96
453.497	1773.34
453.871	1776.96
454.244	1867.13
454.618	1821.48
454.992	1865.54
455.365	1839.56
455.739	1896.5
456.112	1880.01
456.486	1895.6
456.859	1952.1
457.232	1970.63
457.606	1968.59
457.979	1971.76
458.352	2032.55
458.725	2061.25
459.099	2063.96
459.472	2081.58
459.845	2110.96
460.218	2079.1
460.591	2141.24
460.964	2145.76
461.337	2161.58
461.71	2177.85
462.083	2241.81
462.456	2215.37
462.829	2218.76
463.201	2224.4
463.574	2242.03
463.947	2311.18
464.32	2369.94
464.692	2330.16
465.065	2355.02
465.438	2381.46
465.81	2398.19
466.183	2451.52
466.555	2478.41
466.928	2512.31
467.3	2477.51
467.672	2527.9
468.045	2585.98
468.417	2558.63
468.789	2579.65
469.161	2634.34
469.534	2668.91
469.906	2762.24
470.278	2779.19
470.65	2743.71
471.022	2800.89
471.394	2852.86
471.766	2870.72
472.138	2845.18
472.51	2941.67
472.882	3010.82
473.253	2981.45
473.625	3041.78
473.997	3091.95
474.369	3126.3
474.74	3131.73
475.112	3168.33
475.484	3189.13
475.855	3294.43
476.227	3284.72
476.598	3374.43
476.97	3360.87
477.341	3433.41
477.713	3494.43
478.084	3500.76
478.455	3556.12
478.827	3586.4
479.198	3693.52
479.569	3714.54
479.94	3814.42
480.311	3785.49
480.682	3862.1
481.053	3912.95
481.424	3985.49
481.795	3990.46
482.166	4059.61
482.537	4098.03
482.908	4184.58
483.279	4185.03
483.65	4246.05
484.021	4305.25
484.391	4352.03
484.762	4395.2
485.133	4400.17
485.503	4465.7
485.874	4557.22
486.244	4555.87
486.615	4651.23
486.985	4672.93
487.356	4763.32
487.726	4773.72
488.097	4792.7
488.467	4862.75
488.837	4974.39
489.207	4981.39
489.578	5009.64
489.948	5060.49
490.318	5173.25
490.688	5186.13
491.058	5227.04
491.428	5327.37
491.798	5325.57
492.168	5395.85
492.538	5413.7
492.908	5406.24
493.278	5512
493.648	5546.58
494.017	5642.39
494.387	5627.03
494.757	5622.96
495.126	5665.67
495.496	5688.72
495.866	5774.59
496.235	5798.1
496.605	5828.38
496.974	5820.69
497.344	5878.32
497.713	5954.02
498.082	5950.18
498.452	6000.35
498.821	5959.67
499.19	6008.03
499.559	6085.55
499.928	6116.96
500.298	6142.27
500.667	6147.92
501.036	6169.39
501.405	6202.61
501.774	6168.71
502.143	6236.73
502.512	6282.38
502.88	6294.81
503.249	6307.24
503.618	6283.28
503.987	6341.58
504.356	6340
504.724	6381.13
505.093	6423.62
505.462	6418.42
505.83	6457.51
506.199	6478.53
506.567	6589.04
506.936	6497.96
507.304	6598.08
507.672	6610.05
508.041	6595.36
508.409	6669.94
508.777	6605.76
509.145	6711.52
509.514	6681.46
509.882	6690.28
510.25	6775.25
510.618	6760.1
510.986	6790.61
511.354	6863.83
511.722	6918.97
512.09	6888.46
512.458	6935.02
512.826	6965.3
513.193	6931.85
513.561	6963.04
513.929	6970.04
514.297	7068.8
514.664	7069.25
515.032	7099.08
515.4	7100.89
515.767	7083.26
516.135	7114.9
516.502	7021.57
516.869	7142.02
517.237	7152.18
517.604	7140.66
517.972	7198.29
518.339	7253.43
518.706	7199.64
519.073	7153.99
519.44	7263.82
519.808	7306.08
520.175	7299.75
520.542	7327.32
520.909	7349.92
521.276	7404.83
521.643	7414.78
522.009	7433.53
522.376	7511.05
522.743	7439.63
523.11	7538.39
523.477	7560.31
523.843	7582
524.21	7638.95
524.577	7659.06
524.943	7657.48
525.31	7691.61
525.676	7726.41
526.043	7702
526.409	7731.6
526.776	7807.31
527.142	7750.14
527.508	7843.69
527.874	7816.35
528.241	7893.63
528.607	7924.37
528.973	7971.15
529.339	7940.64
529.705	7974.54
530.071	8064.25
530.437	8057.02
530.803	8099.05
531.169	8033.97
531.535	8037.59
531.901	8118.49
532.267	8074.87
532.632	8156.23
532.998	8151.48
533.364	8160.75
533.73	8166.4
534.095	8181.54
534.461	8277.8
534.826	8231.03
535.192	8240.74
535.557	8305.6
535.923	8258.14
536.288	8293.62
536.653	8278.71
537.019	8331.14
537.384	8298.37
537.749	8370.68
538.114	8268.09
538.479	8359.16
538.845	8356.45
539.21	8283.45
539.575	8407.75
539.94	8411.36
540.305	8333.4
540.67	8374.53
541.034	8406.84
541.399	8370.68
541.764	8529.1
542.129	8480.74
542.494	8466.5
542.858	8480.96
543.223	8487.29
543.587	8553.5
543.952	8534.75
544.316	8494.52
544.681	8518.25
545.045	8589.21
545.41	8580.17
545.774	8583.79
546.138	8594.63
546.503	8633.05
546.867	8520.96
547.231	8625.14
547.595	8547.18
547.959	8643.9
548.324	8654.74
548.688	8634.41
549.052	8618.36
549.416	8647.51
549.779	8640.06
550.143	8661.98
550.507	8695.2
550.871	8705.36
551.235	8710.34
551.599	8724.35
551.962	8814.97
552.326	8810.45
552.689	8759.37
553.053	8735.19
553.417	8786.72
553.78	8850.67
554.143	8798.24
554.507	8889.99
554.87	8857
555.234	8845.47
555.597	8814.06
555.96	8795.98
556.323	8904.68
556.686	8908.52
557.05	8969.31
557.413	8919.37
557.776	8938.13
558.139	8985.58
558.502	9027.16
558.865	9001.4
559.228	9061.74
559.59	9138.35
559.953	9153.26
560.316	9171.79
560.679	9118.91
561.041	9197.1
561.404	9260.83
561.767	9354.61
562.129	9206.14
562.492	9323.2
562.854	9321.62
563.217	9303.31
563.579	9318.46
563.941	9402.52
564.304	9415.63
564.666	9436.87
565.028	9449.3
565.39	9485.46
565.753	9567.26
566.115	9574.72
566.477	9608.84
566.839	9555.74
567.201	9608.84
567.563	9703.53
567.925	9711.67
568.287	9670.76
568.648	9738.78
569.01	9803.41
569.372	9815.62
569.734	9845.22
570.095	9890.19
570.457	9913.69
570.819	9987.82
571.18	9953.47
571.542	9936.97
571.903	10044.76
572.265	10160.24
572.626	10119.79
572.987	10137.19
573.349	10207.7
573.71	10200.47
574.071	10213.12
574.432	10257.19
574.794	10309.39
575.155	10261.03
575.516	10291.31
575.877	10431.19
576.238	10440.23
576.599	10436.62
576.96	10447.01
577.32	10447.24
577.681	10519.55
578.042	10607.91
578.403	10623.73
578.763	10616.27
579.124	10629.16
579.485	10678.19
579.845	10699.66
580.206	10727.01
580.566	10720.23
580.927	10754.58
581.287	10843.39
581.648	10842.26
582.008	10899.88
582.368	10907.79
582.728	10911.18
583.089	10964.06
583.449	10981.46
583.809	11031.63
584.169	10992.76
584.529	11028.47
584.889	11132.65
585.249	11078.64
585.609	11126.54
585.969	11152.53
586.329	11143.27
586.688	11237.05
587.048	11209.03
587.408	11164.96
587.768	11202.93
588.127	11330.38
588.487	11211.74
588.846	11430.72
589.206	11268.01
589.565	11370.83
589.925	11549.13
590.284	11444.73
590.643	11487.66
591.003	11500.55
591.362	11547.1
591.721	11578.51
592.08	11604.72
592.44	11562.01
592.799	11710.48
593.158	11628
593.517	11699.86
593.876	11670.48
594.235	11714.78
594.593	11741.67
594.952	11744.15
595.311	11723.82
595.67	11842.91
596.029	11824.38
596.387	11954.54
596.746	11950.25
597.104	11948.44
597.463	11943.02
597.822	11954.77
598.18	11908.22
598.538	11983.47
598.897	12029.57
599.255	11983.02
599.613	12092.62
599.972	12010.59
600.33	11996.35
600.688	12084.94
601.046	12150.25
601.404	12166.74
601.762	12046.75
602.12	12213.75
602.478	12180.08
602.836	12146.4
603.194	12140.08
603.552	12269.79
603.91	12121.77
604.268	12195.89
604.625	12197.7
604.983	12251.94
605.341	12160.19
605.698	12245.84
606.056	12311.82
606.413	12249.68
606.771	12293.52
607.128	12386.17
607.485	12294.42
607.843	12347.98
608.2	12371.71
608.557	12449.67
608.914	12420.29
609.272	12417.13
609.629	12468.88
609.986	12585.04
610.343	12477.47
610.7	12453.51
611.057	12517.02
611.414	12519.95
611.771	12521.76
612.127	12520.86
612.484	12596.79
612.841	12593.85
613.198	12587.97
613.554	12587.3
613.911	12696.22
614.267	12671.14
614.624	12594.08
614.98	12751.81
615.337	12687.41
615.693	12641.98
616.05	12697.35
616.406	12772.15
616.762	12680.18
617.118	12745.94
617.475	12703
617.831	12705.71
618.187	12799.72
618.543	12804.92
618.899	12840.85
619.255	12815.76
619.611	12774.18
619.967	12792.49
620.323	12834.3
620.678	12791.58
621.034	12810.12
621.39	12788.65
621.746	12750
622.101	12963.11
622.457	12797.23
622.812	12753.39
623.168	12901.19
623.523	12915.65
623.879	12835.43
624.234	12828.65
624.589	12912.71
624.945	12844.92
625.3	12906.16
625.655	12873.39
626.01	12931.02
626.365	12840.85
626.72	12893.95
627.075	12830
627.43	12832.04
627.785	12832.04
628.14	12803.11
628.495	12857.57
628.85	12866.84
629.205	12765.6
629.559	12855.54
629.914	12777.12
630.269	12799.49
630.623	12782.09
630.978	12813.96
631.332	12769.21
631.687	12801.53
632.041	12694.41
632.396	12703.9
632.75	12718.59
633.104	12741.42
633.459	12656.67
633.813	12686.28
634.167	12616.67
634.521	12670.01
634.875	12745.48
635.229	12726.95
635.583	12544.59
635.937	12552.49
636.291	12613.96
636.645	12556.79
636.999	12583.91
637.352	12512.27
637.706	12518.15
638.06	12602.44
638.413	12569.67
638.767	12498.71
639.121	12544.13
639.474	12440.63
639.828	12400.63
640.181	12468.43
640.534	12402.89
640.888	12333.52
641.241	12364.48
641.594	12408.32
641.947	12354.76
642.301	12400.63
642.654	12415.32
643.007	12384.14
643.36	12324.7
643.713	12272.95
644.066	12332.16
644.419	12306.4
644.771	12230.24
645.124	12080.87
645.477	12132.17
645.83	12004.94
646.182	11946.18
646.535	11923.13
646.888	11990.48
647.24	11841.1
647.593	11961.1
647.945	11840.2
648.298	11847.88
648.65	11937.82
649.002	11832.74
649.355	11841.78
649.707	11881.55
650.059	11955.67
650.411	12030.93
650.763	12037.48
651.115	12126.97
651.467	12169.45
651.819	12150.02
652.171	12190.47
652.523	12045.84
652.875	12052.39
653.227	11987.54
653.578	12115.44
653.93	12105.73
654.282	12082.9
654.633	12016.24
654.985	12033.19
655.337	12076.35
655.688	12078.38
656.039	12027.99
656.391	12043.58
656.742	11984.83
657.094	12119.96
657.445	12156.57
657.796	12120.64
658.147	12070.25
658.498	12098.95
658.849	12164.48
659.2	12116.8
659.551	12069.12
659.902	12074.77
660.253	12081.55
660.604	12160.41
660.955	12070.47
661.306	12126.07
661.656	12056.91
662.007	12086.29
662.358	12090.59
662.708	12059.4
663.059	12095.11
663.409	12041.77
663.76	12115.9
664.11	12106.4
664.461	12139.62
664.811	12136.69
665.161	12095.78
665.511	12114.09
665.862	12102.56
666.212	12068.44
666.562	12114.31
666.912	12143.24
667.262	12056.01
667.612	12108.21
667.962	12169.91
668.312	12082.22
668.662	12114.99
669.011	12126.29
669.361	12071.83
669.711	12088.55
670.06	12077.48
670.41	12014.2
670.76	12063.92
671.109	12063.69
671.459	12069.12
671.808	11939.4
672.157	12096.46
672.507	12043.36
672.856	11963.13
673.205	11997.03
673.554	12007.88
673.904	11905.28
674.253	12022.34
674.602	11994.54
674.951	11828.9
675.3	11777.37
675.649	11851.72
675.998	11949.35
676.346	11910.03
676.695	11912.06
677.044	11829.58
677.393	11909.35
677.741	11908.22
678.09	11795.45
678.438	11866.41
678.787	11827.09
679.135	11764.72
679.484	11693.31
679.832	11868.67
680.181	11737.83
680.529	11785.06
680.877	11689.47
681.225	11683.37
681.573	11791.61
681.922	11642.91
682.27	11613.31
682.618	11637.94
682.966	11568.34
683.314	11566.98
683.661	11532.86
684.009	11395.92
684.357	11531.96
684.705	11500.55
685.053	11485.4
685.4	11449.25
685.748	11331.28
686.095	11334.67
686.443	11386.88
686.79	11323.37
687.138	11322.47
687.485	11280.89
687.832	11300.1
688.18	11231.17
688.527	11196.15
688.874	11239.99
689.221	11158.18
689.568	11113.21
689.915	11156.15
690.262	11111.4
690.609	11096.94
690.956	11024.4
691.303	10945.31
691.65	10928.13
691.997	10919.09
692.344	10890.17
692.69	10835.7
693.037	10868.7
693.383	10756.84
693.73	10772.2
694.077	10683.39
694.423	10663.73
694.769	10580.34
695.116	10604.98
695.462	10620.79
695.808	10598.42
696.155	10593.68
696.501	10510.29
696.847	10464.87
697.193	10391.65
697.539	10430.06
697.885	10325.21
698.231	10282.95
698.577	10229.84
698.923	10256.06
699.269	10209.96
699.614	10158.66
699.96	10155.95
700.306	10148.49
700.651	10069.85
700.997	10049.28
701.342	9935.61
701.688	9964.77
702.033	9894.26
702.379	9940.13
702.724	9877.76
703.069	9953.02
703.415	9816.52
703.76	9794.38
704.105	9792.79
704.45	9749.86
704.795	9715.28
705.14	9656.75
705.485	9678.22
705.83	9512.57
706.175	9609.52
706.52	9609.07
706.865	9547.83
707.209	9526.13
707.554	9501.73
707.899	9532.24
708.243	9460.6
708.588	9402.52
708.932	9328.85
709.277	9370.21
709.621	9314.84
709.966	9312.13
710.31	9280.26
710.654	9223.54
710.998	9241.4
711.342	9289.76
711.687	9208.4
712.031	9207.95
712.375	9172.92
712.719	9153.94
713.063	9162.75
713.407	9188.52
713.75	9063.77
714.094	9090.21
714.438	9025.13
714.782	9042.98
715.125	9033.49
715.469	9040.27
715.812	8927.51
716.156	8920.5
716.499	8967.28
716.843	8881.4
717.186	8918.47
717.53	8961.4
717.873	8897.22
718.216	8886.38
718.559	8869.88
718.902	8850.67
719.246	8807.96
719.589	8795.98
719.932	8757.79
720.275	8732.93
720.617	8790.11
720.96	8731.58
721.303	8682.77
721.646	8787.17
721.989	8699.94
722.331	8717.34
722.674	8701.75
723.016	8731.13
723.359	8769.54
723.701	8654.52
724.044	8660.17
724.386	8562.77
724.729	8696.78
725.071	8605.25
725.413	8662.2
725.755	8607.51
726.097	8550.79
726.439	8585.37
726.782	8533.17
727.124	8635.31
727.465	8576.1
727.807	8533.84
728.149	8518.93
728.491	8489.55
728.833	8510.34
729.175	8450
729.516	8549.21
729.858	8469.89
730.199	8503.11
730.541	8501.3
730.882	8505.6
731.224	8500.17
731.565	8454.3
731.906	8453.17
732.248	8495.65
732.589	8411.13
732.93	8372.49
733.271	8462.21
733.612	8469.89
733.953	8447.07
734.294	8407.97
734.635	8366.16
734.976	8444.13
735.317	8391.7
735.658	8458.14
735.999	8471.25
736.339	8390.12
736.68	8435.99
737.021	8413.62
737.361	8361.87
737.702	8450.46
738.042	8548.31
738.383	8408.65
738.723	8478.03
739.063	8457.01
739.404	8510.79
739.744	8445.71
740.084	8462.21
740.424	8433.73
740.764	8454.75
741.104	8523.9
741.444	8472.83
741.784	8497.23
742.124	8548.08
742.464	8528.65
742.804	8468.31
743.143	8601.41
743.483	8598.47
743.823	8499.27
744.162	8571.81
744.502	8581.07
744.841	8577.01
745.181	8650.45
745.52	8628.76
745.86	8772.71
746.199	8717.34
746.538	8700.62
746.877	8814.51
747.216	8756.44
747.556	8815.64
747.895	8880.73
748.234	8877.79
748.573	8928.64
748.911	8993.27
749.25	9044.11
749.589	9058.8
749.928	9168.63
750.267	9230.32
750.605	9271.45
750.944	9278
751.283	9353.48
751.621	9529.75
751.96	9555.06
752.298	9631.67
752.636	9661.95
752.975	9729.52
753.313	9755.05
753.651	9933.13
753.989	9938.1
754.327	10037.31
754.666	10073.92
755.004	10313.91
755.342	10362.72
755.679	10458.09
756.017	10514.81
756.355	10746.67
756.693	10728.14
757.031	10940.56
757.368	10952.31
757.706	11169.25
758.044	11252.64
758.381	11404.73
758.719	11526.53
759.056	11660.77
759.394	11828.67
759.731	11876.35
760.068	12054.43
760.405	12114.77
760.743	12348.88
761.08	12475.43
761.417	12581.87
761.754	12792.04
762.091	13037
762.428	13070
762.765	13106.38
763.102	13354.06
763.438	13560.83
763.775	13643.54
764.112	13723.54
764.449	14008.95
764.785	14078.56
765.122	14129.63
765.458	14285.78
765.795	14403.07
766.131	14539.34
766.467	14617.75
766.804	14823.4
767.14	14963.5
767.476	15100
767.812	15249.15
768.148	15414.79
768.485	15454.11
768.821	15563.94
769.157	15768.68
769.492	15860.43
769.828	16067.66
770.164	16034.89
770.5	16142.91
770.836	16271.49
771.171	16335.9
771.507	16505.84
771.842	16472.39
772.178	16663.12
772.513	16705.61
772.849	16783.8
773.184	16840.97
773.519	16939.72
773.855	16970.46
774.19	17047.97
774.525	17075.77
774.86	17134.3
775.195	17208.87
775.53	17150.79
775.865	17366.83
776.2	17332.93
776.535	17194.41
776.87	17445.7
777.205	17454.51
777.539	17556.88
777.874	17605.7
778.209	17607.05
778.543	17708.74
778.878	17609.31
779.212	17711.68
779.547	17632.81
779.881	17715.97
780.215	17680.72
780.55	17865.8
780.884	17852.47
781.218	17807.72
781.552	17848.4
781.886	17891.79
782.22	17863.54
782.554	17815.86
782.888	17748.52
783.222	17777.22
783.556	17703.55
783.889	17733.38
784.223	17661.96
784.557	17748.97
784.89	17788.29
785.224	17679.82
785.557	17602.76
785.891	17720.95
786.224	17739.03
786.558	17734.73
786.891	17565.47
787.224	17674.85
787.557	17565.24
787.891	17650.21
788.224	17629.2
788.557	17616.54
788.89	17600.05
789.223	17602.53
789.556	17516.88
789.888	17481.86
790.221	17463.33
790.554	17368.41
790.887	17449.99
791.219	17329.32
791.552	17416.32
791.884	17330.67
792.217	17299.49
792.549	17266.04
792.882	17082.09
793.214	17119.38
793.546	17155.09
793.879	17077.8
794.211	17028.99
794.543	17063.34
794.875	17041.64
795.207	17124.13
795.539	16971.59
795.871	16963.68
796.203	16841.42
796.535	16855.43
796.867	16852.04
797.198	16833.96
797.53	16784.47
797.862	16786.96
798.193	16686.62
798.525	16596.68
798.856	16630.81
799.188	16577.47
799.519	16421.09
799.85	16453.41
800.182	16494.76
800.513	16563.24
800.844	16226.97
801.175	16429.91
801.506	16369.12
801.837	16276.92
802.168	16264.26
802.499	16193.53
802.83	16184.72
803.161	16133.42
803.491	16097.71
803.822	16070.82
804.153	16097.03
804.483	15906.53
804.814	15909.47
805.145	15924.38
805.475	15917.15
805.805	15803.48
806.136	15883.93
806.466	15939.98
806.796	15798.51
807.126	15629.48
807.457	15609.82
807.787	15691.85
808.117	15602.58
808.447	15532.3
808.777	15618.18
809.107	15591.96
809.436	15497.05
809.766	15533.21
810.096	15447.11
810.426	15395.36
810.755	15391.52
811.085	15329.14
811.414	15280.11
811.744	15272.65
812.073	15170.96
812.403	15240.56
812.732	15202.37
813.061	15136.83
813.39	15077.17
813.719	15090.73
814.049	15050.28
814.378	15070.62
814.707	14952.88
815.036	15088.25
815.365	14910.85
815.693	14848.48
816.022	14837.41
816.351	14776.17
816.68	14776.84
817.008	14763.28
817.337	14739.1
817.665	14642.16
817.994	14739.1
818.322	14648.03
818.651	14678.77
818.979	14527.36
819.307	14588.83
819.636	14560.13
819.964	14556.06
820.292	14604.87
820.62	14567.36
820.948	14453.24
821.276	14460.24
821.604	14465.21
821.932	14488.94
822.259	14489.84
822.587	14487.36
822.915	14458.21
823.243	14489.39
823.57	14436.06
823.898	14476.06
824.225	14386.8
824.553	14360.58
824.88	14474.03
825.207	14555.61
825.535	14425.44
825.862	14520.13
826.189	14408.72
826.516	14507.47
826.843	14631.54
827.17	14509.96
827.497	14561.93
827.824	14505.21
828.151	14583.18
828.478	14530.52
828.805	14511.54
829.131	14450.52
829.458	14523.97
829.785	14355.61
830.111	14457.76
830.438	14540.92
830.764	14516.74
831.09	14569.16
831.417	14356.06
831.743	14552.22
832.069	14521.71
832.395	14585.44
832.722	14417.76
833.048	14405.33
833.374	14417.08
833.7	14408.27
834.026	14422.28
834.351	14404.42
834.677	14409.17
835.003	14404.2
835.329	14381.83
835.654	14380.7
835.98	14349.74
836.306	14293.92
836.631	14314.26
836.956	14251.66
837.282	14354.71
837.607	14253.24
837.932	14256.86
838.258	14242.39
838.583	14169.85
838.908	14101.83
839.233	14244.88
839.558	14123.07
839.883	14047.14
840.208	14057.54
840.533	14017.77
840.858	14013.93
841.182	14057.99
841.507	14072.23
841.832	13949.29
842.156	13957.88
842.481	13927.15
842.805	13870.2
843.13	13782.29
843.454	13853.7
843.778	13777.55
844.103	13691.67
844.427	13755.63
844.751	13641.05
845.075	13593.37
845.399	13571.23
845.723	13527.38
846.047	13500.04
846.371	13412.13
846.695	13467.27
847.019	13329.65
847.343	13287.84
847.666	13263.21
847.99	13200.61
848.313	13175.98
848.637	13088.53
848.96	13030.45
849.284	13046.49
849.607	12920.17
849.931	12823.9
850.254	12777.12
850.577	12710.68
850.9	12674.75
851.223	12670.91
851.546	12572.61
851.869	12568.54
852.192	12533.96
852.515	12451.93
852.838	12391.6
853.161	12386.62
853.483	12418.04
853.806	12272.95
854.129	12242.67
854.451	12273.41
854.774	12171.94
855.096	12149.34
855.419	12152.51
855.741	12113.64
856.063	12014.66
856.385	11989.8
856.708	11956.8
857.03	11912.74
857.352	11939.86
857.674	11840.2
857.996	11820.08
858.318	11755.45
858.64	11756.58
858.961	11705.29
859.283	11759.97
859.605	11603.14
859.926	11655.8
860.248	11566.98
860.57	11575.57
860.891	11516.59
861.212	11559.98
861.534	11368.12
861.855	11449.7
862.176	11458.29
862.498	11423.94
862.819	11413.32
863.14	11348.23
863.461	11392.53
863.782	11320.66
864.103	11285.64
864.424	11336.26
864.745	11248.8
865.065	11234.34
865.386	11149.82
865.707	11280.44
866.027	11236.15
866.348	11148.92
866.668	11174.45
866.989	11088.58
867.309	11096.49
867.63	11128.13
867.95	11078.86
868.27	10988.69
868.59	11087
868.91	11036.38
869.23	11003.83
869.55	10978.3
869.87	10977.39
870.19	10963.38
870.51	10976.49
870.83	10959.09
871.15	10844.07
871.469	10896.49
871.789	10875.48
872.109	10844.97
872.428	10717.97
872.748	10806.33
873.067	10816.72
873.386	10795.48
873.706	10849.49
874.025	10683.62
874.344	10598.87
874.663	10708.02
874.982	10695.37
875.301	10694.46
875.62	10593.9
875.939	10623.73
876.258	10605.88
876.577	10576.5
876.896	10553.45
877.214	10547.58
877.533	10598.42
877.852	10551.64
878.17	10562.26
878.489	10536.05
878.807	10523.85
879.125	10571.76
879.444	10496.28
879.762	10406.79
880.08	10417.86
880.398	10377.18
880.716	10388.03
881.034	10344.19
881.352	10413.12
881.67	10287.02
881.988	10268.94
882.306	10346
882.624	10189.62
882.941	10194.14
883.259	10189.39
883.577	10163.86
883.894	10181.94
884.212	10094.03
884.529	10062.62
884.846	10057.87
885.164	10073.92
885.481	10039.34
885.798	10044.99
886.115	9869.4
886.432	9933.13
886.75	9959.34
887.067	9923.86
887.383	9860.59
887.7	9867.82
888.017	9789.4
888.334	9813.58
888.651	9762.06
888.967	9729.07
889.284	9700.14
889.6	9669.41
889.917	9603.87
890.233	9619.24
890.55	9639.8
890.866	9676.41
891.182	9531.33
891.498	9548.05
891.815	9517.55
892.131	9432.12
892.447	9502.18
892.763	9408.17
893.079	9388.28
893.395	9368.17
893.71	9359.36
894.026	9344.9
894.342	9227.38
894.657	9227.84
894.973	9157.33
895.289	9190.1
895.604	9211.34
895.92	9119.82
896.235	9075.3
896.55	9020.16
896.865	9016.99
897.181	9066.71
897.496	9033.94
897.811	8926.38
898.126	8957.11
898.441	8870.11
898.756	8831.91
899.071	8845.93
899.386	8805.25
899.7	8737.23
900.015	8731.35
900.33	8605.03
900.644	8601.19
900.959	8631.92
901.273	8587.4
901.588	8555.09
901.902	8474.18
902.216	8517.8
902.531	8418.37
902.845	8426.73
903.159	8396.45
903.473	8307.86
903.787	8365.49
904.101	8300.18
904.415	8257.92
904.729	8239.39
905.042	8173.85
905.356	8153.06
905.67	8148.32
905.984	8175.43
906.297	8174.3
906.611	8065.83
906.924	8020.64
907.237	8006.85
907.551	7967.53
907.864	7944.03
908.177	7948.1
908.491	7937.7
908.804	7878.04
909.117	7782.22
909.43	7686.63
909.743	7754.65
910.056	7650.48
910.368	7680.76
910.681	7650.02
910.994	7646.64
911.307	7614.32
911.619	7498.39
911.932	7570.93
912.244	7457.71
912.557	7461.56
912.869	7386.98
913.181	7346.08
913.494	7381.56
913.806	7303.37
914.118	7335.46
914.43	7255.91
914.742	7257.27
915.054	7158.96
915.366	7172.07
915.678	7126.87
915.99	7091.17
916.302	7062.92
916.613	6999.87
916.925	7048.01
917.236	7018.4
917.548	6980.21
917.859	6934.56
918.171	6903.15
918.482	6859.09
918.794	6845.98
919.105	6826.54
919.416	6775.02
919.727	6780.67
920.038	6793.78
920.349	6697.96
920.66	6705.19
920.971	6676.49
921.282	6643.72
921.593	6631.07
921.903	6559.43
922.214	6588.81
922.525	6535.48
922.835	6489.6
923.146	6454.12
923.456	6476.95
923.767	6459.55
924.077	6388.14
924.387	6395.82
924.697	6352.21
925.008	6353.11
925.318	6257.75
925.628	6284.86
925.938	6303.17
926.248	6195.37
926.558	6180.23
926.867	6168.93
927.177	6152.66
927.487	6125.32
927.796	6036.06
928.106	6018.2
928.416	6019.56
928.725	6034.93
929.034	5928.04
929.344	5957.87
929.653	5942.05
929.962	5885.33
930.271	5928.49
930.581	5848.04
930.89	5811.2
931.199	5834.93
931.508	5798.77
931.817	5780.7
932.125	5748.61
932.434	5738.44
932.743	5646.46
933.051	5681.94
933.36	5673.13
933.669	5676.52
933.977	5614.82
934.286	5579.57
934.594	5587.48
934.902	5583.19
935.21	5509.74
935.519	5520.82
935.827	5452.57
936.135	5449.86
936.443	5382.06
936.751	5405.11
937.059	5394.04
937.367	5332.12
937.674	5324.44
937.982	5351.55
938.29	5309.07
938.597	5296.19
938.905	5211.9
939.213	5181.84
939.52	5217.77
939.827	5210.31
940.135	5129.41
940.442	5113.59
940.749	5128.51
941.056	5124.67
941.363	5080.37
941.67	5041.05
941.977	4991.56
942.284	5013.26
942.591	4964.22
942.898	4945.01
943.205	4924.45
943.511	4924.9
943.818	4905.24
944.125	4874.05
944.431	4880.83
944.738	4842.19
945.044	4825.47
945.35	4782.76
945.657	4728.75
945.963	4750.67
946.269	4714.06
946.575	4692.81
946.881	4716.09
947.187	4673.38
947.493	4651.46
947.799	4647.17
948.105	4626.38
948.41	4583.89
948.716	4549.99
949.022	4584.79
949.327	4526.27
949.633	4509.09
949.938	4521.07
950.244	4494.18
950.549	4480.62
950.854	4427.06
951.16	4451.46
951.465	4395.42
951.77	4377.79
952.075	4376.66
952.38	4337.34
952.685	4332.15
952.99	4315.65
953.294	4303.67
953.599	4260.28
953.904	4298.47
954.209	4240.4
954.513	4252.6
954.818	4190.45
955.122	4156.33
955.426	4128.54
955.731	4150.23
956.035	4089.44
956.339	4103.9
956.643	4087.41
956.948	4041.76
957.252	4040.4
957.556	4016.9
957.86	4053.28
958.163	4023.91
958.467	3993.4
958.771	3943.46
959.075	3979.16
959.378	3945.49
959.682	3950.01
959.985	3896.9
960.289	3889.45
960.592	3855.1
960.896	3919.73
961.199	3879.05
961.502	3850.58
961.805	3809.9
962.108	3777.58
962.411	3786.85
962.714	3787.3
963.017	3714.31
963.32	3733.07
963.623	3707.08
963.926	3711.15
964.228	3686.51
964.531	3649.68
964.833	3676.8
965.136	3636.35
965.438	3571.26
965.741	3593.86
966.043	3581.66
966.345	3557.03
966.648	3590.7
966.95	3536.01
967.252	3522
967.554	3547.08
967.856	3530.59
968.158	3435.67
968.46	3498.04
968.761	3433.64
969.063	3386.41
969.365	3395
969.666	3406.75
969.968	3419.85
970.269	3370.82
970.571	3330.36
970.872	3339.4
971.174	3311.38
971.475	3284.26
971.776	3318.61
972.077	3256.47
972.378	3266.41
972.679	3220.08
972.98	3294.43
973.281	3266.64
973.582	3195.23
973.883	3198.62
974.183	3177.83
974.484	3176.24
974.785	3174.44
975.085	3161.1
975.386	3129.01
975.686	3102.57
975.986	3118.84
976.287	3096.47
976.587	3086.3
976.887	3046.76
977.187	3084.5
977.487	3059.64
977.787	3007.44
978.087	3032.97
978.387	2977.38
978.687	2998.85
978.987	2994.78
979.286	2938.51
979.586	2913.2
979.885	2922.92
980.185	2880.21
980.484	2886.53
980.784	2876.82
981.083	2865.29
981.382	2881.34
981.682	2870.72
981.981	2867.78
982.28	2821.9
982.579	2794.56
982.878	2790.27
983.177	2751.85
983.475	2783.71
983.774	2767.89
984.073	2747.78
984.372	2705.75
984.67	2680.89
984.969	2754.11
985.267	2730.15
985.566	2665.75
985.864	2651.96
986.162	2678.4
986.461	2632.08
986.759	2644.28
987.057	2605.41
987.355	2589.59
987.653	2584.62
987.951	2564.96
988.249	2536.94
988.547	2570.84
988.844	2529.26
989.142	2532.87
989.44	2479.54
989.737	2475.7
990.035	2502.36
990.332	2492.19
990.63	2474.79
990.927	2470.5
991.224	2454.68
991.521	2435.92
991.819	2463.49
992.116	2392.76
992.413	2397.96
992.71	2417.17
993.006	2395.93
993.303	2366.77
993.6	2377.85
993.897	2369.49
994.193	2341.92
994.49	2343.5
994.787	2333.1
995.083	2294.69
995.379	2300.33
995.676	2277.74
995.972	2290.84
996.268	2287.91
996.565	2245.42
996.861	2262.82
997.157	2227.57
997.453	2225.53
997.749	2214.01
998.044	2235.25
998.34	2198.87
998.636	2186.89
998.932	2171.98
999.227	2129.27
999.523	2132.2
999.818	2138.98
1000.114	2090.62
1000.409	2117.97
1000.704	2091.98
1001	2103.28
1001.295	2072.32
1001.59	2055.14
1001.885	2072.32
1002.18	2034.81
1002.475	2030.74
1002.77	2018.53
1003.065	2010.4
1003.359	2017.4
1003.654	2004.98
1003.949	1950.06
1004.243	1966.78
1004.538	1958.2
1004.832	1987.12
1005.127	1964.52
1005.421	1939.21
1005.715	1895.37
1006.009	1889.05
1006.304	1870.97
1006.598	1869.39
1006.892	1854.47
1007.186	1853.79
1007.48	1806.79
1007.773	1828.48
1008.067	1841.36
1008.361	1847.69
1008.655	1815.83
1008.948	1778.77
1009.242	1809.95
1009.535	1788.71
1009.829	1742.38
1010.122	1704.19
1010.415	1710.29
1010.708	1704.19
1011.001	1717.53
1011.295	1722.72
1011.588	1701.48
1011.881	1687.02
1012.173	1699.22
1012.466	1653.57
1012.759	1658.54
1013.052	1667.81
1013.344	1614.48
1013.637	1621.48
1013.93	1576.06
1014.222	1644.31
1014.514	1607.25
1014.807	1587.36
1015.099	1568.6
1015.391	1571.09
1015.683	1572.44
1015.976	1570.86
1016.268	1558.89
1016.56	1550.98
1016.851	1514.59
1017.143	1512.79
1017.435	1480.24
1017.727	1525.89
1018.018	1494.48
1018.31	1472.11
1018.602	1477.76
1018.893	1479.57
1019.185	1456.06
1019.476	1439.57
1019.767	1427.82
1020.058	1430.3
1020.35	1399.57
1020.641	1406.8
1020.932	1402.05
1021.223	1398.66
1021.514	1370.87
1021.804	1361.15
1022.095	1377.42
1022.386	1345.33
1022.677	1356.18
1022.967	1311.66
1023.258	1317.54
1023.548	1308.72
1023.839	1286.35
1024.129	1345.33
1024.419	1333.35
1024.709	1278.44
1025	1292.23
1025.29	1263.98
1025.58	1259.23
1025.87	1247.48
1026.16	1260.59
1026.449	1251.77
1026.739	1239.35
1027.029	1223.98
1027.319	1217.65
1027.608	1219.69
1027.898	1193.7
1028.187	1160.25
1028.477	1170.87
1028.766	1139.01
1029.055	1136.07
1029.344	1162.51
1029.634	1142.63
1029.923	1150.53
1030.212	1150.08
1030.501	1102.4
1030.79	1123.19
1031.078	1125.9
1031.367	1094.72
1031.656	1087.03
1031.945	1081.61
1032.233	1106.69
1032.522	1087.49
1032.81	1075.73
1033.099	1068.28
1033.387	1055.62
1033.675	1047.71
1033.963	1019.69
1034.251	1053.36
1034.54	1059.69
1034.828	1051.1
1035.116	1019.46
1035.403	1007.94
1035.691	1008.39
1035.979	998.67
1036.267	991.44
1036.554	989.41
1036.842	981.05
1037.129	966.36
1037.417	961.39
1037.704	956.19
1037.992	954.83
1038.279	966.58
1038.566	932.91
1038.853	932.91
1039.14	932.91
