Data from hue_24_FLMS001491_00059.txt Node
Date: Tue Feb 07 17:12:28 GMT 2017
User: dcchb
Spectrometer: FLMS00149
Trigger mode: 0
Integration Time (sec): 2.000000E-2
Scans to average: 10
Electric dark correction enabled: true
Nonlinearity correction enabled: false
Boxcar width: 0
XAxis mode: Wavelengths
Number of Pixels in Spectrum: 2048
>>>>>Begin Spectral Data<<<<<
341.393	-17.99
341.776	-17.99
342.16	-17.99
342.543	-59.35
342.927	-70.65
343.31	-66.81
343.693	-78.78
344.077	-78.56
344.46	-67.71
344.843	-56.86
345.226	-34.49
345.61	-27.26
345.993	-6.47
346.376	-7.6
346.759	39.18
347.142	17.03
347.525	31.95
347.908	59.97
348.291	87.09
348.674	95.68
349.057	93.64
349.44	132.96
349.823	127.77
350.206	160.31
350.588	200.31
350.971	191.27
351.354	236.91
351.737	247.54
352.119	257.93
352.502	264.94
352.884	280.53
353.267	278.5
353.65	306.07
354.032	303.35
354.414	329.57
354.797	318.27
355.179	334.77
355.562	334.31
355.944	332.28
356.326	327.99
356.709	347.87
357.091	342.9
357.473	340.87
357.855	363.47
358.238	352.39
358.62	335.9
359.002	356.01
359.384	347.65
359.766	343.58
360.148	322.34
360.53	339.51
360.912	326.18
361.294	334.31
361.676	343.13
362.057	344.26
362.439	345.39
362.821	341.54
363.203	327.53
363.584	333.18
363.966	306.97
364.348	324.82
364.729	351.94
365.111	313.97
365.493	320.53
365.874	311.49
366.256	306.07
366.637	318.49
367.019	318.04
367.4	316.01
367.781	307.87
368.163	318.49
368.544	302
368.925	321.21
369.306	334.54
369.688	315.1
370.069	323.47
370.45	312.62
370.831	325.95
371.212	317.82
371.593	323.47
371.974	317.59
372.355	315.56
372.736	327.99
373.117	323.24
373.498	305.61
373.879	319.17
374.26	316.91
374.641	312.84
375.021	334.99
375.402	328.66
375.783	299.96
376.163	319.62
376.544	339.28
376.925	322.56
377.305	333.18
377.686	318.27
378.066	342
378.447	343.35
378.827	319.17
379.208	327.53
379.588	339.96
379.968	325.27
380.349	330.02
380.729	326.18
381.109	332.51
381.489	332.73
381.87	331.15
382.25	330.92
382.63	343.35
383.01	335.22
383.39	348.78
383.77	336.57
384.15	344.93
384.53	358.72
384.91	352.62
385.29	346.97
385.67	350.58
386.049	356.23
386.429	354.2
386.809	368.44
387.189	346.52
387.568	372.73
387.948	374.31
388.328	348.55
388.707	356.69
389.087	370.7
389.466	355.1
389.846	360.53
390.225	373.18
390.605	391.03
390.984	358.95
391.363	378.15
391.743	365.72
392.122	364.59
392.501	358.95
392.881	376.35
393.26	379.28
393.639	387.42
394.018	378.61
394.397	387.19
394.776	384.03
395.155	378.83
395.534	366.63
395.913	373.63
396.292	388.55
396.671	370.7
397.05	392.84
397.429	401.2
397.808	400.98
398.186	379.74
398.565	389.23
398.944	391.03
399.323	385.61
399.701	396.23
400.08	383.13
400.458	394.2
400.837	392.39
401.215	420.86
401.594	411.83
401.972	422.45
402.351	398.49
402.729	390.58
403.107	409.11
403.486	425.38
403.864	422.67
404.242	403.01
404.62	422.67
404.999	403.01
405.377	415.44
405.755	394.42
406.133	415.22
406.511	438.27
406.889	430.81
407.267	421.09
407.645	406.63
408.023	432.16
408.401	432.16
408.779	442.33
409.156	439.4
409.534	433.97
409.912	433.75
410.29	437.59
410.667	445.72
411.045	469.9
411.422	455.21
411.8	412.73
412.178	473.97
412.555	433.52
412.933	471.71
413.31	455.21
413.687	462.45
414.065	453.86
414.442	478.49
414.819	461.54
415.197	464.71
415.574	464.48
415.951	475.33
416.328	477.13
416.705	468.77
417.082	498.38
417.46	481.65
417.837	508.32
418.214	494.76
418.591	509.68
418.967	483.91
419.344	494.31
419.721	506.06
420.098	522.78
420.475	498.83
420.852	510.58
421.228	506.74
421.605	514.42
421.982	492.05
422.358	521.65
422.735	527.98
423.111	526.85
423.488	515.55
423.864	530.92
424.241	527.08
424.617	532.5
424.994	556.45
425.37	534.99
425.746	550.8
426.123	565.04
426.499	551.71
426.875	562.1
427.251	563.91
427.627	563.91
428.003	583.35
428.379	571.14
428.756	565.27
429.132	574.76
429.507	585.38
429.883	586.74
430.259	563.91
430.635	590.13
431.011	612.72
431.387	611.82
431.763	605.27
432.138	624.25
432.514	613.4
432.89	610.69
433.265	626.51
433.641	630.12
434.016	645.94
434.392	645.27
434.767	667.41
435.143	643.91
435.518	651.37
435.894	654.3
436.269	662.89
436.644	671.93
437.02	668.32
437.395	705.83
437.77	678.03
438.145	673.51
438.52	687.75
438.895	687.07
439.271	671.71
439.646	688.65
440.021	712.83
440.395	726.85
440.77	710.12
441.145	694.08
441.52	701.31
441.895	721.2
442.27	715.77
442.645	731.82
443.019	738.14
443.394	720.97
443.769	753.06
444.143	759.16
444.518	743.79
444.892	756.68
445.267	757.35
445.641	757.8
446.016	791.02
446.39	755.32
446.764	758.71
447.139	770.46
447.513	766.39
447.887	819.72
448.262	772.72
448.636	784.92
449.01	796
449.384	801.87
449.758	791.93
450.132	838.93
450.506	805.26
450.88	818.14
451.254	814.53
451.628	833.96
452.002	844.58
452.376	852.94
452.75	852.49
453.123	842.77
453.497	869.89
453.871	836.45
454.244	860.85
454.618	890.91
454.992	897.91
455.365	892.72
455.739	920.74
456.112	904.69
456.486	896.56
456.859	934.52
457.232	951.47
457.606	932.49
457.979	956.44
458.352	955.77
458.725	973.17
459.099	953.96
459.472	995.54
459.845	1003
460.218	1009.32
460.591	1014.07
460.964	1014.07
461.337	1059.27
461.71	1021.53
462.083	1025.14
462.456	1071.47
462.829	1061.3
463.201	1065.59
463.574	1050.9
463.947	1086.84
464.32	1087.29
464.692	1132.26
465.065	1129.09
465.438	1175.2
465.81	1156.21
466.183	1182.88
466.555	1189.21
466.928	1202.54
467.3	1213.61
467.672	1228.75
468.045	1244.12
468.417	1249.77
468.789	1244.12
469.161	1269.2
469.534	1285.02
469.906	1294.97
470.278	1329.77
470.65	1316.89
471.022	1347.62
471.394	1374.06
471.766	1395.3
472.138	1396.66
472.51	1450.22
472.882	1432.59
473.253	1469.88
473.625	1490.22
473.997	1528.41
474.369	1528.86
474.74	1565.92
475.112	1564.79
475.484	1602.53
475.855	1644.34
476.227	1650.89
476.598	1706.48
476.97	1728.63
477.341	1760.04
477.713	1752.13
478.084	1825.57
478.455	1837.1
478.827	1863.09
479.198	1945.8
479.569	1903.09
479.94	1994.61
480.311	2014.5
480.682	2028.51
481.053	2102.63
481.424	2143.98
481.795	2179.46
482.166	2178.78
482.537	2259.01
482.908	2305.56
483.279	2320.02
483.65	2354.15
484.021	2415.84
484.391	2451.09
484.762	2435.95
485.133	2520.24
485.503	2557.76
485.874	2626.23
486.244	2659
486.615	2725.89
486.985	2748.49
487.356	2789.39
487.726	2827.81
488.097	2840.46
488.467	2874.36
488.837	2980.8
489.207	3005.43
489.578	3064.41
489.948	3080
490.318	3149.38
490.688	3165.65
491.058	3268.02
491.428	3284.97
491.798	3306.21
492.168	3402.26
492.538	3402.71
492.908	3458.3
493.278	3510.27
493.648	3523.83
494.017	3590.72
494.387	3585.75
494.757	3658.97
495.126	3678.18
495.496	3724.28
495.866	3781.68
496.235	3827.78
496.605	3838.4
496.974	3846.76
497.344	3918.85
497.713	3946.65
498.082	3929.02
498.452	4025.29
498.821	4017.38
499.19	4028.68
499.559	4104.61
499.928	4112.29
500.298	4175.12
500.667	4189.35
501.036	4207.88
501.405	4254.21
501.774	4240.65
502.143	4322.01
502.512	4318.39
502.88	4361.33
503.249	4326.3
503.618	4455.56
503.987	4422.12
504.356	4445.39
504.724	4489.46
505.093	4499.18
505.462	4502.57
505.83	4581.66
506.199	4595.44
506.567	4609.68
506.936	4639.06
507.304	4684.71
507.672	4706.4
508.041	4698.94
508.409	4710.24
508.777	4776.46
509.145	4811.71
509.514	4813.29
509.882	4834.76
510.25	4826.17
510.618	4866.62
510.986	4894.65
511.354	4957.24
511.722	4978.94
512.09	4977.13
512.458	4938.26
512.826	5031.14
513.193	5034.53
513.561	5082.44
513.929	5098.48
514.297	5117.46
514.664	5138.71
515.032	5130.57
515.4	5212.15
515.767	5177.58
516.135	5193.62
516.502	5224.81
516.869	5282.43
517.237	5328.76
517.604	5247.18
517.972	5305.93
518.339	5322.66
518.706	5368.31
519.073	5353.16
519.44	5369.21
519.808	5389.32
520.175	5413.28
520.542	5535.53
520.909	5471.58
521.276	5494.86
521.643	5560.39
522.009	5547.28
522.376	5622.99
522.743	5588.19
523.11	5732.14
523.477	5724.68
523.843	5705.47
524.21	5815.53
524.577	5814.4
524.943	5817.56
525.31	5836.09
525.676	5901.85
526.043	5887.16
526.409	5974.16
526.776	6026.82
527.142	6030.21
527.508	6077.44
527.874	6107.95
528.241	6080.6
528.607	6156.99
528.973	6206.7
529.339	6247.15
529.705	6219.81
530.071	6306.81
530.437	6306.81
530.803	6351.1
531.169	6359.92
531.535	6369.41
531.901	6382.29
532.267	6425.23
532.632	6499.8
532.998	6523.08
533.364	6541.38
533.73	6557.2
534.095	6621.15
534.461	6675.62
534.826	6691.43
535.192	6699.12
535.557	6719.46
535.923	6728.04
536.288	6728.95
536.653	6766.69
537.019	6807.14
537.384	6734.82
537.749	6781.15
538.114	6843.75
538.479	6886.46
538.845	6915.16
539.21	6955.83
539.575	6935.95
539.94	6942.05
540.305	7028.15
540.67	6987.02
541.034	7067.92
541.399	7039.22
541.764	7131.42
542.129	7136.39
542.494	7130.97
542.858	7189.27
543.223	7129.84
543.587	7269.27
543.952	7271.98
544.316	7344.75
544.681	7345.43
545.045	7375.48
545.41	7383.62
545.774	7380
546.138	7458.65
546.503	7443.96
546.867	7460.23
547.231	7535.48
547.595	7581.81
547.959	7575.48
548.324	7634.46
548.688	7668.36
549.052	7692.09
549.416	7680.33
549.779	7667.68
550.143	7726.44
550.507	7817.51
550.871	7836.04
551.235	7793.33
551.599	7878.52
551.962	7883.95
552.326	7854.34
552.689	7905.41
553.053	7935.02
553.417	7891.18
553.78	8046.88
554.143	7963.04
554.507	8069.03
554.87	8075.8
555.234	8105.86
555.597	8132.98
555.96	8132.98
556.323	8192.64
556.686	8169.36
557.05	8295.69
557.413	8283.71
557.776	8337.94
558.139	8371.62
558.502	8359.64
558.865	8368.23
559.228	8396.02
559.59	8427.21
559.953	8475.57
560.316	8529.8
560.679	8511.5
561.041	8603.47
561.404	8633.98
561.767	8705.17
562.129	8587.66
562.492	8750.59
562.854	8679.86
563.217	8687.54
563.579	8780.42
563.941	8790.81
564.304	8836.24
564.666	8843.69
565.028	8904.03
565.39	8972.96
565.753	8973.18
566.115	9030.13
566.477	9077.13
566.839	9011.6
567.201	9148.09
567.563	9109
567.925	9201.2
568.287	9153.06
568.648	9224.7
569.01	9249.33
569.372	9326.85
569.734	9269.9
570.095	9418.37
570.457	9425.15
570.819	9465.82
571.18	9438.25
571.542	9528.65
571.903	9588.99
572.265	9622.2
572.626	9678.25
572.987	9720.96
573.349	9774.74
573.71	9785.14
574.071	9906.49
574.432	9885.93
574.794	10093.15
575.155	10070.1
575.516	10039.14
575.877	10214.51
576.238	10209.31
576.599	10262.19
576.96	10331.56
577.32	10436.42
577.681	10507.15
578.042	10583.99
578.403	10624.44
578.763	10770.42
579.124	10768.39
579.485	10887.71
579.845	11025.33
580.206	11224.87
580.566	11242.95
580.927	11336.96
581.287	11505.77
581.648	11582.61
582.008	11778.31
582.368	11792.54
582.728	11992.54
583.089	12114.34
583.449	12238.63
583.809	12359.99
584.169	12633.2
584.529	12717.94
584.889	12976.69
585.249	13113.86
585.609	13262.33
585.969	13592.5
586.329	13649.67
586.688	14013.73
587.048	14136.44
587.408	14290.78
587.768	14502.53
588.127	14738
588.487	15001.95
588.846	15398.1
589.206	15467.7
589.565	15735.26
589.925	16022.26
590.284	16232.43
590.643	16557.16
591.003	16834.9
591.362	17152.85
591.721	17403.69
592.08	17632.39
592.44	18052.49
592.799	18281.64
593.158	18347.17
593.517	18890.44
593.876	19127.72
594.235	19323.87
594.593	19704.88
594.952	20050.63
595.311	20230.97
595.67	20693.33
596.029	21060.55
596.387	21298.96
596.746	21666.86
597.104	21830.02
597.463	22171.71
597.822	22472.94
598.18	22767.62
598.538	23045.81
598.897	23436.98
599.255	23639.24
599.613	24166.91
599.972	24366.9
600.33	24669.72
600.688	24946.77
601.046	25320.1
601.404	25612.74
601.762	25923.24
602.12	26311.03
602.478	26539.27
602.836	26814.97
603.194	27116.43
603.552	27477.55
603.91	27710.09
604.268	27943.08
604.625	28230.98
604.983	28613.12
605.341	28689.27
605.698	29158.19
606.056	29333.1
606.413	29641.11
606.771	29880.66
607.128	30185.96
607.485	30317.03
607.843	30533.07
608.2	30927.86
608.557	31184.35
608.914	31394.29
609.272	31716.31
609.629	31978.9
609.986	32302.51
610.343	32343.87
610.7	32899.33
611.057	32895.27
611.414	33100.91
611.771	33309.04
612.127	33584.06
612.484	33751.29
612.841	34039.64
613.198	34074.44
613.554	34277.15
613.911	34521.44
614.267	34749.23
614.624	34810.47
614.98	35108.54
615.337	35426.5
615.693	35560.73
616.05	35599.15
616.406	35992.13
616.762	36060.15
617.118	36209.75
617.475	36239.36
617.831	36562.29
618.187	36797.31
618.543	37010.19
618.899	37179.67
619.255	37295.15
619.611	37382.6
619.967	37505.77
620.323	37758.87
620.678	37808.36
621.034	37744.4
621.39	37990.05
621.746	38078.41
622.101	38465.29
622.457	38257.84
622.812	38373.99
623.168	38684.27
623.523	38655.11
623.879	38901.21
624.234	38795.45
624.589	38825.96
624.945	39117.02
625.3	39256.23
625.655	39272.95
626.01	39162.22
626.365	39411.03
626.72	39467.3
627.075	39510.91
627.43	39610.57
627.785	39570.57
628.14	39818.47
628.495	39764.69
628.85	39765.59
629.205	39781.64
629.559	39939.83
629.914	39805.82
630.269	39897.79
630.623	39972.59
630.978	39875.19
631.332	40083.32
631.687	40172.59
632.041	40085.13
632.396	40258.24
632.75	40058.69
633.104	40171.68
633.459	40110.44
633.813	40157.45
634.167	40145.47
634.521	40085.13
634.875	40365.58
635.229	40286.48
635.583	40051.01
635.937	40213.26
636.291	40156.99
636.645	40081.74
636.999	40167.62
637.352	40258.91
637.706	40051.24
638.06	40420.49
638.413	40243.09
638.767	40145.02
639.121	40206.94
639.474	39947.51
639.828	40035.19
640.181	40160.16
640.534	40227.5
640.888	40233.6
641.241	40047.17
641.594	40013.5
641.947	40224.79
642.301	39936.89
642.654	40186.6
643.007	40336.88
643.36	40342.07
643.713	40142.08
644.066	40226.37
644.419	40006.49
644.771	39712.26
645.124	39493.28
645.477	39402.89
645.83	39087.87
646.182	39015.33
646.535	38983.01
646.888	39087.42
647.24	38852.17
647.593	39173.07
647.945	38933.3
648.298	38868.67
648.65	38863.92
649.002	38778.05
649.355	38853.3
649.707	38931.49
650.059	38924.49
650.411	39507.07
650.763	39526.05
651.115	39797
651.467	39716.1
651.819	39835.42
652.171	39651.92
652.523	39700.06
652.875	39639.95
653.227	39512.72
653.578	39730.11
653.93	39713.84
654.282	39377.81
654.633	39443.34
654.985	39576.22
655.337	39636.56
655.688	39585.71
656.039	39708.87
656.391	39256.68
656.742	39493.28
657.094	39583.9
657.445	39632.04
657.796	39446.51
658.147	39272.27
658.498	39295.32
658.849	39443.12
659.2	39340.07
659.551	39203.57
659.902	39540.06
660.253	39386.62
660.604	39441.31
660.955	39270.69
661.306	39466.17
661.656	39511.36
662.007	39390.69
662.358	39368.09
662.708	39420.97
663.059	39365.38
663.409	39065.05
663.76	39452.61
664.11	39484.7
664.461	39396.11
664.811	39338.26
665.161	39364.93
665.511	39190.92
665.862	39361.31
666.212	39253.97
666.562	39355.89
666.912	39154.54
667.262	39220.97
667.612	39329.67
667.962	39358.37
668.312	39242.67
668.662	39321.31
669.011	39282.89
669.361	39265.72
669.711	39134.42
670.06	39157.25
670.41	39183.01
670.76	39081.32
671.109	39264.14
671.459	39157.25
671.808	39096.23
672.157	39133.52
672.507	38886.52
672.856	39031.6
673.205	39146.85
673.554	39067.76
673.904	38994.31
674.253	39219.62
674.602	39095.1
674.951	38475.68
675.3	38408.34
675.649	38953.86
675.998	38848.1
676.346	38948.21
676.695	38949.34
677.044	38593.65
677.393	38702.34
677.741	38918.61
678.09	38726.07
678.438	38667.09
678.787	38722.68
679.135	38791.61
679.484	38486.08
679.832	38830.48
680.181	38342.35
680.529	38698.95
680.877	38525.17
681.225	38363.6
681.573	38544.61
681.922	38320.66
682.27	38194.79
682.618	38169.48
682.966	38139.42
683.314	38223.26
683.661	38025.98
684.009	37799.32
684.357	37849.71
684.705	37861.91
685.053	37863.27
685.4	37806.32
685.748	37596.16
686.095	37640
686.443	37437.74
686.79	37340.8
687.138	37495.14
687.485	37576.05
687.832	37429.38
688.18	37390.06
688.527	37202.72
688.874	37035.72
689.221	36992.56
689.568	37073.91
689.915	36883.18
690.262	36889.28
690.609	36865.33
690.956	36741.04
691.303	36659.46
691.65	36549.63
691.997	36630.08
692.344	36276.87
692.69	36237.32
693.037	36302.63
693.383	36109.64
693.73	36376.76
694.077	35941.29
694.423	35889.54
694.769	35901.97
695.116	35859.71
695.462	35664.46
695.808	35589.66
696.155	35583.1
696.501	35372.04
696.847	35409.32
697.193	35100.4
697.539	35269.67
697.885	34972.72
698.231	34774.76
698.577	34989.45
698.923	34710.13
699.269	34661.77
699.614	34628.78
699.96	34360.76
700.306	34471.72
700.651	34272.63
700.997	34352.85
701.342	34165.51
701.688	34266.75
702.033	34072.18
702.379	34096.82
702.724	34020.43
703.069	34042.81
703.415	33704.28
703.76	33617.51
704.105	33743.6
704.45	33606.66
704.795	33402.37
705.14	33408.02
705.485	33194.92
705.83	33150.4
706.175	33231.08
706.52	33099.1
706.865	33024.53
707.209	32907.02
707.554	32860.46
707.899	32827.7
708.243	32692.33
708.588	32650.98
708.932	32381.15
709.277	32310.42
709.621	32380.93
709.966	32239.46
710.31	32361.49
710.654	32024.78
710.998	32146.58
711.342	32115.85
711.687	32027.04
712.031	31825.46
712.375	31806.03
712.719	31922.41
713.063	31732.81
713.407	31855.07
713.75	31546.37
714.094	31670.44
714.438	31489.43
714.782	31588.63
715.125	31411.46
715.469	31435.64
715.812	31284.91
716.156	31137.8
716.499	30990.68
716.843	31196.33
717.186	30910.91
717.53	31055.99
717.873	30954.53
718.216	31065.26
718.559	30946.16
718.902	30575.1
719.246	30720.86
719.589	30641.09
719.932	30430.02
720.275	30520.41
720.617	30414.88
720.96	30536.68
721.303	30315.45
721.646	30438.38
721.989	30258.95
722.331	30288.55
722.674	30117.03
723.016	30265.28
723.359	30140.54
723.701	30135.79
724.044	29921.56
724.386	29872.97
724.729	29869.81
725.071	29917.04
725.413	29924.04
725.755	29806.31
726.097	29673.2
726.439	29542.36
726.782	29557.05
727.124	29722.92
727.465	29505.98
727.807	29567.22
728.149	29452.87
728.491	29330.16
728.833	29474.56
729.175	29298.52
729.516	29195.25
729.858	29265.76
730.199	29235.25
730.541	29191.41
730.882	29132.88
731.224	29128.81
731.565	29002.26
731.906	29072.99
732.248	28984.63
732.589	28880.46
732.93	28817.18
733.271	28746.45
733.612	28790.29
733.953	28730.63
734.294	28602.72
734.635	28566.79
734.976	28615.38
735.317	28510.97
735.658	28580.12
735.999	28559.56
736.339	28496.74
736.68	28507.36
737.021	28336.51
737.361	28308.72
737.702	28512.1
738.042	28365.89
738.383	28162.28
738.723	28300.81
739.063	28223.98
739.404	28196.41
739.744	28154.6
740.084	28148.05
740.424	28146.92
740.764	28013.59
741.104	28137.65
741.444	27855.17
741.784	27934.49
742.124	27942.85
742.464	27842.74
742.804	27891.55
743.143	27767.94
743.483	27787.83
743.823	27618.79
744.162	27637.1
744.502	27639.13
744.841	27432.36
745.181	27485.46
745.52	27452.24
745.86	27574.73
746.199	27417.67
746.538	27357.78
746.877	27480.94
747.216	27596.65
747.556	27382.19
747.895	27320.95
748.234	27152.14
748.573	27184.23
748.911	27316.43
749.25	27208.18
749.589	26981.3
749.928	27132.93
750.267	27257.9
750.605	27099.71
750.944	26961.64
751.283	26888.42
751.621	26933.16
751.96	26733.62
752.298	26892.48
752.636	26892.48
752.975	26719.83
753.313	26548.31
753.651	26659.95
753.989	26416.34
754.327	26573.85
754.666	26407.75
755.004	26413.63
755.342	26461.99
755.679	26394.87
756.017	26244.59
756.355	26258.15
756.693	26166.85
757.031	26172.73
757.368	26057.48
757.706	26008.67
758.044	25843.7
758.381	25903.81
758.719	25797.37
759.056	25899.97
759.394	25818.61
759.731	25659.75
760.068	25587.43
760.405	25579.98
760.743	25315.13
761.08	25511.28
761.417	25284.39
761.754	25200.78
762.091	25238.07
762.428	25137.73
762.765	24938.19
763.102	25058.41
763.438	24954.23
763.775	24790.62
764.112	24868.58
764.449	24922.59
764.785	24720.11
765.122	24586.78
765.458	24528.48
765.795	24381.59
766.131	24461.81
766.467	24493
766.804	24233.57
767.14	24143.63
767.476	24182.5
767.812	24075.16
768.148	24074.48
768.485	23873.81
768.821	23808.95
769.157	23667.94
769.492	23738.67
769.828	23681.27
770.164	23418
770.5	23283.54
770.836	23382.29
771.171	23229.76
771.507	23214.16
771.842	23093.94
772.178	23022.98
772.513	23033.6
772.849	22907.28
773.184	22843.1
773.519	22905.25
773.855	22640.85
774.19	22536.89
774.525	22535.31
774.86	22579.15
775.195	22485.82
775.53	22366.73
775.865	22126.28
776.2	22104.59
776.535	21991.37
776.87	21902.11
777.205	21844.03
777.539	21819.4
777.874	21865.95
778.209	21557.48
778.543	21585.96
778.878	21493.76
779.212	21535.11
779.547	21338.28
779.881	21345.96
780.215	21154.1
780.55	21226.87
780.884	21044.28
781.218	20972.64
781.552	20959.08
781.886	20905.3
782.22	20860.1
782.554	20767.22
782.888	20614.91
783.222	20482.03
783.556	20385.09
783.889	20461.47
784.223	20185.09
784.557	20174.02
784.89	20128.82
785.224	20071.65
785.557	19938.32
785.891	19929.05
786.224	19860.35
786.558	19929.5
786.891	19651.77
787.224	19520.25
787.557	19567.71
787.891	19529.97
788.224	19607.7
788.557	19451.78
788.89	19397.09
789.223	19304.89
789.556	19283.87
789.888	19204.1
790.221	19082.97
790.554	19042.3
790.887	18905.8
791.219	18940.15
791.552	18781.29
791.884	18732.93
792.217	18714.85
792.549	18639.37
792.882	18491.8
793.214	18468.07
793.546	18535.19
793.879	18294.74
794.211	18179.04
794.543	18311.02
794.875	18155.54
795.207	18285.71
795.539	18062.89
795.871	18174.52
796.203	17870.12
796.535	17824.02
796.867	17821.54
797.198	17775.21
797.53	17697.02
797.862	17652.5
798.193	17651.37
798.525	17515.78
798.856	17591.03
799.188	17368.67
799.519	17356.01
799.85	17207.09
800.182	17207.77
800.513	17281.21
800.844	17080.77
801.175	17267.65
801.506	17114.66
801.837	17037.15
802.168	17026.76
802.499	16889.36
802.83	16872.18
803.161	16796.25
803.491	16761.23
803.822	16735.01
804.153	16682.36
804.483	16491.63
804.814	16537.73
805.145	16485.75
805.475	16394.91
805.805	16412.08
806.136	16393.1
806.466	16328.24
806.796	16353.1
807.126	16172.77
807.457	16194.24
807.787	16184.97
808.117	16080.57
808.447	16022.26
808.777	16042.6
809.107	15972.09
809.436	15914.92
809.766	15842.38
810.096	15896.39
810.426	15810.52
810.755	15794.92
811.085	15707.69
811.414	15664.08
811.744	15558.55
812.073	15630.86
812.403	15528.04
812.732	15501.82
813.061	15394.26
813.39	15457.08
813.719	15337.53
814.049	15370.53
814.378	15259.8
814.707	15278.33
815.036	15189.52
815.365	15208.95
815.693	15038.79
816.022	15104.09
816.351	15035.4
816.68	14955.17
817.008	14957.21
817.337	14822.29
817.665	14715.86
817.994	14797.66
818.322	14795.63
818.651	14701.85
818.979	14677.44
819.307	14748.85
819.636	14671.56
819.964	14636.99
820.292	14665.01
820.62	14641.28
820.948	14570.1
821.276	14623.88
821.604	14603.09
821.932	14583.88
822.259	14535.75
822.587	14438.12
822.915	14526.93
823.243	14531.45
823.57	14384.11
823.898	14467.27
824.225	14405.36
824.553	14412.36
824.88	14478.8
825.207	14519.25
825.535	14485.35
825.862	14512.92
826.189	14445.58
826.516	14465.69
826.843	14473.15
827.17	14539.82
827.497	14490.55
827.824	14535.97
828.151	14498.01
828.478	14534.17
828.805	14540.27
829.131	14382.53
829.458	14389.99
829.785	14327.62
830.111	14440.16
830.438	14483.32
830.764	14456.65
831.09	14501.17
831.417	14300.05
831.743	14448.97
832.069	14500.49
832.395	14370.55
832.722	14369.42
833.048	14318.8
833.374	14327.17
833.7	14284.91
834.026	14240.39
834.351	14279.03
834.677	14314.06
835.003	14315.41
835.329	14223.44
835.654	14260.95
835.98	14213.95
836.306	14120.84
836.631	14086.27
836.956	14204.01
837.282	14105.48
837.607	14107.28
837.932	14101.86
838.258	14074.52
838.583	14095.99
838.908	13956.1
839.233	13987.51
839.558	13907.29
839.883	13957.91
840.208	13881.08
840.533	13924.01
840.858	13874.75
841.182	13882.21
841.507	13797.24
841.832	13691.93
842.156	13748.65
842.481	13708.88
842.805	13684.24
843.13	13662.55
843.454	13672.27
843.778	13657.13
844.103	13480.18
844.427	13575.55
844.751	13522.44
845.075	13529.45
845.399	13508.43
845.723	13382.56
846.047	13360.64
846.371	13310.47
846.695	13310.92
847.019	13170.59
847.343	13073.19
847.666	13029.57
847.99	13015.56
848.313	12942.12
848.637	12888.79
848.96	12875.23
849.284	12879.75
849.607	12753.65
849.931	12844.72
850.254	12651.05
850.577	12624.61
850.9	12497.61
851.223	12544.84
851.546	12435.24
851.869	12395.47
852.192	12475.46
852.515	12291.29
852.838	12289.03
853.161	12239.31
853.483	12250.84
853.806	12180.1
854.129	12070.28
854.451	12091.74
854.774	11976.72
855.096	11960.22
855.419	11881.58
855.741	11879.55
856.063	11831.19
856.385	11870.28
856.708	11845.42
857.03	11677.97
857.352	11711.64
857.674	11650.85
857.996	11637.97
858.318	11580.12
858.64	11532.21
858.961	11479.33
859.283	11560.91
859.605	11380.12
859.926	11356.62
860.248	11386.45
860.57	11330.41
860.891	11383.97
861.212	11276.4
861.534	11232.11
861.855	11213.58
862.176	11250.86
862.498	11223.97
862.819	11225.33
863.14	11141.03
863.461	11200.92
863.782	11051.09
864.103	11107.36
864.424	11051.32
864.745	11046.12
865.065	11109.4
865.386	10987.59
865.707	10953.92
866.027	10985.78
866.348	10983.3
866.668	10948.05
866.989	10918.67
867.309	10852.45
867.63	10873.25
867.95	10892
868.27	10868.05
868.59	10839.12
868.91	10789.63
869.23	10813.36
869.55	10745.79
869.87	10794.15
870.19	10780.59
870.51	10770.2
870.83	10762.74
871.15	10643.87
871.469	10676.19
871.789	10676.64
872.109	10653.82
872.428	10601.61
872.748	10622.4
873.067	10587.38
873.386	10581.95
873.706	10539.69
874.025	10502.86
874.344	10431.9
874.663	10499.24
874.982	10424.44
875.301	10476.65
875.62	10429.19
875.939	10383.09
876.258	10395.07
876.577	10373.15
876.896	10394.61
877.214	10371.79
877.533	10369.76
877.852	10258.35
878.17	10314.84
878.489	10310.55
878.807	10212.25
879.125	10259.93
879.444	10249.98
879.762	10261.28
880.08	10206.14
880.398	10210.44
880.716	10216.99
881.034	10100.84
881.352	10154.62
881.67	10129.54
881.988	10120.95
882.306	10089.09
882.624	9962.53
882.941	9959.14
883.259	9892.25
883.577	9921.41
883.894	9911.24
884.212	9976.32
884.529	9847.06
884.846	9788.75
885.164	9847.74
885.481	9849.54
885.798	9812.03
886.115	9699.72
886.432	9676.89
886.75	9682.99
887.067	9758.25
887.383	9597.57
887.7	9654.75
888.017	9607.29
888.334	9682.54
888.651	9624.24
888.967	9567.29
889.284	9546.27
889.6	9485.49
889.917	9345.6
890.233	9472.83
890.55	9364.13
890.866	9425.6
891.182	9376.79
891.498	9342.21
891.815	9357.35
892.131	9305.15
892.447	9288.88
892.763	9198.94
893.079	9207.07
893.395	9153.97
893.71	9118.04
894.026	9122.56
894.342	9128.43
894.657	9114.87
894.973	9021.09
895.289	9076.68
895.604	9030.81
895.92	8969.34
896.235	8962.11
896.55	8930.7
896.865	8911.04
897.181	8859.96
897.496	8830.59
897.811	8814.99
898.126	8768.22
898.441	8739.29
898.756	8725.96
899.071	8667.88
899.386	8596.24
899.7	8516.47
900.015	8584.94
900.33	8487.55
900.644	8470.14
900.959	8469.24
901.273	8451.39
901.588	8410.03
901.902	8332.52
902.216	8427.43
902.531	8349.92
902.845	8290.94
903.159	8239.87
903.473	8264.27
903.787	8203.94
904.101	8205.29
904.415	8148.12
904.729	8168.91
905.042	8073.77
905.356	8034
905.67	8076.03
905.984	8048.46
906.297	8009.82
906.611	7984.06
906.924	7963.27
907.237	7908.58
907.551	7877.39
907.864	7835.13
908.177	7858.18
908.491	7847.79
908.804	7752.65
909.117	7697.74
909.43	7683.72
909.743	7565.76
910.056	7593.33
910.368	7622.94
910.681	7546.1
910.994	7529.38
911.307	7517.4
911.619	7394.24
911.932	7461.36
912.244	7348.14
912.557	7372.09
912.869	7292.77
913.181	7267.69
913.494	7350.85
913.806	7267.69
914.118	7150.86
914.43	7201.48
914.742	7175.49
915.054	7137.52
915.366	7102.27
915.678	7050.29
915.99	7017.98
916.302	7019.34
916.613	6943.18
916.925	6976.4
917.236	6980.69
917.548	6931.88
917.859	6889.4
918.171	6858.66
918.482	6787.02
918.794	6815.27
919.105	6824.31
919.416	6749.06
919.727	6693.92
920.038	6671.32
920.349	6611.21
920.66	6593.36
920.971	6623.64
921.282	6525.11
921.593	6481.5
921.903	6474.49
922.214	6511.55
922.525	6459.35
922.835	6442.4
923.146	6391.78
923.456	6362.18
923.767	6389.3
924.077	6362.4
924.387	6283.54
924.697	6223.2
925.008	6238.34
925.318	6206.93
925.628	6186.36
925.938	6147.49
926.248	6143.88
926.558	6078.12
926.867	6031.56
927.177	6077.44
927.487	5993.15
927.796	5979.14
928.106	5910.89
928.416	5906.82
928.725	5898.01
929.034	5902.53
929.344	5874.51
929.653	5840.16
929.962	5791.34
930.271	5775.98
930.581	5767.62
930.89	5762.42
931.199	5745.24
931.508	5694.4
931.817	5674.06
932.125	5696.66
932.434	5680.39
932.743	5591.12
933.051	5612.59
933.36	5550.67
933.669	5512.26
933.977	5475.42
934.286	5487.62
934.594	5507.06
934.902	5406.04
935.21	5416.67
935.519	5388.87
935.827	5381.19
936.135	5357.23
936.443	5295.54
936.751	5308.65
937.059	5264.81
937.367	5237.91
937.674	5244.92
937.982	5207.86
938.29	5184.36
938.597	5128.09
938.905	5136.22
939.213	5109.33
939.52	5082.89
939.827	5076.79
940.135	5041.99
940.442	5009.67
940.749	5003.34
941.056	5020.52
941.363	4965.83
941.67	4949.56
941.977	4926.73
942.284	4922.44
942.591	4860.75
942.898	4875.89
943.205	4835.66
943.511	4792.73
943.818	4837.02
944.125	4806.74
944.431	4760.86
944.738	4745.95
945.044	4767.87
945.35	4682
945.657	4637.25
945.963	4633.86
946.269	4610.36
946.575	4653.97
946.881	4582.34
947.187	4563.81
947.493	4567.2
947.799	4487.2
948.105	4475.67
948.41	4483.81
948.716	4498.5
949.022	4498.72
949.327	4451.95
949.633	4387.77
949.938	4397.03
950.244	4387.31
950.549	4394.32
950.854	4348.67
951.16	4296.47
951.465	4342.57
951.77	4261.89
952.075	4267.54
952.38	4199.75
952.685	4248.56
952.99	4154.1
953.294	4160.2
953.599	4141.67
953.904	4181.9
954.209	4171.05
954.513	4126.98
954.818	4092.41
955.122	4065.06
955.426	4051.73
955.731	4063.03
956.035	4047.44
956.339	4035.91
956.643	3986.65
956.948	3993.88
957.252	3947.1
957.556	3988.45
957.86	3911.17
958.163	3932.18
958.467	3898.97
958.771	3891.28
959.075	3900.77
959.378	3817.84
959.682	3845.63
959.985	3842.24
960.289	3802.02
960.592	3753.21
960.896	3788.23
961.199	3739.2
961.502	3757.5
961.805	3745.07
962.108	3698.07
962.411	3688.8
962.714	3660.33
963.017	3623.27
963.32	3643.6
963.623	3590.5
963.926	3584.17
964.228	3594.79
964.531	3564.51
964.833	3547.79
965.136	3507.56
965.438	3508.02
965.741	3497.39
966.043	3497.39
966.345	3484.51
966.648	3430.5
966.95	3401.35
967.252	3414.23
967.554	3404.74
967.856	3385.98
968.158	3388.02
968.46	3366.32
968.761	3378.75
969.063	3350.73
969.365	3314.8
969.666	3335.59
969.968	3279.32
970.269	3311.18
970.571	3264.63
970.872	3269.38
971.174	3202.26
971.475	3240.23
971.776	3173.11
972.077	3212.43
972.378	3186.44
972.679	3205.88
972.98	3174.92
973.281	3167.69
973.582	3142.6
973.883	3125.43
974.183	3107.12
974.484	3110.74
974.785	3085.43
975.085	3065.54
975.386	3071.42
975.686	3035.03
975.986	3034.81
976.287	3044.52
976.587	3012.21
976.887	2992.77
977.187	2990.97
977.487	2969.72
977.787	2955.71
978.087	2891.53
978.387	2943.06
978.687	2906.67
978.987	2900.12
979.286	2854.25
979.586	2893.79
979.885	2876.39
980.185	2864.42
980.484	2828.94
980.784	2840.01
981.083	2795.04
981.382	2794.14
981.682	2811.08
981.981	2764.53
982.28	2744.87
982.579	2708.49
982.878	2753.91
983.177	2735.83
983.475	2713.46
983.774	2696.96
984.073	2683.18
984.372	2633.91
984.67	2640.24
984.969	2680.01
985.267	2663.97
985.566	2628.04
985.864	2605.21
986.162	2623.29
986.461	2583.07
986.759	2540.58
987.057	2540.13
987.355	2534.71
987.653	2548.27
987.951	2549.4
988.249	2493.35
988.547	2501.26
988.844	2527.7
989.142	2480.7
989.44	2495.84
989.737	2469.4
990.035	2485.67
990.332	2471.66
990.63	2445.67
990.927	2433.24
991.224	2393.69
991.521	2406.58
991.819	2381.94
992.116	2365.9
992.413	2357.08
992.71	2328.84
993.006	2361.15
993.303	2321.15
993.6	2315.73
993.897	2311.21
994.193	2302.62
994.49	2307.37
994.787	2292
995.083	2238.9
995.379	2233.47
995.676	2251.55
995.972	2238.44
996.268	2223.53
996.565	2194.6
996.861	2221.04
997.157	2192.57
997.453	2191.44
997.749	2178.56
998.044	2156.41
998.34	2158.67
998.636	2140.59
998.932	2121.16
999.227	2105.34
999.523	2097.66
999.818	2073.25
1000.114	2092.01
1000.409	2054.27
1000.704	2061.73
1001	2083.19
1001.295	2032.12
1001.59	1997.09
1001.885	2031.67
1002.18	1998.68
1002.475	1989.41
1002.77	1983.54
1003.065	1989.41
1003.359	1971.11
1003.654	1941.73
1003.949	1928.85
1004.243	1931.56
1004.538	1906.25
1004.832	1872.58
1005.127	1890.88
1005.421	1893.14
1005.715	1895.4
1006.009	1867.83
1006.304	1880.04
1006.598	1847.72
1006.892	1837.55
1007.186	1827.38
1007.48	1824.22
1007.773	1790.55
1008.067	1841.17
1008.361	1787.38
1008.655	1812.69
1008.948	1768.85
1009.242	1776.31
1009.535	1746.93
1009.829	1725.24
1010.122	1718.91
1010.415	1713.71
1010.708	1728.85
1011.001	1727.95
1011.295	1694.05
1011.588	1677.55
1011.881	1665.8
1012.173	1656.99
1012.466	1664.45
1012.759	1667.16
1013.052	1635.75
1013.344	1649.53
1013.637	1613.15
1013.93	1607.95
1014.222	1620.16
1014.514	1624
1014.807	1585.58
1015.099	1588.52
1015.391	1569.08
1015.683	1562.08
1015.976	1537.67
1016.268	1524.11
1016.56	1532.47
1016.851	1520.95
1017.143	1516.2
1017.435	1518.46
1017.727	1489.31
1018.018	1496.54
1018.31	1478.46
1018.602	1474.17
1018.893	1462.87
1019.185	1449.31
1019.476	1460.16
1019.767	1437.11
1020.058	1408.41
1020.35	1420.16
1020.641	1398.24
1020.932	1390.56
1021.223	1378.13
1021.514	1394.17
1021.804	1355.08
1022.095	1344.46
1022.386	1365.92
1022.677	1351.91
1022.967	1338.81
1023.258	1306.04
1023.548	1300.39
1023.839	1320.5
1024.129	1308.3
1024.419	1311.69
1024.709	1269.66
1025	1287.73
1025.29	1298.58
1025.58	1262.42
1025.87	1209.32
1026.16	1226.95
1026.449	1242.09
1026.739	1221.3
1027.029	1213.84
1027.319	1227.62
1027.608	1196.21
1027.898	1204.8
1028.187	1186.95
1028.477	1169.77
1028.766	1158.47
1029.055	1165.93
1029.344	1160.28
1029.634	1146.72
1029.923	1143.33
1030.212	1130.45
1030.501	1118.47
1030.79	1127.96
1031.078	1106.5
1031.367	1098.81
1031.656	1090
1031.945	1089.1
1032.233	1078.93
1032.522	1079.83
1032.81	1061.07
1033.099	1082.54
1033.387	1070.57
1033.675	1050.68
1033.963	1046.84
1034.251	1049.32
1034.54	1036.67
1034.828	1031.02
1035.116	1022.88
1035.403	1021.07
1035.691	1007.29
1035.979	1004.13
1036.267	993.28
1036.554	992.38
1036.842	1004.8
1037.129	961.19
1037.417	958.48
1037.704	951.47
1037.992	954.86
1038.279	933.85
1038.566	953.51
1038.853	953.51
1039.14	953.51
