Data from hue_00_FLMS001491_42.txt Node
Date: Mon Feb 06 15:29:45 GMT 2017
User: dcchb
Spectrometer: FLMS00149
Trigger mode: 0
Integration Time (sec): 2.000000E-2
Scans to average: 10
Electric dark correction enabled: true
Nonlinearity correction enabled: false
Boxcar width: 0
XAxis mode: Wavelengths
Number of Pixels in Spectrum: 2048
>>>>>Begin Spectral Data<<<<<
341.393	-11.26
341.776	-11.26
342.16	-11.26
342.543	-68.2
342.927	-72.95
343.31	-58.71
343.693	-86.51
344.077	-73.63
344.46	-64.59
344.843	-45.15
345.226	-37.47
345.61	-35.21
345.993	-16.23
346.376	-19.17
346.759	25.8
347.142	17.44
347.525	29.42
347.908	62.19
348.291	97.21
348.674	82.07
349.057	122.53
349.44	125.01
349.823	174.95
350.206	148.06
350.588	192.58
350.971	204.78
351.354	221.96
351.737	239.13
352.119	243.88
352.502	258.34
352.884	283.88
353.267	283.2
353.65	297.44
354.032	290.2
354.414	303.76
354.797	307.6
355.179	303.31
355.562	321.62
355.944	335.17
356.326	333.82
356.709	321.62
357.091	308.51
357.473	348.28
357.855	329.75
358.238	335.63
358.62	342.41
359.002	346.02
359.384	351.22
359.766	322.52
360.148	336.3
360.53	339.69
360.912	320.26
361.294	333.14
361.676	326.81
362.057	347.83
362.439	329.98
362.821	336.98
363.203	310.77
363.584	329.53
363.966	327.94
364.348	315.97
364.729	323.42
365.111	302.86
365.493	312.8
365.874	296.08
366.256	306.93
366.637	309.64
367.019	302.41
367.4	311.45
367.781	296.31
368.163	314.16
368.544	291.33
368.925	310.32
369.306	323.65
369.688	306.93
370.069	297.21
370.45	297.44
370.831	292.46
371.212	296.76
371.593	307.83
371.974	310.09
372.355	305.12
372.736	330.66
373.117	314.84
373.498	312.12
373.879	301.5
374.26	318.45
374.641	315.97
375.021	334.5
375.402	319.58
375.783	311.45
376.163	303.99
376.544	308.28
376.925	340.15
377.305	324.1
377.686	316.87
378.066	304.89
378.447	346.25
378.827	328.62
379.208	319.13
379.588	306.47
379.968	309.19
380.349	322.75
380.729	338.34
381.109	327.94
381.489	325.23
381.87	320.26
382.25	331.11
382.63	318.23
383.01	327.49
383.39	325.46
383.77	336.98
384.15	342.63
384.53	326.59
384.91	345.34
385.29	337.43
385.67	360.03
386.049	353.93
386.429	347.15
386.809	347.15
387.189	344.89
387.568	342.41
387.948	328.62
388.328	357.1
388.707	352.12
389.087	357.77
389.466	369.07
389.846	353.71
390.225	358.45
390.605	361.61
390.984	362.74
391.363	330.43
391.743	339.69
392.122	358.23
392.501	361.84
392.881	359.58
393.26	358.68
393.639	388.05
394.018	337.66
394.397	360.71
394.776	343.31
395.155	374.04
395.534	371.11
395.913	358.68
396.292	370.65
396.671	376.98
397.05	379.47
397.429	372.69
397.808	383.08
398.186	392.12
398.565	371.78
398.944	360.03
399.323	375.63
399.701	365.68
400.08	371.33
400.458	375.17
400.837	382.18
401.215	381.95
401.594	390.54
401.972	407.26
402.351	377.21
402.729	392.57
403.107	390.54
403.486	408.39
403.864	385.12
404.242	407.26
404.62	400.71
404.999	389.64
405.377	412.23
405.755	395.74
406.133	411.56
406.511	422.63
406.889	409.98
407.267	416.3
407.645	414.27
408.023	426.02
408.401	416.3
408.779	428.05
409.156	428.73
409.534	432.8
409.912	427.15
410.29	447.26
410.667	448.62
411.045	442.74
411.422	444.78
411.8	426.25
412.178	445.91
412.555	431.67
412.933	447.49
413.31	464.66
413.687	466.47
414.065	471.89
414.442	441.39
414.819	449.75
415.197	474.38
415.574	471.22
415.951	483.87
416.328	455.4
416.705	467.37
417.082	506.02
417.46	465.11
417.837	485.68
418.214	478.22
418.591	483.19
418.967	500.37
419.344	491.1
419.721	487.49
420.098	509.63
420.475	504.89
420.852	488.17
421.228	520.25
421.605	520.03
421.982	485.45
422.358	510.76
422.735	524.1
423.111	535.62
423.488	530.42
423.864	537.88
424.241	542.18
424.617	524.77
424.994	542.63
425.37	511.22
425.746	549.86
426.123	547.6
426.499	564.32
426.875	552.34
427.251	567.49
427.627	569.29
428.003	562.97
428.379	568.84
428.756	567.94
429.132	583.3
429.507	599.57
429.883	583.3
430.259	612.91
430.635	596.18
431.011	605.22
431.387	608.84
431.763	624.43
432.138	608.61
432.514	633.02
432.89	624.88
433.265	624.43
433.641	626.24
434.016	645.22
434.392	634.6
434.767	669.18
435.143	647.93
435.518	671.66
435.894	669.86
436.269	681.38
436.644	692.91
437.02	681.15
437.395	704.66
437.77	685.67
438.145	710.98
438.52	683.19
438.895	708.5
439.271	710.76
439.646	706.01
440.021	718.89
440.395	736.52
440.77	727.48
441.145	711.89
441.52	725
441.895	737.65
442.27	762.51
442.645	771.77
443.019	768.38
443.394	745.79
443.769	762.96
444.143	757.76
444.518	768.84
444.892	757.54
445.267	768.84
445.641	791.21
446.016	796.86
446.39	793.69
446.764	786.24
447.139	784.88
447.513	800.25
447.887	789.4
448.262	783.75
448.636	786.91
449.01	828.72
449.384	817.87
449.758	824.2
450.132	812.45
450.506	850.64
450.88	830.53
451.254	810.87
451.628	833.01
452.002	838.66
452.376	872.56
452.75	847.03
453.123	866.91
453.497	880.25
453.871	863.52
454.244	862.39
454.618	905.33
454.992	895.39
455.365	903.3
455.739	950.3
456.112	913.46
456.486	919.11
456.859	948.49
457.232	932.45
457.606	969.73
457.979	953.01
458.352	978.55
458.725	976.51
459.099	996.17
459.472	970.19
459.845	998.43
460.218	1018.77
460.591	1003.18
460.964	1025.55
461.337	1021.26
461.71	1053.57
462.083	1096.28
462.456	1073.01
462.829	1055.16
463.201	1088.6
463.574	1084.53
463.947	1114.36
464.32	1126.79
464.692	1157.07
465.065	1135.38
465.438	1163.4
465.81	1186.9
466.183	1168.37
466.555	1203.17
466.928	1207.69
467.3	1197.98
467.672	1209.73
468.045	1255.38
468.417	1265.09
468.789	1260.12
469.161	1284.08
469.534	1278.88
469.906	1311.42
470.278	1327.24
470.65	1376.96
471.022	1368.82
471.394	1395.26
471.766	1388.71
472.138	1431.42
472.51	1439.33
472.882	1465.99
473.253	1492.21
473.625	1491.98
473.997	1498.31
474.369	1555.26
474.74	1579.21
475.112	1577.85
475.484	1609.72
475.855	1654.01
476.227	1664.86
476.598	1699.21
476.97	1724.52
477.341	1776.94
477.713	1773.33
478.084	1791.41
478.455	1843.38
478.827	1870.28
479.198	1886.09
479.569	1894
479.94	1989.59
480.311	1988.46
480.682	2016.03
481.053	2085.41
481.424	2086.09
481.795	2139.42
482.166	2168.35
482.537	2196.82
482.908	2229.14
483.279	2291.06
483.65	2299.42
484.021	2354.1
484.391	2346.42
484.762	2376.03
485.133	2433.88
485.503	2464.61
485.874	2535.12
486.244	2559.98
486.615	2592.06
486.985	2656.02
487.356	2684.04
487.726	2687.43
488.097	2763.36
488.467	2762.68
488.837	2848.78
489.207	2854.2
489.578	2911.15
489.948	2936.91
490.318	2984.14
490.688	3031.83
491.058	3050.13
491.428	3088.55
491.798	3125.38
492.168	3198.83
492.538	3193.4
492.908	3234.08
493.278	3258.94
493.648	3309.56
494.017	3322.89
494.387	3335.1
494.757	3399.73
495.126	3422.55
495.496	3452.83
495.866	3469.78
496.235	3527.86
496.605	3536.22
496.974	3559.27
497.344	3612.15
497.713	3641.3
498.082	3645.6
498.452	3667.06
498.821	3746.84
499.19	3728.98
499.559	3739.15
499.928	3812.37
500.298	3824.57
500.667	3843.11
501.036	3835.2
501.405	3852.6
501.774	3882.43
502.143	3898.92
502.512	3901.18
502.88	3980.28
503.249	3985.25
503.618	3949.09
503.987	4034.29
504.356	4030.22
504.724	3988.86
505.093	4058.24
505.462	4104.57
505.83	4106.38
506.199	4147.73
506.567	4168.75
506.936	4176.43
507.304	4274.51
507.672	4215.75
508.041	4284.68
508.409	4267.73
508.777	4286.48
509.145	4335.52
509.514	4310.89
509.882	4389.53
510.25	4406.71
510.618	4404.67
510.986	4395.63
511.354	4436.08
511.722	4426.14
512.09	4464.33
512.458	4480.15
512.826	4502.97
513.193	4526.03
513.561	4507.27
513.929	4568.96
514.297	4593.37
514.664	4606.47
515.032	4602.41
515.4	4628.4
515.767	4671.11
516.135	4662.74
516.502	4659.81
516.869	4721.5
517.237	4705.23
517.604	4706.59
517.972	4771.89
518.339	4735.51
518.706	4716.53
519.073	4792.91
519.44	4770.99
519.808	4839.92
520.175	4791.33
520.542	4880.14
520.909	4880.82
521.276	4913.13
521.643	4969.4
522.009	4960.82
522.376	4975.73
522.743	4959.69
523.11	5033.58
523.477	5088.95
523.843	5079.68
524.21	5097.54
524.577	5168.95
524.943	5171.66
525.31	5206.69
525.676	5189.28
526.043	5218.21
526.409	5261.37
526.776	5263.18
527.142	5304.08
527.508	5360.13
527.874	5364.42
528.241	5391.77
528.607	5440.58
528.973	5442.84
529.339	5460.46
529.705	5491.65
530.071	5514.93
530.437	5609.61
530.803	5574.36
531.169	5631.98
531.535	5653
531.901	5657.97
532.267	5681.47
532.632	5700.68
532.998	5727.58
533.364	5777.74
533.73	5767.12
534.095	5802.83
534.461	5828.59
534.826	5862.71
535.192	5854.8
535.557	5912.43
535.923	5889.15
536.288	5970.51
536.653	6001.69
537.019	5949.04
537.384	5995.36
537.749	6060
538.114	6041.69
538.479	6086.21
538.845	6086.66
539.21	6101.58
539.575	6146.77
539.94	6169.37
540.305	6216.15
540.67	6230.16
541.034	6183.83
541.399	6242.14
541.764	6257.5
542.129	6274
542.494	6321.46
542.858	6331.4
543.223	6339.76
543.587	6423.6
543.952	6401.91
544.316	6488.46
544.681	6453.88
545.045	6433.55
545.41	6504.28
545.774	6513.77
546.138	6537.27
546.503	6577.04
546.867	6618.63
547.231	6666.31
547.595	6685.97
547.959	6618.17
548.324	6794.67
548.688	6723.26
549.052	6742.01
549.416	6762.12
549.779	6763.48
550.143	6797.38
550.507	6790.6
550.871	6841.22
551.235	6907.66
551.599	6909.24
551.962	6914.66
552.326	6920.99
552.689	6951.27
553.053	6918.28
553.417	7036.69
553.78	7076.24
554.143	7036.02
554.507	7077.82
554.87	7069.24
555.234	7171.61
555.597	7112.17
555.96	7200.76
556.323	7179.06
556.686	7218.61
557.05	7286.18
557.413	7223.36
557.776	7265.39
558.139	7325.27
558.502	7300.19
558.865	7333.63
559.228	7409.57
559.59	7389.9
559.953	7442.33
560.316	7475.33
560.679	7461.09
561.041	7521.65
561.404	7557.81
561.767	7604.59
562.129	7603.68
562.492	7681.2
562.854	7696.79
563.217	7675.32
563.579	7696.56
563.941	7740.86
564.304	7780.85
564.666	7842.77
565.028	7798.71
565.39	7808.2
565.753	7880.74
566.115	7915.99
566.477	7875.54
566.839	7884.13
567.201	7973.84
567.563	7978.82
567.925	8033.96
568.287	8095.42
568.648	8075.99
569.01	8162.31
569.372	8192.14
569.734	8178.58
570.095	8221.52
570.457	8231.69
570.819	8275.98
571.18	8301.52
571.542	8349.65
571.903	8414.51
572.265	8415.87
572.626	8502.64
572.987	8498.35
573.349	8528.86
573.71	8656.99
574.071	8650.89
574.432	8705.8
574.794	8795.97
575.155	8798.91
575.516	8795.97
575.877	8882.29
576.238	8954.38
576.599	8937.21
576.96	9092.23
577.32	9082.74
577.681	9150.54
578.042	9283.87
578.403	9372.68
578.763	9471.21
579.124	9477.31
579.485	9691.09
579.845	9745.1
580.206	9851.08
580.566	9884.75
580.927	10055.6
581.287	10097.86
581.648	10272.99
582.008	10399.99
582.368	10554.57
582.728	10687.9
583.089	10744.84
583.449	10963.6
583.809	11117.04
584.169	11283.81
584.529	11383.92
584.889	11645.16
585.249	11684.25
585.609	11889
585.969	12129.89
586.329	12270.68
586.688	12582.54
587.048	12767.62
587.408	12935.07
587.768	13080.38
588.127	13361.05
588.487	13618.44
588.846	13779.57
589.206	13965.78
589.565	14194.02
589.925	14509.94
590.284	14675.59
590.643	14882.81
591.003	15260.66
591.362	15450.48
591.721	15744.04
592.08	15959.17
592.44	16308.77
592.799	16563.45
593.158	16752.6
593.517	17057.45
593.876	17367.04
594.235	17567.72
594.593	17897.65
594.952	18296.51
595.311	18420.8
595.67	18801.58
596.029	19131.29
596.387	19391.62
596.746	19695.34
597.104	19896.47
597.463	20212.62
597.822	20519.73
598.18	20810.57
598.538	21100.05
598.897	21425.92
599.255	21568.97
599.613	22153.81
599.972	22320.13
600.33	22496.17
600.688	22754.25
601.046	23059.55
601.404	23458.63
601.762	23581.8
602.12	23972.97
602.478	24262.91
602.836	24532.05
603.194	24678.49
603.552	24984.7
603.91	25127.97
604.268	25544.68
604.625	25686.37
604.983	26084.78
605.341	26153.25
605.698	26409.74
606.056	26844.76
606.413	27026.9
606.771	27288.82
607.128	27554.12
607.485	27701.69
607.843	27821.91
608.2	28237.72
608.557	28526.98
608.914	28636.58
609.272	28957.7
609.629	29139.62
609.986	29442.43
610.343	29516.78
610.7	29851.69
611.057	30025.47
611.414	30253.71
611.771	30320.38
612.127	30692.79
612.484	31024.09
612.841	31164.42
613.198	31199
613.554	31246.9
613.911	31660.9
614.267	31741.58
614.624	31799.43
614.98	32069.93
615.337	32434.9
615.693	32438.74
616.05	32651.16
616.406	32853.42
616.762	32912.4
617.118	33065.84
617.475	33175.44
617.831	33464.02
618.187	33608.2
618.543	33701.53
618.899	33932.71
619.255	33979.04
619.611	34137.9
619.967	34352.36
620.323	34446.37
620.678	34454.05
621.034	34643.65
621.39	34537.89
621.746	34600.49
622.101	35165.9
622.457	35018.56
622.812	35110.53
623.168	35386.23
623.523	35475.04
623.879	35597.75
624.234	35415.16
624.589	35704.87
624.945	35655.83
625.3	35855.14
625.655	35700.12
626.01	35837.29
626.365	36032.54
626.72	35954.8
627.075	36042.26
627.43	36214.91
627.785	36100.56
628.14	36343.95
628.495	36341.91
628.85	36294.91
629.205	36269.15
629.559	36651.73
629.914	36522.25
630.269	36627.1
630.623	36372.65
630.978	36512.3
631.332	36776.02
631.687	36854.21
632.041	36551.4
632.396	36732.41
632.75	36687.67
633.104	36759.08
633.459	36624.84
633.813	36683.15
634.167	36683.6
634.521	36691.28
634.875	36844.05
635.229	36685.86
635.583	36578.29
635.937	36683.15
636.291	36686.99
636.645	36703.71
636.999	36689.47
637.352	36914.55
637.706	36728.12
638.06	36694.22
638.413	36743.71
638.767	36682.02
639.121	36792.52
639.474	36560.66
639.828	36732.86
640.181	36661
640.534	36768.12
640.888	36615.35
641.241	36614.67
641.594	36668.46
641.947	36850.15
642.301	36640.43
642.654	36627.78
643.007	36620.1
643.36	36615.58
643.713	36526.99
644.066	36748.68
644.419	36380.78
644.771	36319.09
645.124	36025.54
645.477	35897.86
645.83	35683.4
646.182	35554.81
646.535	35481.6
646.888	35670.74
647.24	35392.56
647.593	35596.62
647.945	35552.1
648.298	35464.87
648.65	35372.22
649.002	35285.22
649.355	35456.06
649.707	35446.57
650.059	35608.15
650.411	35879.32
650.763	35976.5
651.115	36423.49
651.467	36250.84
651.819	36308.47
652.171	36312.08
652.523	36126.55
652.875	36202.48
653.227	36056.72
653.578	36274.57
653.93	36116.38
654.282	35969.72
654.633	35961.58
654.985	36037.06
655.337	36167.9
655.688	36135.82
656.039	36145.53
656.391	35794.13
656.742	35948.7
657.094	36017.4
657.445	36087
657.796	35955.03
658.147	35983.5
658.498	35996.16
658.849	35920.45
659.2	35849.95
659.551	35868.7
659.902	36019.66
660.253	35913.22
660.604	35992.54
660.955	35769.05
661.306	35945.54
661.656	35765.66
662.007	35898.08
662.358	35790.51
662.708	35779.21
663.059	35886.78
663.409	35625.55
663.76	35909.15
664.11	35909.61
664.461	35884.75
664.811	35944.18
665.161	35914.13
665.511	35721.59
665.862	35826.9
666.212	35821.47
666.562	35867.35
666.912	35745.77
667.262	35700.8
667.612	35860.57
667.962	35864.86
668.312	35711.19
668.662	35943.28
669.011	35728.59
669.361	35751.87
669.711	35501.26
670.06	35619.9
670.41	35676.39
670.76	35600.01
671.109	35796.16
671.459	35632.33
671.808	35544.64
672.157	35645.88
672.507	35401.37
672.856	35370.86
673.205	35543.06
673.554	35579.9
673.904	35470.75
674.253	35592.1
674.602	35472.78
674.951	35059.46
675.3	34793.25
675.649	35440.24
675.998	35516.4
676.346	35386.23
676.695	35620.57
677.044	35211.77
677.393	35396.17
677.741	35404.08
678.09	35307.59
678.438	35245.44
678.787	35238.89
679.135	35223.3
679.484	35033.47
679.832	35198.44
680.181	34938.78
680.529	35012.23
680.877	35056.52
681.225	34982.63
681.573	35116.86
681.922	34843.19
682.27	34843.42
682.618	34898.56
682.966	34889.75
683.314	34831.22
683.661	34749.41
684.009	34560.04
684.357	34556.87
684.705	34463.77
685.053	34373.83
685.4	34393.26
685.748	34325.02
686.095	34313.04
686.443	34276.43
686.79	34061.29
687.138	34370.66
687.485	34132.25
687.832	34170.22
688.18	33979.71
688.527	33848.64
688.874	33945.82
689.221	33783.33
689.568	33678.25
689.915	33668.31
690.262	33665.6
690.609	33520.52
690.956	33365.49
691.303	33393.97
691.65	33235.1
691.997	33241.65
692.344	33200.53
692.69	33164.82
693.037	33142.22
693.383	32876.01
693.73	32967.54
694.077	32727.54
694.423	32676.47
694.769	32607.32
695.116	32632.4
695.462	32543.37
695.808	32391.51
696.155	32401.22
696.501	32210.04
696.847	32293.2
697.193	32045.75
697.539	31965.3
697.885	31922.59
698.231	31883.05
698.577	31715.37
698.923	31544.98
699.269	31534.81
699.614	31333.91
699.96	31231.76
700.306	31322.38
700.651	31155.83
700.997	31137.3
701.342	31166
701.688	31019.11
702.033	30850.53
702.379	30797.88
702.724	30885.78
703.069	30846.46
703.415	30696.41
703.76	30537.32
704.105	30618.67
704.45	30566.7
704.795	30298.68
705.14	30283.77
705.485	30221.62
705.83	30120.38
706.175	30133.49
706.52	30136.88
706.865	29952.02
707.209	29859.14
707.554	29806.26
707.899	29956.77
708.243	29852.36
708.588	29706.38
708.932	29496.22
709.277	29364.92
709.621	29470.68
709.966	29309.33
710.31	29347.97
710.654	29148.65
710.998	29138.49
711.342	29119.73
711.687	29000.41
712.031	28955.21
712.375	28876.57
712.719	28864.37
713.063	28818.49
713.407	28888.55
713.75	28735.78
714.094	28706.41
714.438	28634.09
714.782	28632.51
715.125	28591.16
715.469	28452.4
715.812	28281.78
716.156	28204.95
716.499	28225.29
716.843	28367.43
717.186	28112.98
717.53	28244.5
717.873	28235.91
718.216	28224.61
718.559	28086.99
718.902	27922.02
719.246	27943.26
719.589	27793.89
719.932	27556.83
720.275	27681.57
720.617	27639.77
720.96	27544.85
721.303	27598.19
721.646	27662.14
721.989	27405.42
722.331	27463.5
722.674	27365.65
723.016	27332.21
723.359	27421.24
723.701	27385.76
724.044	27201.36
724.386	27028.26
724.729	27101.93
725.071	26992.1
725.413	27024.87
725.755	27006.79
726.097	26929.28
726.439	26822.61
726.782	26857.87
727.124	26946.9
727.465	26845.89
727.807	26684.09
728.149	26758.66
728.491	26711.43
728.833	26777.42
729.175	26588.04
729.516	26488.16
729.858	26524.54
730.199	26512.34
730.541	26530.42
730.882	26499.01
731.224	26561.38
731.565	26360.71
731.906	26263.98
732.248	26248.39
732.589	26115.06
732.93	26205.23
733.271	26071
733.612	26094.27
733.953	26126.14
734.294	25980.6
734.635	25916.2
734.976	25984.67
735.317	25848.63
735.658	25801.17
735.999	25895.63
736.339	25752.36
736.68	25852.7
737.021	25699.25
737.361	25611.35
737.702	25742.42
738.042	25613.15
738.383	25530.44
738.723	25629.42
739.063	25570.22
739.404	25569.99
739.744	25429.66
740.084	25426.49
740.424	25532.03
740.764	25362.77
741.104	25414.06
741.444	25309.21
741.784	25247.29
742.124	25150.57
742.464	25146.5
742.804	25203.9
743.143	25080.74
743.483	25114.86
743.823	25014.07
744.162	24979.27
744.502	25111.47
744.841	24901.08
745.181	25054.3
745.52	24843.91
745.86	24873.51
746.199	24839.16
746.538	24786.28
746.877	24856.11
747.216	24796.23
747.556	24687.3
747.895	24740.18
748.234	24634.87
748.573	24656.8
748.911	24557.14
749.25	24583.12
749.589	24459.96
749.928	24456.8
750.267	24538.61
750.605	24443.02
750.944	24299.97
751.283	24305.39
751.621	24353.53
751.96	24238.28
752.298	24228.11
752.636	24143.59
752.975	24044.61
753.313	23996.25
753.651	24064.49
753.989	23935.01
754.327	23826.53
754.666	23755.8
755.004	23882.35
755.342	23836.93
755.679	23701.11
756.017	23697.72
756.355	23644.62
756.693	23636.26
757.031	23558.97
757.368	23448.92
757.706	23356.94
758.044	23407.11
758.381	23368.02
758.719	23268.13
759.056	23241.01
759.394	23276.94
759.731	23064.29
760.068	23179.77
760.405	23078.98
760.743	22984.75
761.08	22912.89
761.417	22797.41
761.754	22806.9
762.091	22716.28
762.428	22682.61
762.765	22529.17
763.102	22647.58
763.438	22449.4
763.775	22350.42
764.112	22337.31
764.449	22471.77
764.785	22217.31
765.122	22206.92
765.458	22047.37
765.795	22096.18
766.131	22030.88
766.467	21943.65
766.804	21914.72
767.14	21796.53
767.476	21764.67
767.812	21639.7
768.148	21595.86
768.485	21615.52
768.821	21410.1
769.157	21362.87
769.492	21354.06
769.828	21288.07
770.164	21186.15
770.5	21088.75
770.836	21230.22
771.171	20812.38
771.507	20909.55
771.842	20725.15
772.178	20710.23
772.513	20612.61
772.849	20672.95
773.184	20540.07
773.519	20530.35
773.855	20412.84
774.19	20376.23
774.525	20242.45
774.86	20316.34
775.195	20279.96
775.53	20135.56
775.865	20026.18
776.2	19964.72
776.535	19806.75
776.87	19818.96
777.205	19633.42
777.539	19560.21
777.874	19609.47
778.209	19444.05
778.543	19417.84
778.878	19406.76
779.212	19288.8
779.547	19188.24
779.881	19161.57
780.215	19038.86
780.55	19185.3
780.884	18967.68
781.218	18828.25
781.552	18839.55
781.886	18763.84
782.22	18676.84
782.554	18492.66
782.888	18480.23
783.222	18426.68
783.556	18330.18
783.889	18377.19
784.223	18245.66
784.557	18122.05
784.89	18123.63
785.224	18145.78
785.557	17976.97
785.891	17871.21
786.224	17836.18
786.558	17858.78
786.891	17702.18
787.224	17574.95
787.557	17568.85
787.891	17557.77
788.224	17543.54
788.557	17513.25
788.89	17426.02
789.223	17445.91
789.556	17298.12
789.888	17223.32
790.221	17202.53
790.554	17139.7
790.887	17066.49
791.219	16906.72
791.552	16956.66
791.884	16907.39
792.217	16840.73
792.549	16727.74
792.882	16661.75
793.214	16542.66
793.546	16560.06
793.879	16478.03
794.211	16394.19
794.543	16420.4
794.875	16412.49
795.207	16350.12
795.539	16352.38
795.871	16304.25
796.203	16177.47
796.535	15996.01
796.867	16089.56
797.198	15970.47
797.53	15946.52
797.862	15841.66
798.193	15847.76
798.525	15661.78
798.856	15794.88
799.188	15589.24
799.519	15613.19
799.85	15497.71
800.182	15515.34
800.513	15527.54
800.844	15345.63
801.175	15381.11
801.506	15402.35
801.837	15233.09
802.168	15307.66
802.499	15186.76
802.83	15076.03
803.161	15039.42
803.491	15075.35
803.822	15136.14
804.153	14997.16
804.483	14840.33
804.814	14831.97
805.145	14763.27
805.475	14853.21
805.805	14732.76
806.136	14701.35
806.466	14656.38
806.796	14677.4
807.126	14569.83
807.457	14515.59
807.787	14544.97
808.117	14414.35
808.447	14448.48
808.777	14442.6
809.107	14347.24
809.436	14358.31
809.766	14329.61
810.096	14264.75
810.426	14121.48
810.755	14129.16
811.085	14080.58
811.414	14101.59
811.744	14076.06
812.073	14029.5
812.403	13949.73
812.732	13889.17
813.061	13900.02
813.39	13723.52
813.719	13765.33
814.049	13913.57
814.378	13827.93
814.707	13720.13
815.036	13762.39
815.365	13622.74
815.693	13585.45
816.022	13557.43
816.351	13478.78
816.68	13411.44
817.008	13453.7
817.337	13378.9
817.665	13315.85
817.994	13292.57
818.322	13358.11
818.651	13252.58
818.979	13236.53
819.307	13235.4
819.636	13237.21
819.964	13166.93
820.292	13107.27
820.62	13095.97
820.948	13082.18
821.276	13135.97
821.604	13069.53
821.932	13068.63
822.259	13045.8
822.587	13031.56
822.915	12969.64
823.243	13061.17
823.57	13064.78
823.898	13055.97
824.225	12982.53
824.553	12995.41
824.88	13006.03
825.207	13047.16
825.535	13024.33
825.862	13043.32
826.189	13035.18
826.516	13029.08
826.843	13135.97
827.17	13132.35
827.497	13073.37
827.824	12984.33
828.151	13060.26
828.478	12995.63
828.805	13004.67
829.131	12997.21
829.458	12957.67
829.785	12909.99
830.111	12979.14
830.438	12983.2
830.764	13024.56
831.09	13022.07
831.417	12987.72
831.743	13021.85
832.069	12996.54
832.395	12928.06
832.722	12974.62
833.048	12876.77
833.374	12929.65
833.7	12802.64
834.026	12935.75
834.351	12942.98
834.677	12816.88
835.003	12876.31
835.329	12876.77
835.654	12881.96
835.98	12736.88
836.306	12819.82
836.631	12714.28
836.956	12727.62
837.282	12778.46
837.607	12734.85
837.932	12674.74
838.258	12705.25
838.583	12647.39
838.908	12528.98
839.233	12559.49
839.558	12651.91
839.883	12612.82
840.208	12448.98
840.533	12463.67
840.858	12495.31
841.182	12516.55
841.507	12474.97
841.832	12321.75
842.156	12389.1
842.481	12384.58
842.805	12292.6
843.13	12246.27
843.454	12307.52
843.778	12198.59
844.103	12224.58
844.427	12197.91
844.751	12197.01
845.075	12137.58
845.399	12095.54
845.723	12030.69
846.047	11992.72
846.371	11935.77
846.695	11940.52
847.019	11835.44
847.343	11751.82
847.666	11812.84
847.99	11679.28
848.313	11676.8
848.637	11632.28
848.96	11593.86
849.284	11558.16
849.607	11529.68
849.931	11449.01
850.254	11337.15
850.577	11366.75
850.9	11302.8
851.223	11288.33
851.546	11185.06
851.869	11138.96
852.192	11185.06
852.515	11054.44
852.838	11043.82
853.161	11028.68
853.483	10956.36
853.806	10953.2
854.129	10953.88
854.451	10871.62
854.774	10781.45
855.096	10772.87
855.419	10696.71
855.741	10720.44
856.063	10669.59
856.385	10617.84
856.708	10681.34
857.03	10544.62
857.352	10545.3
857.674	10544.62
857.996	10529.71
858.318	10407.9
858.64	10398.86
858.961	10379.2
859.283	10326.32
859.605	10354.57
859.926	10343.5
860.248	10320.22
860.57	10278.64
860.891	10268.02
861.212	10154.13
861.534	10138.76
861.855	10074.81
862.176	10150.06
862.498	10161.13
862.819	10143.5
863.14	10070.06
863.461	10014.47
863.782	10007.24
864.103	9995.49
864.424	10026.22
864.745	9978.76
865.065	9942.38
865.386	9947.35
865.707	9903.28
866.027	9911.65
866.348	9853.57
866.668	9862.38
866.989	9814.93
867.309	9757.3
867.63	9785.1
867.95	9791.88
868.27	9700.35
868.59	9749.16
868.91	9709.39
869.23	9767.92
869.55	9730.63
869.87	9705.1
870.19	9674.36
870.51	9731.99
870.83	9642.05
871.15	9625.55
871.469	9571.32
871.789	9577.64
872.109	9565.67
872.428	9511.43
872.748	9636.4
873.067	9550.53
873.386	9510.53
873.706	9505.1
874.025	9473.69
874.344	9454.71
874.663	9470.98
874.982	9419
875.301	9451.09
875.62	9437.31
875.939	9361.83
876.258	9331.1
876.577	9354.82
876.896	9316.63
877.214	9338.55
877.533	9317.76
877.852	9299.91
878.17	9349.4
878.489	9337.42
878.807	9324.77
879.125	9247.03
879.444	9300.81
879.762	9243.19
880.08	9270.08
880.398	9159.58
880.716	9157.09
881.034	9098.56
881.352	9181.95
881.67	9112.35
881.988	9116.64
882.306	9105.34
882.624	9015.17
882.941	9024.66
883.259	8955.06
883.577	8935.17
883.894	8905.12
884.212	8935.17
884.529	8914.16
884.846	8896.53
885.164	8866.7
885.481	8856.08
885.798	8835.97
886.115	8797.78
886.432	8821.96
886.75	8717.78
887.067	8733.37
887.383	8662.19
887.7	8830.77
888.017	8709.64
888.334	8684.79
888.651	8708.06
888.967	8634.39
889.284	8581.74
889.6	8541.74
889.917	8434.4
890.233	8566.37
890.55	8507.84
890.866	8505.81
891.182	8414.74
891.498	8453.38
891.815	8401.63
892.131	8353.95
892.447	8377.45
892.763	8329.31
893.079	8326.38
893.395	8298.36
893.71	8317.34
894.026	8219.26
894.342	8219.26
894.657	8138.13
894.973	8159.6
895.289	8145.82
895.604	8128.87
895.92	8081.86
896.235	8111.92
896.55	7993.96
896.865	7970.23
897.181	7982.21
897.496	7993.5
897.811	7956.44
898.126	7911.02
898.441	7920.06
898.756	7853.62
899.071	7776.34
899.386	7830.34
899.7	7734.53
900.015	7748.54
900.33	7658.15
900.644	7581.99
900.959	7657.24
901.273	7636.9
901.588	7577.02
901.902	7514.42
902.216	7508.32
902.531	7525.49
902.845	7497.25
903.159	7454.31
903.473	7385.38
903.787	7383.8
904.101	7348.55
904.415	7423.12
904.729	7327.99
905.042	7241.21
905.356	7290.47
905.67	7257.93
905.984	7269
906.297	7192.4
906.611	7155.79
906.924	7170.25
907.237	7141.1
907.551	7112.85
907.864	7080.08
908.177	7066.07
908.491	7038.95
908.804	6964.38
909.117	6944.27
909.43	6890.26
909.743	6863.59
910.056	6845.29
910.368	6826.53
910.681	6789.92
910.994	6833.76
911.307	6738.62
911.619	6704.27
911.932	6696.14
912.244	6673.54
912.557	6633.54
912.869	6591.28
913.181	6649.81
913.494	6605.97
913.806	6545.18
914.118	6543.83
914.43	6522.36
914.742	6486.88
915.054	6461.34
915.366	6442.13
915.678	6434.68
915.99	6349.03
916.302	6313.55
916.613	6272.87
916.925	6297.28
917.236	6214.12
917.548	6257.5
917.859	6184.51
918.171	6168.24
918.482	6168.24
918.794	6109.49
919.105	6093.44
919.416	6055.25
919.727	6011.18
920.038	6026.78
920.349	6005.31
920.66	5946.1
920.971	5937.29
921.282	5943.39
921.593	5852.09
921.903	5826.1
922.214	5862.26
922.525	5850.96
922.835	5787.23
923.146	5787.23
923.456	5759.44
923.767	5700.46
924.077	5758.54
924.387	5668.59
924.697	5646.67
925.008	5620.46
925.318	5629.5
925.628	5605.32
925.938	5555.83
926.248	5522.16
926.558	5536.85
926.867	5561.7
927.177	5540.46
927.487	5370.3
927.796	5441.71
928.106	5392.44
928.416	5356.29
928.725	5359
929.034	5330.3
929.344	5305.44
929.653	5294.82
929.962	5270.86
930.271	5236.29
930.581	5225.67
930.89	5208.27
931.199	5160.13
931.508	5184.54
931.817	5107.48
932.125	5119.23
932.434	5124.65
932.743	5034.49
933.051	5017.99
933.36	5033.36
933.669	5017.31
933.977	4938.9
934.286	4964.66
934.594	4987.71
934.902	4932.57
935.21	4870.87
935.519	4902.96
935.827	4871.55
936.135	4864.77
936.443	4779.58
936.751	4801.5
937.059	4791.78
937.367	4730.31
937.674	4777.09
937.982	4734.16
938.29	4650.77
938.597	4710.43
938.905	4636.98
939.213	4663.2
939.52	4630.2
939.827	4604.67
940.135	4571.22
940.442	4571.22
940.749	4559.92
941.056	4590.2
941.363	4542.97
941.67	4519.7
941.977	4445.8
942.284	4425.46
942.591	4400.38
942.898	4425.46
943.205	4394.05
943.511	4321.28
943.818	4372.58
944.125	4340.72
944.431	4293.26
944.738	4272.7
945.044	4250.78
945.35	4260.95
945.657	4229.08
945.963	4218.01
946.269	4180.5
946.575	4183.66
946.881	4136.2
947.187	4180.5
947.493	4126.94
947.799	4117.9
948.105	4085.58
948.41	4079.94
948.716	4052.14
949.022	4025.25
949.327	4074.51
949.633	3983.67
949.938	3991.12
950.244	3983.67
950.549	3959.71
950.854	3923.56
951.16	3901.41
951.465	3901.86
951.77	3913.61
952.075	3889.43
952.38	3852.37
952.685	3840.62
952.99	3798.36
953.294	3797.23
953.599	3838.13
953.904	3761.3
954.209	3758.36
954.513	3714.97
954.818	3693.05
955.122	3700.74
955.426	3681.08
955.731	3680.17
956.035	3656.9
956.339	3602.43
956.643	3639.95
956.948	3621.19
957.252	3622.09
957.556	3599.27
957.86	3561.08
958.163	3569.67
958.467	3529.89
958.771	3517.01
959.075	3493.06
959.378	3498.93
959.682	3474.08
959.985	3423.68
960.289	3455.54
960.592	3443.57
960.896	3439.5
961.199	3413.06
961.502	3393.85
961.805	3385.94
962.108	3347.75
962.411	3378.71
962.714	3331.93
963.017	3347.75
963.32	3271.37
963.623	3288.09
963.926	3241.31
964.228	3279.5
964.531	3272.72
964.833	3212.16
965.136	3197.47
965.438	3212.39
965.741	3173.52
966.043	3200.64
966.345	3164.7
966.648	3152.73
966.95	3121.32
967.252	3120.19
967.554	3135.78
967.856	3109.57
968.158	3096.91
968.46	3068.21
968.761	3082.67
969.063	3070.02
969.365	3098.04
969.666	3051.26
969.968	3027.53
970.269	2972.17
970.571	2958.38
970.872	2978.95
971.174	2926.97
971.475	2949.34
971.776	2947.08
972.077	2941.66
972.378	2908.67
972.679	2922
972.98	2911.38
973.281	2862.79
973.582	2837.71
973.883	2849.46
974.183	2843.58
974.484	2828.44
974.785	2778.5
975.085	2786.18
975.386	2793.87
975.686	2795.68
975.986	2769.24
976.287	2745.96
976.587	2762.46
976.887	2687.66
977.187	2726.52
977.487	2691.27
977.787	2668.45
978.087	2640.42
978.387	2630.71
978.687	2673.64
978.987	2619.63
979.286	2646.98
979.586	2613.31
979.885	2618.5
980.185	2607.21
980.484	2559.52
980.784	2586.87
981.083	2555.68
981.382	2547.32
981.682	2521.11
981.981	2507.77
982.28	2476.81
982.579	2494.67
982.878	2497.15
983.177	2488.34
983.475	2482.46
983.774	2434.78
984.073	2461.67
984.372	2432.29
984.67	2407.44
984.969	2404.05
985.267	2406.53
985.566	2361.56
985.864	2393.2
986.162	2435.91
986.461	2348.68
986.759	2394.56
987.057	2324.95
987.355	2361.11
987.653	2299.64
987.951	2309.13
988.249	2278.63
988.547	2303.26
988.844	2308.23
989.142	2242.92
989.44	2291.73
989.737	2279.53
990.035	2253.99
990.332	2249.47
990.63	2242.24
990.927	2244.5
991.224	2174.22
991.521	2199.98
991.819	2197.95
992.116	2147.56
992.413	2180.32
992.71	2139.65
993.006	2142.13
993.303	2148.23
993.6	2121.34
993.897	2105.98
994.193	2104.85
994.49	2087.22
994.787	2077.95
995.083	2057.84
995.379	2045.19
995.676	2031.63
995.972	2052.64
996.268	2016.49
996.565	2034.57
996.861	2010.61
997.157	1994.79
997.453	2004.51
997.749	2008.35
998.044	2006.09
998.34	1960.22
998.636	1971.52
998.932	1943.27
999.227	1964.74
999.523	1916.83
999.818	1901.01
1000.114	1932.42
1000.409	1903.27
1000.704	1919.54
1001	1894.46
1001.295	1880.22
1001.59	1851.29
1001.885	1848.58
1002.18	1869.6
1002.475	1831.18
1002.77	1844.74
1003.065	1790.05
1003.359	1796.15
1003.654	1807.9
1003.949	1821.69
1004.243	1771.75
1004.538	1770.39
1004.832	1763.61
1005.127	1760.67
1005.421	1747.34
1005.715	1742.37
1006.009	1718.42
1006.304	1705.08
1006.598	1701.47
1006.892	1680
1007.186	1649.26
1007.48	1706.66
1007.773	1678.64
1008.067	1661.47
1008.361	1643.16
1008.655	1654.46
1008.948	1640
1009.242	1658.08
1009.535	1583.73
1009.829	1584.41
1010.122	1567.23
1010.415	1604.52
1010.708	1558.42
1011.001	1573.79
1011.295	1562.71
1011.588	1551.87
1011.881	1559.78
1012.173	1515.93
1012.466	1528.82
1012.759	1522.04
1013.052	1500.34
1013.344	1540.34
1013.637	1491.3
1013.93	1480.46
1014.222	1502.38
1014.514	1478.42
1014.807	1484.07
1015.099	1458.76
1015.391	1431.64
1015.683	1434.58
1015.976	1439.78
1016.268	1407.46
1016.56	1408.82
1016.851	1412.43
1017.143	1400.01
1017.435	1376.96
1017.727	1405.43
1018.018	1360.68
1018.31	1383.06
1018.602	1336.73
1018.893	1385.77
1019.185	1325.43
1019.476	1344.87
1019.767	1329.95
1020.058	1317.97
1020.35	1295.38
1020.641	1304.87
1020.932	1272.55
1021.223	1284.08
1021.514	1268.94
1021.804	1267.58
1022.095	1255.83
1022.386	1240.69
1022.677	1239.56
1022.967	1218.09
1023.258	1226.9
1023.548	1208.37
1023.839	1192.55
1024.129	1224.64
1024.419	1198.65
1024.709	1201.14
1025	1208.6
1025.29	1188.03
1025.58	1154.14
1025.87	1156.62
1026.16	1148.71
1026.449	1147.81
1026.739	1134.7
1027.029	1154.14
1027.319	1130.63
1027.608	1110.07
1027.898	1095.83
1028.187	1093.8
1028.477	1094.93
1028.766	1097.19
1029.055	1077.98
1029.344	1047.02
1029.634	1093.12
1029.923	1078.88
1030.212	1041.14
1030.501	1054.03
1030.79	1052.44
1031.078	1021.48
1031.367	1036.63
1031.656	1006.34
1031.945	979
1032.233	1004.31
1032.522	1000.24
1032.81	994.82
1033.099	1006.34
1033.387	994.82
1033.675	999.79
1033.963	958.44
1034.251	978.1
1034.54	955.27
1034.828	972.9
1035.116	951.88
1035.403	960.47
1035.691	917.08
1035.979	917.08
1036.267	928.38
1036.554	893.13
1036.842	913.24
1037.129	919.11
1037.417	917.76
1037.704	895.61
1037.992	894.48
1038.279	855.61
1038.566	883.86
1038.853	883.86
1039.14	883.86
