Data from hue_240_FLMS001491_00089.txt Node
Date: Tue Feb 07 16:36:05 GMT 2017
User: dcchb
Spectrometer: FLMS00149
Trigger mode: 0
Integration Time (sec): 2.000000E-2
Scans to average: 10
Electric dark correction enabled: true
Nonlinearity correction enabled: false
Boxcar width: 0
XAxis mode: Wavelengths
Number of Pixels in Spectrum: 2048
>>>>>Begin Spectral Data<<<<<
341.393	-22.49
341.776	-22.49
342.16	-22.49
342.543	-62.48
342.927	-49.15
343.31	-68.36
343.693	-69.49
344.077	-77.63
344.46	-53.67
344.843	-42.37
345.226	-66.33
345.61	-27.46
345.993	-21.81
346.376	12.32
346.759	8.02
347.142	22.94
347.525	49.83
347.908	68.36
348.291	81.69
348.674	85.53
349.057	98.42
349.44	131.63
349.823	140.9
350.206	158.75
350.588	198.3
350.971	204.4
351.354	209.6
351.737	217.51
352.119	263.16
352.502	254.8
352.884	277.17
353.267	259.32
353.65	289.14
354.032	305.87
354.414	298.86
354.797	300.9
355.179	311.52
355.562	302.25
355.944	320.33
356.326	317.84
356.709	314.46
357.091	334.34
357.473	326.43
357.855	330.05
358.238	332.31
358.62	333.21
359.002	345.41
359.384	330.95
359.766	345.87
360.148	353.55
360.53	317.62
360.912	339.77
361.294	331.63
361.676	329.6
362.057	312.2
362.439	295.25
362.821	309.26
363.203	330.27
363.584	304.74
363.966	330.95
364.348	315.36
364.729	326.66
365.111	316.71
365.493	319.88
365.874	299.54
366.256	308.81
366.637	323.27
367.019	311.29
367.4	316.26
367.781	300.44
368.163	299.99
368.544	308.13
368.925	303.38
369.306	303.83
369.688	299.31
370.069	297.05
370.45	292.76
370.831	290.73
371.212	319.88
371.593	289.14
371.974	323.95
372.355	303.16
372.736	315.81
373.117	315.58
373.498	316.49
373.879	315.36
374.26	296.83
374.641	302.93
375.021	321.46
375.402	311.74
375.783	335.02
376.163	302.03
376.544	303.61
376.925	302.7
377.305	319.2
377.686	311.07
378.066	325.53
378.447	317.17
378.827	315.58
379.208	337.05
379.588	305.64
379.968	326.21
380.349	336.83
380.729	328.92
381.109	326.21
381.489	321.46
381.87	344.96
382.25	338.86
382.63	339.99
383.01	327.11
383.39	315.13
383.77	339.31
384.15	329.82
384.53	347
384.91	357.39
385.29	340.44
385.67	355.58
386.049	334.57
386.429	349.48
386.809	330.5
387.189	355.58
387.568	354.91
387.948	324.62
388.328	358.52
388.707	375.24
389.087	341.35
389.466	363.72
389.846	351.06
390.225	339.09
390.605	374.57
390.984	376.37
391.363	356.26
391.743	345.41
392.122	389.71
392.501	366.43
392.881	371.63
393.26	357.84
393.639	393.32
394.018	359.65
394.397	370.72
394.776	363.27
395.155	371.18
395.534	394.68
395.913	379.54
396.292	380.44
396.671	370.27
397.05	381.35
397.429	388.58
397.808	373.44
398.186	389.26
398.565	389.48
398.944	386.77
399.323	388.13
399.701	383.61
400.08	408.24
400.458	398.29
400.837	401.91
401.215	386.32
401.594	397.84
401.972	393.77
402.351	383.38
402.729	414.11
403.107	427.22
403.486	415.02
403.864	432.42
404.242	410.72
404.62	409.59
404.999	436.03
405.377	430.61
405.755	429.25
406.133	410.72
406.511	428.12
406.889	434.68
407.267	443.49
407.645	429.48
408.023	453.21
408.401	471.06
408.779	455.69
409.156	450.72
409.534	454.34
409.912	486.65
410.29	483.94
410.667	496.82
411.045	501.12
411.422	489.37
411.8	503.83
412.178	492.76
412.555	508.12
412.933	506.09
413.31	530.49
413.687	511.51
414.065	531.17
414.442	547.22
414.819	567.33
415.197	558.97
415.574	542.92
415.951	579.31
416.328	594.67
416.705	580.66
417.082	553.54
417.46	611.62
417.837	601.45
418.214	579.53
418.591	598.06
418.967	582.47
419.344	612.3
419.721	607.78
420.098	617.95
420.475	621.57
420.852	649.59
421.228	654.33
421.605	667.21
421.982	684.39
422.358	662.69
422.735	679.19
423.111	672.19
423.488	686.65
423.864	715.57
424.241	728.23
424.617	734.33
424.994	741.34
425.37	711.28
425.746	738.62
426.123	749.7
426.499	776.14
426.875	773.2
427.251	782.24
427.627	796.93
428.003	808.23
428.379	806.87
428.756	803.26
429.132	815.01
429.507	827.66
429.883	837.38
430.259	835.57
430.635	871.05
431.011	876.93
431.387	902.46
431.763	870.37
432.138	888.68
432.514	927.32
432.89	925.29
433.265	949.47
433.641	958.28
434.016	943.82
434.392	961.44
434.767	979.07
435.143	1010.26
435.518	1018.17
435.894	1042.57
436.269	1036.47
436.644	1049.12
437.02	1090.48
437.395	1105.39
437.77	1097.26
438.145	1127.31
438.52	1135.45
438.895	1156.47
439.271	1151.72
439.646	1152.4
440.021	1197.82
440.395	1193.08
440.77	1207.99
441.145	1193.75
441.52	1204.6
441.895	1219.52
442.27	1230.14
442.645	1264.26
443.019	1271.72
443.394	1287.54
443.769	1292.28
444.143	1310.81
444.518	1298.84
444.892	1305.84
445.267	1308.33
445.641	1330.7
446.016	1352.39
446.39	1365.5
446.764	1349.68
447.139	1363.47
447.513	1382
447.887	1418.83
448.262	1405.27
448.636	1388.55
449.01	1424.48
449.384	1425.39
449.758	1431.49
450.132	1438.27
450.506	1447.76
450.88	1458.38
451.254	1490.24
451.628	1493.18
452.002	1523.46
452.376	1495.67
452.75	1548.32
453.123	1537.02
453.497	1571.6
453.871	1572.05
454.244	1579.05
454.618	1601.88
454.992	1630.58
455.365	1635.32
455.739	1672.84
456.112	1690.69
456.486	1704.47
456.859	1669.22
457.232	1747.41
457.606	1719.84
457.979	1755.32
458.352	1777.69
458.725	1822.89
459.099	1803.91
459.472	1879.16
459.845	1889.33
460.218	1914.86
460.591	1882.32
460.964	1908.09
461.337	1937.92
461.71	1948.76
462.083	1986.5
462.456	1979.04
462.829	2005.71
463.201	2051.58
463.574	2057.01
463.947	2035.54
464.32	2091.58
464.692	2110.57
465.065	2120.96
465.438	2137.01
465.81	2169.32
466.183	2202.54
466.555	2253.39
466.928	2271.92
467.3	2247.29
467.672	2271.69
468.045	2368.64
468.417	2362.54
468.789	2334.74
469.161	2366.6
469.534	2361.41
469.906	2473.49
470.278	2447.51
470.65	2497
471.022	2518.24
471.394	2592.81
471.766	2612.02
472.138	2633.49
472.51	2660.83
472.882	2739.02
473.253	2751.45
473.625	2771.57
473.997	2804.33
474.369	2820.38
474.74	2853.37
475.112	2904.67
475.484	2965.68
475.855	2998
476.227	3057.43
476.598	3093.14
476.97	3099.24
477.341	3126.81
477.713	3190.99
478.084	3241.84
478.455	3312.34
478.827	3273.02
479.198	3384.2
479.569	3412
479.94	3498.33
480.311	3510.76
480.682	3574.26
481.053	3601.6
481.424	3709.62
481.795	3722.28
482.166	3770.86
482.537	3795.27
482.908	3898.54
483.279	3929.28
483.65	3938.99
484.021	4084.3
484.391	4034.13
484.762	4063.96
485.133	4160.68
485.503	4212.43
485.874	4261.24
486.244	4291.07
486.615	4385.08
486.985	4401.35
487.356	4456.27
487.726	4526.1
488.097	4616.94
488.467	4585.53
488.837	4654.23
489.207	4730.38
489.578	4807.44
489.948	4789.14
490.318	4837.05
490.688	4890.83
491.058	4978.29
491.428	4966.76
491.798	5009.92
492.168	5098.51
492.538	5143.25
492.908	5182.35
493.278	5235.91
493.648	5234.78
494.017	5277.71
494.387	5378.95
494.757	5386.41
495.126	5441.1
495.496	5478.39
495.866	5481.32
496.235	5505.73
496.605	5561.77
496.974	5566.07
497.344	5627.31
497.713	5609.68
498.082	5637.93
498.452	5705.95
498.821	5753.18
499.19	5772.16
499.559	5799.96
499.928	5799.28
500.298	5908.43
500.667	5910.92
501.036	5836.8
501.405	5884.03
501.774	5962.44
502.143	5976.68
502.512	6008.54
502.88	6008.54
503.249	6025.27
503.618	6091.48
503.987	6078.82
504.356	6103.23
504.724	6111.59
505.093	6145.04
505.462	6189.55
505.83	6222.1
506.199	6194.98
506.567	6251.93
506.936	6234.07
507.304	6325.14
507.672	6292.15
508.041	6337.8
508.409	6379.61
508.777	6359.27
509.145	6437.68
509.514	6431.81
509.882	6448.08
510.25	6481.75
510.618	6489.89
510.986	6496.89
511.354	6551.35
511.722	6582.54
512.09	6574.86
512.458	6608.3
512.826	6597
513.193	6618.7
513.561	6645.14
513.929	6705.02
514.297	6737.56
514.664	6784.34
515.032	6742.99
515.4	6712.48
515.767	6770.33
516.135	6771.91
516.502	6773.27
516.869	6870.89
517.237	6815.08
517.604	6821.63
517.972	6858.69
518.339	6894.39
518.706	6902.98
519.073	6901.85
519.44	6980.04
519.808	6976.88
520.175	6952.7
520.542	6991.79
520.909	6988.63
521.276	7002.64
521.643	7097.33
522.009	7083.54
522.376	7060.49
522.743	7090.32
523.11	7167.16
523.477	7158.34
523.843	7178.91
524.21	7211
524.577	7269.98
524.943	7212.13
525.31	7274.5
525.676	7283.31
526.043	7262.07
526.409	7383.87
526.776	7382.74
527.142	7382.07
527.508	7320.6
527.874	7335.97
528.241	7395.17
528.607	7373.25
528.973	7367.38
529.339	7412.8
529.705	7405.12
530.071	7454.15
530.437	7455.51
530.803	7460.71
531.169	7506.58
531.535	7451.67
531.901	7445.57
532.267	7524.21
532.632	7501.16
532.998	7418.67
533.364	7495.06
533.73	7518.11
534.095	7557.88
534.461	7560.82
534.826	7559.46
535.192	7534.83
535.557	7531.89
535.923	7531.67
536.288	7584.32
536.653	7522.18
537.019	7506.36
537.384	7476.3
537.749	7504.1
538.114	7518.33
538.479	7552
538.845	7484.44
539.21	7457.32
539.575	7529.86
539.94	7518.11
540.305	7511.1
540.67	7476.07
541.034	7510.88
541.399	7478.79
541.764	7458
542.129	7481.27
542.494	7499.58
542.858	7431.78
543.223	7415.29
543.587	7459.58
543.952	7443.53
544.316	7404.66
544.681	7399.24
545.045	7421.16
545.41	7394.49
545.774	7374.61
546.138	7392.01
546.503	7410.09
546.867	7396.08
547.231	7402.63
547.595	7393.14
547.959	7410.54
548.324	7389.98
548.688	7375.51
549.052	7380.48
549.416	7373.93
549.779	7341.16
550.143	7338.23
550.507	7368.28
550.871	7330.77
551.235	7319.02
551.599	7329.19
551.962	7357.89
552.326	7364.89
552.689	7407.83
553.053	7311.11
553.417	7315.17
553.78	7361.28
554.143	7301.62
554.507	7348.17
554.87	7331.9
555.234	7346.81
555.597	7317.43
555.96	7325.8
556.323	7304.1
556.686	7339.36
557.05	7336.87
557.413	7371.22
557.776	7376.87
558.139	7356.3
558.502	7378
558.865	7402.63
559.228	7422.74
559.59	7402.4
559.953	7406.7
560.316	7454.83
560.679	7428.84
561.041	7495.96
561.404	7474.94
561.767	7490.76
562.129	7457.32
562.492	7445.57
562.854	7485.34
563.217	7484.44
563.579	7533.25
563.941	7562.4
564.304	7544.32
564.666	7612.12
565.028	7564.21
565.39	7613.02
565.753	7662.96
566.115	7609.63
566.477	7660.25
566.839	7708.16
567.201	7709.06
567.563	7700.02
567.925	7773.24
568.287	7803.98
568.648	7757.65
569.01	7792
569.372	7854.82
569.734	7817.53
570.095	7825.9
570.457	7831.09
570.819	7902.05
571.18	7882.62
571.542	7953.58
571.903	7886.91
572.265	7940.7
572.626	7956.51
572.987	7997.42
573.349	8006
573.71	8034.25
574.071	8057.3
574.432	8077.64
574.794	8099.56
575.155	8071.99
575.516	8053.91
575.877	8088.26
576.238	8134.36
576.599	8072.22
576.96	8078.54
577.32	8089.84
577.681	8168.03
578.042	8215.26
578.403	8165.77
578.763	8221.14
579.124	8152.67
579.485	8239.22
579.845	8237.64
580.206	8259.33
580.566	8321.25
580.927	8328.48
581.287	8403.06
581.648	8302.04
582.008	8375.94
582.368	8265.66
582.728	8397.63
583.089	8379.1
583.449	8404.41
583.809	8369.38
584.169	8453.9
584.529	8366.45
584.889	8442.83
585.249	8385.43
585.609	8444.86
585.969	8401.25
586.329	8456.16
586.688	8505.2
587.048	8443.73
587.408	8464.07
587.768	8447.8
588.127	8452.09
588.487	8516.05
588.846	8564.18
589.206	8515.82
589.565	8490.29
589.925	8465.2
590.284	8540.23
590.643	8517.4
591.003	8566.44
591.362	8586.78
591.721	8581.13
592.08	8550.85
592.44	8551.98
592.799	8558.98
593.158	8604.18
593.517	8581.58
593.876	8609.38
594.235	8598.76
594.593	8605.08
594.952	8618.87
595.311	8536.39
595.67	8634.69
596.029	8663.39
596.387	8630.17
596.746	8703.16
597.104	8599.89
597.463	8596.27
597.822	8705.65
598.18	8658.64
598.538	8671.3
598.897	8697.96
599.255	8616.16
599.613	8765.76
599.972	8674.24
600.33	8719.66
600.688	8655.03
601.046	8755.36
601.404	8693.67
601.762	8703.16
602.12	8805.98
602.478	8776.61
602.836	8729.15
603.194	8739.54
603.552	8758.3
603.91	8724.86
604.268	8758.75
604.625	8784.51
604.983	8761.92
605.341	8762.14
605.698	8755.14
606.056	8814.12
606.413	8791.07
606.771	8917.62
607.128	8796.49
607.485	8767.57
607.843	8776.38
608.2	8825.42
608.557	8882.82
608.914	8829.71
609.272	8887.56
609.629	8895.7
609.986	8910.39
610.343	8842.37
610.7	8944.06
611.057	8869.71
611.414	8877.62
611.771	8958.97
612.127	8941.35
612.484	8961.01
612.841	8966.88
613.198	8916.94
613.554	8909.03
613.911	9002.81
614.267	8960.1
614.624	8973.44
614.98	8954.23
615.337	9020.67
615.693	9001.46
616.05	8987.22
616.406	9069.48
616.762	8991.29
617.118	8961.69
617.475	9090.04
617.831	9052.53
618.187	9066.77
618.543	9014.34
618.899	9081.23
619.255	9112.87
619.611	9062.25
619.967	9119.87
620.323	9130.27
620.678	9113.09
621.034	9051.85
621.39	8986.32
621.746	9054.34
622.101	9103.15
622.457	9057.95
622.812	9079.2
623.168	9149.48
623.523	9111.06
623.879	9154.45
624.234	9037.39
624.589	9130.27
624.945	9082.36
625.3	9084.17
625.655	9070.16
626.01	9091.4
626.365	9115.35
626.72	9084.62
627.075	9055.02
627.43	9031.06
627.785	9056.15
628.14	9066.54
628.495	9071.06
628.85	9055.69
629.205	9003.27
629.559	9068.58
629.914	8983.38
630.269	9056.6
630.623	9008.46
630.978	9028.12
631.332	9044.39
631.687	9076.03
632.041	9001.23
632.396	8963.95
632.75	8944.96
633.104	8988.35
633.459	8951.97
633.813	8967.79
634.167	8945.64
634.521	8980.89
634.875	8906.55
635.229	8948.13
635.583	8881.46
635.937	8885.76
636.291	8869.03
636.645	8909.03
636.999	8816.83
637.352	8839.2
637.706	8774.8
638.06	8841.24
638.413	8848.92
638.767	8855.25
639.121	8758.07
639.474	8750.17
639.828	8765.08
640.181	8730.05
640.534	8796.49
640.888	8737.51
641.241	8687.34
641.594	8697.29
641.947	8729.37
642.301	8692.99
642.654	8667.91
643.007	8728.02
643.36	8646.89
643.713	8643.73
644.066	8664.52
644.419	8601.24
644.771	8624.52
645.124	8454.35
645.477	8537.97
645.83	8489.61
646.182	8414.36
646.535	8355.37
646.888	8374.81
647.24	8350.18
647.593	8394.92
647.945	8441.25
648.298	8363.28
648.65	8323.74
649.002	8359.67
649.355	8350.18
649.707	8345.43
650.059	8439.67
650.411	8553.33
650.763	8512.66
651.115	8542.04
651.467	8580.68
651.819	8546.33
652.171	8557.4
652.523	8552.66
652.875	8530.28
653.227	8455.71
653.578	8509.72
653.93	8477.18
654.282	8507.23
654.633	8464.3
654.985	8509.04
655.337	8464.52
655.688	8394.69
656.039	8543.84
656.391	8468.59
656.742	8440.12
657.094	8481.47
657.445	8577.74
657.796	8461.13
658.147	8505.2
658.498	8489.16
658.849	8451.42
659.2	8486.22
659.551	8451.42
659.902	8447.57
660.253	8502.71
660.604	8467.23
660.955	8442.6
661.306	8532.54
661.656	8478.53
662.007	8556.95
662.358	8512.43
662.708	8498.87
663.059	8461.36
663.409	8431.76
663.76	8495.48
664.11	8491.87
664.461	8543.17
664.811	8482.83
665.161	8471.75
665.511	8461.36
665.862	8454.58
666.212	8536.16
666.562	8518.76
666.912	8537.97
667.262	8469.95
667.612	8514.24
667.962	8470.85
668.312	8420.46
668.662	8463.85
669.011	8522.15
669.361	8454.81
669.711	8490.06
670.06	8475.82
670.41	8391.08
670.76	8431.98
671.109	8468.59
671.459	8475.82
671.808	8456.84
672.157	8435.6
672.507	8384.75
672.856	8362.83
673.205	8397.41
673.554	8384.98
673.904	8363.73
674.253	8391.98
674.602	8372.32
674.951	8315.37
675.3	8256.85
675.649	8384.98
675.998	8294.13
676.346	8314.47
676.695	8375.94
677.044	8329.16
677.393	8307.92
677.741	8388.59
678.09	8265.88
678.438	8282.83
678.787	8298.43
679.135	8252.55
679.484	8209.84
679.832	8254.59
680.181	8247.58
680.529	8265.88
680.877	8186.11
681.225	8208.71
681.573	8255.04
681.922	8192.67
682.27	8094.59
682.618	8211.65
682.966	8128.03
683.314	8118.54
683.661	8058.43
684.009	8067.7
684.357	8063.4
684.705	8008.94
685.053	8009.85
685.4	8003.74
685.748	8002.84
686.095	7968.27
686.443	7945.67
686.79	7892.79
687.138	7991.32
687.485	8054.36
687.832	7917.42
688.18	7880.81
688.527	7883.75
688.874	7900.24
689.221	7791.77
689.568	7786.57
689.915	7800.13
690.262	7764.65
690.609	7756.52
690.956	7643.08
691.303	7717.2
691.65	7664.09
691.997	7675.17
692.344	7597.65
692.69	7592.46
693.037	7641.72
693.383	7564.21
693.73	7523.76
694.077	7570.08
694.423	7501.38
694.769	7427.04
695.116	7388.85
695.462	7477.43
695.808	7425
696.155	7402.86
696.501	7334.84
696.847	7332.58
697.193	7333.48
697.539	7322.86
697.885	7304.1
698.231	7279.92
698.577	7257.78
698.923	7188.4
699.269	7181.85
699.614	7178
699.96	7128.97
700.306	7140.26
700.651	7068.63
700.997	7055.07
701.342	7074.96
701.688	7023.21
702.033	6943.89
702.379	7006.71
702.724	6952.47
703.069	6991.79
703.415	6925.58
703.76	6910.44
704.105	6865.02
704.45	6847.39
704.795	6819.37
705.14	6809.88
705.485	6823.66
705.83	6761.52
706.175	6806.94
706.52	6764.45
706.865	6680.84
707.209	6701.41
707.554	6709.09
707.899	6722.42
708.243	6667.28
708.588	6680.16
708.932	6558.58
709.277	6590.22
709.621	6613.5
709.966	6568.75
710.31	6576.21
710.654	6505.93
710.998	6505.25
711.342	6497.8
711.687	6512.03
712.031	6448.98
712.375	6468.64
712.719	6433.16
713.063	6504.8
713.407	6422.77
713.75	6436.55
714.094	6406.5
714.438	6417.57
714.782	6387.74
715.125	6358.36
715.469	6372.6
715.812	6357.46
716.156	6332.83
716.499	6316.33
716.843	6334.41
717.186	6244.47
717.53	6321.3
717.873	6298.03
718.216	6331.02
718.559	6311.36
718.902	6259.38
719.246	6284.69
719.589	6196.11
719.932	6196.56
720.275	6195.66
720.617	6193.85
720.96	6181.19
721.303	6138.71
721.646	6157.24
721.989	6137.35
722.331	6170.57
722.674	6168.54
723.016	6175.77
723.359	6102.78
723.701	6131.03
724.044	6118.82
724.386	6054.87
724.729	6132.83
725.071	6143.91
725.413	6132.38
725.755	6087.64
726.097	6109.56
726.439	6059.61
726.782	6068.65
727.124	6117.69
727.465	6060.29
727.807	6045.83
728.149	6043.57
728.491	6008.77
728.833	6029.56
729.175	5983.01
729.516	6022.33
729.858	6017.58
730.199	6043.57
730.541	5982.1
730.882	5977.13
731.224	6028.66
731.565	5991.59
731.906	5978.94
732.248	6001.09
732.589	6013.51
732.93	6006.28
733.271	6000.18
733.612	6012.38
733.953	5992.5
734.294	5978.03
734.635	5960.86
734.976	5971.48
735.317	5954.76
735.658	6046.73
735.999	5982.1
736.339	6013.74
736.68	6016.9
737.021	5989.79
737.361	5947.08
737.702	6001.99
738.042	5961.76
738.383	6002.22
738.723	5948.21
739.063	5949.56
739.404	5999.73
739.744	5950.01
740.084	6004.47
740.424	5947.53
740.764	5981.65
741.104	6038.82
741.444	6007.64
741.784	6006.96
742.124	5987.53
742.464	5998.6
742.804	6063.23
743.143	6030.46
743.483	6082.21
743.823	6041.54
744.162	6066.17
744.502	6074.3
744.841	6059.61
745.181	6125.38
745.52	6116.79
745.86	6188.2
746.199	6118.14
746.538	6125.38
746.877	6220.06
747.216	6216.22
747.556	6269.78
747.895	6311.81
748.234	6285.37
748.573	6239.72
748.911	6359.49
749.25	6437.68
749.589	6343
749.928	6435.42
750.267	6481.3
750.605	6535.31
750.944	6515.87
751.283	6548.42
751.621	6609.88
751.96	6722.65
752.298	6764.45
752.636	6811.91
752.975	6910.89
753.313	6875.41
753.651	6987.73
753.989	7019.36
754.327	7085.12
754.666	7122.41
755.004	7244.22
755.342	7261.62
755.679	7374.16
756.017	7379.81
756.355	7546.58
756.693	7489.86
757.031	7656.41
757.368	7669.74
757.706	7799.68
758.044	7860.7
758.381	7986.12
758.719	7981.37
759.056	8168.71
759.394	8215.04
759.731	8289.39
760.068	8386.11
760.405	8433.79
760.743	8547.23
761.08	8671.75
761.417	8724.18
761.754	8806.89
762.091	8911.74
762.428	8976.6
762.765	9124.84
763.102	9248.46
763.438	9269.7
763.775	9322.35
764.112	9492.97
764.449	9556.25
764.785	9624.72
765.122	9703.81
765.458	9788.1
765.795	9798.5
766.131	9864.03
766.467	9975.44
766.804	10053.18
767.14	10180.18
767.476	10270.35
767.812	10250.01
768.148	10356.45
768.485	10378.82
768.821	10333.4
769.157	10446.39
769.492	10547.41
769.828	10610.46
770.164	10659.72
770.5	10707.85
770.836	10725.71
771.171	10771.13
771.507	10812.26
771.842	10873.73
772.178	10884.12
772.513	10921.41
772.849	10960.95
773.184	11046.6
773.519	11026.72
773.855	10993.27
774.19	11067.84
774.525	11085.02
774.86	11188.97
775.195	11182.19
775.53	11289.99
775.865	11224.45
776.2	11196.65
776.535	11191.91
776.87	11291.79
777.205	11225.35
777.539	11256.09
777.874	11291.34
778.209	11230.78
778.543	11279.82
778.878	11198.24
779.212	11282.08
779.547	11270.1
779.881	11272.13
780.215	11165.24
780.55	11256.31
780.884	11320.72
781.218	11309.65
781.552	11251.57
781.886	11203.21
782.22	11235.75
782.554	11213.15
782.888	11136.54
783.222	11188.52
783.556	11129.09
783.889	11190.1
784.223	11015.19
784.557	11098.13
784.89	11177.9
785.224	11049.09
785.557	11087.96
785.891	11031.69
786.224	11014.74
786.558	11054.74
786.891	11052.93
787.224	10969.32
787.557	10962.54
787.891	10906.94
788.224	10870.34
788.557	11003.21
788.89	10937.68
789.223	10907.62
789.556	10828.3
789.888	10855.65
790.221	10829.21
790.554	10766.84
790.887	10758.02
791.219	10745.14
791.552	10680.51
791.884	10658.36
792.217	10659.49
792.549	10694.3
792.882	10620.4
793.214	10638.93
793.546	10574.98
793.879	10553.96
794.211	10507.63
794.543	10554.41
794.875	10486.39
795.207	10480.97
795.539	10512.15
795.871	10513.06
796.203	10441.19
796.535	10383.12
796.867	10351.71
797.198	10367.75
797.53	10324.36
797.862	10339.95
798.193	10292.05
798.525	10253.18
798.856	10209.79
799.188	10109.23
799.519	10135.89
799.85	10069
800.182	10106.74
800.513	10139.06
800.844	10021.32
801.175	10068.77
801.506	10118.72
801.837	10035.56
802.168	10002.56
802.499	9868.55
802.83	9946.97
803.161	9915.56
803.491	9955.78
803.822	9885.05
804.153	9876.69
804.483	9792.85
804.814	9771.38
805.145	9794.88
805.475	9715.11
805.805	9734.55
806.136	9711.72
806.466	9707.43
806.796	9675.34
807.126	9610.71
807.457	9647.77
807.787	9581.56
808.117	9521.67
808.447	9553.08
808.777	9552.18
809.107	9534.78
809.436	9471.5
809.766	9495.91
810.096	9460.88
810.426	9415.46
810.755	9417.94
811.085	9411.16
811.414	9413.88
811.744	9319.64
812.073	9281.22
812.403	9345.18
812.732	9240.32
813.061	9313.77
813.39	9223.6
813.719	9213.66
814.049	9194.67
814.378	9152.41
814.707	9131.4
815.036	9165.52
815.365	9083.49
815.693	9048.01
816.022	9027.45
816.351	9050.5
816.68	9002.36
817.008	9062.47
817.337	8987.9
817.665	8931.18
817.994	9017.73
818.322	8960.56
818.651	8917.84
818.979	8949.03
819.307	8984.28
819.636	8965.08
819.964	8907.9
820.292	8876.49
820.62	8928.47
820.948	8809.6
821.276	8935.47
821.604	8813.89
821.932	8894.57
822.259	8855.93
822.587	8903.83
822.915	8863.16
823.243	8836.04
823.57	8826.77
823.898	8807.79
824.225	8836.49
824.553	8812.54
824.88	8840.56
825.207	8881.01
825.535	8837.85
825.862	8848.24
826.189	8772.99
826.516	8869.03
826.843	8883.5
827.17	8850.28
827.497	8883.04
827.824	8889.6
828.151	8863.16
828.478	8849.6
828.805	8845.53
829.131	8885.08
829.458	8888.24
829.785	8824.06
830.111	8806.66
830.438	8818.64
830.764	8883.04
831.09	8869.94
831.417	8834.01
831.743	8886.66
832.069	8889.82
832.395	8818.86
832.722	8840.33
833.048	8786.1
833.374	8856.15
833.7	8822.25
834.026	8847.56
834.351	8795.59
834.677	8823.16
835.003	8813.89
835.329	8793.1
835.654	8725.99
835.98	8755.59
836.306	8741.58
836.631	8705.42
836.956	8743.84
837.282	8695.93
837.607	8683.95
837.932	8676.95
838.258	8677.17
838.583	8660
838.908	8634.24
839.233	8669.94
839.558	8699.09
839.883	8577.51
840.208	8483.96
840.533	8521.47
840.858	8570.96
841.182	8556.95
841.507	8515.82
841.832	8536.61
842.156	8551.75
842.481	8477.63
842.805	8510.4
843.13	8440.8
843.454	8445.31
843.778	8406.22
844.103	8437.18
844.427	8381.59
844.751	8356.05
845.075	8333.68
845.399	8283.29
845.723	8247.81
846.047	8273.79
846.371	8184.53
846.695	8199.22
847.019	8169.39
847.343	8131.42
847.666	8121.26
847.99	8078.54
848.313	7970.07
848.637	7999.45
848.96	7931.88
849.284	7949.28
849.607	7898.21
849.931	7899.34
850.254	7832.22
850.577	7823.18
850.9	7739.12
851.223	7740.7
851.546	7748.38
851.869	7705.45
852.192	7753.36
852.515	7644.66
852.838	7619.35
853.161	7658.22
853.483	7589.52
853.806	7608.05
854.129	7567.6
854.451	7496.41
854.774	7467.49
855.096	7472.23
855.419	7431.1
855.741	7453.93
856.063	7386.59
856.385	7361.05
856.708	7313.14
857.03	7344.78
857.352	7242.63
857.674	7257.55
857.996	7244.67
858.318	7201.28
858.64	7182.3
858.961	7219.81
859.283	7184.33
859.605	7216.19
859.926	7115.86
860.248	7155.18
860.57	7095.29
860.891	7066.82
861.212	7043.54
861.534	7009.42
861.855	6977.33
862.176	7040.61
862.498	7014.62
862.819	7074.5
863.14	7027.72
863.461	6969.2
863.782	6948.63
864.103	6945.47
864.424	6922.64
864.745	6947.05
865.065	6902.98
865.386	6920.61
865.707	6890.78
866.027	6906.82
866.348	6876.32
866.668	6853.94
866.989	6820.95
867.309	6837
867.63	6852.81
867.95	6770.1
868.27	6742.76
868.59	6783.89
868.91	6775.3
869.23	6756.09
869.55	6716.32
869.87	6799.71
870.19	6764.68
870.51	6726.26
870.83	6770.56
871.15	6745.47
871.469	6721.52
871.789	6693.27
872.109	6649.66
872.428	6650.33
872.748	6651.24
873.067	6665.7
873.386	6647.85
873.706	6609.2
874.025	6625.25
874.344	6579.15
874.663	6624.12
874.982	6591.13
875.301	6556.78
875.62	6582.09
875.939	6530.11
876.258	6581.18
876.577	6554.52
876.896	6537.57
877.214	6540.73
877.533	6493.28
877.852	6504.35
878.17	6423.9
878.489	6515.2
878.807	6504.57
879.125	6452.6
879.444	6439.72
879.762	6436.78
880.08	6444.24
880.398	6377.8
880.716	6401.98
881.034	6421.19
881.352	6385.71
881.67	6320.62
881.988	6329.89
882.306	6309.1
882.624	6336.44
882.941	6343.22
883.259	6274.52
883.577	6285.82
883.894	6272.49
884.212	6264.36
884.529	6230.91
884.846	6192.04
885.164	6211.02
885.481	6168.54
885.798	6186.17
886.115	6153.17
886.432	6189.1
886.75	6137.58
887.067	6187.97
887.383	6107.3
887.7	6116.79
888.017	6088.31
888.334	6114.75
888.651	6114.08
888.967	6136.67
889.284	6076.79
889.6	6038.15
889.917	5949.79
890.233	5973.29
890.55	5965.38
890.866	5957.47
891.182	5952.05
891.498	5967.87
891.815	5888.09
892.131	5874.08
892.447	5909.79
892.763	5816.68
893.079	5843.8
893.395	5854.42
893.71	5831.82
894.026	5820.75
894.342	5798.6
894.657	5765.61
894.973	5727.87
895.289	5736.46
895.604	5729.91
895.92	5705.95
896.235	5636.8
896.55	5648.55
896.865	5641.55
897.181	5643.58
897.496	5614.65
897.811	5586.63
898.126	5567.2
898.441	5535.79
898.756	5489.69
899.071	5444.04
899.386	5528.56
899.7	5443.36
900.015	5442.91
900.33	5392.06
900.644	5348.67
900.959	5411.27
901.273	5357.71
901.588	5356.36
901.902	5279.07
902.216	5303.48
902.531	5310.03
902.845	5299.41
903.159	5270.93
903.473	5236.81
903.787	5229.35
904.101	5164.05
904.415	5203.82
904.729	5130.83
905.042	5145.51
905.356	5094.22
905.67	5109.58
905.984	5098.28
906.297	5057.38
906.611	4999.3
906.924	5077.49
907.237	5067.78
907.551	5000.66
907.864	4943.49
908.177	4952.98
908.491	4993.2
908.804	4922.47
909.117	4903.71
909.43	4925.18
909.743	4869.36
910.056	4877.95
910.368	4847.22
910.681	4802.02
910.994	4787.33
911.307	4798.86
911.619	4738.75
911.932	4754.56
912.244	4708.24
912.557	4750.04
912.869	4701.46
913.181	4658.52
913.494	4693.1
913.806	4624.85
914.118	4650.16
914.43	4603.61
914.742	4596.6
915.054	4596.83
915.366	4552.31
915.678	4548.69
915.99	4506.89
916.302	4438.87
916.613	4458.3
916.925	4496.94
917.236	4432.99
917.548	4423.73
917.859	4481.8
918.171	4410.62
918.482	4388.02
918.794	4370.17
919.105	4325.42
919.416	4333.78
919.727	4314.12
920.038	4312.99
920.349	4268.7
920.66	4260.34
920.971	4262.6
921.282	4241.13
921.593	4216.05
921.903	4204.97
922.214	4214.69
922.525	4181.92
922.835	4108.25
923.146	4111.42
923.456	4095.6
923.767	4118.2
924.077	4077.52
924.387	4064.19
924.697	4016.28
925.008	4041.59
925.318	3974.92
925.628	3985.77
925.938	4021.25
926.248	3940.12
926.558	3964.98
926.867	3897.86
927.177	3960.46
927.487	3947.35
927.796	3864.42
928.106	3900.35
928.416	3862.38
928.725	3859.9
929.034	3810.18
929.344	3836.85
929.653	3807.24
929.962	3766.34
930.271	3759.34
930.581	3735.83
930.89	3736.74
931.199	3703.52
931.508	3699.45
931.817	3699
932.125	3656.51
932.434	3678.66
932.743	3650.41
933.051	3624.65
933.36	3599.79
933.669	3624.2
933.977	3573.13
934.286	3585.33
934.594	3572.67
934.902	3544.2
935.21	3569.06
935.519	3539.68
935.827	3547.14
936.135	3515.5
936.443	3475.28
936.751	3469.63
937.059	3465.33
937.367	3455.62
937.674	3443.64
937.982	3426.92
938.29	3416.97
938.597	3403.41
938.905	3382.4
939.213	3348.05
939.52	3328.39
939.827	3323.87
940.135	3332
940.442	3290.65
940.749	3303.75
941.056	3326.35
941.363	3290.65
941.67	3256.3
941.977	3222.85
942.284	3209.29
942.591	3217.66
942.898	3214.04
943.205	3210.88
943.511	3156.64
943.818	3174.04
944.125	3160.26
944.431	3090.2
944.738	3132.01
945.044	3077.55
945.35	3109.86
945.657	3094.72
945.963	3088.85
946.269	3050.65
946.575	3014.27
946.881	3052.69
947.187	3071.67
947.493	2983.99
947.799	3009.75
948.105	3007.27
948.41	2984.67
948.716	2983.76
949.022	2951.67
949.327	2973.14
949.633	2919.81
949.938	2939.24
950.244	2903.31
950.549	2900.38
950.854	2886.14
951.16	2836.87
951.465	2843.65
951.77	2847.27
952.075	2844.33
952.38	2838.91
952.685	2835.07
952.99	2794.84
953.294	2739.7
953.599	2764.56
953.904	2772.02
954.209	2723.43
954.513	2738.8
954.818	2743.09
955.122	2682.53
955.426	2723.21
955.731	2696.31
956.035	2688.86
956.339	2668.52
956.643	2648.18
956.948	2646.82
957.252	2640.72
957.556	2642.76
957.86	2631.68
958.163	2640.5
958.467	2600.95
958.771	2601.63
959.075	2580.38
959.378	2535.41
959.682	2570.44
959.985	2539.26
960.289	2537.67
960.592	2545.58
960.896	2501.06
961.199	2467.17
961.502	2513.27
961.805	2470.56
962.108	2504.91
962.411	2470.1
962.714	2437.34
963.017	2431.46
963.32	2425.81
963.623	2435.53
963.926	2414.06
964.228	2407.06
964.531	2405.02
964.833	2400.5
965.136	2379.26
965.438	2364.8
965.741	2354.63
966.043	2347.4
966.345	2379.94
966.648	2301.75
966.95	2322.54
967.252	2321.63
967.554	2319.6
967.856	2296.78
968.158	2288.87
968.46	2264.46
968.761	2269.88
969.063	2260.84
969.365	2271.69
969.666	2236.44
969.968	2266.49
970.269	2215.87
970.571	2245.48
970.872	2198.93
971.174	2188.98
971.475	2152.15
971.776	2186.27
972.077	2174.75
972.378	2165.03
972.679	2154.63
972.98	2153.28
973.281	2110.57
973.582	2118.7
973.883	2084.35
974.183	2085.03
974.484	2092.04
974.785	2043
975.085	2078.48
975.386	2083.22
975.686	2029.21
975.986	2083
976.287	2060.4
976.587	2034.86
976.887	2018.59
977.187	2044.58
977.487	2044.35
977.787	1995.09
978.087	2003.68
978.387	1990.34
978.687	1930.01
978.987	1975.2
979.286	1967.74
979.586	1967.52
979.885	1934.07
980.185	1929.1
980.484	1913.73
980.784	1905.6
981.083	1929.78
981.382	1913.28
981.682	1873.06
981.981	1896.56
982.28	1887.52
982.579	1861.98
982.878	1843.23
983.177	1848.2
983.475	1819.73
983.774	1863.34
984.073	1810.46
984.372	1805.94
984.67	1828.77
984.969	1834.64
985.267	1824.47
985.566	1810.01
985.864	1789.67
986.162	1814.08
986.461	1799.16
986.759	1763.68
987.057	1781.99
987.355	1758.03
987.653	1738.82
987.951	1739.95
988.249	1729.11
988.547	1739.73
988.844	1754.42
989.142	1703.57
989.44	1722.33
989.737	1700.63
990.035	1705.38
990.332	1664.25
990.63	1680.52
990.927	1670.58
991.224	1643.91
991.521	1693.18
991.819	1681.2
992.116	1662.89
992.413	1617.25
992.71	1627.41
993.006	1636.91
993.303	1617.25
993.6	1602.56
993.897	1577.7
994.193	1594.87
994.49	1586.29
994.787	1590.35
995.083	1568.66
995.379	1594.87
995.676	1568.43
995.972	1550.35
996.268	1562.33
996.565	1535.21
996.861	1536.8
997.157	1516.46
997.453	1527.98
997.749	1527.53
998.044	1509
998.34	1481.66
998.636	1475.55
998.932	1451.15
999.227	1481.43
999.523	1470.36
999.818	1476.91
1000.114	1439.85
1000.409	1463.8
1000.704	1437.82
1001	1424.93
1001.295	1447.08
1001.59	1415.89
1001.885	1410.02
1002.18	1411.6
1002.475	1401.21
1002.77	1397.36
1003.065	1387.2
1003.359	1381.55
1003.654	1358.72
1003.949	1386.52
1004.243	1363.69
1004.538	1376.35
1004.832	1351.04
1005.127	1318.72
1005.421	1312.39
1005.715	1322.56
1006.009	1294.54
1006.304	1323.69
1006.598	1320.53
1006.892	1294.99
1007.186	1309.01
1007.48	1286.63
1007.773	1287.99
1008.067	1278.72
1008.361	1259.51
1008.655	1256.58
1008.948	1227.2
1009.242	1227.88
1009.535	1254.54
1009.829	1243.47
1010.122	1244.83
1010.415	1199.18
1010.708	1240.76
1011.001	1211.15
1011.295	1204.15
1011.588	1199.18
1011.881	1186.52
1012.173	1192.17
1012.466	1170.7
1012.759	1184.49
1013.052	1180.19
1013.344	1166.41
1013.637	1177.48
1013.93	1138.84
1014.222	1155.79
1014.514	1135.68
1014.807	1107.65
1015.099	1125.06
1015.391	1131.16
1015.683	1135.22
1015.976	1096.58
1016.268	1117.6
1016.56	1106.07
1016.851	1102.91
1017.143	1088.22
1017.435	1087.09
1017.727	1082.8
1018.018	1081.44
1018.31	1050.48
1018.602	1075.34
1018.893	1059.29
1019.185	1034.66
1019.476	1039.18
1019.767	1045.51
1020.058	1012.52
1020.35	1036.47
1020.641	1026.07
1020.932	989.01
1021.223	986.53
1021.514	1000.54
1021.804	987.88
1022.095	976.13
1022.386	980.65
1022.677	999.63
1022.967	965.06
1023.258	975.23
1023.548	972.52
1023.839	953.99
1024.129	960.54
1024.419	965.74
1024.709	934.55
1025	946.98
1025.29	948.56
1025.58	929.58
1025.87	889.36
1026.16	909.02
1026.449	904.72
1026.739	921.44
1027.029	873.54
1027.319	900.2
1027.608	893.65
1027.898	853.88
1028.187	887.32
1028.477	855.91
1028.766	855.91
1029.055	873.54
1029.344	850.71
1029.634	837.38
1029.923	830.6
1030.212	825.4
1030.501	821.79
1030.79	815.23
1031.078	818.4
1031.367	823.82
1031.656	813.88
1031.945	796.25
1032.233	814.55
1032.522	823.59
1032.81	817.49
1033.099	801.67
1033.387	753.09
1033.675	760.09
1033.963	776.59
1034.251	776.14
1034.54	766.19
1034.828	752.64
1035.116	760.77
1035.403	760.32
1035.691	773.88
1035.979	750.6
1036.267	754.67
1036.554	728.91
1036.842	749.02
1037.129	725.74
1037.417	726.42
1037.704	733.2
1037.992	726.65
1038.279	732.98
1038.566	710.6
1038.853	710.6
1039.14	710.6
