Data from hue_350_FLMS001491_50.txt Node
Date: Mon Feb 06 15:38:06 GMT 2017
User: dcchb
Spectrometer: FLMS00149
Trigger mode: 0
Integration Time (sec): 2.000000E-2
Scans to average: 10
Electric dark correction enabled: true
Nonlinearity correction enabled: false
Boxcar width: 0
XAxis mode: Wavelengths
Number of Pixels in Spectrum: 2048
>>>>>Begin Spectral Data<<<<<
341.393	-15.65
341.776	-15.65
342.16	-15.65
342.543	-66.5
342.927	-56.55
343.31	-79.38
343.693	-69.43
344.077	-57.91
344.46	-51.35
344.843	-50.45
345.226	-51.13
345.61	-59.04
345.993	-12.94
346.376	-8.87
346.759	8.08
347.142	47.17
347.525	38.13
347.908	62.77
348.291	85.82
348.674	83.33
349.057	115.19
349.44	90.34
349.823	131.92
350.206	149.09
350.588	215.08
350.971	210.56
351.354	212.59
351.737	214.4
352.119	238.58
352.502	255.98
352.884	266.83
353.267	279.03
353.65	289.43
354.032	286.72
354.414	311.57
354.797	307.73
355.179	334.85
355.562	332.82
355.944	324.23
356.326	343.66
356.709	322.19
357.091	340.05
357.473	334.17
357.855	328.3
358.238	334.4
358.62	340.05
359.002	331.46
359.384	340.05
359.766	325.81
360.148	342.53
360.53	345.92
360.912	318.81
361.294	349.54
361.676	329.88
362.057	324.23
362.439	341.86
362.821	328.75
363.203	324
363.584	310.44
363.966	329.65
364.348	325.81
364.729	304.12
365.111	324.91
365.493	304.79
365.874	302.99
366.256	310.44
366.637	315.42
367.019	301.18
367.4	304.79
367.781	308.64
368.163	307.73
368.544	285.13
368.925	291.69
369.306	314.96
369.688	293.27
370.069	325.36
370.45	291.24
370.831	302.99
371.212	309.09
371.593	286.49
371.974	293.72
372.355	304.79
372.736	293.95
373.117	323.78
373.498	302.31
373.879	320.84
374.26	329.88
374.641	316.55
375.021	322.19
375.402	306.15
375.783	305.92
376.163	312.93
376.544	309.09
376.925	306.83
377.305	309.09
377.686	306.15
378.066	344.57
378.447	309.54
378.827	314.06
379.208	314.96
379.588	320.16
379.968	314.51
380.349	332.14
380.729	336.21
381.109	337.11
381.489	310.9
381.87	323.1
382.25	312.7
382.63	338.01
383.01	342.08
383.39	327.84
383.77	319.48
384.15	309.99
384.53	331.69
384.91	320.84
385.29	329.2
385.67	341.18
386.049	345.25
386.429	351.57
386.809	331.91
387.189	347.96
387.568	352.02
387.948	350.22
388.328	344.57
388.707	345.02
389.087	339.82
389.466	349.99
389.846	329.65
390.225	348.63
390.605	343.66
390.984	346.83
391.363	357.67
391.743	339.37
392.122	357.67
392.501	344.12
392.881	350.67
393.26	345.92
393.639	346.6
394.018	348.18
394.397	365.81
394.776	358.35
395.155	375.98
395.534	366.71
395.913	353.61
396.292	359.71
396.671	370.56
397.05	380.95
397.429	357.67
397.808	383.89
398.186	364
398.565	355.64
398.944	384.79
399.323	357.22
399.701	368.52
400.08	363.78
400.458	376.66
400.837	390.67
401.215	355.87
401.594	375.75
401.972	357
402.351	367.84
402.729	370.78
403.107	370.78
403.486	386.83
403.864	391.12
404.242	404.45
404.62	396.09
404.999	399.48
405.377	399.48
405.755	393.61
406.133	394.06
406.511	399.03
406.889	407.62
407.267	406.03
407.645	418.24
408.023	397.67
408.401	435.19
408.779	424.57
409.156	434.51
409.534	430.67
409.912	420.5
410.29	444.68
410.667	424.34
411.045	413.72
411.422	443.32
411.8	440.84
412.178	456.2
412.555	450.1
412.933	464.56
413.31	455.52
413.687	452.14
414.065	472.25
414.442	479.25
414.819	451.68
415.197	467.05
415.574	475.86
415.951	470.89
416.328	467.05
416.705	468.18
417.082	472.93
417.46	479.03
417.837	474.28
418.214	505.47
418.591	507.5
418.967	491.91
419.344	499.59
419.721	501.4
420.098	512.47
420.475	501.4
420.852	518.12
421.228	528.74
421.605	516.54
421.982	515.18
422.358	535.75
422.735	522.42
423.111	535.75
423.488	522.87
423.864	551.34
424.241	536.88
424.617	549.31
424.994	564.67
425.37	553.15
425.746	565.8
426.123	549.53
426.499	578.23
426.875	582.75
427.251	589.08
427.627	569.19
428.003	574.39
428.379	603.77
428.756	576.88
429.132	607.16
429.507	606.71
429.883	606.48
430.259	627.72
430.635	589.76
431.011	606.26
431.387	607.39
431.763	619.14
432.138	626.59
432.514	654.84
432.89	654.84
433.265	658.91
433.641	669.08
434.016	644.9
434.392	652.13
434.767	690.09
435.143	666.59
435.518	672.47
435.894	680.83
436.269	691
436.644	702.3
437.02	700.72
437.395	684.67
437.77	711.79
438.145	707.27
438.52	717.66
438.895	723.54
439.271	726.7
439.646	753.6
440.021	727.83
440.395	741.39
440.77	750.88
441.145	748.62
441.52	768.74
441.895	769.64
442.27	755.4
442.645	778.45
443.019	756.99
443.394	779.36
443.769	792.01
444.143	774.16
444.518	776.65
444.892	782.52
445.267	806.02
445.641	804.67
446.016	803.31
446.39	786.82
446.764	815.06
447.139	802.41
447.513	814.61
447.887	787.72
448.262	803.54
448.636	807.15
449.01	832.69
449.384	844.44
449.758	833.37
450.132	836.98
450.506	834.95
450.88	851.45
451.254	872.91
451.628	864.33
452.002	869.75
452.376	857.1
452.75	872.91
453.123	881.05
453.497	875.85
453.871	884.21
454.244	893.25
454.618	915.17
454.992	903.2
455.365	888.28
455.739	932.8
456.112	945.91
456.486	960.37
456.859	945
457.232	956.75
457.606	949.07
457.979	961.05
458.352	985.23
458.725	1007.15
459.099	1008.5
459.472	995.17
459.845	1027.49
460.218	1034.49
460.591	1035.17
460.964	1040.59
461.337	1051.89
461.71	1063.87
462.083	1081.72
462.456	1077.2
462.829	1099.8
463.201	1084.89
463.574	1101.16
463.947	1125.56
464.32	1119.46
464.692	1132.57
465.065	1164.88
465.438	1148.61
465.81	1182.06
466.183	1199.01
466.555	1199.23
466.928	1224.32
467.3	1206.92
467.672	1210.53
468.045	1249.85
468.417	1270.42
468.789	1279.46
469.161	1276.52
469.534	1301.6
469.906	1346.35
470.278	1345.22
470.65	1365.56
471.022	1376.63
471.394	1399
471.766	1397.19
472.138	1402.17
472.51	1446.23
472.882	1477.42
473.253	1453.69
473.625	1500.47
473.997	1508.15
474.369	1517.64
474.74	1551.32
475.112	1569.17
475.484	1617.98
475.855	1624.53
476.227	1633.35
476.598	1689.84
476.97	1701.59
477.341	1712.67
477.713	1741.14
478.084	1777.75
478.455	1802.16
478.827	1834.92
479.198	1878.99
479.569	1876.28
479.94	1916.5
480.311	1958.76
480.682	1970.06
481.053	1989.04
481.424	2058.42
481.795	2092.77
482.166	2090.06
482.537	2149.94
482.908	2145.88
483.279	2199.43
483.65	2245.99
484.021	2287.57
484.391	2283.05
484.762	2368.92
485.133	2358.3
485.503	2404.4
485.874	2451.86
486.244	2469.03
486.615	2520.33
486.985	2528.69
487.356	2574.57
487.726	2644.17
488.097	2638.97
488.467	2689.59
488.837	2732.98
489.207	2753.32
489.578	2812.98
489.948	2803.94
490.318	2851.39
490.688	2874.44
491.058	2897.95
491.428	2932.52
491.798	3001.9
492.168	3020.88
492.538	3053.2
492.908	3114.66
493.278	3131.61
493.648	3136.13
494.017	3183.59
494.387	3213.64
494.757	3272.63
495.126	3268.33
495.496	3282.12
495.866	3292.29
496.235	3374.09
496.605	3384.71
496.974	3430.36
497.344	3423.36
497.713	3449.57
498.082	3473.52
498.452	3483.47
498.821	3536.8
499.19	3550.81
499.559	3599.85
499.928	3623.13
500.298	3630.81
500.667	3670.58
501.036	3635.55
501.405	3725.72
501.774	3659.96
502.143	3695.67
502.512	3718.72
502.88	3728.89
503.249	3757.13
503.618	3801.43
503.987	3763.46
504.356	3848.66
504.724	3842.33
505.093	3828.54
505.462	3881.65
505.83	3885.49
506.199	3916.22
506.567	3969.33
506.936	3973.85
507.304	3988.31
507.672	4010.69
508.041	4063.34
508.409	4062.89
508.777	4033.28
509.145	4067.18
509.514	4092.27
509.882	4111.02
510.25	4102.66
510.618	4134.98
510.986	4139.5
511.354	4196.67
511.722	4203.45
512.09	4228.08
512.458	4214.07
512.826	4268.76
513.193	4236.44
513.561	4277.57
513.929	4274.18
514.297	4334.07
514.664	4373.84
515.032	4373.16
515.4	4398.47
515.767	4360.51
516.135	4443.89
516.502	4378.36
516.869	4478.7
517.237	4452.26
517.604	4457.91
517.972	4440.28
518.339	4460.84
518.706	4453.61
519.073	4494.51
519.44	4516.21
519.808	4528.19
520.175	4506.72
520.542	4539.49
520.909	4578.81
521.276	4575.64
521.643	4607.28
522.009	4669.43
522.376	4629.2
522.743	4705.13
523.11	4723.21
523.477	4728.86
523.843	4723.89
524.21	4801.17
524.577	4793.49
524.943	4849.53
525.31	4805.24
525.676	4885.46
526.043	4898.57
526.409	4910.32
526.776	4988.29
527.142	5024.22
527.508	4966.14
527.874	5072.58
528.241	5056.76
528.607	5086.36
528.973	5168.4
529.339	5083.2
529.705	5137.66
530.071	5175.85
530.437	5206.13
530.803	5236.42
531.169	5245.23
531.535	5205.68
531.901	5327.71
532.267	5295.62
532.632	5289.52
532.998	5373.14
533.364	5358.67
533.73	5392.8
534.095	5417.65
534.461	5460.59
534.826	5451.55
535.192	5470.31
535.557	5581.72
535.923	5542.85
536.288	5520.02
536.653	5576.97
537.019	5579.68
537.384	5536.97
537.749	5599.8
538.114	5633.24
538.479	5611.32
538.845	5724.54
539.21	5663.98
539.575	5690.87
539.94	5711.66
540.305	5790.98
540.67	5794.14
541.034	5838.89
541.399	5816.74
541.764	5830.3
542.129	5887.7
542.494	5899.9
542.858	5943.52
543.223	5948.26
543.587	6010.86
543.952	6044.3
544.316	6006.34
544.681	5999.79
545.045	6078.43
545.41	6112.33
545.774	6086.11
546.138	6148.03
546.503	6122.27
546.867	6170.4
547.231	6240.01
547.595	6259.89
547.959	6287.69
548.324	6266.67
548.688	6264.19
549.052	6286.33
549.416	6340.34
549.779	6359.78
550.143	6365.2
550.507	6386.44
550.871	6435.93
551.235	6411.3
551.599	6475.25
551.962	6493.11
552.326	6516.38
552.689	6499.66
553.053	6487.91
553.417	6518.19
553.78	6539.21
554.143	6574.01
554.507	6605.65
554.87	6671.86
555.234	6672.31
555.597	6650.16
555.96	6675.47
556.323	6776.94
556.686	6711.18
557.05	6767
557.413	6809.93
557.776	6772.19
558.139	6823.27
558.502	6851.97
558.865	6842.25
559.228	6863.27
559.59	6943.04
559.953	6883.83
560.316	7005.86
560.679	7027.78
561.041	7023.94
561.404	7045.86
561.767	7091.73
562.129	7046.99
562.492	7129.7
562.854	7115.69
563.217	7148.23
563.579	7155.01
563.941	7166.99
564.304	7218.74
564.666	7288.11
565.028	7290.6
565.39	7250.15
565.753	7330.6
566.115	7413.99
566.477	7408.34
566.839	7406.53
567.201	7400.88
567.563	7450.6
567.925	7439.97
568.287	7506.64
568.648	7503.48
569.01	7545.28
569.372	7575.79
569.734	7522.91
570.095	7706.63
570.457	7700.53
570.819	7663.7
571.18	7747.76
571.542	7784.82
571.903	7779.17
572.265	7820.08
572.626	7883.13
572.987	7951.82
573.349	7993.41
573.71	8005.83
574.071	8038.38
574.432	8124.25
574.794	8192.04
575.155	8203.8
575.516	8224.81
575.877	8350.23
576.238	8343.9
576.599	8421.19
576.96	8468.2
577.32	8535.99
577.681	8671.58
578.042	8709.09
578.403	8828.41
578.763	8821.86
579.124	8937.34
579.485	9037.9
579.845	9181.62
580.206	9265.91
580.566	9321.28
580.927	9511.78
581.287	9594.72
581.648	9656.19
582.008	9815.28
582.368	9925.56
582.728	10071.32
583.089	10191.09
583.449	10320.12
583.809	10425.66
584.169	10685.09
584.529	10741.36
584.889	11052.99
585.249	11100.89
585.609	11293.88
585.969	11493.2
586.329	11625.17
586.688	11886.64
587.048	12076.69
587.408	12284.82
587.768	12453.18
588.127	12731.59
588.487	12894.75
588.846	13236.21
589.206	13299.48
589.565	13593.48
589.925	13919.58
590.284	14097.43
590.643	14331.32
591.003	14666.22
591.362	14934.92
591.721	15106.66
592.08	15462.36
592.44	15757.95
592.799	16033.19
593.158	16200.87
593.517	16516.57
593.876	16808.77
594.235	17028.87
594.593	17332.82
594.952	17683.77
595.311	17887.83
595.67	18192.91
596.029	18668.61
596.387	18971.2
596.746	19194.02
597.104	19366.21
597.463	19759.65
597.822	20057.95
598.18	20163.03
598.538	20592.4
598.897	20946.51
599.255	21084.81
599.613	21674.85
599.972	21734.97
600.33	22102.64
600.688	22335.85
601.046	22678.44
601.404	23015.84
601.762	23397.97
602.12	23590.06
602.478	23857.17
602.836	24159.53
603.194	24348.68
603.552	24541.9
603.91	24755.22
604.268	25273.63
604.625	25392.95
604.983	25631.36
605.341	25705.93
605.698	26276.77
606.056	26411.68
606.413	26702.97
606.771	27003.3
607.128	27246.68
607.485	27285.33
607.843	27644.87
608.2	27890.96
608.557	28363.04
608.914	28364.85
609.272	28772.52
609.629	29010.93
609.986	29233.75
610.343	29220.87
610.7	29641.88
611.057	29846.39
611.414	30018.82
611.771	30334.74
612.127	30574.05
612.484	30742.41
612.841	30922.97
613.198	30956.42
613.554	31269.18
613.911	31486.57
614.267	31701.03
614.624	31770.41
614.98	31923.62
615.337	32294.69
615.693	32421.69
616.05	32419.88
616.406	32822.58
616.762	32844.5
617.118	32989.36
617.475	33024.61
617.831	33323.36
618.187	33415.34
618.543	33686.52
618.899	34032.04
619.255	34123.79
619.611	34212.15
619.967	34305.71
620.323	34472.03
620.678	34445.14
621.034	34448.53
621.39	34673.38
621.746	34670.44
622.101	35260.94
622.457	35075.86
622.812	35220.03
623.168	35240.15
623.523	35375.06
623.879	35603.75
624.234	35405.34
624.589	35644.66
624.945	35759.23
625.3	35998.32
625.655	35939.79
626.01	36103.4
626.365	36067.7
626.72	36133.46
627.075	36305.43
627.43	36149.28
627.785	36199.22
628.14	36405.77
628.495	36493.45
628.85	36617.96
629.205	36343.85
629.559	36762.82
629.914	36598.3
630.269	36691.86
630.623	36575.93
630.978	36652.31
631.332	36833.55
631.687	36882.36
632.041	36792.2
632.396	36987.9
632.75	36713.78
633.104	36863.83
633.459	36720.11
633.813	36759.2
634.167	36954.45
634.521	36899.76
634.875	36974.11
635.229	36937.73
635.583	36727.57
635.937	36826.32
636.291	36886.66
636.645	36937.28
636.999	36956.03
637.352	37027.44
637.706	36820.67
638.06	36900.89
638.413	36888.92
638.767	36834.68
639.121	36927.33
639.474	36736.83
639.828	36754.68
640.181	36869.48
640.534	36898.63
640.888	36808.02
641.241	36690.96
641.594	36810.28
641.947	36835.59
642.301	36805.76
642.654	36797.62
643.007	36850.27
643.36	36858.41
643.713	36788.35
644.066	36959.2
644.419	36701.58
644.771	36457.97
645.124	36112.89
645.477	36159.67
645.83	35934.59
646.182	35748.16
646.535	35775.95
646.888	35908.15
647.24	35697.99
647.593	35992.9
647.945	35738.44
648.298	35715.39
648.65	35623.64
649.002	35586.13
649.355	35631.55
649.707	35589.74
650.059	35651.66
650.411	36191.76
650.763	36096.17
651.115	36417.97
651.467	36398.08
651.819	36453
652.171	36377.52
652.523	36340
652.875	36248.03
653.227	36158.31
653.578	36305.2
653.93	36364.86
654.282	36142.95
654.633	36021.6
654.985	36239.22
655.337	36133.46
655.688	36279.67
656.039	36405.77
656.391	36009.17
656.742	36169.16
657.094	36086.68
657.445	36234.7
657.796	36120.8
658.147	36075.38
658.498	36072.67
658.849	36199.67
659.2	36016.17
659.551	36071.76
659.902	36290.97
660.253	36111.99
660.604	36083.51
660.955	35982.05
661.306	36189.5
661.656	35993.57
662.007	36068.37
662.358	36037.87
662.708	35951.77
663.059	35945.89
663.409	35792.67
663.76	36018.88
664.11	36003.74
664.461	36090.29
664.811	36186.34
665.161	36056.62
665.511	35880.36
665.862	35949.51
666.212	36169.84
666.562	36091.65
666.912	36024.08
667.262	35897.08
667.612	36015.49
667.962	35943.18
668.312	35945.44
668.662	36089.39
669.011	36011.65
669.361	35956.74
669.711	35957.64
670.06	35875.16
670.41	35874.25
670.76	35789.06
671.109	35928.49
671.459	35767.14
671.808	35804.43
672.157	35931.65
672.507	35751.77
672.856	35702.73
673.205	35778.89
673.554	35991.54
673.904	35689.85
674.253	35860.24
674.602	35761.49
674.951	35144.78
675.3	35058.91
675.649	35756.97
675.998	35454.15
676.346	35541.16
676.695	35661.38
677.044	35524.66
677.393	35505
677.741	35571.66
678.09	35520.82
678.438	35371.44
678.787	35498.9
679.135	35526.47
679.484	35279.24
679.832	35417.54
680.181	35125.12
680.529	35229.53
680.877	35337.09
681.225	35133.93
681.573	35290.77
681.922	35158.12
682.27	35079.47
682.618	35000.83
682.966	34937.56
683.314	34985.01
683.661	34827.95
684.009	34684.46
684.357	34648.98
684.705	34533.5
685.053	34642.42
685.4	34571.69
685.748	34393.62
686.095	34403.56
686.443	34339.61
686.79	34306.84
687.138	34349.1
687.485	34359.04
687.832	34074.3
688.18	34164.24
688.527	34025.94
688.874	34116.56
689.221	33944.81
689.568	33862.33
689.915	33699.4
690.262	33724.25
690.609	33687.87
690.956	33657.14
691.303	33562.45
691.65	33317.26
691.997	33393.42
692.344	33143.48
692.69	33132.86
693.037	33228.67
693.383	33025.06
693.73	33082.46
694.077	32861.45
694.423	32838.18
694.769	32929.7
695.116	32720.21
695.462	32701
695.808	32552.53
696.155	32636.15
696.501	32444.74
696.847	32341.24
697.193	32138.53
697.539	32237.97
697.885	32013.34
698.231	31903.51
698.577	32094.92
698.923	31787.81
699.269	31763.4
699.614	31550.75
699.96	31542.39
700.306	31514.82
700.651	31420.59
700.997	31320.48
701.342	31336.52
701.688	31239.35
702.033	31158.45
702.379	31112.12
702.724	31003.87
703.069	31032.35
703.415	30672.13
703.76	30636.65
704.105	30797.1
704.45	30658.12
704.795	30491.57
705.14	30347.17
705.485	30379.26
705.83	30373.16
706.175	30349.43
706.52	30229.88
706.865	30090.68
707.209	30169.77
707.554	30002.09
707.899	30084.8
708.243	29848.88
708.588	29902.21
708.932	29664.25
709.277	29639.16
709.621	29619.05
709.966	29375.44
710.31	29517.13
710.654	29333.64
710.998	29278.27
711.342	29391.71
711.687	29232.62
712.031	29178.16
712.375	28982.91
712.719	29101.1
713.063	29132.96
713.407	29134.77
713.75	29027.65
714.094	28883.25
714.438	28805.74
714.782	28864.27
715.125	28626.76
715.469	28646.2
715.812	28488.91
716.156	28364.62
716.499	28473.32
716.843	28380.89
717.186	28232.42
717.53	28399.87
717.873	28354.68
718.216	28240.1
718.559	28164.4
718.902	27991.98
719.246	28172.31
719.589	28009.6
719.932	27846.44
720.275	27852.09
720.617	27874.69
720.96	27840.79
721.303	27636.28
721.646	27785.88
721.989	27683.51
722.331	27756.05
722.674	27555.38
723.016	27605.32
723.359	27431.09
723.701	27496.4
724.044	27225.44
724.386	27228.38
724.729	27304.99
725.071	27395.38
725.413	27267.7
725.755	27245.55
726.097	27127.14
726.439	27073.58
726.782	26921.04
727.124	27103.86
727.465	26956.3
727.807	26877.88
728.149	26871.1
728.491	26790.2
728.833	26900.48
729.175	26592.24
729.516	26742.52
729.858	26708.17
730.199	26630.88
730.541	26692.35
730.882	26524.22
731.224	26545.23
731.565	26403.32
731.906	26449.42
732.248	26489.64
732.589	26276.99
732.93	26221.4
733.271	26161.06
733.612	26316.54
733.953	26244.68
734.294	26174.85
734.635	26066.6
734.976	26217.56
735.317	26047.17
735.658	25994.51
735.999	25987.51
736.339	25878.36
736.68	25911.8
737.021	25906.15
737.361	25800.4
737.702	25851.02
738.042	25789.32
738.383	25654.18
738.723	25763.79
739.063	25671.13
739.404	25676.56
739.744	25668.65
740.084	25379.16
740.424	25633.17
740.764	25388.43
741.104	25557.69
741.444	25390.91
741.784	25260.75
742.124	25425.94
742.464	25281.31
742.804	25258.04
743.143	25220.52
743.483	25250.13
743.823	25110.24
744.162	25103.69
744.502	25077.48
744.841	24976.46
745.181	25061.88
745.52	24908.22
745.86	24871.15
746.199	24895.33
746.538	24875.22
746.877	25004.94
747.216	24876.13
747.556	24813.98
747.895	24733.53
748.234	24712.74
748.573	24711.38
748.911	24656.7
749.25	24688.56
749.589	24542.58
749.928	24522.69
750.267	24555
750.605	24395.69
750.944	24453.31
751.283	24370.6
751.621	24443.14
751.96	24296.03
752.298	24301.9
752.636	24213.54
752.975	24075.69
753.313	24121.57
753.651	24037.73
753.989	24053.32
754.327	24016.26
754.666	23858.75
755.004	23893.1
755.342	23855.14
755.679	23944.17
756.017	23611.3
756.355	23719.32
756.693	23612.88
757.031	23681.13
757.368	23517.52
757.706	23549.61
758.044	23341.93
758.381	23449.72
758.719	23316.17
759.056	23328.82
759.394	23289.5
759.731	23086.57
760.068	23114.14
760.405	22925.44
760.743	22985.78
761.08	23052.22
761.417	22863.98
761.754	22807.71
762.091	22744.88
762.428	22600.93
762.765	22469.41
763.102	22601.16
763.438	22477.54
763.775	22389.86
764.112	22285.23
764.449	22459.01
764.785	22227.16
765.122	22118.46
765.458	22027.39
765.795	21906.94
766.131	21934.73
766.467	21767.73
766.804	21762.99
767.14	21591.01
767.476	21680.5
767.812	21660.84
768.148	21621.3
768.485	21458.59
768.821	21375.88
769.157	21292.27
769.492	21254.75
769.828	21262.44
770.164	21005.94
770.5	20975.44
770.836	20984.02
771.171	20881.88
771.507	20796.01
771.842	20653.64
772.178	20610.25
772.513	20626.07
772.849	20537.48
773.184	20423.81
773.519	20459.07
773.855	20368.67
774.19	20146.31
774.525	20196.02
774.86	20155.57
775.195	20221.56
775.53	20057.5
775.865	19988.8
776.2	19843.49
776.535	19636.72
776.87	19659.77
777.205	19625.87
777.539	19636.04
777.874	19633.1
778.209	19450.51
778.543	19346.33
778.878	19173.45
779.212	19235.82
779.547	19188.37
779.881	19184.75
780.215	18980.01
780.55	19020.46
780.884	18841.48
781.218	18882.16
781.552	18890.52
781.886	18738.21
782.22	18671.09
782.554	18536.41
782.888	18484.88
783.222	18366.69
783.556	18276.98
783.889	18256.41
784.223	18063.42
784.557	17965.57
784.89	18103.87
785.224	18002.41
785.557	17876.76
785.891	17767.39
786.224	17877.67
786.558	17719.03
786.891	17669.99
787.224	17567.62
787.557	17569.88
787.891	17452.14
788.224	17473.38
788.557	17367.17
788.89	17365.81
789.223	17346.38
789.556	17166.72
789.888	17139.38
790.221	17105.03
790.554	17020.06
790.887	16948.88
791.219	16912.95
791.552	16778.94
791.884	16788.88
792.217	16826.17
792.549	16629.79
792.882	16607.87
793.214	16508.44
793.546	16535.78
793.879	16345.05
794.211	16380.53
794.543	16453.97
794.875	16308.44
795.207	16288.55
795.539	16249.91
795.871	16207.43
796.203	16036.81
796.535	16018.73
796.867	15966.53
797.198	15941.45
797.53	15912.52
797.862	15817.83
798.193	15849.47
798.525	15710.49
798.856	15716.14
799.188	15567.67
799.519	15485.86
799.85	15411.74
800.182	15549.82
800.513	15470.05
800.844	15425.75
801.175	15454
801.506	15382.82
801.837	15226.44
802.168	15161.35
802.499	15100.11
802.83	15032.77
803.161	15062.15
803.491	15015.37
803.822	15008.81
804.153	14910.06
804.483	14798.88
804.814	14742.38
805.145	14774.02
805.475	14754.81
805.805	14676.85
806.136	14673.68
806.466	14662.16
806.796	14586.45
807.126	14463.74
807.457	14496.29
807.787	14471.2
808.117	14421.03
808.447	14339.68
808.777	14382.62
809.107	14300.36
809.436	14295.16
809.766	14289.74
810.096	14147.82
810.426	14165.9
810.755	14179.91
811.085	14135.39
811.414	14052
811.744	13924.32
812.073	13906.92
812.403	13930.2
812.732	13842.29
813.061	13894.95
813.39	13821.73
813.719	13734.95
814.049	13786.02
814.378	13694.05
814.707	13690.66
815.036	13638.23
815.365	13517.78
815.693	13537.21
816.022	13577.67
816.351	13495.41
816.68	13321.63
817.008	13400.27
817.337	13315.75
817.665	13197.11
817.994	13339.03
818.322	13275.53
818.651	13201.63
818.979	13157.56
819.307	13201.86
819.636	13153.5
819.964	13058.58
820.292	13104.68
820.62	13078.24
820.948	12998.02
821.276	13134.74
821.604	12988.08
821.932	13067.4
822.259	13038.47
822.587	12983.33
822.915	13025.59
823.243	13014.06
823.57	13017.45
823.898	13029.88
824.225	12953.28
824.553	12925.71
824.88	12996.21
825.207	13007.96
825.535	12957.57
825.862	13028.98
826.189	12894.52
826.516	12977.91
826.843	12934.29
827.17	13002.77
827.497	13047.51
827.824	12925.71
828.151	12977.46
828.478	12948.3
828.805	12966.38
829.131	12962.77
829.458	12876.22
829.785	12821.75
830.111	12855.2
830.438	12918.25
830.764	12877.8
831.09	12951.47
831.417	12812.26
831.743	12925.03
832.069	12853.39
832.395	12905.14
832.722	12905.82
833.048	12816.33
833.374	12804.8
833.7	12742.43
834.026	12801.87
834.351	12779.72
834.677	12784.92
835.003	12774.07
835.329	12773.17
835.654	12754.86
835.98	12768.2
836.306	12709.21
836.631	12733.62
836.956	12758.25
837.282	12727.52
837.607	12600.97
837.932	12568.43
838.258	12594.64
838.583	12582.66
838.908	12521.65
839.233	12525.04
839.558	12515.32
839.883	12469.67
840.208	12459.05
840.533	12457.24
840.858	12447.53
841.182	12381.31
841.507	12417.24
841.832	12333.4
842.156	12363.01
842.481	12252.28
842.805	12254.08
843.13	12224.93
843.454	12224.71
843.778	12134.99
844.103	12082.56
844.427	12152.39
844.751	12091.38
845.075	11984.04
845.399	12032.85
845.723	11946.3
846.047	11925.05
846.371	11827.2
846.695	11879.18
847.019	11839.86
847.343	11683.03
847.666	11693.65
847.99	11516.25
848.313	11594.89
848.637	11551.28
848.96	11530.49
849.284	11436.93
849.607	11391.51
849.931	11319.87
850.254	11266.09
850.577	11183.15
850.9	11185.19
851.223	11133.89
851.546	11110.39
851.869	11049.14
852.192	11069.71
852.515	10897.74
852.838	10932.31
853.161	11002.59
853.483	10893.44
853.806	10829.94
854.129	10796.04
854.451	10762.37
854.774	10661.81
855.096	10723.5
855.419	10653.45
855.741	10673.79
856.063	10627.91
856.385	10546.11
856.708	10501.81
857.03	10444.64
857.352	10480.35
857.674	10491.19
857.996	10361.93
858.318	10317.41
858.64	10339.33
858.961	10356.06
859.283	10345.66
859.605	10219.79
859.926	10279
860.248	10239.22
860.57	10137.53
860.891	10219.79
861.212	10130.98
861.534	10077.19
861.855	10101.6
862.176	10072.9
862.498	10086.68
862.819	10113.12
863.14	9978.44
863.461	9998.78
863.782	9935.95
864.103	10019.12
864.424	9874.49
864.745	9959.46
865.065	9868.38
865.386	9854.15
865.707	9912.23
866.027	9812.34
866.348	9813.02
866.668	9841.04
866.989	9719.46
867.309	9733.92
867.63	9747.71
867.95	9712
868.27	9639.46
868.59	9634.49
868.91	9627.71
869.23	9648.05
869.55	9579.58
869.87	9647.6
870.19	9657.32
870.51	9604.66
870.83	9639.69
871.15	9549.3
871.469	9576.87
871.789	9547.94
872.109	9592.01
872.428	9490.09
872.748	9470.43
873.067	9508.17
873.386	9513.14
873.706	9436.08
874.025	9455.97
874.344	9354.05
874.663	9380.94
874.982	9386.36
875.301	9373.48
875.62	9294.61
875.939	9321.28
876.258	9331
876.577	9255.29
876.896	9269.08
877.214	9292.35
877.533	9214.62
877.852	9216.42
878.17	9285.35
878.489	9210.1
878.807	9153.38
879.125	9187.05
879.444	9173.26
879.762	9145.47
880.08	9111.57
880.398	9154.28
880.716	9104.11
881.034	9077.67
881.352	9129.42
881.67	9138.46
881.988	9069.31
882.306	9050.33
882.624	9038.58
882.941	8996.54
883.259	8934.17
883.577	8926.49
883.894	8925.36
884.212	8894.62
884.529	8821.63
884.846	8834.51
885.164	8860.73
885.481	8809.43
885.798	8847.17
886.115	8715.19
886.432	8782.09
886.75	8693.05
887.067	8752.48
887.383	8659.83
887.7	8671.35
888.017	8627.74
888.334	8691.47
888.651	8640.85
888.967	8585.93
889.284	8568.08
889.6	8556.33
889.917	8443.34
890.233	8510.68
890.55	8436.11
890.866	8505.93
891.182	8486.95
891.498	8393.17
891.815	8386.39
892.131	8291.02
892.447	8333.06
892.763	8274.75
893.079	8224.59
893.395	8260.07
893.71	8223.68
894.026	8194.53
894.342	8181.88
894.657	8117.47
894.973	8065.95
895.289	8154.53
895.604	8120.41
895.92	8028.66
896.235	7980.98
896.55	7978.26
896.865	7951.37
897.181	7952.95
897.496	7908.21
897.811	7911.6
898.126	7870.02
898.441	7792.06
898.756	7756.58
899.071	7767.87
899.386	7777.59
899.7	7679.97
900.015	7696.24
900.33	7631.83
900.644	7584.15
900.959	7614.66
901.273	7613.53
901.588	7508.22
901.902	7453.31
902.216	7461.89
902.531	7419.41
902.845	7419.86
903.159	7372.18
903.473	7334.44
903.787	7265.97
904.101	7295.34
904.415	7355
904.729	7265.52
905.042	7297.83
905.356	7256.48
905.67	7228.91
905.984	7115.91
906.297	7126.31
906.611	7102.58
906.924	7084.5
907.237	7096.71
907.551	7072.98
907.864	7028.91
908.177	7007.67
908.491	6980.78
908.804	6940.1
909.117	6889.71
909.43	6839.99
909.743	6897.16
910.056	6811.97
910.368	6800.44
910.681	6802.02
910.994	6721.35
911.307	6664.63
911.619	6631.41
911.932	6693.1
912.244	6682.93
912.557	6639.09
912.869	6617.62
913.181	6581.69
913.494	6542.14
913.806	6490.17
914.118	6477.06
914.43	6501.47
914.742	6427.12
915.054	6383.28
915.366	6361.13
915.678	6325.2
915.99	6285.65
916.302	6283.17
916.613	6225.99
916.925	6250.85
917.236	6216.28
917.548	6209.05
917.859	6124.98
918.171	6126.79
918.482	6064.42
918.794	6102.83
919.105	6049.05
919.416	6028.03
919.727	6005.44
920.038	5942.16
920.349	5971.76
920.66	5905.1
920.971	5910.75
921.282	5909.62
921.593	5862.84
921.903	5823.07
922.214	5786.91
922.525	5788.72
922.835	5793.01
923.146	5715.5
923.456	5712.34
923.767	5747.81
924.077	5669.62
924.387	5647.7
924.697	5601.15
925.008	5617.65
925.318	5568.84
925.628	5577.42
925.938	5529.97
926.248	5502.62
926.558	5437.09
926.867	5487.26
927.177	5448.84
927.487	5401.16
927.796	5390.99
928.106	5378.33
928.416	5346.7
928.725	5341.95
929.034	5252.69
929.344	5301.73
929.653	5238.22
929.962	5225.79
930.271	5223.99
930.581	5157.55
930.89	5136.53
931.199	5163.88
931.508	5154.61
931.817	5119.58
932.125	5076.42
932.434	5028.51
932.743	5012.02
933.051	5038.46
933.36	4996.87
933.669	4967.04
933.977	4963.2
934.286	4922.3
934.594	4936.08
934.902	4853.83
935.21	4842.75
935.519	4812.92
935.827	4796.88
936.135	4781.29
936.443	4748.75
936.751	4718.01
937.059	4721.4
937.367	4662.87
937.674	4742.87
937.982	4678.01
938.29	4681.4
938.597	4661.52
938.905	4599.6
939.213	4596.21
939.52	4599.82
939.827	4575.42
940.135	4568.18
940.442	4534.97
940.749	4500.16
941.056	4527.06
941.363	4435.08
941.67	4419.94
941.977	4370.68
942.284	4408.42
942.591	4414.06
942.898	4391.47
943.205	4339.49
943.511	4314.86
943.818	4303.56
944.125	4313.28
944.431	4270.34
944.738	4298.81
945.044	4256.33
945.35	4207.52
945.657	4215.43
945.963	4189.21
946.269	4151.7
946.575	4129.1
946.881	4123.45
947.187	4093.4
947.493	4092.94
947.799	4105.82
948.105	4023.11
948.41	4049.55
948.716	4026.28
949.022	4016.79
949.327	4016.34
949.633	3972.49
949.938	3939.27
950.244	3958.26
950.549	3941.08
950.854	3901.54
951.16	3900.86
951.465	3879.16
951.77	3884.36
952.075	3862.67
952.38	3839.39
952.685	3805.49
952.99	3833.97
953.294	3779.05
953.599	3729.56
953.904	3748.77
954.209	3687.3
954.513	3719.39
954.818	3693.41
955.122	3715.78
955.426	3660.64
955.731	3614.09
956.035	3643.24
956.339	3644.82
956.643	3607.53
956.948	3587.65
957.252	3556.46
957.556	3565.05
957.86	3542.68
958.163	3541.77
958.467	3512.85
958.771	3524.37
959.075	3469.91
959.378	3518.04
959.682	3460.19
959.985	3446.18
960.289	3439.63
960.592	3388.78
960.896	3414.32
961.199	3332.29
961.502	3367.99
961.805	3324.83
962.108	3315.34
962.411	3344.94
962.714	3304.26
963.017	3338.84
963.32	3261.78
963.623	3295
963.926	3292.51
964.228	3218.16
964.531	3216.58
964.833	3240.99
965.136	3184.49
965.438	3190.82
965.741	3186.98
966.043	3135.68
966.345	3167.54
966.648	3108.11
966.95	3146.98
967.252	3111.5
967.554	3082.35
967.856	3049.35
968.158	3048.22
968.46	3007.55
968.761	3043.03
969.063	3030.15
969.365	2990.15
969.666	2993.99
969.968	2944.72
970.269	2912.86
970.571	2952.63
970.872	2964.84
971.174	2905.18
971.475	2901.79
971.776	2907.44
972.077	2923.03
972.378	2904.73
972.679	2862.92
972.98	2820.66
973.281	2843.26
973.582	2856.59
973.883	2801.9
974.183	2768.91
974.484	2792.86
974.785	2776.14
975.085	2797.16
975.386	2777.05
975.686	2748.12
975.986	2741.11
976.287	2749.7
976.587	2687.1
976.887	2702.92
977.187	2693.21
977.487	2692.3
977.787	2616.6
978.087	2642.13
978.387	2658.18
978.687	2613.66
978.987	2645.75
979.286	2600.1
979.586	2615.92
979.885	2568.69
980.185	2562.36
980.484	2531.85
980.784	2523.27
981.083	2547.9
981.382	2552.42
981.682	2513.32
981.981	2472.42
982.28	2513.1
982.579	2485.53
982.878	2487.56
983.177	2448.01
983.475	2474
983.774	2432.2
984.073	2426.09
984.372	2424.51
984.67	2408.24
984.969	2412.54
985.267	2383.16
985.566	2374.34
985.864	2364.18
986.162	2361.24
986.461	2349.71
986.759	2318.07
987.057	2347.68
987.355	2318.53
987.653	2277.62
987.951	2324.85
988.249	2242.82
988.547	2297.51
988.844	2262.26
989.142	2271.97
989.44	2235.82
989.737	2243.27
990.035	2202.82
990.332	2199.66
990.63	2207.34
990.927	2165.31
991.224	2198.08
991.521	2176.84
991.819	2186.55
992.116	2141.13
992.413	2138.87
992.71	2149.94
993.006	2116.5
993.303	2125.31
993.6	2126.67
993.897	2117.18
994.193	2103.39
994.49	2069.49
994.787	2046.44
995.083	2060.68
995.379	2045.09
995.676	2020.68
995.972	2032.88
996.268	2058.87
996.565	1996.95
996.861	2018.65
997.157	2018.42
997.453	1980.68
997.749	1970.51
998.044	1965.09
998.34	1961.7
998.636	1943.17
998.932	1944.07
999.227	1941.36
999.523	1899.55
999.818	1932.32
1000.114	1917.63
1000.409	1897.75
1000.704	1883.74
1001	1883.74
1001.295	1865.66
1001.59	1842.61
1001.885	1858.2
1002.18	1815.71
1002.475	1815.04
1002.77	1802.38
1003.065	1823.62
1003.359	1791.99
1003.654	1758.09
1003.949	1789.95
1004.243	1768.48
1004.538	1764.19
1004.832	1755.15
1005.127	1757.19
1005.421	1739.56
1005.715	1714.47
1006.009	1703.85
1006.304	1742.95
1006.598	1702.05
1006.892	1667.92
1007.186	1688.03
1007.48	1695.04
1007.773	1643.52
1008.067	1646.68
1008.361	1630.64
1008.655	1636.06
1008.948	1640.35
1009.242	1591.31
1009.535	1596.29
1009.829	1582.5
1010.122	1572.56
1010.415	1604.42
1010.708	1566.23
1011.001	1557.87
1011.295	1534.14
1011.588	1542.28
1011.881	1543.86
1012.173	1542.28
1012.466	1533.24
1012.759	1501.37
1013.052	1498.66
1013.344	1475.16
1013.637	1490.53
1013.93	1474.26
1014.222	1469.51
1014.514	1466.57
1014.807	1471.54
1015.099	1454.37
1015.391	1413.47
1015.683	1405.33
1015.976	1407.59
1016.268	1389.51
1016.56	1398.78
1016.851	1405.33
1017.143	1377.31
1017.435	1387.03
1017.727	1377.08
1018.018	1382.28
1018.31	1360.59
1018.602	1366.91
1018.893	1331.66
1019.185	1317.2
1019.476	1327.37
1019.767	1313.81
1020.058	1315.84
1020.35	1293.69
1020.641	1295.28
1020.932	1296.41
1021.223	1254.83
1021.514	1257.31
1021.804	1222.51
1022.095	1256.41
1022.386	1238.78
1022.677	1213.7
1022.967	1223.87
1023.258	1219.57
1023.548	1196.97
1023.839	1188.84
1024.129	1185.9
1024.419	1182.51
1024.709	1170.53
1025	1194.49
1025.29	1184.77
1025.58	1153.59
1025.87	1137.99
1026.16	1143.42
1026.449	1138.67
1026.739	1095.96
1027.029	1119.24
1027.319	1082.63
1027.608	1100.71
1027.898	1126.92
1028.187	1092.34
1028.477	1086.47
1028.766	1075.85
1029.055	1074.72
1029.344	1072.68
1029.634	1073.36
1029.923	1027.49
1030.212	1032.23
1030.501	1003.31
1030.79	1019.35
1031.078	1067.03
1031.367	990.43
1031.656	1008.96
1031.945	1008.28
1032.233	991.33
1032.522	975.74
1032.81	992.23
1033.099	967.83
1033.387	952.23
1033.675	960.14
1033.963	968.05
1034.251	950.2
1034.54	959.01
1034.828	961.27
1035.116	943.42
1035.403	959.69
1035.691	917.89
1035.979	929.18
1036.267	922.41
1036.554	887.6
1036.842	891.45
1037.129	916.3
1037.417	892.8
1037.704	881.73
1037.992	882.41
1038.279	883.31
1038.566	867.04
1038.853	867.04
1039.14	867.04
