Data from hue_34_FLMS001491_00012.txt Node
Date: Tue Feb 07 17:25:15 GMT 2017
User: dcchb
Spectrometer: FLMS00149
Trigger mode: 0
Integration Time (sec): 2.000000E-2
Scans to average: 10
Electric dark correction enabled: true
Nonlinearity correction enabled: false
Boxcar width: 0
XAxis mode: Wavelengths
Number of Pixels in Spectrum: 2048
>>>>>Begin Spectral Data<<<<<
341.393	-14.56
341.776	-14.56
342.16	-14.56
342.543	-57.72
342.927	-71.74
343.31	-70.61
343.693	-81.23
344.077	-48.23
344.46	-58.85
344.843	-44.17
345.226	-59.98
345.61	-39.87
345.993	-11.4
346.376	16.17
346.759	4.87
347.142	50.75
347.525	42.61
347.908	40.58
348.291	86.23
348.674	74.93
349.057	98.2
349.44	114.93
349.823	152.67
350.206	177.3
350.588	196.28
350.971	203.29
351.354	228.14
351.737	267.24
352.119	257.3
352.502	263.17
352.884	276.73
353.267	282.15
353.65	289.39
354.032	298.42
354.414	308.14
354.797	324.41
355.179	314.7
355.562	343.85
355.944	352.89
356.326	333.68
356.709	346.11
357.091	346.56
357.473	368.25
357.855	343.85
358.238	348.14
358.62	335.03
359.002	373.45
359.384	329.16
359.766	317.63
360.148	349.04
360.53	350.17
360.912	347.91
361.294	345.43
361.676	320.12
362.057	340.46
362.439	343.17
362.821	346.56
363.203	345.2
363.584	325.99
363.966	311.08
364.348	335.49
364.729	342.27
365.111	312.89
365.493	321.47
365.874	307.69
366.256	292.1
366.637	316.73
367.019	328.48
367.4	310.85
367.781	326.9
368.163	320.8
368.544	314.7
368.925	320.8
369.306	348.14
369.688	329.16
370.069	315.83
370.45	324.41
370.831	318.31
371.212	312.66
371.593	304.53
371.974	316.05
372.355	324.41
372.736	314.02
373.117	316.05
373.498	317.86
373.879	325.99
374.26	323.06
374.641	309.72
375.021	333
375.402	327.8
375.783	315.37
376.163	333
376.544	321.93
376.925	353.79
377.305	338.42
377.686	328.48
378.066	333.23
378.447	340.46
378.827	345.65
379.208	344.07
379.588	334.13
379.968	355.82
380.349	343.17
380.729	330.06
381.109	341.36
381.489	352.21
381.87	340.68
382.25	349.27
382.63	341.14
383.01	341.81
383.39	364.19
383.77	361.47
384.15	343.85
384.53	360.8
384.91	359.89
385.29	359.89
385.67	335.94
386.049	380
386.429	364.19
386.809	363.73
387.189	379.33
387.568	374.81
387.948	361.7
388.328	370.51
388.707	374.35
389.087	368.48
389.466	365.32
389.846	371.64
390.225	351.53
390.605	360.57
390.984	365.09
391.363	381.81
391.743	374.81
392.122	372.09
392.501	375.48
392.881	377.74
393.26	382.72
393.639	368.25
394.018	372.55
394.397	382.72
394.776	394.47
395.155	389.04
395.534	380
395.913	398.53
396.292	400.34
396.671	371.42
397.05	392.89
397.429	397.4
397.808	387.24
398.186	393.34
398.565	387.69
398.944	387.69
399.323	380.46
399.701	396.5
400.08	412.55
400.458	386.78
400.837	425.43
401.215	422.49
401.594	427.91
401.972	411.42
402.351	436.95
402.729	427.23
403.107	407.8
403.486	424.3
403.864	411.87
404.242	410.96
404.62	398.31
404.999	422.71
405.377	431.53
405.755	436.5
406.133	426.33
406.511	429.04
406.889	445.09
407.267	426.33
407.645	429.27
408.023	449.15
408.401	444.41
408.779	441.7
409.156	442.15
409.534	450.74
409.912	454.8
410.29	463.39
410.667	454.8
411.045	463.62
411.422	479.21
411.8	464.3
412.178	467.01
412.555	476.95
412.933	459.1
413.31	487.35
413.687	468.59
414.065	476.72
414.442	479.66
414.819	476.72
415.197	501.81
415.574	504.07
415.951	489.38
416.328	519.89
416.705	509.04
417.082	509.72
417.46	521.47
417.837	523.96
418.214	519.44
418.591	529.38
418.967	512.2
419.344	537.74
419.721	523.96
420.098	525.76
420.475	524.18
420.852	538.87
421.228	525.99
421.605	551.98
421.982	545.88
422.358	529.83
422.735	565.54
423.111	542.49
423.488	540.9
423.864	553.78
424.241	558.76
424.617	558.3
424.994	551.98
425.37	552.43
425.746	572.99
426.123	567.8
426.499	592.43
426.875	565.76
427.251	610.28
427.627	596.95
428.003	597.63
428.379	578.19
428.756	617.51
429.132	589.04
429.507	615.93
429.883	626.78
430.259	635.82
430.635	644.4
431.011	630.17
431.387	635.82
431.763	629.94
432.138	637.85
432.514	641.47
432.89	638.98
433.265	661.35
433.641	657.28
434.016	681.01
434.392	692.09
434.767	682.37
435.143	702.93
435.518	706.55
435.894	696.61
436.269	699.54
436.644	677.62
437.02	703.16
437.395	711.97
437.77	730.73
438.145	731.18
438.52	737.06
438.895	719.66
439.271	767.34
439.646	777.51
440.021	758.07
440.395	745.42
440.77	770.05
441.145	745.87
441.52	743.16
441.895	772.08
442.27	777.51
442.645	758.07
443.019	784.51
443.394	780.45
443.769	794.68
444.143	790.84
444.518	823.38
444.892	805.08
445.267	803.95
445.641	800.78
446.016	825.64
446.39	823.16
446.764	822.03
447.139	840.56
447.513	861.12
447.887	816.15
448.262	852.53
448.636	832.87
449.01	859.54
449.384	869.26
449.758	854.79
450.132	863.16
450.506	876.49
450.88	906.32
451.254	883.04
451.628	874
452.002	879.65
452.376	908.13
452.75	904.96
453.123	902.25
453.497	911.29
453.871	918.52
454.244	964.4
454.618	942.7
454.992	976.37
455.365	967.79
455.739	977.28
456.112	974.56
456.486	1025.41
456.859	1011.4
457.232	1050.49
457.606	1022.02
457.979	1023.6
458.352	1046.88
458.725	1054.56
459.099	1057.27
459.472	1082.58
459.845	1084.17
460.218	1104.28
460.591	1084.17
460.964	1110.83
461.337	1157.61
461.71	1157.16
462.083	1140.89
462.456	1135.24
462.829	1154.22
463.201	1214.11
463.574	1211.17
463.947	1219.76
464.32	1268.34
464.692	1243.71
465.065	1262.69
465.438	1258.85
465.81	1288
466.183	1309.02
466.555	1320.32
466.928	1330.26
467.3	1345.85
467.672	1360.09
468.045	1402.35
468.417	1403.93
468.789	1395.57
469.161	1465.85
469.534	1472.63
469.906	1477.38
470.278	1480.54
470.65	1535.23
471.022	1533.42
471.394	1595.11
471.766	1594.21
472.138	1634.43
472.51	1631.72
472.882	1680.99
473.253	1710.36
473.625	1730.25
473.997	1789.91
474.369	1801.44
474.74	1859.51
475.112	1899.06
475.484	1918.49
475.855	1945.39
476.227	1987.65
476.598	2035.55
476.97	2039.17
477.341	2130.01
477.713	2173.18
478.084	2211.14
478.455	2269.22
478.827	2301.31
479.198	2367.07
479.569	2426.96
479.94	2455.43
480.311	2543.11
480.682	2607.97
481.053	2669.44
481.424	2678.02
481.795	2781.52
482.166	2854.74
482.537	2888.86
482.908	2997.56
483.279	3046.6
483.65	3111.46
484.021	3203.66
484.391	3228.97
484.762	3319.36
485.133	3383.77
485.503	3461.28
485.874	3557.77
486.244	3619.69
486.615	3738.79
486.985	3781.5
487.356	3882.51
487.726	3992.79
488.097	4086.35
488.467	4081.6
488.837	4228.94
489.207	4330.63
489.578	4444.08
489.948	4476.39
490.318	4602.49
490.688	4635.71
491.058	4762.49
491.428	4845.42
491.798	4928.59
492.168	5068.02
492.538	5131.52
492.908	5254.23
493.278	5294.23
493.648	5352.75
494.017	5431.17
494.387	5560.21
494.757	5631.62
495.126	5756.36
495.496	5802.23
495.866	5830.03
496.235	5936.02
496.605	6023.25
496.974	6090.59
497.344	6132.17
497.713	6229.12
498.082	6284.03
498.452	6412.39
498.821	6472.27
499.19	6530.12
499.559	6611.7
499.928	6638.14
500.298	6694.19
500.667	6833.85
501.036	6844.92
501.405	6951.58
501.774	7019.38
502.143	7102.09
502.512	7107.51
502.88	7199.03
503.249	7242.2
503.618	7339.37
503.987	7368.52
504.356	7447.39
504.724	7480.61
505.093	7540.95
505.462	7593.15
505.83	7713.6
506.199	7776.19
506.567	7808.74
506.936	7844.44
507.304	7930.54
507.672	7985.45
508.041	8052.34
508.409	8088.95
508.777	8214.83
509.145	8223.87
509.514	8269.97
509.882	8342.28
510.25	8332.11
510.618	8488.49
510.986	8486.01
511.354	8531.88
511.722	8591.99
512.09	8695.94
512.458	8704.08
512.826	8734.59
513.193	8810.97
513.561	8778.88
513.929	8887.8
514.297	9024.75
514.664	9056.16
515.032	9044.64
515.4	9169.83
515.767	9146.55
516.135	9305.19
516.502	9247.57
516.869	9339.32
517.237	9350.16
517.604	9374.12
517.972	9487.34
518.339	9525.53
518.706	9543.6
519.073	9544.73
519.44	9630.61
519.808	9732.75
520.175	9668.8
520.542	9820.89
520.909	9841.9
521.276	9885.29
521.643	9994.67
522.009	9999.41
522.376	10108.79
522.743	10178.62
523.11	10159.86
523.477	10295
523.843	10332.96
524.21	10445.28
524.577	10487.99
524.943	10568.21
525.31	10607.98
525.676	10697.7
526.043	10692.05
526.409	10881.2
526.776	10891.59
527.142	10943.12
527.508	10986.73
527.874	11100.17
528.241	11142.66
528.607	11139.27
528.973	11241.64
529.339	11282.54
529.705	11319.38
530.071	11409.32
530.437	11457.23
530.803	11445.25
531.169	11606.15
531.535	11575.87
531.901	11642.53
532.267	11695.86
532.632	11821.74
532.998	11861.28
533.364	11855.63
533.73	11913.94
534.095	11946.48
534.461	12080.94
534.826	12028.74
535.192	12133.37
535.557	12193.48
535.923	12266.25
536.288	12310.54
536.653	12299.69
537.019	12353.7
537.384	12389.18
537.749	12513.92
538.114	12513.24
538.479	12558.21
538.845	12681.6
539.21	12637.76
539.575	12697.87
539.94	12670.75
540.305	12861.03
540.67	12729.28
541.034	12817.42
541.399	12957.75
541.764	12949.84
542.129	13026.9
542.494	13077.52
542.858	13122.49
543.223	13164.3
543.587	13209.27
543.952	13206.33
544.316	13293.34
544.681	13265.32
545.045	13432.77
545.41	13432.09
545.774	13517.06
546.138	13604.29
546.503	13597.96
546.867	13597.96
547.231	13762.25
547.595	13795.92
547.959	13888.58
548.324	13784.17
548.688	13854.45
549.052	13894.23
549.416	14035.46
549.779	14012.41
550.143	13963.38
550.507	14119.08
550.871	14172.41
551.235	14212.63
551.599	14303.71
551.962	14354.33
552.326	14373.76
552.689	14377.6
553.053	14404.72
553.417	14507.32
553.78	14648.78
554.143	14545.06
554.507	14613.08
554.87	14730.14
555.234	14848.32
555.597	14825.95
555.96	14879.28
556.323	14851.49
556.686	14931.49
557.05	15069.79
557.413	15043.8
557.776	15036.34
558.139	15193.85
558.502	15096.23
558.865	15158.6
559.228	15361.31
559.59	15331.93
559.953	15365.37
560.316	15595.88
560.679	15585.93
561.041	15606.27
561.404	15576.89
561.767	15778.24
562.129	15758.58
562.492	15892.59
562.854	15803.55
563.217	15895.3
563.579	15936.88
563.941	15960.39
564.304	16060.27
564.666	16157.67
565.028	16308.62
565.39	16239.93
565.753	16426.81
566.115	16385.91
566.477	16469.3
566.839	16502.97
567.201	16592.91
567.563	16615.51
567.925	16803.53
568.287	16778.89
568.648	16730.08
569.01	16883.3
569.372	17009.85
569.734	16987.03
570.095	17164.42
570.457	17199.45
570.819	17220.01
571.18	17270.41
571.542	17359.67
571.903	17398.09
572.265	17512.44
572.626	17564.64
572.987	17682.15
573.349	17702.94
573.71	17759.43
574.071	17918.3
574.432	17914.91
574.794	18111.52
575.155	18208.46
575.516	18196.94
575.877	18317.39
576.238	18430.15
576.599	18583.37
576.96	18615.46
577.32	18750.37
577.681	18845.51
578.042	19030.14
578.403	19128.89
578.763	19192.62
579.124	19424.02
579.485	19497.69
579.845	19697.69
580.206	19767.97
580.566	19819.49
580.927	20045.48
581.287	20287.73
581.648	20415.86
582.008	20673.26
582.368	20771.11
582.728	20921.16
583.089	21065.34
583.449	21271.88
583.809	21425.78
584.169	21623.74
584.529	21879.78
584.889	22058.98
585.249	22173.33
585.609	22388.24
585.969	22660.1
586.329	22808.79
586.688	23140.31
587.048	23235.45
587.408	23543.46
587.768	23720.86
588.127	23955.66
588.487	24119.27
588.846	24561.06
589.206	24535.53
589.565	24816.88
589.925	25199.46
590.284	25366.47
590.643	25524.88
591.003	25951.31
591.362	26220.91
591.721	26344.52
592.08	26626.55
592.44	26932.75
592.799	27215.68
593.158	27302.46
593.517	27615.67
593.876	27697.48
594.235	28063.12
594.593	28334.3
594.952	28619.94
595.311	28602.99
595.67	29073.03
596.029	29415.62
596.387	29571.33
596.746	29826.69
597.104	30052.22
597.463	30240.46
597.822	30465.99
598.18	30724.52
598.538	31044.51
598.897	31287.67
599.255	31241.57
599.613	31979.17
599.972	31987.53
600.33	32237.47
600.688	32296
601.046	32621.42
601.404	32870.68
601.762	33008.07
602.12	33440.15
602.478	33635.4
602.836	33760.14
603.194	33825.45
603.552	34043.3
603.91	34038.78
604.268	34478.99
604.625	34543.17
604.983	34826.56
605.341	34812.55
605.698	34986.55
606.056	35391.51
606.413	35428.8
606.771	35830.6
607.128	35879.86
607.485	35795.8
607.843	36223.13
608.2	36490.69
608.557	36578.15
608.914	36595.1
609.272	36924.81
609.629	36974.75
609.986	37307.39
610.343	37300.84
610.7	37843.65
611.057	37653.6
611.414	37847.95
611.771	37959.13
612.127	38268.05
612.484	38350.31
612.841	38554.59
613.198	38429.85
613.554	38595.72
613.911	38846.56
614.267	38913.23
614.624	39108.48
614.98	39263.5
615.337	39554.79
615.693	39509.82
616.05	39488.58
616.406	39812.41
616.762	39830.94
617.118	39915.69
617.475	39945.07
617.831	40170.82
618.187	40318.16
618.543	40280.42
618.899	40650.81
619.255	40690.36
619.611	40659.17
619.967	40810.58
620.323	40970.12
620.678	40914.08
621.034	41054.87
621.39	41027.3
621.746	41105.49
622.101	41400.85
622.457	41111.14
622.812	41466.38
623.168	41567.62
623.523	41430.45
623.879	41569.66
624.234	41566.04
624.589	41623.67
624.945	41711.12
625.3	41877.67
625.655	41893.71
626.01	41865.02
626.365	41967.84
626.72	42113.37
627.075	42025.91
627.43	42053.71
627.785	42052.13
628.14	42148.62
628.495	42140.49
628.85	42205.35
629.205	42054.39
629.559	42330.99
629.914	42204.89
630.269	42247.38
630.623	42083.31
630.978	42159.47
631.332	42325.12
631.687	42335.96
632.041	42298.9
632.396	42432.23
632.75	42056.87
633.104	42468.84
633.459	42097.33
633.813	42218.9
634.167	42335.06
634.521	42159.92
634.875	42276.53
635.229	42247.6
635.583	42179.58
635.937	42086.48
636.291	42141.39
636.645	42190.66
636.999	42150.66
637.352	42247.38
637.706	42113.37
638.06	42121.51
638.413	42187.94
638.767	42031.79
639.121	42119.25
639.474	41918.12
639.828	41799.93
640.181	42115.18
640.534	42028.17
640.888	41894.17
641.241	41821.4
641.594	42060.26
641.947	41944.33
642.301	41869.99
642.654	41854.17
643.007	41855.52
643.36	41873.15
643.713	41778.69
644.066	42135.06
644.419	41750.22
644.771	41470.22
645.124	41131.47
645.477	41029.56
645.83	40902.78
646.182	40634.76
646.535	40679.96
646.888	40715.89
647.24	40517.48
647.593	40731.26
647.945	40602
648.298	40460.31
648.65	40521.32
649.002	40253.08
649.355	40606.07
649.707	40414.43
650.059	40578.27
650.411	41107.29
650.763	41193.39
651.115	41547.06
651.467	41363.11
651.819	41296.44
652.171	41226.61
652.523	41322.66
652.875	41328.08
653.227	41062.78
653.578	41338.02
653.93	41200.85
654.282	41010.8
654.633	41142.32
654.985	41053.28
655.337	41135.54
655.688	41104.58
656.039	41260.29
656.391	40993.63
656.742	41174.64
657.094	41042.44
657.445	41192.04
657.796	40992.72
658.147	40962.67
658.498	40912.72
658.849	41023.91
659.2	40898.49
659.551	41024.59
659.902	41105.49
660.253	41019.84
660.604	40996.56
660.955	40735.1
661.306	40931.48
661.656	40743.24
662.007	40848.32
662.358	40776.91
662.708	40830.47
663.059	40901.2
663.409	40639.74
663.76	40881.76
664.11	40869.11
664.461	40915.21
664.811	40964.02
665.161	40856
665.511	40688.55
665.862	40951.14
666.212	40926.06
666.562	40948.65
666.912	40804.48
667.262	40784.37
667.612	40742.33
667.962	40874.76
668.312	40670.7
668.662	40934.87
669.011	40828.66
669.361	40764.03
669.711	40681.32
670.06	40697.81
670.41	40711.37
670.76	40646.74
671.109	40773.07
671.459	40660.53
671.808	40592.96
672.157	40735.55
672.507	40398.16
672.856	40401.32
673.205	40514.54
673.554	40650.58
673.904	40304.15
674.253	40777.13
674.602	40437.71
674.951	40068
675.3	39809.02
675.649	40504.6
675.998	40419.63
676.346	40416.69
676.695	40583.47
677.044	40119.07
677.393	40296.47
677.741	40566.07
678.09	40258.28
678.438	40060.77
678.787	40166.08
679.135	40147.09
679.484	40011.28
679.832	40154.55
680.181	39856.48
680.529	40028
680.877	39865.29
681.225	39753.88
681.573	40153.2
681.922	39805.63
682.27	39643.83
682.618	39710.95
682.966	39688.12
683.314	39678.63
683.661	39691.29
684.009	39485.42
684.357	39366.55
684.705	39290.39
685.053	39353.67
685.4	39285.65
685.748	38960.91
686.095	39226.89
686.443	38993
686.79	38875.04
687.138	38960.23
687.485	39033.9
687.832	38948.26
688.18	38870.97
688.527	38656.74
688.874	38685.21
689.221	38631.88
689.568	38570.86
689.915	38422.85
690.262	38336.97
690.609	38282.51
690.956	38034.38
691.303	38146.24
691.65	37933.37
691.997	37996.64
692.344	37744.67
692.69	37791
693.037	37751.45
693.383	37529.99
693.73	37715.97
694.077	37376.09
694.423	37353.72
694.769	37255.19
695.116	37203.89
695.462	37112.82
695.808	36985.6
696.155	37067.85
696.501	36781.98
696.847	36711.48
697.193	36442.11
697.539	36732.04
697.885	36574.31
698.231	36189.46
698.577	36483.01
698.923	36255.9
699.269	36147.65
699.614	36023.81
699.96	35863.82
700.306	35967.99
700.651	35797.83
700.997	35543.15
701.342	35582.47
701.688	35588.57
702.033	35318.07
702.379	35275.81
702.724	35220.44
703.069	35256.6
703.415	35031.75
703.76	34931.64
704.105	35092.09
704.45	34943.62
704.795	34790.4
705.14	34620.01
705.485	34561.25
705.83	34439.45
706.175	34599.44
706.52	34304.08
706.865	34309.96
707.209	34173.69
707.554	34160.36
707.899	34154.48
708.243	34028.61
708.588	33891.89
708.932	33706.36
709.277	33773.7
709.621	33721.27
709.966	33418.68
710.31	33684.89
710.654	33353.83
710.998	33421.62
711.342	33347.05
711.687	33251.68
712.031	33178.01
712.375	33095.53
712.719	33161.97
713.063	33092.59
713.407	33158.8
713.75	32787.29
714.094	32863.9
714.438	32735.76
714.782	32701.19
715.125	32627.07
715.469	32560.17
715.812	32448.54
716.156	32402.89
716.499	32265.72
716.843	32385.72
717.186	32187.53
717.53	32413.96
717.873	32354.76
718.216	32214.42
718.559	31964.26
718.902	32013.52
719.246	31980.76
719.589	31811.72
719.932	31818.27
720.275	31700.76
720.617	31710.93
720.96	31631.84
721.303	31649.92
721.646	31661.22
721.989	31411.28
722.331	31714.77
722.674	31484.5
723.016	31430.94
723.359	31385.97
723.701	31420.77
724.044	31166.09
724.386	31070.5
724.729	31239.31
725.071	31162.7
725.413	31062.59
725.755	31078.41
726.097	31017.16
726.439	30782.59
726.782	30764.06
727.124	30940.1
727.465	30821.92
727.807	30710.51
728.149	30630.73
728.491	30530.62
728.833	30653.11
729.175	30542.6
729.516	30581.02
729.858	30359.33
730.199	30473.45
730.541	30387.35
730.882	30188.49
731.224	30407.01
731.565	30063.52
731.906	30175.6
732.248	30160.01
732.589	29982.84
732.93	29870.75
733.271	29848.38
733.612	29955.05
733.953	29902.84
734.294	29708.5
734.635	29748.72
734.976	29847.93
735.317	29644.32
735.658	29682.28
735.999	29642.51
736.339	29578.11
736.68	29537.88
737.021	29570.2
737.361	29379.69
737.702	29520.71
738.042	29380.82
738.383	29409.52
738.723	29416.3
739.063	29376.76
739.404	29398
739.744	29292.24
740.084	29034.62
740.424	29106.48
740.764	29051.79
741.104	29257.89
741.444	29009.08
741.784	28994.84
742.124	28935.64
742.464	28927.5
742.804	28871.68
743.143	28820.61
743.483	28823.1
743.823	28715.53
744.162	28698.81
744.502	28734.29
744.841	28549.88
745.181	28659.26
745.52	28497.91
745.86	28473.95
746.199	28580.17
746.538	28414.3
746.877	28545.14
747.216	28485.48
747.556	28340.17
747.895	28361.87
748.234	28101.08
748.573	28245.71
748.911	28208.88
749.25	28149.9
749.589	28021.09
749.928	28038.03
750.267	28034.42
750.605	27932.73
750.944	27861.99
751.283	27840.53
751.621	27966.62
751.96	27610.47
752.298	27787.19
752.636	27607.31
752.975	27566.86
753.313	27408.67
753.651	27626.52
753.989	27419.52
754.327	27346.07
754.666	27096.59
755.004	27198.51
755.342	27351.05
755.679	27189.24
756.017	27142.01
756.355	27139.07
756.693	26981.11
757.031	27128.91
757.368	26899.76
757.706	26813.66
758.044	26786.99
758.381	26872.87
758.719	26688.69
759.056	26613.21
759.394	26536.6
759.731	26452.76
760.068	26309.04
760.405	26281.7
760.743	26155.15
761.08	26376.16
761.417	26053.68
761.754	26121.25
762.091	26008.26
762.428	26011.65
762.765	25707.47
763.102	25833.12
763.438	25659.11
763.775	25685.33
764.112	25522.85
764.449	25553.81
764.785	25549.96
765.122	25323.08
765.458	25136.42
765.795	25216.41
766.131	25209.63
766.467	25083.99
766.804	24978.91
767.14	24877.21
767.476	24922.41
767.812	24713.15
768.148	24854.84
768.485	24481.52
768.821	24381.18
769.157	24450.11
769.492	24389.09
769.828	24276.1
770.164	24070.23
770.5	24096.44
770.836	24105.26
771.171	23941.19
771.507	23876.79
771.842	23703.01
772.178	23713.18
772.513	23670.92
772.849	23605.16
773.184	23415.56
773.519	23397.03
773.855	23359.96
774.19	23116.58
774.525	23185.28
774.86	23216.01
775.195	23106.86
775.53	23013.53
775.865	22699.87
776.2	22674.56
776.535	22619.42
776.87	22463.94
777.205	22529.48
777.539	22404.74
777.874	22376.71
778.209	22183.95
778.543	22157.51
778.878	22036.61
779.212	22002.26
779.547	21901.7
779.881	21966.33
780.215	21779.67
780.55	21705.09
780.884	21652.89
781.218	21550.97
781.552	21531.09
781.886	21478.66
782.22	21318.21
782.554	21172.23
782.888	21051.78
783.222	20974.49
783.556	20912.35
783.889	20912.57
784.223	20791.9
784.557	20745.8
784.89	20750.32
785.224	20602.98
785.557	20463.54
785.891	20419.93
786.224	20398.91
786.558	20428.52
786.891	20127.96
787.224	20103.33
787.557	20076.21
787.891	19912.82
788.224	19972.71
788.557	19960.28
788.89	19896.55
789.223	19878.7
789.556	19663.79
789.888	19699.5
790.221	19645.03
790.554	19423.57
790.887	19435.1
791.219	19354.19
791.552	19308.55
791.884	19203.92
792.217	19161.66
792.549	19068.55
792.882	19023.58
793.214	18950.14
793.546	18954.88
793.879	18771.84
794.211	18678.96
794.543	18729.58
794.875	18616.36
795.207	18659.07
795.539	18491.39
795.871	18546.76
796.203	18398.29
796.535	18301.11
796.867	18195.35
797.198	18179.54
797.53	18263.15
797.862	18121.01
798.193	18137.5
798.525	18006.21
798.856	17973.21
799.188	17738.64
799.519	17780.9
799.85	17718.53
800.182	17816.61
800.513	17734.8
800.844	17485.09
801.175	17632.21
801.506	17556.73
801.837	17499.1
802.168	17424.75
802.499	17393.12
802.83	17235.38
803.161	17282.84
803.491	17171.65
803.822	17265.66
804.153	17040.81
804.483	17100.24
804.814	17009.4
805.145	16995.61
805.475	16964.2
805.805	16812.11
806.136	16839.91
806.466	16778.22
806.796	16765.56
807.126	16604.21
807.457	16608.73
807.787	16602.18
808.117	16495.74
808.447	16419.58
808.777	16581.39
809.107	16437.66
809.436	16415.51
809.766	16236.54
810.096	16219.59
810.426	16147.95
810.755	16155.18
811.085	16206.25
811.414	16139.59
811.744	15931.01
812.073	15984.79
812.403	15972.14
812.732	15760.62
813.061	15858.47
813.39	15707.51
813.719	15782.99
814.049	15790.9
814.378	15712.93
814.707	15608.3
815.036	15604.46
815.365	15562.66
815.693	15397.01
816.022	15483.11
816.351	15384.81
816.68	15279.73
817.008	15400.85
817.337	15224.81
817.665	15277.92
817.994	15264.81
818.322	15180.07
818.651	15132.61
818.979	15074.98
819.307	15177.13
819.636	15144.81
819.964	14897.81
820.292	15006.06
820.62	15016
820.948	14965.84
821.276	15001.99
821.604	14910.47
821.932	15006.51
822.259	14939.17
822.587	14834.77
822.915	14903.01
823.243	14959.06
823.57	14847.87
823.898	14856.91
824.225	14872.96
824.553	14811.49
824.88	14793.41
825.207	14890.13
825.535	14745.05
825.862	14914.76
826.189	14775.33
826.516	14850.13
826.843	14869.79
827.17	14866.63
827.497	14878.15
827.824	14849.45
828.151	14837.48
828.478	14795.22
828.805	14937.81
829.131	14849.45
829.458	14841.77
829.785	14756.12
830.111	14792.96
830.438	14792.96
830.764	14744.6
831.09	14751.38
831.417	14788.21
831.743	14775.11
832.069	14840.64
832.395	14754.99
832.722	14721.55
833.048	14662.57
833.374	14783.92
833.7	14647.65
834.026	14605.62
834.351	14703.92
834.677	14646.52
835.003	14713.41
835.329	14623.25
835.654	14621.44
835.98	14567.65
836.306	14637.71
836.631	14562
836.956	14543.02
837.282	14552.96
837.607	14487.43
837.932	14483.14
838.258	14375.79
838.583	14347.09
838.908	14326.76
839.233	14310.94
839.558	14348.45
839.883	14365.17
840.208	14216.25
840.533	14211.73
840.858	14210.6
841.182	14167.89
841.507	14152.98
841.832	14058.74
842.156	14070.49
842.481	14117.04
842.805	14087.67
843.13	14034.33
843.454	13995.69
843.778	13953.43
844.103	13984.62
844.427	13838.63
844.751	13847.45
845.075	13804.28
845.399	13795.92
845.723	13727.45
846.047	13754.79
846.371	13637.96
846.695	13633.21
847.019	13505.76
847.343	13413.33
847.666	13352.77
847.99	13362.94
848.313	13331.3
848.637	13200.23
848.96	13239.1
849.284	13187.35
849.607	13058.09
849.931	13083.62
850.254	12953.01
850.577	12823.97
850.9	12834.14
851.223	12818.32
851.546	12757.98
851.869	12688.38
852.192	12690.87
852.515	12611.09
852.838	12538.78
853.161	12503.53
853.483	12451.55
853.806	12407.71
854.129	12467.6
854.451	12366.36
854.774	12333.14
855.096	12271.89
855.419	12318.22
855.741	12229.64
856.063	12137.66
856.385	12091.33
856.708	12097.21
857.03	12087.94
857.352	11954.39
857.674	11907.61
857.996	11978.57
858.318	11833.49
858.64	11871.91
858.961	11835.52
859.283	11785.13
859.605	11693.38
859.926	11758.91
860.248	11767.73
860.57	11682.98
860.891	11638.69
861.212	11657
861.534	11558.02
861.855	11542.87
862.176	11601.63
862.498	11459.49
862.819	11518.47
863.14	11483.22
863.461	11502.2
863.782	11400.96
864.103	11429.43
864.424	11375.2
864.745	11396.66
865.065	11327.74
865.386	11255.2
865.707	11257.68
866.027	11235.76
866.348	11240.96
866.668	11258.14
866.989	11252.49
867.309	11083.9
867.63	11179.04
867.95	11092.72
868.27	11080.97
868.59	11107.86
868.91	11064.69
869.23	11111.47
869.55	11003.68
869.87	11064.69
870.19	11071.02
870.51	11009.33
870.83	11006.39
871.15	10976.56
871.469	10938.14
871.789	10976.34
872.109	10909.22
872.428	10819.96
872.748	10903.57
873.067	10838.94
873.386	10883.68
873.706	10754.19
874.025	10798.04
874.344	10762.1
874.663	10797.13
874.982	10782.44
875.301	10712.39
875.62	10708.77
875.939	10641.2
876.258	10742.22
876.577	10667.64
876.896	10672.39
877.214	10586.74
877.533	10646.85
877.852	10568.89
878.17	10599.17
878.489	10521.66
878.807	10589
879.125	10567.53
879.444	10505.84
879.762	10409.8
880.08	10537.48
880.398	10450.93
880.716	10437.14
881.034	10288.9
881.352	10393.53
881.67	10295.9
881.988	10357.59
882.306	10328.44
882.624	10279.4
882.941	10250.03
883.259	10237.6
883.577	10213.64
883.894	10164.38
884.212	10177.94
884.529	10125.06
884.846	10090.71
885.164	10143.36
885.481	10111.5
885.798	10083.7
886.115	9990.37
886.432	9958.28
886.75	9920.54
887.067	9977.94
887.383	9892.07
887.7	9937.27
888.017	9880.09
888.334	9925.74
888.651	9793.99
888.967	9813.2
889.284	9764.84
889.6	9661.57
889.917	9639.2
890.233	9689.36
890.55	9676.03
890.866	9632.64
891.182	9674.9
891.498	9546.99
891.815	9557.39
892.131	9484.85
892.447	9508.58
892.763	9476.71
893.079	9478.07
893.395	9448.47
893.71	9398.75
894.026	9371.86
894.342	9289.15
894.657	9262.71
894.973	9312.65
895.289	9276.95
895.604	9218.87
895.92	9212.54
896.235	9230.62
896.55	9118.53
896.865	9160.56
897.181	9091.41
897.496	9100.45
897.811	9008.93
898.126	8943.17
898.441	8933.45
898.756	8900.01
899.071	8895.49
899.386	8919.67
899.7	8844.41
900.015	8769.61
900.33	8722.61
900.644	8656.85
900.959	8686.45
901.273	8714.7
901.588	8604.19
901.902	8611.88
902.216	8551.77
902.531	8593.8
902.845	8504.99
903.159	8434.93
903.473	8443.75
903.787	8416.18
904.101	8352
904.415	8299.12
904.729	8329.63
905.042	8279.68
905.356	8309.74
905.67	8228.16
905.984	8208.95
906.297	8187.26
906.611	8180.7
906.924	8072.46
907.237	8127.82
907.551	8068.62
907.864	8046.47
908.177	7987.94
908.491	8022.29
908.804	7908.62
909.117	7837.44
909.43	7839.92
909.743	7836.08
910.056	7782.75
910.368	7799.7
910.681	7748.85
910.994	7696.87
911.307	7725.12
911.619	7632.24
911.932	7648.74
912.244	7561.74
912.557	7551.79
912.869	7511.12
913.181	7487.39
913.494	7496.88
913.806	7414.17
914.118	7408.52
914.43	7344.11
914.742	7370.55
915.054	7374.62
915.366	7254.4
915.678	7257.79
915.99	7180.5
916.302	7125.14
916.613	7140.05
916.925	7147.06
917.236	7108.19
917.548	7014.18
917.859	7043.56
918.171	6993.39
918.482	6966.27
918.794	6950.23
919.105	6929.44
919.416	6870.91
919.727	6846.73
920.038	6846.73
920.349	6800.17
920.66	6775.77
920.971	6731.02
921.282	6743.45
921.593	6672.72
921.903	6650.8
922.214	6609.44
922.525	6578.26
922.835	6554.31
923.146	6522.44
923.456	6535.77
923.767	6498.04
924.077	6483.35
924.387	6418.26
924.697	6417.59
925.008	6429.79
925.318	6353.41
925.628	6326.06
925.938	6331.49
926.248	6209.68
926.558	6224.14
926.867	6244.48
927.177	6236.57
927.487	6152.28
927.796	6136.01
928.106	6126.75
928.416	6097.14
928.725	6072.96
929.034	6011.49
929.344	6047.88
929.653	6036.35
929.962	5984.83
930.271	5962.46
930.581	5899.41
930.89	5890.82
931.199	5835.91
931.508	5789.81
931.817	5817.15
932.125	5775.57
932.434	5757.94
932.743	5681.11
933.051	5701.22
933.36	5636.36
933.669	5621.9
933.977	5610.15
934.286	5639.75
934.594	5621.22
934.902	5557.5
935.21	5553.43
935.519	5454.22
935.827	5553.43
936.135	5479.76
936.443	5475.24
936.751	5411.06
937.059	5441.79
937.367	5425.07
937.674	5348.24
937.982	5315.69
938.29	5362.47
938.597	5343.26
938.905	5239.54
939.213	5266.66
939.52	5230.72
939.827	5225.53
940.135	5193.21
940.442	5153.89
940.749	5123.83
941.056	5173.55
941.363	5059.2
941.67	5083.61
941.977	5055.81
942.284	5004.97
942.591	5002.93
942.898	4981.24
943.205	4979.21
943.511	4924.29
943.818	4927
944.125	4920.22
944.431	4856.95
944.738	4855.59
945.044	4846.33
945.35	4772.88
945.657	4748.25
945.963	4732.66
946.269	4720
946.575	4773.79
946.881	4684.07
947.187	4709.61
947.493	4648.59
947.799	4635.26
948.105	4608.59
948.41	4582.61
948.716	4607.69
949.022	4529.73
949.327	4538.99
949.633	4513
949.938	4519.78
950.244	4514.36
950.549	4469.61
950.854	4396.62
951.16	4455.6
951.465	4350.3
951.77	4371.76
952.075	4415.83
952.38	4386.68
952.685	4357.75
952.99	4303.29
953.294	4297.64
953.599	4288.6
953.904	4272.56
954.209	4239.56
954.513	4222.84
954.818	4218.55
955.122	4208.83
955.426	4194.82
955.731	4156.18
956.035	4120.92
956.339	4110.08
956.643	4084.09
956.948	4098.78
957.252	4045.67
957.556	4050.87
957.86	3984.66
958.163	4027.59
958.467	3994.6
958.771	3986.46
959.075	3965.9
959.378	3960.7
959.682	3909.18
959.985	3882.96
960.289	3910.98
960.592	3862.17
960.896	3881.38
961.199	3840.25
961.502	3851.1
961.805	3858.56
962.108	3813.36
962.411	3776.75
962.714	3740.82
963.017	3761.61
963.32	3705.57
963.623	3708.96
963.926	3725.9
964.228	3696.08
964.531	3639.13
964.833	3643.42
965.136	3576.3
965.438	3605.46
965.741	3569.52
966.043	3618.56
966.345	3591.45
966.648	3569.52
966.95	3562.07
967.252	3506.48
967.554	3472.8
967.856	3486.36
968.158	3429.42
968.46	3423.99
968.761	3447.49
969.063	3430.32
969.365	3394.61
969.666	3404.56
969.968	3386.93
970.269	3373.82
970.571	3318.91
970.872	3315.75
971.174	3305.12
971.475	3311.45
971.776	3266.03
972.077	3281.62
972.378	3274.39
972.679	3280.72
972.98	3266.48
973.281	3217.67
973.582	3223.09
973.883	3209.08
974.183	3202.75
974.484	3194.39
974.785	3139.71
975.085	3120.5
975.386	3127.73
975.686	3089.31
975.986	3096.54
976.287	3050.89
976.587	3078.46
976.887	3055.41
977.187	3072.36
977.487	3025.36
977.787	3017
978.087	2990.56
978.387	2987.62
978.687	2975.42
978.987	2948.75
979.286	2926.38
979.586	2949.88
979.885	2944.46
980.185	2901.07
980.484	2878.24
980.784	2878.24
981.083	2869.88
981.382	2865.81
981.682	2888.19
981.981	2831.01
982.28	2821.97
982.579	2781.52
982.878	2820.39
983.177	2762.99
983.475	2752.15
983.774	2743.33
984.073	2769.09
984.372	2755.76
984.67	2730.45
984.969	2709.43
985.267	2688.87
985.566	2687.74
985.864	2667.85
986.162	2652.49
986.461	2656.1
986.759	2653.62
987.057	2606.84
987.355	2606.39
987.653	2619.72
987.951	2610.45
988.249	2620.17
988.547	2592.15
988.844	2579.49
989.142	2580.85
989.44	2538.14
989.737	2537.24
990.035	2520.29
990.332	2500.63
990.63	2465.82
990.927	2460.18
991.224	2488.88
991.521	2436.67
991.819	2450.23
992.116	2417.92
992.413	2426.28
992.71	2400.74
993.006	2403.23
993.303	2375.43
993.6	2384.25
993.897	2368.88
994.193	2374.75
994.49	2343.57
994.787	2333.85
995.083	2349.9
995.379	2333.85
995.676	2306.51
995.972	2313.51
996.268	2284.59
996.565	2261.76
996.861	2258.6
997.157	2259.05
997.453	2217.92
997.749	2227.87
998.044	2210.46
998.34	2194.42
998.636	2149.68
998.932	2190.8
999.227	2200.52
999.523	2149.9
999.818	2168.88
1000.114	2113.29
1000.409	2103.12
1000.704	2103.8
1001	2106.74
1001.295	2080.75
1001.59	2076
1001.885	2054.54
1002.18	2040.07
1002.475	2063.12
1002.77	2048.43
1003.065	1982
1003.359	2015.67
1003.654	2036.46
1003.949	1994.65
1004.243	1993.75
1004.538	1994.42
1004.832	1944.03
1005.127	1968.89
1005.421	1935.22
1005.715	1937.48
1006.009	1917.59
1006.304	1885.05
1006.598	1909.23
1006.892	1913.52
1007.186	1868.1
1007.48	1870.13
1007.773	1867.42
1008.067	1815.9
1008.361	1834.43
1008.655	1788.1
1008.948	1830.36
1009.242	1818.61
1009.535	1809.12
1009.829	1804.83
1010.122	1773.87
1010.415	1789.91
1010.708	1738.61
1011.001	1748.33
1011.295	1736.13
1011.588	1708.1
1011.881	1676.02
1012.173	1692.96
1012.466	1703.36
1012.759	1713.53
1013.052	1683.02
1013.344	1667.43
1013.637	1638.73
1013.93	1662.23
1014.222	1627.2
1014.514	1608.9
1014.807	1609.58
1015.099	1597.15
1015.391	1600.09
1015.683	1601.89
1015.976	1585.85
1016.268	1581.78
1016.56	1567.09
1016.851	1523.93
1017.143	1581.78
1017.435	1509.92
1017.727	1548.11
1018.018	1528.45
1018.31	1540.43
1018.602	1510.82
1018.893	1481.44
1019.185	1497.04
1019.476	1480.31
1019.767	1438.96
1020.058	1429.02
1020.35	1446.42
1020.641	1411.62
1020.932	1408.45
1021.223	1431.28
1021.514	1424.5
1021.804	1389.7
1022.095	1398.51
1022.386	1408
1022.677	1364.39
1022.967	1352.41
1023.258	1351.96
1023.548	1341.11
1023.839	1322.35
1024.129	1337.72
1024.419	1326.65
1024.709	1287.1
1025	1289.81
1025.29	1296.82
1025.58	1271.05
1025.87	1260.43
1026.16	1262.47
1026.449	1267.21
1026.739	1244.39
1027.029	1218.85
1027.319	1231.96
1027.608	1219.76
1027.898	1228.8
1028.187	1210.72
1028.477	1195.35
1028.766	1169.14
1029.055	1212.75
1029.344	1166.65
1029.634	1163.94
1029.923	1181.79
1030.212	1140.66
1030.501	1132.07
1030.79	1146.31
1031.078	1127.78
1031.367	1119.65
1031.656	1145.86
1031.945	1119.42
1032.233	1096.6
1032.522	1106.09
1032.81	1076.48
1033.099	1071.96
1033.387	1053.43
1033.675	1072.64
1033.963	1076.93
1034.251	1044.17
1034.54	1073.55
1034.828	1039.65
1035.116	1049.59
1035.403	1014.11
1035.691	1027.22
1035.979	1022.25
1036.267	1021.8
1036.554	1019.99
1036.842	1018.18
1037.129	996.94
1037.417	974.79
1037.704	984.28
1037.992	957.39
1038.279	983.83
1038.566	966.43
1038.853	966.43
1039.14	966.43
