Data from hue_330_FLMS001491_9.txt Node
Date: Mon Feb 06 15:44:49 GMT 2017
User: dcchb
Spectrometer: FLMS00149
Trigger mode: 0
Integration Time (sec): 2.000000E-2
Scans to average: 10
Electric dark correction enabled: true
Nonlinearity correction enabled: false
Boxcar width: 0
XAxis mode: Wavelengths
Number of Pixels in Spectrum: 2048
>>>>>Begin Spectral Data<<<<<
341.393	-12.8
341.776	-12.8
342.16	-12.8
342.543	-76.07
342.927	-57.54
343.31	-69.52
343.693	-69.29
344.077	-56.64
344.46	-48.5
344.843	-46.92
345.226	-54.15
345.61	-43.53
345.993	-36.52
346.376	10.71
346.759	1.21
347.142	30.14
347.525	43.93
347.908	62.91
348.291	85.96
348.674	94.09
349.057	96.13
349.44	134.77
349.823	165.73
350.206	165.28
350.588	178.84
350.971	198.5
351.354	210.7
351.737	237.14
352.119	243.24
352.502	247.76
352.884	267.87
353.267	279.63
353.65	292.73
354.032	321.43
354.414	302.45
354.797	310.36
355.179	321.43
355.562	325.27
355.944	300.42
356.326	320.3
356.709	326.63
357.091	336.8
357.473	342.45
357.855	335.9
358.238	332.96
358.62	325.5
359.002	327.99
359.384	340.64
359.766	342.45
360.148	327.31
360.53	325.05
360.912	334.54
361.294	320.98
361.676	334.31
362.057	319.85
362.439	342.9
362.821	316.23
363.203	327.76
363.584	355.33
363.966	318.04
364.348	315.1
364.729	324.82
365.111	322.79
365.493	305.39
365.874	305.16
366.256	309.46
366.637	341.54
367.019	303.58
367.4	301.77
367.781	284.82
368.163	292.28
368.544	294.54
368.925	312.17
369.306	311.26
369.688	316.01
370.069	325.27
370.45	317.14
370.831	305.84
371.212	285.27
371.593	319.85
371.974	300.87
372.355	321.88
372.736	326.4
373.117	318.49
373.498	313.52
373.879	323.92
374.26	313.07
374.641	308.55
375.021	306.97
375.402	319.4
375.783	321.43
376.163	324.37
376.544	306.07
376.925	309.68
377.305	315.33
377.686	294.31
378.066	331.6
378.447	342.67
378.827	324.6
379.208	321.66
379.588	346.97
379.968	322.79
380.349	319.17
380.729	329.57
381.109	334.31
381.489	348.55
381.87	335.67
382.25	339.74
382.63	332.73
383.01	356.23
383.39	339.28
383.77	341.77
384.15	327.08
384.53	355.56
384.91	358.27
385.29	331.83
385.67	354.88
386.049	343.13
386.429	340.19
386.809	332.05
387.189	343.13
387.568	366.63
387.948	362.79
388.328	354.88
388.707	363.24
389.087	359.62
389.466	341.54
389.846	352.17
390.225	366.4
390.605	357.59
390.984	348.55
391.363	365.5
391.743	344.93
392.122	340.87
392.501	361.43
392.881	357.14
393.26	368.21
393.639	370.47
394.018	371.37
394.397	387.19
394.776	367.31
395.155	366.85
395.534	380.19
395.913	379.51
396.292	371.6
396.671	360.75
397.05	391.71
397.429	400.98
397.808	371.37
398.186	388.1
398.565	388.78
398.944	405.27
399.323	400.98
399.701	400.53
400.08	419.96
400.458	401.43
400.837	422.22
401.215	414.99
401.594	420.64
401.972	414.54
402.351	415.22
402.729	401.43
403.107	415.44
403.486	415.44
403.864	409.34
404.242	401.43
404.62	425.16
404.999	416.8
405.377	421.32
405.755	424.93
406.133	436.91
406.511	441.66
406.889	443.01
407.267	436.68
407.645	415.67
408.023	441.66
408.401	448.66
408.779	454.31
409.156	466.51
409.534	467.42
409.912	489.34
410.29	465.61
410.667	469.45
411.045	491.6
411.422	487.3
411.8	491.6
412.178	514.2
412.555	498.6
412.933	472.61
413.31	506.51
413.687	538.83
414.065	501.99
414.442	521.43
414.819	519.85
415.197	537.47
415.574	536.34
415.951	545.38
416.328	543.8
416.705	524.59
417.082	569.34
417.46	561.88
417.837	580.63
418.214	578.37
418.591	588.54
418.967	586.06
419.344	614.31
419.721	624.25
420.098	608.43
420.475	594.42
420.852	631.93
421.228	617.47
421.605	624.7
421.982	654.98
422.358	638.71
422.735	655.43
423.111	673.06
423.488	652.95
423.864	662.21
424.241	669.67
424.617	686.17
424.994	701.08
425.37	705.6
425.746	689.33
426.123	702.89
426.499	716.45
426.875	722.33
427.251	733.17
427.627	732.49
428.003	735.43
428.379	759.16
428.756	730.01
429.132	758.93
429.507	763
429.883	760.29
430.259	788.31
430.635	763.91
431.011	770.69
431.387	812.72
431.763	816.56
432.138	819.5
432.514	845.03
432.89	852.27
433.265	846.16
433.641	826.05
434.016	849.78
434.392	880.06
434.767	885.94
435.143	871.47
435.518	899.04
435.894	901.08
436.269	909.44
436.644	879.84
437.02	928.2
437.395	915.77
437.77	952.15
438.145	951.92
438.52	931.13
438.895	957.35
439.271	978.14
439.646	989.44
440.021	1010.91
440.395	996.67
440.77	998.25
441.145	986.73
441.52	1007.52
441.895	999.38
442.27	1036.22
442.645	1032.37
443.019	1029.44
443.394	1046.84
443.769	1035.09
444.143	1020.85
444.518	1057.23
444.892	1067.85
445.267	1047.29
445.641	1064.46
446.016	1083.9
446.39	1047.97
446.764	1078.93
447.139	1090.45
447.513	1084.8
447.887	1076.67
448.262	1101.75
448.636	1126.83
449.01	1106.72
449.384	1142.88
449.758	1109.21
450.132	1133.39
450.506	1146.04
450.88	1144.01
451.254	1129.77
451.628	1137.91
452.002	1157.12
452.376	1117.8
452.75	1161.64
453.123	1127.51
453.497	1200.28
453.871	1191.47
454.244	1210.67
454.618	1205.7
454.992	1214.97
455.365	1233.72
455.739	1255.42
456.112	1255.19
456.486	1254.74
456.859	1271.01
457.232	1297
457.606	1264.68
457.979	1288.64
458.352	1286.38
458.725	1318.92
459.099	1323.44
459.472	1355.53
459.845	1361.86
460.218	1364.57
460.591	1371.57
460.964	1359.37
461.337	1360.73
461.71	1409.09
462.083	1435.53
462.456	1449.99
462.829	1419.26
463.201	1460.39
463.574	1459.48
463.947	1440.05
464.32	1493.38
464.692	1528.86
465.065	1496.32
465.438	1545.58
465.81	1512.81
466.183	1531.34
466.555	1547.84
466.928	1575.18
467.3	1553.49
467.672	1606.82
468.045	1605.47
468.417	1633.49
468.789	1643.66
469.161	1683.88
469.534	1672.58
469.906	1704.9
470.278	1720.04
470.65	1729.53
471.022	1717.78
471.394	1751.45
471.766	1786.25
472.138	1781.73
472.51	1844.1
472.882	1843.88
473.253	1834.84
473.625	1887.72
473.997	1908.06
474.369	1911.67
474.74	1927.72
475.112	1943.99
475.484	1983.76
475.855	2043.19
476.227	2048.84
476.598	2082.74
476.97	2066.7
477.341	2132.68
477.713	2153.47
478.084	2177.43
478.455	2187.6
478.827	2205.68
479.198	2264.21
479.569	2277.76
479.94	2316.63
480.311	2360.47
480.682	2371.1
481.053	2403.41
481.424	2431.89
481.795	2473.01
482.166	2487.7
482.537	2505.78
482.908	2562.96
483.279	2599.56
483.65	2636.17
484.021	2650.18
484.391	2692.9
484.762	2706
485.133	2716.4
485.503	2770.86
485.874	2814.25
486.244	2819.45
486.615	2863.96
486.985	2908.26
487.356	2948.26
487.726	2992.77
488.097	3023.96
488.467	3028.71
488.837	3039.78
489.207	3130.4
489.578	3145.76
489.948	3171.3
490.318	3170.85
490.688	3201.58
491.058	3245.2
491.428	3266.21
491.798	3284.29
492.168	3359.54
492.538	3351.64
492.908	3385.53
493.278	3414.01
493.648	3468.69
494.017	3451.97
494.387	3488.35
494.757	3539.88
495.126	3571.06
495.496	3571.06
495.866	3583.27
496.235	3622.14
496.605	3627.56
496.974	3698.07
497.344	3678.41
497.713	3717.5
498.082	3746.43
498.452	3769.7
498.821	3768.8
499.19	3818.52
499.559	3790.27
499.928	3830.49
500.298	3826.42
500.667	3908.23
501.036	3901.45
501.405	3914.78
501.774	3903.26
502.143	3917.27
502.512	3935.57
502.88	4004.73
503.249	3988.45
503.618	3988.23
503.987	4008.11
504.356	4031.17
504.724	4058.28
505.093	4048.34
505.462	4111.84
505.83	4090.37
506.199	4137.38
506.567	4168.56
506.936	4161.11
507.304	4225.74
507.672	4168.34
508.041	4185.06
508.409	4218.5
508.777	4255.79
509.145	4280.65
509.514	4264.15
509.882	4282.91
510.25	4297.37
510.618	4321.33
510.986	4346.41
511.354	4330.14
511.722	4416.47
512.09	4421.89
512.458	4401.1
512.826	4435.22
513.193	4448.78
513.561	4402
513.929	4431.15
514.297	4508.44
514.664	4461.21
515.032	4492.4
515.4	4545.28
515.767	4524.94
516.135	4574.43
516.502	4526.97
516.869	4589.12
517.237	4608.1
517.604	4625.95
517.972	4594.77
518.339	4604.26
518.706	4626.18
519.073	4616.23
519.44	4674.09
519.808	4656.91
520.175	4676.12
520.542	4781.88
520.909	4745.95
521.276	4733.75
521.643	4769.68
522.009	4833.86
522.376	4852.39
522.743	4870.47
523.11	4863.01
523.477	4949.79
523.843	4961.76
524.21	4952.95
524.577	5011.25
524.943	4937.36
525.31	4988.2
525.676	5012.83
526.043	5079.5
526.409	5087.63
526.776	5121.98
527.142	5177.58
527.508	5114.75
527.874	5200.85
528.241	5278.36
528.607	5267.06
528.973	5267.74
529.339	5281.98
529.705	5323.33
530.071	5316.33
530.437	5369.21
530.803	5438.13
531.169	5445.14
531.535	5444.69
531.901	5425.48
532.267	5425.03
532.632	5488.3
532.998	5526.72
533.364	5550.22
533.73	5508.87
534.095	5561.75
534.461	5651.01
534.826	5645.81
535.192	5609.43
535.557	5702.99
535.923	5686.49
536.288	5693.04
536.653	5742.31
537.019	5720.16
537.384	5772.14
537.749	5827.05
538.114	5825.24
538.479	5880.16
538.845	5887.39
539.21	5854.39
539.575	5906.37
539.94	5937.56
540.305	5980.72
540.67	5956.76
541.034	5983.66
541.399	6006.71
541.764	6015.97
542.129	6117.66
542.494	6087.61
542.858	6161.28
543.223	6083.31
543.587	6189.3
543.952	6185.23
544.316	6152.69
544.681	6220.94
545.045	6271.33
545.41	6268.85
545.774	6328.73
546.138	6291.67
546.503	6375.96
546.867	6391.1
547.231	6458.45
547.595	6438.79
547.959	6473.59
548.324	6496.86
548.688	6494.15
549.052	6502.06
549.416	6507.71
549.779	6550.87
550.143	6592.23
550.507	6626.8
550.871	6618.44
551.235	6583.87
551.599	6639.46
551.962	6716.29
552.326	6715.16
552.689	6793.58
553.053	6686.69
553.417	6777.31
553.78	6773.47
554.143	6751.55
554.507	6826.12
554.87	6801.26
555.234	6968.94
555.597	6873.58
555.96	6907.25
556.323	6909.73
556.686	6955.16
557.05	6977.08
557.413	7003.74
557.776	6941.15
558.139	7060.92
558.502	7071.31
558.865	7064.08
559.228	7048.71
559.59	7119.45
559.953	7133.23
560.316	7154.92
560.679	7244.64
561.041	7336.16
561.404	7327.12
561.767	7270.18
562.129	7257.52
562.492	7387.01
562.854	7321.25
563.217	7344.52
563.579	7379.33
563.941	7391.3
564.304	7489.15
564.666	7520.56
565.028	7533.67
565.39	7482.83
565.753	7503.16
566.115	7563.5
566.477	7552.2
566.839	7688.02
567.201	7653.67
567.563	7610.05
567.925	7746.77
568.287	7757.62
568.648	7742.25
569.01	7799.2
569.372	7867
569.734	7850.5
570.095	7851.18
570.457	7933.66
570.819	7984.51
571.18	7906.09
571.542	8043.26
571.903	8124.62
572.265	8091.62
572.626	8182.69
572.987	8190.15
573.349	8256.59
573.71	8317.83
574.071	8351.96
574.432	8389.69
574.794	8516.47
575.155	8479.18
575.516	8534.1
575.877	8545.85
576.238	8660.2
576.599	8633.76
576.96	8751.49
577.32	8800.31
577.681	8959.17
578.042	8944.93
578.403	9083.91
578.763	9190.13
579.124	9196
579.485	9337.92
579.845	9486.84
580.206	9515.09
580.566	9666.95
580.927	9797.79
581.287	9868.3
581.648	9939.26
582.008	10176.54
582.368	10237.33
582.728	10413.14
583.089	10542.86
583.449	10672.57
583.809	10831.44
584.169	11024.65
584.529	11185.55
584.889	11457.41
585.249	11523.85
585.609	11691.53
585.969	12022.82
586.329	12142.36
586.688	12296.71
587.048	12555.01
587.408	12781.22
587.768	12899.86
588.127	13206.52
588.487	13416.68
588.846	13695.09
589.206	13815.09
589.565	14089.43
589.925	14458.46
590.284	14701.85
590.643	14923.31
591.003	15194.04
591.362	15508.38
591.721	15686.68
592.08	15978.42
592.44	16285.31
592.799	16646.43
593.158	16798.97
593.517	17063.36
593.876	17428.78
594.235	17645.5
594.593	17916
594.952	18284.12
595.311	18465.81
595.67	18936.76
596.029	19220.14
596.387	19576.52
596.746	19854.25
597.104	19950.52
597.463	20279.55
597.822	20663.5
598.18	20804.51
598.538	21149.81
598.897	21571.72
599.255	21693.3
599.613	22247.64
599.972	22413.28
600.33	22721.75
600.688	22914.51
601.046	23360.6
601.404	23625.9
601.762	23878.78
602.12	24277.86
602.478	24365.77
602.836	24762.15
603.194	24817.51
603.552	25272.87
603.91	25416.37
604.268	25763.25
604.625	25897.71
604.983	26348.77
605.341	26442.55
605.698	26841.64
606.056	27092.48
606.413	27287.73
606.771	27645.69
607.128	27732.91
607.485	27944.21
607.843	28229.4
608.2	28557.3
608.557	28810.4
608.914	28956.61
609.272	29170.17
609.629	29477.95
609.986	29829.13
610.343	29854.67
610.7	30320.87
611.057	30343.69
611.414	30561.54
611.771	30679.73
612.127	30954.98
612.484	31186.84
612.841	31275.65
613.198	31380.5
613.554	31738.23
613.911	31955.63
614.267	32130.31
614.624	32195.4
614.98	32300.25
615.337	32714.93
615.693	32751.99
616.05	32887.36
616.406	33235.6
616.762	33216.39
617.118	33388.59
617.475	33451.86
617.831	33803.26
618.187	33951.51
618.543	34033.99
618.899	34244.38
619.255	34437.15
619.611	34539.74
619.967	34744.26
620.323	35034.87
620.678	35000.07
621.034	35000.97
621.39	35021.99
621.746	35205.26
622.101	35647.06
622.457	35385.6
622.812	35600.28
623.168	35798.69
623.523	35821.74
623.879	35976.54
624.234	35802.99
624.589	36035.52
624.945	36060.61
625.3	36243.43
625.655	36313.93
626.01	36460.37
626.365	36585.34
626.72	36541.95
627.075	36521.38
627.43	36517.09
627.785	36544.21
628.14	36739.68
628.495	36869.85
628.85	36812.68
629.205	36948.94
629.559	37025.55
629.914	36887.93
630.269	37116.62
630.623	37021.03
630.978	37089.96
631.332	37298.09
631.687	37318.2
632.041	37277.52
632.396	37353.23
632.75	37176.06
633.104	37377.41
633.459	37136.28
633.813	37331.31
634.167	37325.43
634.521	37309.61
634.875	37428.71
635.229	37317.52
635.583	37275.04
635.937	37406.56
636.291	37416.73
636.645	37286.34
636.999	37299.44
637.352	37417.18
637.706	37219.22
638.06	37457.18
638.413	37292.21
638.767	37249.27
639.121	37333.57
639.474	37097.64
639.828	37254.7
640.181	37345.09
640.534	37287.01
640.888	37230.29
641.241	37023.29
641.594	37218.77
641.947	37355.03
642.301	37215.6
642.654	37158.66
643.007	37245.43
643.36	37170.86
643.713	37174.7
644.066	37386.9
644.419	37050.86
644.771	36861.49
645.124	36489.97
645.477	36462.63
645.83	36336.76
646.182	36096.08
646.535	36231.22
646.888	36153.03
647.24	36017.89
647.593	36173.6
647.945	36269.64
648.298	35981.96
648.65	36066.03
649.002	35814.74
649.355	36107.16
649.707	36052.02
650.059	36264.22
650.411	36594.83
650.763	36676.86
651.115	36994.37
651.467	36922.73
651.819	36878.66
652.171	36795.73
652.523	36854.71
652.875	36788.5
653.227	36572.46
653.578	36782.39
653.93	36890.19
654.282	36540.14
654.633	36510.99
654.985	36644.09
655.337	36617.65
655.688	36674.37
656.039	36797.99
656.391	36405
656.742	36588.28
657.094	36626.01
657.445	36554.15
657.796	36722.06
658.147	36543.3
658.498	36560.71
658.849	36636.64
659.2	36596.41
659.551	36567.03
659.902	36590.08
660.253	36619.01
660.604	36626.69
660.955	36502.18
661.306	36520.25
661.656	36381.5
662.007	36553.02
662.358	36494.27
662.708	36465.34
663.059	36407.94
663.409	36180.15
663.76	36546.69
664.11	36390.31
664.461	36557.54
664.811	36548.05
665.161	36503.08
665.511	36539.24
665.862	36506.7
666.212	36523.64
666.562	36560.03
666.912	36495.17
667.262	36509.41
667.612	36465.11
667.962	36392.8
668.312	36319.58
668.662	36406.59
669.011	36602.29
669.361	36249.3
669.711	36337.43
670.06	36235.29
670.41	36198.68
670.76	36117.55
671.109	36335.4
671.459	36264.89
671.808	36262.63
672.157	36396.87
672.507	36093.6
672.856	36219.47
673.205	36060.38
673.554	36214.5
673.904	36153.03
674.253	36227.38
674.602	36108.74
674.951	35701.97
675.3	35441.86
675.649	36021.06
675.998	36030.78
676.346	35988.52
676.695	36048.18
677.044	35857
677.393	36061.06
677.741	36043.43
678.09	35889.76
678.438	35875.98
678.787	35824.45
679.135	35955.98
679.484	35667.85
679.832	35840.95
680.181	35616.32
680.529	35705.13
680.877	35706.94
681.225	35583.56
681.573	35844.57
681.922	35663.55
682.27	35334.75
682.618	35547.17
682.966	35341.53
683.314	35552.14
683.661	35386.95
684.009	35218.37
684.357	35077.58
684.705	35021.31
685.053	35170.01
685.4	35043.46
685.748	34898.38
686.095	34915.1
686.443	34682.79
686.79	34730.25
687.138	34851.82
687.485	34910.58
687.832	34638.04
688.18	34684.6
688.527	34319.41
688.874	34340.65
689.221	34408.9
689.568	34338.62
689.915	34356.02
690.262	34311.05
690.609	34161.67
690.956	34105.4
691.303	34023.82
691.65	33925.29
691.997	33900.21
692.344	33741.57
692.69	33612.76
693.037	33741.8
693.383	33486.21
693.73	33558.98
694.077	33399.88
694.423	33379.09
694.769	33335.71
695.116	33171.19
695.462	33010.74
695.808	32916.28
696.155	33008.03
696.501	32871.08
696.847	32769.39
697.193	32694.14
697.539	32715.16
697.885	32510.64
698.231	32370.08
698.577	32457.76
698.923	32336.64
699.269	32101.39
699.614	32154.72
699.96	31985.46
700.306	32059.13
700.651	31940.26
700.997	31876.31
701.342	31820.72
701.688	31702.98
702.033	31610.1
702.379	31590.21
702.724	31479.03
703.069	31577.56
703.415	31316.32
703.76	31211.47
704.105	31146.84
704.45	31162.2
704.795	31081.08
705.14	30934.86
705.485	30886.73
705.83	30773.06
706.175	30832.95
706.52	30645.15
706.865	30625.95
707.209	30529.68
707.554	30391.15
707.899	30525.16
708.243	30353.41
708.588	30200.19
708.932	29959.75
709.277	30098.28
709.621	30123.59
709.966	29965.4
710.31	30067.77
710.654	29806.76
710.998	29752.07
711.342	29800.43
711.687	29482.7
712.031	29569.02
712.375	29350.5
712.719	29477.73
713.063	29393.89
713.407	29602.24
713.75	29408.35
714.094	29336.49
714.438	29182.37
714.782	29134.69
715.125	29122.93
715.469	29125.65
715.812	28910.96
716.156	28880
716.499	28912.77
716.843	28794.58
717.186	28727.69
717.53	28843.39
717.873	28820.34
718.216	28584.19
718.559	28610.86
718.902	28323.63
719.246	28429.17
719.589	28514.59
719.932	28237.31
720.275	28196.86
720.617	28270.3
720.96	28124.54
721.303	28310.98
721.646	28194.15
721.989	27941.5
722.331	28085.45
722.674	27990.99
723.016	28029.86
723.359	27867.83
723.701	28011.78
724.044	27710.54
724.386	27726.14
724.729	27817.21
725.071	27677.78
725.413	27604.33
725.755	27611.79
726.097	27495.18
726.439	27403.21
726.782	27451.57
727.124	27509.42
727.465	27295.19
727.807	27193.04
728.149	27227.62
728.491	27190.56
728.833	27258.8
729.175	27153.04
729.516	27116.21
729.858	27132.48
730.199	27120.5
730.541	27018.36
730.882	26969.55
731.224	27017.23
731.565	26879.15
731.906	26898.13
732.248	26879.6
732.589	26617.92
732.93	26718.25
733.271	26742.21
733.612	26644.36
733.953	26655.66
734.294	26601.65
734.635	26518.03
734.976	26536.79
735.317	26488.88
735.658	26360.75
735.999	26338.15
736.339	26353.52
736.68	26392.61
737.021	26278.04
737.361	26155.56
737.702	26227.64
738.042	26118.95
738.383	26167.76
738.723	26168.66
739.063	26154.88
739.404	26079.4
739.744	25902
740.084	25791.5
740.424	25916.69
740.764	25856.13
741.104	25897.48
741.444	25856.35
741.784	25699.75
742.124	25696.36
742.464	25661.78
742.804	25641.67
743.143	25589.02
743.483	25582.46
743.823	25477.15
744.162	25468.57
744.502	25537.94
744.841	25376.14
745.181	25409.13
745.52	25271.28
745.86	25340.44
746.199	25296.82
746.538	25191.06
746.877	25320.77
747.216	25259.08
747.556	25236.94
747.895	25145.64
748.234	25045.53
748.573	25014.79
748.911	25004.85
749.25	24935.02
749.589	24827.91
749.928	24831.75
750.267	24790.17
750.605	24783.39
750.944	24771.64
751.283	24707.68
751.621	24640.11
751.96	24688.02
752.298	24572.32
752.636	24575.48
752.975	24416.62
753.313	24393.57
753.651	24515.37
753.989	24344.98
754.327	24283.51
754.666	24055.72
755.004	24263.63
755.342	24145.21
755.679	24225.21
756.017	23893.47
756.355	23981.15
756.693	23916.52
757.031	23992.9
757.368	23795.17
757.706	23829.29
758.044	23736.18
758.381	23731.44
758.719	23664.77
759.056	23654.15
759.394	23608.5
759.731	23406.7
760.068	23352.24
760.405	23219.14
760.743	23194.73
761.08	23260.04
761.417	23121.06
761.754	23127.39
762.091	23087.39
762.428	22941.4
762.765	22860.5
763.102	22805.81
763.438	22740.28
763.775	22658.47
764.112	22663.9
764.449	22659.83
764.785	22508.19
765.122	22312.72
765.458	22263
765.795	22168.54
766.131	22226.84
766.467	22188.65
766.804	22025.27
767.14	21932.16
767.476	22094.87
767.812	21822.11
768.148	21790.25
768.485	21632.96
768.821	21638.84
769.157	21591.83
769.492	21516.36
769.828	21436.13
770.164	21235.46
770.5	21254.22
770.836	21297.15
771.171	21112.75
771.507	21041.79
771.842	20889.93
772.178	20828.69
772.513	20889.93
772.849	20850.61
773.184	20772.65
773.519	20776.49
773.855	20598.64
774.19	20501.69
774.525	20448.81
774.86	20397.06
775.195	20357.29
775.53	20160.91
775.865	20098.99
776.2	19952.78
776.535	19811.54
776.87	19974.7
777.205	19758.89
777.539	19744.42
777.874	19792.11
778.209	19558.67
778.543	19525.22
778.878	19457.65
779.212	19460.36
779.547	19351.67
779.881	19410.2
780.215	19233.48
780.55	19191.44
780.884	19118.68
781.218	19048.85
781.552	19132.01
781.886	18894.5
782.22	18801.85
782.554	18748.74
782.888	18654.51
783.222	18612.7
783.556	18420.84
783.889	18474.18
784.223	18273.5
784.557	18217.46
784.89	18278.25
785.224	18096.33
785.557	18031.7
785.891	18004.13
786.224	17978.37
786.558	17937.92
786.891	17766.4
787.224	17755.1
787.557	17768.66
787.891	17675.78
788.224	17624.03
788.557	17611.6
788.89	17627.87
789.223	17567.98
789.556	17395.11
789.888	17311.27
790.221	17270.14
790.554	17198.05
790.887	17083.25
791.219	17152.18
791.552	17109.92
791.884	17007.1
792.217	16924.16
792.549	16850.72
792.882	16805.07
793.214	16740.66
793.546	16674.45
793.879	16501.12
794.211	16514
794.543	16560.1
794.875	16553.55
795.207	16497.05
795.539	16390.16
795.871	16340.67
796.203	16240.11
796.535	16164.18
796.867	16097.74
797.198	16047.8
797.53	16028.14
797.862	15948.14
798.193	16017.52
798.525	15960.34
798.856	15883.51
799.188	15716.96
799.519	15676.28
799.85	15623.85
800.182	15604.65
800.513	15585.66
800.844	15446.91
801.175	15528.94
801.506	15518.09
801.837	15429.74
802.168	15307.25
802.499	15351.77
802.83	15300.93
803.161	15151.32
803.491	15219.8
803.822	15118.78
804.153	15097.31
804.483	15003.31
804.814	14962.86
805.145	14896.87
805.475	14841.73
805.805	14786.59
806.136	14843.99
806.466	14877.43
806.796	14698.68
807.126	14578.01
807.457	14526.48
807.787	14577.1
808.117	14482.64
808.447	14446.94
808.777	14484.45
809.107	14435.41
809.436	14354.74
809.766	14434.06
810.096	14304.79
810.426	14214.85
810.755	14241.52
811.085	14180.05
811.414	14154.06
811.744	13969.43
812.073	14118.58
812.403	14009.43
812.732	13931.24
813.061	13978.02
813.39	13874.07
813.719	13795.43
814.049	13965.59
814.378	13811.02
814.707	13801.08
815.036	13770.12
815.365	13700.97
815.693	13671.59
816.022	13537.36
816.351	13596.79
816.68	13493.52
817.008	13587.75
817.337	13408.55
817.665	13398.83
817.994	13430.69
818.322	13397.7
818.651	13258.27
818.979	13305.5
819.307	13316.34
819.636	13297.36
819.964	13183.69
820.292	13256.23
820.62	13208.55
820.948	13131.72
821.276	13222.56
821.604	13149.34
821.932	13214.88
822.259	13238.38
822.587	13186.4
822.915	13143.02
823.243	13164.03
823.57	13190.47
823.898	13089.46
824.225	13074.77
824.553	13039.06
824.88	13093.75
825.207	13092.4
825.535	13043.36
825.862	13196.12
826.189	13072.28
826.516	13114.77
826.843	13133.52
827.17	13152.51
827.497	13160.87
827.824	13083.81
828.151	13216.01
828.478	13082.45
828.805	13085.84
829.131	13028.89
829.458	12969.24
829.785	13013.98
830.111	13023.92
830.438	13061.21
830.764	13077.71
831.09	13067.09
831.417	12955.9
831.743	13084.03
832.069	13001.1
832.395	12998.61
832.722	12983.02
833.048	12979.4
833.374	12979.86
833.7	12915.45
834.026	13000.65
834.351	12926.07
834.677	12984.15
835.003	12912.29
835.329	12904.38
835.654	12794.55
835.98	12807.66
836.306	12863.93
836.631	12774.66
836.956	12797.04
837.282	12800.2
837.607	12727.21
837.932	12714.78
838.258	12731.73
838.583	12675.91
838.908	12632.07
839.233	12608.57
839.558	12542.81
839.883	12561.79
840.208	12478.4
840.533	12525.18
840.858	12568.57
841.182	12473.88
841.507	12453.99
841.832	12486.54
842.156	12406.31
842.481	12425.07
842.805	12338.52
843.13	12411.28
843.454	12291.51
843.778	12289.48
844.103	12252.64
844.427	12141.23
844.751	12224.85
845.075	12289.48
845.399	12138.75
845.723	12034.34
846.047	12190.95
846.371	12005.42
846.695	11978.75
847.019	11964.29
847.343	11875.03
847.666	11855.14
847.99	11676.16
848.313	11674.35
848.637	11676.84
848.96	11637.97
849.284	11666.44
849.607	11513.91
849.931	11547.13
850.254	11409.5
850.577	11356.85
850.9	11267.81
851.223	11272.1
851.546	11293.12
851.869	11136.52
852.192	11238.43
852.515	11102.39
852.838	11066.23
853.161	11011.77
853.483	10965.22
853.806	10995.5
854.129	10913.92
854.451	10835.28
854.774	10868.73
855.096	10814.49
855.419	10766.81
855.741	10694.72
856.063	10661.73
856.385	10628.28
856.708	10662.63
857.03	10580.15
857.352	10590.31
857.674	10545.12
857.996	10494.27
858.318	10498.79
858.64	10435.52
858.961	10301.51
859.283	10409.98
859.605	10334.28
859.926	10408.62
860.248	10262.19
860.57	10245.47
860.891	10318.68
861.212	10234.62
861.534	10233.71
861.855	10141.96
862.176	10191
862.498	10175.41
862.819	10155.3
863.14	10095.19
863.461	10080.05
863.782	10034.62
864.103	10066.49
864.424	9993.04
864.745	10025.13
865.065	9938.35
865.386	9957.56
865.707	9946.26
866.027	10017.67
866.348	9933.61
866.668	9927.96
866.989	9870.56
867.309	9782.43
867.63	9858.58
867.95	9803.67
868.27	9809.54
868.59	9799.6
868.91	9795.08
869.23	9723.44
869.55	9737.68
869.87	9749.66
870.19	9673.95
870.51	9692.49
870.83	9755.31
871.15	9673.28
871.469	9618.14
871.789	9576.78
872.109	9663.79
872.428	9612.26
872.748	9631.24
873.067	9584.24
873.386	9596.67
873.706	9575.2
874.025	9435.99
874.344	9507.86
874.663	9524.58
874.982	9557.8
875.301	9430.35
875.62	9402.55
875.939	9380.63
876.258	9444.13
876.577	9339.95
876.896	9327.52
877.214	9386.73
877.533	9303.79
877.852	9276.9
878.17	9367.75
878.489	9332.49
878.807	9241.88
879.125	9331.36
879.444	9282.1
879.762	9248.43
880.08	9262.21
880.398	9231.25
880.716	9230.12
881.034	9135.66
881.352	9186.96
881.67	9147.41
881.988	9172.95
882.306	9128.66
882.624	9060.19
882.941	9030.81
883.259	8999.85
883.577	8961.43
883.894	8988.1
884.212	8967.53
884.529	8968.44
884.846	8943.13
885.164	8898.38
885.481	8935.67
885.798	8893.18
886.115	8848.89
886.432	8864.26
886.75	8826.75
887.067	8793.53
887.383	8789.68
887.7	8790.14
888.017	8681.44
888.334	8684.6
888.651	8650.25
888.967	8642.34
889.284	8583.81
889.6	8607.77
889.917	8546.07
890.233	8572.97
890.55	8503.59
890.866	8499.97
891.182	8438.51
891.498	8475.12
891.815	8390.6
892.131	8404.38
892.447	8394.21
892.763	8324.16
893.079	8355.35
893.395	8368.68
893.71	8265.18
894.026	8306.98
894.342	8220.89
894.657	8239.87
894.973	8167.1
895.289	8164.62
895.604	8161
895.92	8189.93
896.235	8081.68
896.55	8116.03
896.865	8069.93
897.181	8077.16
897.496	7973.43
897.811	7982.7
898.126	7887.11
898.441	7856.15
898.756	7893.66
899.071	7868.58
899.386	7815.92
899.7	7801.46
900.015	7728.02
900.33	7691.41
900.644	7693.67
900.959	7704.29
901.273	7681.24
901.588	7614.8
901.902	7503.84
902.216	7539.1
902.531	7599.66
902.845	7478.08
903.159	7458.65
903.473	7453.67
903.787	7461.36
904.101	7388.82
904.415	7347.01
904.729	7372.09
905.042	7286.45
905.356	7255.26
905.67	7252.78
905.984	7173.23
906.297	7219.78
906.611	7204.87
906.924	7185.43
907.237	7097.07
907.551	7089.39
907.864	7065.89
908.177	7055.04
908.491	7026.11
908.804	7022.5
909.117	6941.6
909.43	6938.89
909.743	6921.94
910.056	6893.01
910.368	6854.14
910.681	6834.71
910.994	6814.59
911.307	6788.15
911.619	6738.66
911.932	6687.14
912.244	6640.81
912.557	6664.32
912.869	6635.62
913.181	6602.62
913.494	6638.55
913.806	6554.49
914.118	6500.48
914.43	6485.11
914.742	6464.77
915.054	6450.54
915.366	6432.91
915.678	6393.14
915.99	6357.88
916.302	6332.12
916.613	6318.79
916.925	6287.15
917.236	6287.15
917.548	6201.96
917.859	6218.45
918.171	6225.01
918.482	6220.26
918.794	6137.78
919.105	6159.92
919.416	6086.93
919.727	6094.39
920.038	6074.28
920.349	6032.47
920.66	6013.26
920.971	5934.39
921.282	5949.08
921.593	5847.39
921.903	5848.74
922.214	5821.17
922.525	5822.98
922.835	5809.65
923.146	5782.08
923.456	5768.29
923.767	5751.12
924.077	5738.92
924.387	5746.15
924.697	5654.63
925.008	5689.65
925.318	5607.39
925.628	5614.63
925.938	5594.06
926.248	5552.03
926.558	5532.59
926.867	5540.5
927.177	5551.35
927.487	5447.85
927.796	5422.09
928.106	5430.68
928.416	5404.24
928.725	5350.68
929.034	5348.64
929.344	5270.91
929.653	5313.17
929.962	5250.34
930.271	5240.17
930.581	5146.39
930.89	5211.93
931.199	5204.02
931.508	5137.35
931.817	5107.75
932.125	5165.6
932.434	5106.17
932.743	5031.59
933.051	5036.56
933.36	5062.32
933.669	5004.02
933.977	5004.02
934.286	4998.6
934.594	4930.58
934.902	4917.02
935.21	4916.34
935.519	4879.5
935.827	4895.1
936.135	4844.7
936.443	4810.35
936.751	4761.77
937.059	4830.69
937.367	4760.19
937.674	4754.31
937.982	4732.16
938.29	4752.95
938.597	4737.36
938.905	4618.27
939.213	4667.08
939.52	4590.47
939.827	4628.89
940.135	4570.81
940.442	4578.5
940.749	4549.12
941.056	4554.54
941.363	4441.32
941.67	4484.26
941.977	4475.9
942.284	4449.23
942.591	4454.43
942.898	4409.69
943.205	4439.29
943.511	4385.96
943.818	4354.77
944.125	4314.55
944.431	4344.6
944.738	4331.72
945.044	4287.43
945.35	4304.38
945.657	4203.82
945.963	4264.83
946.269	4223.7
946.575	4202.69
946.881	4212.86
947.187	4191.84
947.493	4152.52
947.799	4122.91
948.105	4110.03
948.41	4087.43
948.716	4075.46
949.022	4070.71
949.327	4059.64
949.633	4023.71
949.938	4001.34
950.244	4010.15
950.549	3939.64
950.854	3911.85
951.16	3949.59
951.465	3894.67
951.77	3887.89
952.075	3841.34
952.38	3868.01
952.685	3871.62
952.99	3837.5
953.294	3788.69
953.599	3791.17
953.904	3807.22
954.209	3754.56
954.513	3745.97
954.818	3741.46
955.122	3776.26
955.426	3707.56
955.731	3642.47
956.035	3659.88
956.339	3618.75
956.643	3642.25
956.948	3635.92
957.252	3594.57
957.556	3611.74
957.86	3604.96
958.163	3563.15
958.467	3564.74
958.771	3536.49
959.075	3532.2
959.378	3463.04
959.682	3498.07
959.985	3504.85
960.289	3453.1
960.592	3474.8
960.896	3428.02
961.199	3393.89
961.502	3424.4
961.805	3375.36
962.108	3353.67
962.411	3372.65
962.714	3322.71
963.017	3335.36
963.32	3335.36
963.623	3290.85
963.926	3303.27
964.228	3264.86
964.531	3277.51
964.833	3280.68
965.136	3194.58
965.438	3211.98
965.741	3201.13
966.043	3167.46
966.345	3192.32
966.648	3131.53
966.95	3183.28
967.252	3122.94
967.554	3146.67
967.856	3130.4
968.158	3104.86
968.46	3099.44
968.761	3079.33
969.063	3065.09
969.365	3058.76
969.666	3040.68
969.968	3028.48
970.269	2983.74
970.571	3013.34
970.872	3009.27
971.174	2970.63
971.475	2977.18
971.776	2912.78
972.077	2949.61
972.378	2927.01
972.679	2904.42
972.98	2924.98
973.281	2876.39
973.582	2892.21
973.883	2824.19
974.183	2844.98
974.484	2855.15
974.785	2789.62
975.085	2790.75
975.386	2821.25
975.686	2780.12
975.986	2812.67
976.287	2712.1
976.587	2749.39
976.887	2734.02
977.187	2708.94
977.487	2720.24
977.787	2692.44
978.087	2662.61
978.387	2687.7
978.687	2696.29
978.987	2590.3
979.286	2620.35
979.586	2663.74
979.885	2616.06
980.185	2598.89
980.484	2588.49
980.784	2575.61
981.083	2540.13
981.382	2554.82
981.682	2555.5
981.981	2503.52
982.28	2476.4
982.579	2525.89
982.878	2531.77
983.177	2490.87
983.475	2527.93
983.774	2487.7
984.073	2454.03
984.372	2444.31
984.67	2437.76
984.969	2419.91
985.267	2418.78
985.566	2412.22
985.864	2384.65
986.162	2407.25
986.461	2350.76
986.759	2372.68
987.057	2380.81
987.355	2351.89
987.653	2326.35
987.951	2288.61
988.249	2314.37
988.547	2262.17
988.844	2266.92
989.142	2280.02
989.44	2285.45
989.737	2261.72
990.035	2284.54
990.332	2211.78
990.63	2219.91
990.927	2196.19
991.224	2216.75
991.521	2216.75
991.819	2185.56
992.116	2203.19
992.413	2177.2
992.71	2153.93
993.006	2161.38
993.303	2151.21
993.6	2117.32
993.897	2100.14
994.193	2127.71
994.49	2118.9
994.787	2081.39
995.083	2100.82
995.379	2087.71
995.676	2058.34
995.972	2046.81
996.268	2040.94
996.565	2033.48
996.861	2005.46
997.157	2016.53
997.453	1977.21
997.749	2022.18
998.044	1985.57
998.34	1995.74
998.636	1956.19
998.932	1941.05
999.227	1941.73
999.523	1953.25
999.818	1908.96
1000.114	1883.88
1000.409	1925.23
1000.704	1892.01
1001	1886.36
1001.295	1882.3
1001.59	1877.32
1001.885	1850.88
1002.18	1854.95
1002.475	1844.78
1002.77	1831.68
1003.065	1790.77
1003.359	1796.87
1003.654	1792.58
1003.949	1813.14
1004.243	1792.58
1004.538	1783.31
1004.832	1771.79
1005.127	1741.06
1005.421	1750.32
1005.715	1758
1006.009	1735.41
1006.304	1681.85
1006.598	1704.9
1006.892	1694.5
1007.186	1657.67
1007.48	1656.76
1007.773	1670.55
1008.067	1678.01
1008.361	1624.67
1008.655	1664.9
1008.948	1625.8
1009.242	1625.13
1009.535	1617.67
1009.829	1638.01
1010.122	1574.51
1010.415	1599.36
1010.708	1581.29
1011.001	1555.98
1011.295	1603.43
1011.588	1570.21
1011.881	1517.78
1012.173	1530.67
1012.466	1522.98
1012.759	1527.95
1013.052	1531.12
1013.344	1496.77
1013.637	1481.85
1013.93	1481.85
1014.222	1475.75
1014.514	1456.32
1014.807	1445.02
1015.099	1462.87
1015.391	1417.22
1015.683	1414.74
1015.976	1456.09
1016.268	1416.09
1016.56	1423.78
1016.851	1405.02
1017.143	1390.56
1017.435	1392.14
1017.727	1407.51
1018.018	1359.82
1018.31	1369.77
1018.602	1341.97
1018.893	1349.43
1019.185	1336.77
1019.476	1327.51
1019.767	1345.59
1020.058	1321.18
1020.35	1310.33
1020.641	1305.14
1020.932	1307.85
1021.223	1297.45
1021.514	1268.07
1021.804	1241.86
1022.095	1254.29
1022.386	1275.53
1022.677	1238.7
1022.967	1223.56
1023.258	1222.65
1023.548	1226.49
1023.839	1185.14
1024.129	1221.52
1024.419	1201.41
1024.709	1169.09
1025	1176.1
1025.29	1183.78
1025.58	1142.65
1025.87	1153.05
1026.16	1173.61
1026.449	1139.72
1026.739	1140.85
1027.029	1113.5
1027.319	1120.28
1027.608	1108.53
1027.898	1118.25
1028.187	1103.33
1028.477	1094.52
1028.766	1096.78
1029.055	1084.35
1029.344	1097.01
1029.634	1080.28
1029.923	1061.75
1030.212	1052.71
1030.501	1063.79
1030.79	1036.67
1031.078	1022.2
1031.367	1000.06
1031.656	1031.47
1031.945	1022.2
1032.233	1029.21
1032.522	1004.58
1032.81	1000.06
1033.099	1009.32
1033.387	966.39
1033.675	949.66
1033.963	967.52
1034.251	969.32
1034.54	965.71
1034.828	951.92
1035.116	939.5
1035.403	952.83
1035.691	935.88
1035.979	929.55
1036.267	935.2
1036.554	929.78
1036.842	919.61
1037.129	922.32
1037.417	918.25
1037.704	904.47
1037.992	864.02
1038.279	871.02
1038.566	900.17
1038.853	900.17
1039.14	900.17
