Data from hue_190_FLMS001491_00067.txt Node
Date: Tue Feb 07 16:45:37 GMT 2017
User: dcchb
Spectrometer: FLMS00149
Trigger mode: 0
Integration Time (sec): 2.000000E-2
Scans to average: 10
Electric dark correction enabled: true
Nonlinearity correction enabled: false
Boxcar width: 0
XAxis mode: Wavelengths
Number of Pixels in Spectrum: 2048
>>>>>Begin Spectral Data<<<<<
341.393	7.27
341.776	7.27
342.16	7.27
342.543	-72.05
342.927	-50.35
343.31	-52.39
343.693	-76.79
344.077	-57.36
344.46	-65.72
344.843	-63.91
345.226	-44.02
345.61	-12.39
345.993	-32.05
346.376	-1.99
346.759	0.49
347.142	20.15
347.525	38.23
347.908	42.98
348.291	89.31
348.674	100.38
349.057	115.07
349.44	135.41
349.823	141.51
350.206	158.46
350.588	187.16
350.971	213.14
351.354	244.78
351.737	219.25
352.119	259.24
352.502	271.9
352.884	278.68
353.267	293.59
353.65	297.21
354.032	292.46
354.414	297.21
354.797	306.93
355.179	328.85
355.562	345.57
355.944	307.83
356.326	330.43
356.709	315.51
357.091	346.93
357.473	322.52
357.855	338.11
358.238	343.99
358.62	329.07
359.002	342.41
359.384	349.64
359.766	328.17
360.148	331.33
360.53	343.99
360.912	348.06
361.294	359.13
361.676	329.07
362.057	341.28
362.439	323.88
362.821	324.1
363.203	318
363.584	335.17
363.966	313.71
364.348	325.91
364.729	308.96
365.111	322.52
365.493	309.86
365.874	322.52
366.256	316.87
366.637	307.6
367.019	305.35
367.4	326.14
367.781	317.1
368.163	306.93
368.544	304.89
368.925	308.06
369.306	320.94
369.688	308.96
370.069	298.79
370.45	304.22
370.831	301.5
371.212	318.68
371.593	296.31
371.974	320.94
372.355	333.59
372.736	349.64
373.117	307.83
373.498	316.19
373.879	306.7
374.26	320.49
374.641	319.36
375.021	313.25
375.402	318.68
375.783	322.52
376.163	309.64
376.544	348.28
376.925	333.59
377.305	310.54
377.686	329.07
378.066	342.63
378.447	332.01
378.827	325.46
379.208	321.16
379.588	325.91
379.968	343.76
380.349	325.01
380.729	333.59
381.109	329.98
381.489	361.61
381.87	315.29
382.25	326.36
382.63	316.42
383.01	329.98
383.39	353.25
383.77	334.04
384.15	339.92
384.53	350.32
384.91	337.89
385.29	357.32
385.67	347.6
386.049	364.1
386.429	348.51
386.809	355.06
387.189	374.72
387.568	357.77
387.948	342.86
388.328	346.02
388.707	336.08
389.087	343.99
389.466	341.05
389.846	346.7
390.225	368.17
390.605	342.63
390.984	339.02
391.363	359.13
391.743	354.16
392.122	372.91
392.501	373.82
392.881	370.88
393.26	356.42
393.639	358.23
394.018	376.08
394.397	381.95
394.776	369.98
395.155	393.03
395.534	406.13
395.913	391.67
396.292	378.79
396.671	374.5
397.05	402.29
397.429	382.18
397.808	382.86
398.186	376.76
398.565	370.88
398.944	393.48
399.323	408.62
399.701	390.99
400.08	382.18
400.458	388.28
400.837	415.17
401.215	370.65
401.594	427.83
401.972	415.17
402.351	417.43
402.729	429.18
403.107	420.82
403.486	429.18
403.864	430.09
404.242	428.51
404.62	441.39
404.999	442.52
405.377	435.51
405.755	426.92
406.133	440.93
406.511	439.58
406.889	449.3
407.267	468.96
407.645	463.08
408.023	468.05
408.401	483.19
408.779	477.32
409.156	485.23
409.534	499.69
409.912	491.1
410.29	521.16
410.667	519.12
411.045	493.59
411.422	521.38
411.8	529.75
412.178	526.13
412.555	557.77
412.933	550.99
413.31	589.18
413.687	585.11
414.065	567.71
414.442	593.25
414.819	597.09
415.197	610.87
415.574	626.01
415.951	621.49
416.328	622.62
416.705	637.09
417.082	641.16
417.46	645.45
417.837	647.93
418.214	660.59
418.591	668.27
418.967	671.21
419.344	681.38
419.721	696.75
420.098	708.5
420.475	723.64
420.852	737.88
421.228	748.05
421.605	747.37
421.982	764.09
422.358	790.08
422.735	796.86
423.111	791.21
423.488	820.59
423.864	830.08
424.241	829.85
424.617	842.51
424.994	849.51
425.37	875.73
425.746	876.18
426.123	906.23
426.499	909.4
426.875	929.06
427.251	958.44
427.627	965.89
428.003	946.46
428.379	986.01
428.756	1000.92
429.132	1000.24
429.507	1045.66
429.883	993.69
430.259	1031.43
430.635	1064.87
431.011	1071.43
431.387	1062.61
431.763	1082.27
432.138	1096.28
432.514	1105.78
432.89	1108.94
433.265	1163.4
433.641	1190.75
434.016	1188.49
434.392	1210.18
434.767	1256.73
435.143	1264.19
435.518	1286.11
435.894	1308.03
436.269	1324.08
436.644	1336.5
437.02	1358.88
437.395	1386.67
437.77	1431.42
438.145	1418.31
438.52	1475.26
438.895	1484.07
439.271	1485.2
439.646	1546.22
440.021	1563.62
440.395	1582.83
440.77	1540.11
441.145	1599.55
441.52	1655.37
441.895	1661.92
442.27	1671.41
442.645	1654.01
443.019	1706.66
443.394	1705.99
443.769	1735.14
444.143	1730.84
444.518	1767
444.892	1750.73
445.267	1773.78
445.641	1827.56
446.016	1832.76
446.39	1862.82
446.764	1830.05
447.139	1853.78
447.513	1872.08
447.887	1906.43
448.262	1907.34
448.636	1923.61
449.01	1930.61
449.384	1995.7
449.758	1990.27
450.132	2033.21
450.506	2038.41
450.88	2048.35
451.254	2039.76
451.628	2058.97
452.002	2117.73
452.376	2124.51
452.75	2149.14
453.123	2141.23
453.497	2200.21
453.871	2188.46
454.244	2238.85
454.618	2272.98
454.992	2284.5
455.365	2331.05
455.739	2353.2
456.112	2423.03
456.486	2393.43
456.859	2399.53
457.232	2465.29
457.606	2463.03
457.979	2493.31
458.352	2547.77
458.725	2613.98
459.099	2577.83
459.472	2638.39
459.845	2642.91
460.218	2703.93
460.591	2711.61
460.964	2719.74
461.337	2808.1
461.71	2803.36
462.083	2842
462.456	2916.58
462.829	2924.26
463.201	2934.43
463.574	2954.99
463.947	3017.14
464.32	3080.41
464.692	3110.47
465.065	3138.26
465.438	3164.48
465.81	3221.65
466.183	3239.96
466.555	3347.98
466.928	3346.4
467.3	3341.42
467.672	3441.53
468.045	3505.94
468.417	3519.95
468.789	3552.94
469.161	3619.38
469.534	3658.48
469.906	3724.24
470.278	3772.37
470.65	3818.25
471.022	3875.87
471.394	3945.02
471.766	3944.8
472.138	4058.47
472.51	4105.25
472.882	4154.06
473.253	4202.42
473.625	4236.77
473.997	4414.84
474.369	4372.36
474.74	4454.61
475.112	4509.3
475.484	4582.75
475.855	4689.18
476.227	4734.83
476.598	4850.54
476.97	4895.96
477.341	4984.77
477.713	5064.09
478.084	5112.68
478.455	5251.2
478.827	5294.59
479.198	5438.77
479.569	5454.81
479.94	5579.1
480.311	5672.66
480.682	5794.47
481.053	5867.46
481.424	5991.98
481.795	6023.39
482.166	6168.47
482.537	6236.71
482.908	6413.43
483.279	6386.32
483.65	6560.1
484.021	6661.11
484.391	6748.34
484.762	6832.18
485.133	6888.67
485.503	6947.66
485.874	7054.09
486.244	7108.33
486.615	7385.84
486.985	7397.81
487.356	7578.83
487.726	7611.82
488.097	7786.73
488.467	7798.03
488.837	7992.83
489.207	7961.87
489.578	8154.63
489.948	8176.32
490.318	8223.1
490.688	8331.35
491.058	8441.85
491.428	8486.15
491.798	8617.89
492.168	8818.34
492.538	8851.34
492.908	8866.25
493.278	8997.09
493.648	8993.7
494.017	9117.99
494.387	9232.79
494.757	9194.15
495.126	9357.76
495.496	9311.89
495.866	9401.38
496.235	9503.75
496.605	9565.44
496.974	9562.28
497.344	9699.9
497.713	9730.86
498.082	9783.29
498.452	9832.1
498.821	9881.82
499.19	9851.76
499.559	9982.6
499.928	9998.42
500.298	10066.22
500.667	10179.66
501.036	10140.11
501.405	10228.25
501.774	10197.29
502.143	10258.76
502.512	10231.86
502.88	10334.46
503.249	10386.44
503.618	10346.89
503.987	10407.23
504.356	10437.28
504.724	10547.11
505.093	10446.32
505.462	10611.29
505.83	10558.41
506.199	10672.76
506.567	10729.93
506.936	10695.35
507.304	10734.9
507.672	10773.54
508.041	10825.52
508.409	10797.27
508.777	10850.38
509.145	10931.51
509.514	10883.6
509.882	10938.96
510.25	10931.51
510.618	10982.35
510.986	10931.96
511.354	10987.1
511.722	11045.4
512.09	11118.85
512.458	11146.19
512.826	11070.03
513.193	11207.66
513.561	11170.37
513.929	11200.2
514.297	11190.26
514.664	11276.81
515.032	11264.38
515.4	11258.28
515.767	11267.32
516.135	11350.7
516.502	11137.38
516.869	11379.63
517.237	11336.47
517.604	11207.43
517.972	11378.27
518.339	11348.44
518.706	11289.92
519.073	11294.89
519.44	11386.41
519.808	11455.79
520.175	11290.37
520.542	11474.99
520.909	11390.25
521.276	11400.19
521.643	11430.93
522.009	11456.92
522.376	11439.52
522.743	11484.26
523.11	11419.4
523.477	11465.73
523.843	11546.86
524.21	11525.16
524.577	11564.26
524.943	11526.74
525.31	11533.98
525.676	11538.27
526.043	11576.69
526.409	11561.09
526.776	11634.31
527.142	11591.38
527.508	11548.67
527.874	11597.48
528.241	11625.95
528.607	11573.07
528.973	11545.95
529.339	11493.53
529.705	11516.35
530.071	11504.15
530.437	11442.91
530.803	11474.99
531.169	11444.71
531.535	11432.06
531.901	11381.66
532.267	11329.01
532.632	11376.01
532.998	11276.36
533.364	11356.35
533.73	11223.93
534.095	11313.42
534.461	11178.96
534.826	11236.13
535.192	11118.62
535.557	11218.5
535.923	10973.99
536.288	11032.29
536.653	10987.78
537.019	10944.39
537.384	10893.77
537.749	10886.31
538.114	10810.83
538.479	10725.64
538.845	10758.86
539.21	10663.49
539.575	10625.75
539.94	10614.23
540.305	10662.36
540.67	10544.4
541.034	10464.85
541.399	10474.57
541.764	10337.17
542.129	10352.31
542.494	10302.82
542.858	10277.29
543.223	10157.52
543.587	10166.33
543.952	10098.76
544.316	10033.68
544.681	9965.2
545.045	9965.2
545.41	9937.18
545.774	9929.05
546.138	9858.09
546.503	9812.67
546.867	9737.64
547.231	9794.59
547.595	9713.69
547.959	9592.56
548.324	9600.02
548.688	9522.96
549.052	9499.68
549.416	9427.37
549.779	9435.05
550.143	9422.62
550.507	9353.47
550.871	9342.85
551.235	9231.89
551.599	9261.72
551.962	9115.28
552.326	9159.58
552.689	9095.85
553.053	9007.49
553.417	8983.53
553.78	8995.51
554.143	8871.22
554.507	8830.77
554.87	8888.62
555.234	8894.95
555.597	8778.12
555.96	8788.06
556.323	8717.78
556.686	8706.25
557.05	8720.49
557.413	8657.44
557.776	8648.63
558.139	8659.02
558.502	8551
558.865	8523.66
559.228	8560.27
559.59	8556.65
559.953	8495.41
560.316	8520.95
560.679	8463.1
561.041	8487.73
561.404	8458.8
561.767	8483.89
562.129	8373.83
562.492	8368.18
562.854	8402.76
563.217	8338.13
563.579	8362.99
563.941	8352.14
564.304	8366.83
564.666	8362.31
565.028	8351.69
565.39	8324.57
565.753	8364.34
566.115	8338.35
566.477	8294.74
566.839	8295.64
567.201	8383.32
567.563	8320.05
567.925	8303.33
568.287	8368.64
568.648	8274.18
569.01	8362.76
569.372	8385.58
569.734	8369.54
570.095	8258.81
570.457	8323.21
570.819	8287.06
571.18	8319.37
571.542	8333.16
571.903	8308.52
572.265	8292.48
572.626	8301.52
572.987	8270.56
573.349	8319.15
573.71	8238.24
574.071	8326.38
574.432	8316.66
574.794	8280.05
575.155	8314.63
575.516	8247.06
575.877	8276.89
576.238	8286.6
576.599	8295.64
576.96	8259.94
577.32	8296.55
577.681	8241.18
578.042	8258.81
578.403	8270.11
578.763	8199.83
579.124	8235.31
579.485	8317.11
579.845	8278.47
580.206	8264.01
580.566	8210.9
580.927	8200.96
581.287	8259.26
581.648	8197.79
582.008	8207.51
582.368	8143.78
582.728	8216.1
583.089	8125.93
583.449	8178.81
583.809	8213.61
584.169	8162.09
584.529	8212.03
584.889	8173.16
585.249	8080.73
585.609	8146.04
585.969	8137.46
586.329	8146.95
586.688	8124.35
587.048	8078.02
587.408	8097.46
587.768	8111.47
588.127	8049.77
588.487	8048.19
588.846	8133.39
589.206	7977.91
589.565	8003.45
589.925	8036.67
590.284	7994.63
590.643	8012.71
591.003	7959.38
591.362	8031.7
591.721	8010
592.08	7979.04
592.44	7989.21
592.799	7958.48
593.158	7913.05
593.517	7972.71
593.876	8000.74
594.235	7917.8
594.593	8008.87
594.952	7923.68
595.311	7833.73
595.67	7892.04
596.029	7907.86
596.387	7906.73
596.746	7926.84
597.104	7871.02
597.463	7866.95
597.822	7908.99
598.18	7838.03
598.538	7751.03
598.897	7880.06
599.255	7793.74
599.613	7935.65
599.972	7824.24
600.33	7867.86
600.688	7802.32
601.046	7830.8
601.404	7890.23
601.762	7860.85
602.12	7862.66
602.478	7837.58
602.836	7820.63
603.194	7773.4
603.552	7796.22
603.91	7717.35
604.268	7794.41
604.625	7765.71
604.983	7844.13
605.341	7822.21
605.698	7763.23
606.056	7789.67
606.413	7765.94
606.771	7781.98
607.128	7888.2
607.485	7771.82
607.843	7785.83
608.2	7795.09
608.557	7853.85
608.914	7723.46
609.272	7780.85
609.629	7884.81
609.986	7778.14
610.343	7850.46
610.7	7880.97
611.057	7828.76
611.414	7846.84
611.771	7844.13
612.127	7807.52
612.484	7804.81
612.841	7855.43
613.198	7881.19
613.554	7840.97
613.911	7909.21
614.267	7861.3
614.624	7801.19
614.98	7885.48
615.337	7909.89
615.693	7848.2
616.05	7897.24
616.406	7900.17
616.762	7837.58
617.118	7920.96
617.475	7892.94
617.831	7890.91
618.187	7895.88
618.543	7874.41
618.899	7907.63
619.255	7936.56
619.611	7887.07
619.967	7949.21
620.323	7928.42
620.678	7940.17
621.034	7912.6
621.39	7909.44
621.746	7857.01
622.101	7933.85
622.457	7934.3
622.812	7945.37
623.168	7889.78
623.523	7981.3
623.879	7932.49
624.234	7878.93
624.589	7893.39
624.945	7902.89
625.3	7955.99
625.655	7918.93
626.01	7891.13
626.365	7936.56
626.72	7920.29
627.075	7832.6
627.43	7907.63
627.785	7937.91
628.14	7893.17
628.495	7930.91
628.85	7845.71
629.205	7885.94
629.559	7918.48
629.914	7822.66
630.269	7856.11
630.623	7811.14
630.978	7842.32
631.332	7875.99
631.687	7817.92
632.041	7819.5
632.396	7809.78
632.75	7751.48
633.104	7810.68
633.459	7750.57
633.813	7763.45
634.167	7719.16
634.521	7826.28
634.875	7758.71
635.229	7737.24
635.583	7709.22
635.937	7649.56
636.291	7688.2
636.645	7610.69
636.999	7646.85
637.352	7695.43
637.706	7596.23
638.06	7617.02
638.413	7623.12
638.767	7582.44
639.121	7632.84
639.474	7537.92
639.828	7563.46
640.181	7586.96
640.534	7582.22
640.888	7558.94
641.241	7511.26
641.594	7541.76
641.947	7548.54
642.301	7472.16
642.654	7578.83
643.007	7527.98
643.36	7481.88
643.713	7502.44
644.066	7564.36
644.419	7490.01
644.771	7483.69
645.124	7419.51
645.477	7416.8
645.83	7321.43
646.182	7266.74
646.535	7272.85
646.888	7309.23
647.24	7314.88
647.593	7319.62
647.945	7326.18
648.298	7302.45
648.65	7204.37
649.002	7241.21
649.355	7278.72
649.707	7265.39
650.059	7323.47
650.411	7367.53
650.763	7351.94
651.115	7458.6
651.467	7394.65
651.819	7468.55
652.171	7440.75
652.523	7373.63
652.875	7390.81
653.227	7388.32
653.578	7417.25
653.93	7456.57
654.282	7350.13
654.633	7453.41
654.985	7438.26
655.337	7425.61
655.688	7433.75
656.039	7454.08
656.391	7445.72
656.742	7420.41
657.094	7462.67
657.445	7442.11
657.796	7494.08
658.147	7454.08
658.498	7471.71
658.849	7510.35
659.2	7496.79
659.551	7457.93
659.902	7485.27
660.253	7461.77
660.604	7469.22
660.955	7439.39
661.306	7473.97
661.656	7529.11
662.007	7568.88
662.358	7489.56
662.708	7534.99
663.059	7461.09
663.409	7450.47
663.76	7499.51
664.11	7440.98
664.461	7565.72
664.811	7505.38
665.161	7525.72
665.511	7512.61
665.862	7556.91
666.212	7530.92
666.562	7558.71
666.912	7562.1
667.262	7546.74
667.612	7542.22
667.962	7526.85
668.312	7533.86
668.662	7545.83
669.011	7489.56
669.361	7525.04
669.711	7539.51
670.06	7529.11
670.41	7524.82
670.76	7468.09
671.109	7575.66
671.459	7494.76
671.808	7530.47
672.157	7516.68
672.507	7449.79
672.856	7409.34
673.205	7481.65
673.554	7471.94
673.904	7449.11
674.253	7572.27
674.602	7489.79
674.951	7403.69
675.3	7298.16
675.649	7457.47
675.998	7432.84
676.346	7444.82
676.695	7381.77
677.044	7339.74
677.393	7396.46
677.741	7410.69
678.09	7413.86
678.438	7366.63
678.787	7363.92
679.135	7341.09
679.484	7308.32
679.832	7356.46
680.181	7288.66
680.529	7330.47
680.877	7320.75
681.225	7301.55
681.573	7306.06
681.922	7218.61
682.27	7243.02
682.618	7168.44
682.966	7183.81
683.314	7214.54
683.661	7182.9
684.009	7142.68
684.357	7120.08
684.705	7147.43
685.053	7163.7
685.4	7165.05
685.748	7101.78
686.095	7029.91
686.443	7092.06
686.79	7008.67
687.138	7065.62
687.485	7060.42
687.832	7028.56
688.18	7089.57
688.527	6968.9
688.874	6926.64
689.221	6946.3
689.568	6883.03
689.915	6879.18
690.262	6873.31
690.609	6856.81
690.956	6830.15
691.303	6803.48
691.65	6775.91
691.997	6771.84
692.344	6729.13
692.69	6709.7
693.037	6707.44
693.383	6623.15
693.73	6652.97
694.077	6631.96
694.423	6576.59
694.769	6545.86
695.116	6558.51
695.462	6566.65
695.808	6500.21
696.155	6522.13
696.501	6443.49
696.847	6469.93
697.193	6423.83
697.539	6387.22
697.885	6357.62
698.231	6360.1
698.577	6327.79
698.923	6347.22
699.269	6275.13
699.614	6264.74
699.96	6226.09
700.306	6289.37
700.651	6181.8
700.997	6125.76
701.342	6133.44
701.688	6170.73
702.033	6148.13
702.379	6122.37
702.724	6081.46
703.069	6102.48
703.415	5950.17
703.76	6075.59
704.105	5989.26
704.45	5978.64
704.795	5962.6
705.14	5965.31
705.485	5910.17
705.83	5896.38
706.175	5905.2
706.52	5836.27
706.865	5831.3
707.209	5804.86
707.554	5777.52
707.899	5785.43
708.243	5755.6
708.588	5790.17
708.932	5707.01
709.277	5715.82
709.621	5688.25
709.966	5634.92
710.31	5716.28
710.654	5620.23
710.998	5644.64
711.342	5669.05
711.687	5536.39
712.031	5585.88
712.375	5571.87
712.719	5582.27
713.063	5535.04
713.407	5595.15
713.75	5540.69
714.094	5560.8
714.438	5495.49
714.782	5511.76
715.125	5483.29
715.469	5509.73
715.812	5469.28
716.156	5469.73
716.499	5423.4
716.843	5485.1
717.186	5413.46
717.53	5431.54
717.873	5449.84
718.216	5402.16
718.559	5433.8
718.902	5343.86
719.246	5405.32
719.589	5395.15
719.932	5373.01
720.275	5373.69
720.617	5353.8
720.96	5339.79
721.303	5359.9
721.646	5330.52
721.989	5368.26
722.331	5315.16
722.674	5332.56
723.016	5342.5
723.359	5313.8
723.701	5335.04
724.044	5290.75
724.386	5323.74
724.729	5332.11
725.071	5308.83
725.413	5300.69
725.755	5265.44
726.097	5264.08
726.439	5256.18
726.782	5249.17
727.124	5286.46
727.465	5328.94
727.807	5256.85
728.149	5258.89
728.491	5258.44
728.833	5249.85
729.175	5271.54
729.516	5225.67
729.858	5271.32
730.199	5267.02
730.541	5289.39
730.882	5241.03
731.224	5259.79
731.565	5260.7
731.906	5264.99
732.248	5260.24
732.589	5263.63
732.93	5248.72
733.271	5273.8
733.612	5277.19
733.953	5260.24
734.294	5289.39
734.635	5275.16
734.976	5312.45
735.317	5260.02
735.658	5267.7
735.999	5293.01
736.339	5290.52
736.68	5325.55
737.021	5323.07
737.361	5317.64
737.702	5365.33
738.042	5281.71
738.383	5292.11
738.723	5341.82
739.063	5387.25
739.404	5388.83
739.744	5367.13
740.084	5406.23
740.424	5392.44
740.764	5428.15
741.104	5436.74
741.444	5425.21
741.784	5402.61
742.124	5441.48
742.464	5393.12
742.804	5500.46
743.143	5441.03
743.483	5508.15
743.823	5524.19
744.162	5574.13
744.502	5638.54
744.841	5583.62
745.181	5674.02
745.52	5649.84
745.86	5723.51
746.199	5725.09
746.538	5744.3
746.877	5837.18
747.216	5848.93
747.556	5886.89
747.895	5957.85
748.234	5970.51
748.573	6011.41
748.911	6051.63
749.25	6170.05
749.589	6167.34
749.928	6281.46
750.267	6314.23
750.605	6374.56
750.944	6444.39
751.283	6518.06
751.621	6584.05
751.96	6682.58
752.298	6805.06
752.636	6886.19
752.975	6899.75
753.313	7002.12
753.651	7138.84
753.989	7210.25
754.327	7328.89
754.666	7422.67
755.004	7516.45
755.342	7718.71
755.679	7879.61
756.017	7886.61
756.355	8080.06
756.693	8228.75
757.031	8365.92
757.368	8389.2
757.706	8629.87
758.044	8728.63
758.381	8918.45
758.719	9092.68
759.056	9315.28
759.394	9402.73
759.731	9492.67
760.068	9652.44
760.405	9829.61
760.743	10018.31
761.08	10205.42
761.417	10301.69
761.754	10516.83
762.091	10687.22
762.428	10801.79
762.765	11070.26
763.102	11248.11
763.438	11347.54
763.775	11579.17
764.112	11811.94
764.449	11983.23
764.785	12061.19
765.122	12186.61
765.458	12384.12
765.795	12535.76
766.131	12693.49
766.467	12845.81
766.804	13002.86
767.14	13236.76
767.476	13279.24
767.812	13422.74
768.148	13714.94
768.485	13782.5
768.821	13891.43
769.157	14024.98
769.492	14172.78
769.828	14203.74
770.164	14331.64
770.5	14449.83
770.836	14683.72
771.171	14753.55
771.507	14803.04
771.842	14861.8
772.178	15024.96
772.513	15137.72
772.849	15209.13
773.184	15304.5
773.519	15429.02
773.855	15521.67
774.19	15590.82
774.525	15722.57
774.86	15785.84
775.195	15836.01
775.53	16003.24
775.865	16014.31
776.2	15909.68
776.535	15952.62
776.87	16144.93
777.205	16128.43
777.539	16217.7
777.874	16321.87
778.209	16255.43
778.543	16272.83
778.878	16288.2
779.212	16411.81
779.547	16369.1
779.881	16526.39
780.215	16406.62
780.55	16602.77
780.884	16489.78
781.218	16589.21
781.552	16665.59
781.886	16646.16
782.22	16626.27
782.554	16609.55
782.888	16591.24
783.222	16557.57
783.556	16525.71
783.889	16473.28
784.223	16555.54
784.557	16586.72
784.89	16660.62
785.224	16510.12
785.557	16573.62
785.891	16636.89
786.224	16555.77
786.558	16612.94
786.891	16459.72
787.224	16366.17
787.557	16378.14
787.891	16417.69
788.224	16491.36
788.557	16603.45
788.89	16552.83
789.223	16512.6
789.556	16513.05
789.888	16426.28
790.221	16365.49
790.554	16337.69
790.887	16429.67
791.219	16366.17
791.552	16281.87
791.884	16234.64
792.217	16282.78
792.549	16216.79
792.882	16143.8
793.214	16243.91
793.546	16312.83
793.879	16077.36
794.211	16130.69
794.543	16185.61
794.875	16059.51
795.207	16159.62
795.539	16090.47
795.871	15967.31
796.203	15975.22
796.535	15934.54
796.867	15986.97
797.198	15883.01
797.53	15963.24
797.862	15729.35
798.193	15781.1
798.525	15617.94
798.856	15724.6
799.188	15579.52
799.519	15527.54
799.85	15478.05
800.182	15559.86
800.513	15533.19
800.844	15402.8
801.175	15592.4
801.506	15519.41
801.837	15429.02
802.168	15443.03
802.499	15377.27
802.83	15321.45
803.161	15181.56
803.491	15250.71
803.822	15283.26
804.153	15188.57
804.483	15028.8
804.814	15023.15
805.145	15096.59
805.475	15121.68
805.805	14967.78
806.136	14989.25
806.466	14966.43
806.796	14932.53
807.126	14819.77
807.457	14840.56
807.787	14864.06
808.117	14831.97
808.447	14771.63
808.777	14835.58
809.107	14663.61
809.436	14681.01
809.766	14713.1
810.096	14619.32
810.426	14613.67
810.755	14588.59
811.085	14555.37
811.414	14505.65
811.744	14461.58
812.073	14430.62
812.403	14426.56
812.732	14383.17
813.061	14361.47
813.39	14312.21
813.719	14298.2
814.049	14376.16
814.378	14310.17
814.707	14258.42
815.036	14334.35
815.365	14092.78
815.693	14076.73
816.022	14092.33
816.351	14053.23
816.68	13972.33
817.008	13963.07
817.337	13916.51
817.665	13939.56
817.994	13984.53
818.322	13924.87
818.651	13883.52
818.979	13790.87
819.307	13924.2
819.636	13795.84
819.964	13824.99
820.292	13851.88
820.62	13753.81
820.948	13808.94
821.276	13815.5
821.604	13686.24
821.932	13860.92
822.259	13861.15
822.587	13829.74
822.915	13730.3
823.243	13801.49
823.57	13776.18
823.898	13784.54
824.225	13753.35
824.553	13703.41
824.88	13814.59
825.207	13776.63
825.535	13829.51
825.862	13911.09
826.189	13736.4
826.516	13810.07
826.843	13794.93
827.17	13840.81
827.497	13887.13
827.824	13814.37
828.151	13836.29
828.478	13773.92
828.805	13888.72
829.131	13783.18
829.458	13806.23
829.785	13779.34
830.111	13784.09
830.438	13852.79
830.764	13870.19
831.09	13859.11
831.417	13774.82
831.743	13770.53
832.069	13796.97
832.395	13792
832.722	13778.66
833.048	13744.09
833.374	13752.9
833.7	13723.98
834.026	13722.17
834.351	13802.62
834.677	13696.18
835.003	13754.26
835.329	13690.53
835.654	13727.37
835.98	13634.26
836.306	13628.84
836.631	13550.65
836.956	13683.3
837.282	13629.97
837.607	13566.24
837.932	13592
838.258	13575.28
838.583	13555.17
838.908	13368.5
839.233	13494.6
839.558	13455.96
839.883	13438.79
840.208	13356.08
840.533	13330.09
840.858	13389.52
841.182	13392.01
841.507	13309.52
841.832	13325.57
842.156	13384.1
842.481	13275.63
842.805	13266.13
843.13	13157.89
843.454	13214.84
843.778	13090.77
844.103	13047.16
844.427	13056.2
844.751	13053.94
845.075	13046.03
845.399	13028.4
845.723	12948.63
846.047	12887.61
846.371	12790.44
846.695	12777.33
847.019	12716.32
847.343	12691.46
847.666	12655.75
847.99	12559.71
848.313	12564.01
848.637	12482.2
848.96	12450.56
849.284	12450.56
849.607	12251.92
849.931	12279.72
850.254	12259.83
850.577	12158.14
850.9	12164.69
851.223	12073.85
851.546	12027.75
851.869	12019.84
852.192	11970.12
852.515	11902.33
852.838	11905.27
853.161	11782.11
853.483	11782.56
853.806	11780.98
854.129	11750.24
854.451	11662.56
854.774	11580.75
855.096	11533.98
855.419	11576.69
855.741	11523.81
856.063	11496.92
856.385	11461.89
856.708	11418.27
857.03	11331.27
857.352	11429.35
857.674	11421.44
857.996	11273.64
858.318	11228.9
858.64	11199.52
858.961	11237.04
859.283	11145.29
859.605	11054.89
859.926	11148.9
860.248	11047.44
860.57	10998.62
860.891	11062.35
861.212	10951.84
861.534	10995.69
861.855	10871.17
862.176	10969.92
862.498	10911.85
862.819	10961.11
863.14	10877.04
863.461	10845.41
863.782	10828.91
864.103	10845.63
864.424	10807.89
864.745	10777.16
865.065	10699.65
865.386	10735.81
865.707	10632.53
866.027	10710.27
866.348	10677.73
866.668	10664.62
866.989	10563.38
867.309	10551.4
867.63	10602.02
867.95	10530.16
868.27	10485.87
868.59	10520.22
868.91	10459.43
869.23	10585.98
869.55	10474.12
869.87	10483.83
870.19	10444.29
870.51	10437.28
870.83	10465.98
871.15	10378.75
871.469	10395.25
871.789	10451.07
872.109	10339.66
872.428	10358.87
872.748	10365.42
873.067	10380.56
873.386	10301.92
873.706	10256.95
874.025	10247.46
874.344	10325.87
874.663	10265.31
874.982	10222.82
875.301	10162.49
875.62	10151.19
875.939	10171.75
876.258	10184.41
876.577	10070.74
876.896	10162.94
877.214	10110.29
877.533	10109.83
877.852	10039.33
878.17	10068.03
878.489	10131.75
878.807	10081.13
879.125	10074.58
879.444	9987.35
879.762	10002.27
880.08	10019.44
880.398	9861.93
880.716	9970.4
881.034	9948.93
881.352	9936.96
881.67	9821.93
881.988	9901.02
882.306	9759.11
882.624	9804.3
882.941	9743.51
883.259	9719.79
883.577	9682.95
883.894	9651.99
884.212	9651.31
884.529	9696.28
884.846	9706.68
885.164	9623.97
885.481	9528.61
885.798	9595.5
886.115	9447.7
886.432	9521.37
886.75	9492
887.067	9470.53
887.383	9403.41
887.7	9469.85
888.017	9420.81
888.334	9354.37
888.651	9370.42
888.967	9333.58
889.284	9286.8
889.6	9258.56
889.917	9254.26
890.233	9217.88
890.55	9227.14
890.866	9228.5
891.182	9110.54
891.498	9149.86
891.815	9080.03
892.131	9017.43
892.447	9100.37
892.763	8982.41
893.079	8983.31
893.395	8943.99
893.71	8980.15
894.026	8927.04
894.342	8869.41
894.657	8870.32
894.973	8859.02
895.289	8799.13
895.604	8766.37
895.92	8755.07
896.235	8745.8
896.55	8692.92
896.865	8678.01
897.181	8617.44
897.496	8585.35
897.811	8584.22
898.126	8577.22
898.441	8487.05
898.756	8495.41
899.071	8394.85
899.386	8471.46
899.7	8316.21
900.015	8334.06
900.33	8276.43
900.644	8239.83
900.959	8238.24
901.273	8284.12
901.588	8210.9
901.902	8127.96
902.216	8157.79
902.531	8130
902.845	8060.4
903.159	8037.8
903.473	8000.51
903.787	7971.58
904.101	7962.32
904.415	7917.57
904.729	7877.58
905.042	7846.16
905.356	7795.77
905.67	7873.06
905.984	7808.42
906.297	7795.77
906.611	7757.8
906.924	7688.65
907.237	7713.96
907.551	7669.45
907.864	7610.24
908.177	7583.57
908.491	7546.06
908.804	7490.92
909.117	7469.9
909.43	7419.96
909.743	7318.95
910.056	7357.82
910.368	7332.05
910.681	7269.23
910.994	7333.18
911.307	7237.14
911.619	7191.27
911.932	7203.02
912.244	7162.11
912.557	7130.25
912.869	7077.6
913.181	7077.37
913.494	7068.33
913.806	7000.99
914.118	6967.99
914.43	6957.83
914.742	6944.72
915.054	6912.63
915.366	6893.87
915.678	6814.78
915.99	6764.84
916.302	6784.04
916.613	6756.25
916.925	6743.37
917.236	6755.34
917.548	6719.41
917.859	6703.37
918.171	6636.25
918.482	6636.48
918.794	6591.51
919.105	6633.99
919.416	6480.78
919.727	6477.39
920.038	6506.31
920.349	6457.73
920.66	6381.57
920.971	6386.77
921.282	6335.47
921.593	6357.16
921.903	6334.57
922.214	6275.81
922.525	6330.05
922.835	6258.41
923.146	6215.02
923.456	6173.67
923.767	6158.3
924.077	6164.63
924.387	6114.01
924.697	6060.67
925.008	6042.14
925.318	6069.71
925.628	6051.63
925.938	5962.37
926.248	5937.29
926.558	5981.13
926.867	5875.82
927.177	5867.91
927.487	5893.67
927.796	5855.93
928.106	5801.25
928.416	5793.34
928.725	5769.61
929.034	5765.77
929.344	5735.03
929.653	5704.98
929.962	5664.75
930.271	5618.43
930.581	5641.7
930.89	5593.79
931.199	5561.93
931.508	5569.61
931.817	5544.76
932.125	5513.57
932.434	5489.16
932.743	5507.47
933.051	5457.98
933.36	5444.42
933.669	5398.54
933.977	5423.4
934.286	5360.13
934.594	5382.5
934.902	5307.25
935.21	5246.46
935.519	5243.29
935.827	5307.25
936.135	5253.24
936.443	5263.63
936.751	5218.21
937.059	5205.33
937.367	5147.03
937.674	5150.19
937.982	5121.72
938.29	5095.73
938.597	5071.77
938.905	5067.93
939.213	5053.02
939.52	4981.38
939.827	4999.23
940.135	4981.15
940.442	4940.48
940.749	4928.95
941.056	4945.22
941.363	4868.84
941.67	4802.63
941.977	4808.28
942.284	4826.13
942.591	4783.65
942.898	4759.69
943.205	4783.65
943.511	4694.61
943.818	4738
944.125	4712.23
944.431	4682.18
944.738	4665.23
945.044	4646.93
945.35	4599.92
945.657	4599.7
945.963	4583.2
946.269	4543.65
946.575	4546.82
946.881	4502.97
947.187	4491.9
947.493	4511.34
947.799	4465.69
948.105	4441.28
948.41	4393.37
948.716	4430.21
949.022	4397.44
949.327	4393.6
949.633	4341.4
949.938	4341.17
950.244	4295.97
950.549	4323.09
950.854	4239.93
951.16	4255.52
951.465	4191.12
951.77	4231.12
952.075	4239.03
952.38	4221.4
952.685	4127.39
952.99	4107.73
953.294	4107.96
953.599	4117.22
953.904	4073.38
954.209	4039.03
954.513	4080.61
954.818	4040.16
955.122	4051.91
955.426	4015.98
955.731	3984.57
956.035	3979.82
956.339	3980.28
956.643	3954.06
956.948	3909.54
957.252	3914.74
957.556	3899.15
957.86	3868.19
958.163	3826.38
958.467	3814.41
958.771	3817.57
959.075	3806.5
959.378	3830.68
959.682	3811.69
959.985	3809.66
960.289	3704.13
960.592	3701.64
960.896	3687.4
961.199	3747.74
961.502	3632.26
961.805	3679.27
962.108	3650.57
962.411	3612.6
962.714	3646.27
963.017	3612.6
963.32	3625.94
963.623	3552.27
963.926	3600.4
964.228	3540.06
964.531	3523.79
964.833	3534.64
965.136	3507.52
965.438	3482.44
965.741	3499.16
966.043	3476.56
966.345	3423.23
966.648	3443.57
966.95	3412.83
967.252	3394.08
967.554	3397.24
967.856	3375.55
968.158	3369.22
968.46	3300.75
968.761	3332.38
969.063	3296.9
969.365	3309.33
969.666	3272.27
969.968	3254.42
970.269	3255.1
970.571	3232.05
970.872	3204.03
971.174	3217.13
971.475	3178.94
971.776	3208.09
972.077	3150.47
972.378	3192.95
972.679	3173.52
972.98	3161.54
973.281	3095.1
973.582	3102.79
973.883	3119.28
974.183	3091.71
974.484	3113.86
974.785	3046.74
975.085	3051.49
975.386	3002.68
975.686	3002
975.986	3010.58
976.287	2981.21
976.587	2926.07
976.887	2949.57
977.187	2972.17
977.487	2948.89
977.787	2950.47
978.087	2939.4
978.387	2893.07
978.687	2883.36
978.987	2891.72
979.286	2870.25
979.586	2830.48
979.885	2814.66
980.185	2802.91
980.484	2785.28
980.784	2818.27
981.083	2749.12
981.382	2773.08
981.682	2762.91
981.981	2756.13
982.28	2755.22
982.579	2731.95
982.878	2713.87
983.177	2697.82
983.475	2695.11
983.774	2650.37
984.073	2662.35
984.372	2630.03
984.67	2647.88
984.969	2618.96
985.267	2639.3
985.566	2607.66
985.864	2584.61
986.162	2571.27
986.461	2525.85
986.759	2579.41
987.057	2549.13
987.355	2545.51
987.653	2530.15
987.951	2503.48
988.249	2465.29
988.547	2519.07
988.844	2446.76
989.142	2436.81
989.44	2471.16
989.737	2456.47
990.035	2429.58
990.332	2435.91
990.63	2411.05
990.927	2403.59
991.224	2413.31
991.521	2391.84
991.819	2363.6
992.116	2370.6
992.413	2333.09
992.71	2347.33
993.006	2347.55
993.303	2294.45
993.6	2266.65
993.897	2286.31
994.193	2270.27
994.49	2265.75
994.787	2263.26
995.083	2249.7
995.379	2231.17
995.676	2204.73
995.972	2198.85
996.268	2208.12
996.565	2203.83
996.861	2170.83
997.157	2181
997.453	2164.28
997.749	2155.47
998.044	2129.93
998.34	2107.33
998.636	2120.89
998.932	2103.94
999.227	2110.72
999.523	2089.93
999.818	2056.26
1000.114	2041.34
1000.409	2075.69
1000.704	2033.21
1001	2037.95
1001.295	2005.87
1001.59	1997.05
1001.885	2012.42
1002.18	1980.78
1002.475	1994.34
1002.77	1971.06
1003.065	1943.95
1003.359	1953.89
1003.654	1943.04
1003.949	1929.26
1004.243	1925.87
1004.538	1911.4
1004.832	1899.65
1005.127	1888.13
1005.421	1845.19
1005.715	1854.23
1006.009	1897.62
1006.304	1832.08
1006.598	1836.6
1006.892	1826.21
1007.186	1815.14
1007.48	1825.31
1007.773	1787.79
1008.067	1774.46
1008.361	1775.59
1008.655	1777.85
1008.948	1763.61
1009.242	1717.74
1009.535	1724.06
1009.829	1711.86
1010.122	1731.97
1010.415	1713.67
1010.708	1691.3
1011.001	1643.84
1011.295	1677.06
1011.588	1653.56
1011.881	1630.96
1012.173	1633.67
1012.466	1630.28
1012.759	1625.31
1013.052	1639.77
1013.344	1615.82
1013.637	1601.13
1013.93	1584.63
1014.222	1559.78
1014.514	1590.51
1014.807	1549.83
1015.099	1565.2
1015.391	1540.79
1015.683	1534.92
1015.976	1528.14
1016.268	1524.75
1016.56	1499.89
1016.851	1513.22
1017.143	1504.41
1017.435	1491.98
1017.727	1482.04
1018.018	1462.38
1018.31	1447.91
1018.602	1432.32
1018.893	1421.7
1019.185	1433.9
1019.476	1402.72
1019.767	1400.23
1020.058	1387.8
1020.35	1398.88
1020.641	1397.52
1020.932	1376.05
1021.223	1362.72
1021.514	1361.81
1021.804	1359.1
1022.095	1303.51
1022.386	1324.75
1022.677	1334.02
1022.967	1334.47
1023.258	1313
1023.548	1291.76
1023.839	1296.05
1024.129	1272.78
1024.419	1286.34
1024.709	1251.76
1025	1216.73
1025.29	1243.85
1025.58	1228.48
1025.87	1219.67
1026.16	1214.7
1026.449	1222.61
1026.739	1234.13
1027.029	1193.23
1027.319	1183.29
1027.608	1157.07
1027.898	1193.68
1028.187	1153.68
1028.477	1167.02
1028.766	1138.09
1029.055	1164.98
1029.344	1127.92
1029.634	1134.02
1029.923	1097.64
1030.212	1109.17
1030.501	1102.39
1030.79	1106.91
1031.078	1116.85
1031.367	1101.03
1031.656	1078.88
1031.945	1082.73
1032.233	1048.83
1032.522	1051.54
1032.81	1065.78
1033.099	1063.97
1033.387	1059.22
1033.675	1013.35
1033.963	1016.74
1034.251	1019.68
1034.54	1006.8
1034.828	1007.02
1035.116	997.08
1035.403	974.03
1035.691	960.7
1035.979	974.03
1036.267	980.36
1036.554	948.94
1036.842	984.88
1037.129	964.31
1037.417	946.01
1037.704	945.55
1037.992	959.11
1038.279	929.06
1038.566	943.97
1038.853	943.97
1039.14	943.97
