Data from hue_140_FLMS001491_00066.txt Node
Date: Tue Feb 07 16:56:15 GMT 2017
User: dcchb
Spectrometer: FLMS00149
Trigger mode: 0
Integration Time (sec): 2.000000E-2
Scans to average: 10
Electric dark correction enabled: true
Nonlinearity correction enabled: false
Boxcar width: 0
XAxis mode: Wavelengths
Number of Pixels in Spectrum: 2048
>>>>>Begin Spectral Data<<<<<
341.393	-21.34
341.776	-21.34
342.16	-21.34
342.543	-54.79
342.927	-59.08
343.31	-72.64
343.693	-76.93
344.077	-59.31
344.46	-66.76
344.843	-57.5
345.226	-56.59
345.61	-29.02
345.993	-12.75
346.376	2.39
346.759	-6.2
347.142	45.32
347.525	59.11
347.908	46.68
348.291	81.03
348.674	101.82
349.057	101.37
349.44	125.32
349.823	145.43
350.206	176.17
350.588	184.08
350.971	219.78
351.354	220.46
351.737	239.44
352.119	240.12
352.502	250.29
352.884	277.18
353.267	290.29
353.65	269.95
354.032	315.37
354.414	303.4
354.797	335.71
355.179	317.18
355.562	314.92
355.944	334.36
356.326	336.39
356.709	324.19
357.091	318.54
357.473	349.5
357.855	351.76
358.238	336.16
358.62	328.93
359.002	340.91
359.384	348.37
359.766	352.66
360.148	321.25
360.53	344.98
360.912	331.87
361.294	326.22
361.676	325.54
362.057	312.66
362.439	325.32
362.821	324.19
363.203	323.96
363.584	333.68
363.966	308.59
364.348	310.18
364.729	339.33
365.111	318.08
365.493	320.12
365.874	340.91
366.256	331.87
366.637	341.81
367.019	314.02
367.4	311.53
367.781	314.24
368.163	310.85
368.544	316.73
368.925	297.29
369.306	324.19
369.688	315.15
370.069	324.19
370.45	321.7
370.831	324.19
371.212	316.5
371.593	312.89
371.974	304.07
372.355	323.96
372.736	341.59
373.117	319.44
373.498	312.44
373.879	314.7
374.26	310.4
374.641	298.2
375.021	327.35
375.402	330.74
375.783	319.21
376.163	320.57
376.544	339.55
376.925	338.42
377.305	322.15
377.686	320.34
378.066	306.79
378.447	322.15
378.827	338.88
379.208	338.65
379.588	332.32
379.968	352.43
380.349	333.9
380.729	345.2
381.109	349.27
381.489	330.97
381.87	350.17
382.25	347.91
382.63	328.71
383.01	340.68
383.39	342.27
383.77	351.76
384.15	338.42
384.53	373.9
384.91	365.54
385.29	360.12
385.67	346.56
386.049	351.98
386.429	355.37
386.809	342.72
387.189	364.86
387.568	359.21
387.948	338.42
388.328	360.8
388.707	353.79
389.087	368.25
389.466	359.89
389.846	360.12
390.225	359.89
390.605	362.6
390.984	384.3
391.363	377.07
391.743	379.55
392.122	378.42
392.501	368.93
392.881	369.83
393.26	367.8
393.639	369.38
394.018	372.77
394.397	367.12
394.776	367.8
395.155	376.84
395.534	375.48
395.913	389.95
396.292	412.55
396.671	381.59
397.05	399.21
397.429	396.05
397.808	391.53
398.186	391.53
398.565	396.27
398.944	378.87
399.323	409.38
399.701	391.08
400.08	398.99
400.458	401.47
400.837	390.63
401.215	396.73
401.594	411.64
401.972	407.35
402.351	422.94
402.729	407.12
403.107	409.83
403.486	420
403.864	420.23
404.242	404.18
404.62	429.95
404.999	406.67
405.377	422.94
405.755	418.42
406.133	417.29
406.511	426.78
406.889	417.52
407.267	438.08
407.645	458.19
408.023	445.54
408.401	434.24
408.779	450.96
409.156	435.82
409.534	439.44
409.912	455.48
410.29	468.82
410.667	443.51
411.045	446.67
411.422	475.82
411.8	459.1
412.178	467.46
412.555	462.26
412.933	485.99
413.31	471.98
413.687	481.24
414.065	481.24
414.442	481.24
414.819	478.98
415.197	495.93
415.574	494.58
415.951	497.06
416.328	476.05
416.705	511.07
417.082	518.53
417.46	519.21
417.837	510.62
418.214	520.79
418.591	547.01
418.967	516.27
419.344	510.17
419.721	541.36
420.098	517.85
420.475	516.27
420.852	552.88
421.228	529.15
421.605	533.9
421.982	535.25
422.358	553.11
422.735	545.42
423.111	560.56
423.488	549.94
423.864	577.06
424.241	570.96
424.617	580
424.994	565.76
425.37	564.86
425.746	577.06
426.123	583.61
426.499	568.7
426.875	575.25
427.251	585.65
427.627	600.11
428.003	588.81
428.379	628.59
428.756	601.92
429.132	612.77
429.507	621.13
429.883	623.39
430.259	620.68
430.635	624.74
431.011	638.08
431.387	631.07
431.763	645.08
432.138	664.97
432.514	666.78
432.89	664.74
433.265	666.78
433.641	666.55
434.016	674.69
434.392	691.41
434.767	690.96
435.143	704.74
435.518	703.16
435.894	714.91
436.269	725.98
436.644	716.94
437.02	707.45
437.395	733.22
437.77	749.71
438.145	732.54
438.52	754.68
438.895	751.29
439.271	765.98
439.646	768.92
440.021	772.54
440.395	783.61
440.77	778.86
441.145	773.67
441.52	798.3
441.895	776.38
442.27	815.47
442.645	806.21
443.019	791.52
443.394	802.59
443.769	838.52
444.143	808.24
444.518	815.92
444.892	829.71
445.267	845.08
445.641	841.23
446.016	858.18
446.39	869.48
446.764	866.32
447.139	845.53
447.513	862.93
447.887	874.45
448.262	870.61
448.636	863.38
449.01	886.88
449.384	897.96
449.758	879.43
450.132	903.83
450.506	926.88
450.88	920.55
451.254	922.36
451.628	933.21
452.002	948.58
452.376	937.96
452.75	982.02
453.123	966.66
453.497	983.38
453.871	980.44
454.244	1007.11
454.618	1029.7
454.992	1023.15
455.365	1023.83
455.739	1055.69
456.112	1048.69
456.486	1064.73
456.859	1067.22
457.232	1081
457.606	1114
457.979	1086.88
458.352	1117.61
458.725	1133.66
459.099	1149.93
459.472	1169.81
459.845	1152.64
460.218	1184.28
460.591	1184.5
460.964	1195.58
461.337	1248
461.71	1263.6
462.083	1244.16
462.456	1255.46
462.829	1285.74
463.201	1292.52
463.574	1291.84
463.947	1307.89
464.32	1333.2
464.692	1358.51
465.065	1398.28
465.438	1402.8
465.81	1425.63
466.183	1431.28
466.555	1462.24
466.928	1466.53
467.3	1481.44
467.672	1498.17
468.045	1535.45
468.417	1546.75
468.789	1585.4
469.161	1620.42
469.534	1638.05
469.906	1666.52
470.278	1711.95
470.65	1741.32
471.022	1740.65
471.394	1805.28
471.766	1815.9
472.138	1841.43
472.51	1929.12
472.882	1912.17
473.253	1965.27
473.625	1996.91
473.997	2058.6
474.369	2094.54
474.74	2121.43
475.112	2165.27
475.484	2241.42
475.855	2299.05
476.227	2326.62
476.598	2390.35
476.97	2412.72
477.341	2477.8
477.713	2532.49
478.084	2616.33
478.455	2704.46
478.827	2729.77
479.198	2829.43
479.569	2897.9
479.94	2978.13
480.311	3039.6
480.682	3120.05
481.053	3229.42
481.424	3289.53
481.795	3387.16
482.166	3486.14
482.537	3558
482.908	3670.77
483.279	3774.49
483.65	3848.61
484.021	3932.23
484.391	4047.93
484.762	4096.52
485.133	4204.08
485.503	4308.94
485.874	4491.08
486.244	4580.57
486.615	4682.72
486.985	4807.46
487.356	4948.47
487.726	4976.27
488.097	5208.35
488.467	5241.12
488.837	5423.04
489.207	5542.13
489.578	5694.44
489.948	5870.26
490.318	5923.14
490.688	6013.53
491.058	6158.84
491.428	6313.18
491.798	6448.32
492.168	6576
492.538	6712.27
492.908	6778.03
493.278	6947.97
493.648	7037
494.017	7238.81
494.387	7364.45
494.757	7441.74
495.126	7596.31
495.496	7662.75
495.866	7799.92
496.235	7961.95
496.605	8049.41
496.974	8157.88
497.344	8315.16
497.713	8368.27
498.082	8424.99
498.452	8627.7
498.821	8672.89
499.19	8787.92
499.559	8970.74
499.928	9028.59
500.298	9132.09
500.667	9236.49
501.036	9332.09
501.405	9417.28
501.774	9434.68
502.143	9549.48
502.512	9634.9
502.88	9782.69
503.249	9824.95
503.618	9887.32
503.987	9958.06
504.356	10077.15
504.724	10126.19
505.093	10171.61
505.462	10320.08
505.83	10348.56
506.199	10403.47
506.567	10502.22
506.936	10572.96
507.304	10689.11
507.672	10745.61
508.041	10868.54
508.409	10872.38
508.777	10944.02
509.145	11078.48
509.514	11043.45
509.882	11139.95
510.25	11169.1
510.618	11213.17
510.986	11278.02
511.354	11412.48
511.722	11403.9
512.09	11575.87
512.458	11497.23
512.826	11648.86
513.193	11668.29
513.561	11671.46
513.929	11776.99
514.297	11824.9
514.664	11869.19
515.032	11830.1
515.4	11940.6
515.767	12021.73
516.135	12013.82
516.502	11954.39
516.869	12100.6
517.237	12164.1
517.604	12070.54
517.972	12149.19
518.339	12313.25
518.706	12198.45
519.073	12268.05
519.44	12329.07
519.808	12279.13
520.175	12299.92
520.542	12496.75
520.909	12521.83
521.276	12455.17
521.643	12588.04
522.009	12623.3
522.376	12677.53
522.743	12623.3
523.11	12656.29
523.477	12857.19
523.843	12825.33
524.21	12905.32
524.577	12795.5
524.943	12838.89
525.31	12940.58
525.676	12924.08
526.043	13012.44
526.409	13029.84
526.776	13109.84
527.142	13086.79
527.508	13119.78
527.874	13092.44
528.241	13085.21
528.607	13128.37
528.973	13214.69
529.339	13107.35
529.705	13243.17
530.071	13243.39
530.437	13221.47
530.803	13246.33
531.169	13212.89
531.535	13115.94
531.901	13179.44
532.267	13210.63
532.632	13132.66
532.998	13193.45
533.364	13240.91
533.73	13177.86
534.095	13182.61
534.461	13149.39
534.826	13134.7
535.192	13152.55
535.557	13273
535.923	13049.5
536.288	13211.76
536.653	13140.57
537.019	13002.5
537.384	13075.49
537.749	13075.94
538.114	13094.25
538.479	13017.86
538.845	12958.88
539.21	12953.23
539.575	12873.23
539.94	12835.95
540.305	12909.62
540.67	12872.11
541.034	12752.79
541.399	12741.49
541.764	12779.9
542.129	12757.76
542.494	12708.27
542.858	12748.94
543.223	12581.72
543.587	12615.61
543.952	12574.03
544.316	12618.55
544.681	12468.95
545.045	12506.92
545.41	12478.22
545.774	12483.41
546.138	12456.3
546.503	12409.52
546.867	12358.22
547.231	12383.08
547.595	12402.51
547.959	12408.39
548.324	12281.16
548.688	12291.56
549.052	12265.57
549.416	12227.15
549.779	12256.08
550.143	12132.69
550.507	12196.64
550.871	12146.93
551.235	12183.08
551.599	12113.71
551.962	12000.26
552.326	12132.01
552.689	12045.23
553.053	12030.77
553.417	12005.01
553.78	12073.93
554.143	11981.28
554.507	12026.48
554.87	11923.88
555.234	11991.22
555.597	11835.97
555.96	11866.93
556.323	11925.01
556.686	11817.44
557.05	11847.95
557.413	11908.74
557.776	11837.33
558.139	11904.45
558.502	11835.97
558.865	11778.57
559.228	11860.83
559.59	11810.21
559.953	11760.04
560.316	11904.9
560.679	11827.84
561.041	11878.01
561.404	11849.31
561.767	11918.23
562.129	11854.5
562.492	11981.51
562.854	11834.84
563.217	11823.55
563.579	11937.67
563.941	11939.25
564.304	11933.15
564.666	11978.12
565.028	11937.89
565.39	11935.63
565.753	12033.71
566.115	11987.61
566.477	12075.29
566.839	12074.84
567.201	12037.1
567.563	12073.93
567.925	12054.95
568.287	12093.59
568.648	12042.3
569.01	12172.46
569.372	12190.99
569.734	12082.52
570.095	12195.06
570.457	12217.43
570.819	12132.46
571.18	12160.49
571.542	12244.78
571.903	12180.15
572.265	12230.09
572.626	12224.66
572.987	12239.81
573.349	12268.51
573.71	12330.2
574.071	12320.26
574.432	12323.87
574.794	12401.61
575.155	12299.24
575.516	12354.15
575.877	12329.29
576.238	12337.43
576.599	12364.1
576.96	12386.69
577.32	12315.96
577.681	12368.62
578.042	12416.07
578.403	12348.95
578.763	12380.59
579.124	12393.25
579.485	12379.24
579.845	12446.58
580.206	12417.88
580.566	12434.83
580.927	12343.31
581.287	12419.24
581.648	12377.88
582.008	12413.36
582.368	12414.49
582.728	12355.96
583.089	12370.2
583.449	12394.38
583.809	12320.26
584.169	12328.16
584.529	12247.94
584.889	12416.52
585.249	12336.3
585.609	12313.93
585.969	12412
586.329	12315.28
586.688	12324.55
587.048	12315.51
587.408	12257.88
587.768	12233.93
588.127	12304.21
588.487	12137.21
588.846	12346.7
589.206	12136.31
589.565	12186.02
589.925	12305.34
590.284	12228.28
590.643	12164.1
591.003	12340.82
591.362	12312.35
591.721	12274.61
592.08	12182.86
592.44	12253.36
592.799	12209.07
593.158	12190.99
593.517	12174.72
593.876	12146.7
594.235	12169.07
594.593	12122.52
594.952	12193.93
595.311	12091.56
595.67	12044.78
596.029	12190.09
596.387	12261.95
596.746	12196.64
597.104	12125.23
597.463	12119.58
597.822	12141.05
598.18	12085.91
598.538	12080.94
598.897	12115.74
599.255	12080.26
599.613	12196.19
599.972	12048.4
600.33	12191.22
600.688	12075.74
601.046	12099.24
601.404	12206.81
601.762	12150.32
602.12	12189.86
602.478	12136.98
602.836	12171.78
603.194	12174.04
603.552	12198.68
603.91	12079.13
604.268	12172.91
604.625	12157.1
604.983	12128.85
605.341	12151.67
605.698	12139.92
606.056	12169.3
606.413	12111.67
606.771	12299.01
607.128	12156.87
607.485	12085.23
607.843	12210.88
608.2	12268.05
608.557	12291.56
608.914	12256.3
609.272	12271.67
609.629	12266.02
609.986	12310.99
610.343	12174.95
610.7	12433.47
611.057	12314.38
611.414	12269.86
611.771	12254.27
612.127	12332.68
612.484	12273.25
612.841	12384.43
613.198	12340.59
613.554	12360.93
613.911	12386.47
614.267	12402.29
614.624	12298.11
614.98	12344.89
615.337	12443.42
615.693	12324.77
616.05	12396.64
616.406	12455.17
616.762	12349.86
617.118	12377.65
617.475	12443.42
617.831	12461.27
618.187	12452.23
618.543	12516.18
618.899	12594.37
619.255	12453.58
619.611	12585.78
619.967	12542.85
620.323	12672.56
620.678	12556.18
621.034	12493.58
621.39	12547.14
621.746	12484.09
622.101	12588.04
622.457	12503.3
622.812	12548.5
623.168	12566.58
623.523	12574.26
623.879	12590.3
624.234	12554.83
624.589	12560.02
624.945	12636.63
625.3	12610.87
625.655	12561.83
626.01	12562.51
626.365	12561.15
626.72	12527.48
627.075	12559.8
627.43	12494.26
627.785	12496.07
628.14	12547.82
628.495	12518.44
628.85	12524.54
629.205	12486.35
629.559	12565.45
629.914	12469.86
630.269	12491.1
630.623	12446.13
630.978	12403.19
631.332	12453.58
631.687	12478.67
632.041	12397.54
632.396	12471.44
632.75	12416.3
633.104	12437.77
633.459	12302.63
633.813	12317.09
634.167	12335.62
634.521	12401.16
634.875	12353.25
635.229	12339.24
635.583	12218.34
635.937	12236.87
636.291	12244.1
636.645	12119.58
636.999	12271.89
637.352	12270.09
637.706	12182.41
638.06	12149.19
638.413	12082.07
638.767	12212.91
639.121	12153.03
639.474	12075.29
639.828	12014.5
640.181	12096.76
640.534	12069.41
640.888	12059.47
641.241	12018.57
641.594	12067.83
641.947	12125.46
642.301	12072.13
642.654	12090.2
643.007	12070.77
643.36	12024.44
643.713	12037.1
644.066	12081.84
644.419	11941.73
644.771	11931.79
645.124	11860.38
645.477	11768.86
645.83	11761.4
646.182	11680.72
646.535	11624
646.888	11720.27
647.24	11623.32
647.593	11748.97
647.945	11638.47
648.298	11596.66
648.65	11581.97
649.002	11544.23
649.355	11579.26
649.707	11622.87
650.059	11602.76
650.411	11782.64
650.763	11790.55
651.115	11851.79
651.467	11906.48
651.819	11906.93
652.171	11877.33
652.523	11834.39
652.875	11835.3
653.227	11763.66
653.578	11937.89
653.93	11868.97
654.282	11879.81
654.633	11824.9
654.985	11828.06
655.337	11882.98
655.688	11777.9
656.039	11862.87
656.391	11767.73
656.742	11824.22
657.094	11815.18
657.445	11840.95
657.796	11854.96
658.147	11776.54
658.498	11760.72
658.849	11833.04
659.2	11879.14
659.551	11821.06
659.902	11893.37
660.253	11848.63
660.604	11868.52
660.955	11900.15
661.306	11885.01
661.656	11851.79
662.007	11917.1
662.358	11870.1
662.708	11863.54
663.059	11860.15
663.409	11776.99
663.76	11881.4
664.11	11890.89
664.461	11864
664.811	11941.73
665.161	11907.61
665.511	11842.53
665.862	11883.43
666.212	11932.69
666.562	11861.28
666.912	11785.58
667.262	11857.67
667.612	11890.66
667.962	11860.83
668.312	11822.64
668.662	11908.06
669.011	11887.05
669.361	11781.06
669.711	11822.87
670.06	11857.89
670.41	11748.52
670.76	11783.77
671.109	11786.94
671.459	11851.34
671.808	11759.82
672.157	11806.6
672.507	11696.32
672.856	11725.02
673.205	11781.29
673.554	11825.8
673.904	11822.42
674.253	11755.98
674.602	11751
674.951	11626.04
675.3	11574.96
675.649	11713.94
675.998	11748.29
676.346	11718.46
676.695	11719.59
677.044	11586.72
677.393	11721.63
677.741	11628.52
678.09	11558.24
678.438	11619.03
678.787	11600.27
679.135	11581.97
679.484	11563.66
679.832	11580.61
680.181	11494.51
680.529	11499.49
680.877	11498.13
681.225	11444.57
681.573	11531.8
681.922	11500.84
682.27	11423.78
682.618	11477.11
682.966	11441.86
683.314	11460.16
683.661	11331.58
684.009	11366.83
684.357	11287.29
684.705	11267.85
685.053	11378.81
685.4	11395.31
685.748	11278.93
686.095	11176.78
686.443	11171.58
686.79	11191.47
687.138	11155.77
687.485	11163.9
687.832	11121.87
688.18	11154.18
688.527	11050.01
688.874	11028.31
689.221	10959.61
689.568	10965.26
689.915	10927.3
690.262	10895.21
690.609	10893.63
690.956	10878.71
691.303	10827.41
691.65	10806.17
691.997	10762.56
692.344	10728.88
692.69	10606.63
693.037	10649.34
693.383	10633.29
693.73	10652.05
694.077	10544.03
694.423	10557.82
694.769	10422.68
695.116	10470.36
695.462	10357.37
695.808	10418.16
696.155	10372.28
696.501	10295
696.847	10352.62
697.193	10224.27
697.539	10320.53
697.885	10172.74
698.231	10149.69
698.577	10151.95
698.923	10162.12
699.269	10003.25
699.614	10047.32
699.96	10010.71
700.306	9942.69
700.651	9914.67
700.997	9780.43
701.342	9817.95
701.688	9767.1
702.033	9733.2
702.379	9736.59
702.724	9693.43
703.069	9722.13
703.415	9561.91
703.76	9685.3
704.105	9587.67
704.45	9571.85
704.795	9519.65
705.14	9475.36
705.485	9530.72
705.83	9433.55
706.175	9504.51
706.52	9360.11
706.865	9428.13
707.209	9373.21
707.554	9346.32
707.899	9345.87
708.243	9303.16
708.588	9236.27
708.932	9236.49
709.277	9154.46
709.621	9178.87
709.966	9168.25
710.31	9145.2
710.654	9050.51
710.998	9033.79
711.342	9044.86
711.687	9044.64
712.031	9010.51
712.375	8954.69
712.719	9003.51
713.063	8927.35
713.407	8904.98
713.75	8892.77
714.094	8923.06
714.438	8900.68
714.782	8892.32
715.125	8853.91
715.469	8872.66
715.812	8835.15
716.156	8756.73
716.499	8751.54
716.843	8758.77
717.186	8668.83
717.53	8765.09
717.873	8762.16
718.216	8729.39
718.559	8649.62
718.902	8565.78
719.246	8601.48
719.589	8680.8
719.932	8576.4
720.275	8615.49
720.617	8640.8
720.96	8577.08
721.303	8568.04
721.646	8606.23
721.989	8551.54
722.331	8497.53
722.674	8514.25
723.016	8585.21
723.359	8511.77
723.701	8540.47
724.044	8509.73
724.386	8442.84
724.729	8487.81
725.071	8475.38
725.413	8464.76
725.755	8439.23
726.097	8476.51
726.439	8376.63
726.782	8420.7
727.124	8431.09
727.465	8379.79
727.807	8396.74
728.149	8392
728.491	8369.4
728.833	8363.3
729.175	8339.12
729.516	8354.03
729.858	8346.12
730.199	8396.52
730.541	8322.85
730.882	8346.35
731.224	8389.51
731.565	8352.9
731.906	8306.12
732.248	8348.16
732.589	8288.27
732.93	8242.4
733.271	8325.56
733.612	8330.53
733.953	8346.12
734.294	8317.2
734.635	8337.76
734.976	8332.11
735.317	8273.36
735.658	8259.57
735.999	8267.48
736.339	8342.51
736.68	8335.73
737.021	8327.59
737.361	8281.94
737.702	8359.23
738.042	8368.27
738.383	8296.63
738.723	8342.28
739.063	8307.03
739.404	8352
739.744	8333.69
740.084	8318.1
740.424	8354.26
740.764	8420.7
741.104	8425.89
741.444	8417.31
741.784	8418.21
742.124	8399
742.464	8409.4
742.804	8393.58
743.143	8491.66
743.483	8533.69
743.823	8514.25
744.162	8507.25
744.502	8549.96
744.841	8536.4
745.181	8621.37
745.52	8606.45
745.86	8645.55
746.199	8730.52
746.538	8728.26
746.877	8773.46
747.216	8815.71
747.556	8863.85
747.895	8906.11
748.234	8924.41
748.573	8982.26
748.911	9002.6
749.25	9065.88
749.589	9052.77
749.928	9212.77
750.267	9232.65
750.605	9299.32
750.944	9418.64
751.283	9461.12
751.621	9487.11
751.96	9624.73
752.298	9667.67
752.636	9768.68
752.975	9843.03
753.313	9948.57
753.651	10021.78
753.989	10101.33
754.327	10213.64
754.666	10306.07
755.004	10452.28
755.342	10421.77
755.679	10654.08
756.017	10664.25
756.355	10920.29
756.693	10925.49
757.031	11123
757.368	11184.01
757.706	11340.85
758.044	11458.13
758.381	11664.68
758.719	11756.43
759.056	11867.16
759.394	12028.29
759.731	12158.9
760.068	12273.7
760.405	12428.27
760.743	12557.76
761.08	12807.02
761.417	12885.89
761.754	13024.64
762.091	13193.9
762.428	13369.04
762.765	13394.8
763.102	13702.82
763.438	13782.36
763.775	13972.64
764.112	14105.74
764.449	14334.21
764.785	14413.08
765.122	14473.87
765.458	14669.8
765.795	14874.54
766.131	14898.94
766.467	15169.9
766.804	15276.34
767.14	15346.39
767.476	15540.28
767.812	15616.44
768.148	15741.41
768.485	15848.75
768.821	15822.31
769.157	16024.56
769.492	16142.08
769.828	16359.92
770.164	16359.47
770.5	16459.81
770.836	16592.01
771.171	16667.94
771.507	16734.38
771.842	16813.24
772.178	16947.7
772.513	17021.37
772.849	17067.02
773.184	17144.99
773.519	17272.22
773.855	17281.71
774.19	17261.14
774.525	17408.48
774.86	17537.07
775.195	17635.6
775.53	17663.39
775.865	17523.06
776.2	17642.83
776.535	17620.23
776.87	17681.02
777.205	17780.22
777.539	17742.49
777.874	17855.93
778.209	17765.76
778.543	17834.91
778.878	17725.99
779.212	17861.13
779.547	17888.92
779.881	17926.89
780.215	17842.14
780.55	17996.26
780.884	17938.64
781.218	17852.77
781.552	18029.03
781.886	18012.08
782.22	17897.06
782.554	17962.37
782.888	17761.47
783.222	17858.19
783.556	17728.47
783.889	17839.88
784.223	17754.01
784.557	17833.78
784.89	17812.77
785.224	17796.27
785.557	17791.75
785.891	17760.79
786.224	17706.1
786.558	17775.48
786.891	17684.41
787.224	17659.55
787.557	17651.64
787.891	17715.59
788.224	17713.11
788.557	17662.26
788.89	17642.38
789.223	17729.6
789.556	17527.35
789.888	17611.19
790.221	17532.55
790.554	17406.22
790.887	17474.24
791.219	17416.39
791.552	17371.2
791.884	17328.49
792.217	17323.97
792.549	17334.59
792.882	17189.28
793.214	17117.42
793.546	17257.75
793.879	17039.23
794.211	16994.93
794.543	17104.31
794.875	16970.53
795.207	17128.26
795.539	17001.04
795.871	16942.73
796.203	16848.05
796.535	16736.64
796.867	16753.36
797.198	16701.16
797.53	16736.86
797.862	16612.57
798.193	16717.88
798.525	16522.63
798.856	16619.58
799.188	16472.24
799.519	16450.99
799.85	16353.14
800.182	16385.68
800.513	16455.29
800.844	16257.33
801.175	16421.84
801.506	16275.41
801.837	16233.15
802.168	16183.66
802.499	16117.67
802.83	16139.59
803.161	15996.32
803.491	16094.62
803.822	16053.94
804.153	15959.03
804.483	15966.26
804.814	15805.14
805.145	15815.08
805.475	15867.28
805.805	15766.49
806.136	15773.5
806.466	15795.64
806.796	15770.79
807.126	15625.7
807.457	15466.16
807.787	15620.28
808.117	15545.48
808.447	15440.17
808.777	15526.95
809.107	15414.19
809.436	15370.57
809.766	15432.49
810.096	15360.63
810.426	15338.25
810.755	15249.9
811.085	15260.06
811.414	15302.55
811.744	15092.16
812.073	15133.51
812.403	15147.53
812.732	15060.07
813.061	15018.26
813.39	14920.41
813.719	14926.06
814.049	15051.26
814.378	14991.82
814.707	14854.43
815.036	14847.65
815.365	14865.95
815.693	14765.61
816.022	14784.15
816.351	14698.27
816.68	14618.5
817.008	14755.45
817.337	14592.06
817.665	14562.68
817.994	14546.19
818.322	14538.28
818.651	14463.02
818.979	14444.49
819.307	14503.25
819.636	14474.32
819.964	14384.83
820.292	14489.69
820.62	14449.24
820.948	14339.86
821.276	14444.95
821.604	14335.12
821.932	14435.68
822.259	14495.79
822.587	14356.13
822.915	14367.43
823.243	14438.39
823.57	14327.43
823.898	14366.53
824.225	14385.51
824.553	14307.1
824.88	14376.02
825.207	14381.67
825.535	14362.69
825.862	14413.53
826.189	14418.28
826.516	14352.07
826.843	14486.98
827.17	14383.03
827.497	14437.71
827.824	14437.04
828.151	14412.63
828.478	14352.74
828.805	14484.04
829.131	14364.95
829.458	14413.53
829.785	14274.78
830.111	14326.98
830.438	14371.73
830.764	14400.88
831.09	14437.26
831.417	14368.56
831.743	14390.71
832.069	14273.65
832.395	14308.23
832.722	14376.25
833.048	14364.95
833.374	14271.39
833.7	14290.15
834.026	14247.66
834.351	14261
834.677	14225.97
835.003	14305.51
835.329	14332.18
835.654	14241.56
835.98	14160.66
836.306	14210.15
836.631	14160.43
836.956	14181.45
837.282	14131.73
837.607	14161.34
837.932	14116.37
838.258	14053.54
838.583	14084.28
838.908	14029.36
839.233	14088.8
839.558	14040.21
839.883	13924.28
840.208	13998.86
840.533	13900.55
840.858	13891.51
841.182	13933.09
841.507	13860.55
841.832	13768.8
842.156	13748.47
842.481	13765.41
842.805	13742.82
843.13	13626.66
843.454	13713.21
843.778	13661.91
844.103	13618.3
844.427	13541.24
844.751	13580.79
845.075	13541.92
845.399	13536.95
845.723	13405.2
846.047	13421.02
846.371	13257.63
846.695	13294.47
847.019	13243.39
847.343	13142.83
847.666	13125.66
847.99	13047.69
848.313	13046.79
848.637	12985.77
848.96	12911.65
849.284	12886.34
849.607	12862.39
849.931	12837.53
850.254	12774.71
850.577	12608.84
850.9	12542.17
851.223	12517.54
851.546	12516.63
851.869	12398.22
852.192	12525.45
852.515	12340.82
852.838	12244.55
853.161	12305.11
853.483	12240.71
853.806	12186.02
854.129	12141.73
854.451	12194.61
854.774	12074.16
855.096	12067.15
855.419	11995.52
855.741	12018.57
856.063	11892.24
856.385	11880.49
856.708	11813.15
857.03	11839.82
857.352	11777.44
857.674	11701.97
857.996	11697.22
858.318	11655.87
858.64	11617.9
858.961	11664.68
859.283	11552.14
859.605	11541.52
859.926	11541.52
860.248	11507.4
860.57	11402.99
860.891	11449.09
861.212	11346.5
861.534	11360.28
861.855	11311.69
862.176	11294.29
862.498	11327.96
862.819	11345.37
863.14	11311.47
863.461	11241.64
863.782	11268.76
864.103	11197.12
864.424	11232.83
864.745	11192.6
865.065	11169.78
865.386	11094.52
865.707	11033.51
866.027	11067.41
866.348	11021.98
866.668	11049.33
866.989	10976.79
867.309	10981.99
867.63	10992.15
867.95	10972.72
868.27	10871.25
868.59	10928.43
868.91	10880.29
869.23	10956.9
869.55	10828.99
869.87	10883.23
870.19	10782.22
870.51	10807.07
870.83	10836.68
871.15	10765.04
871.469	10770.24
871.789	10747.19
872.109	10755.78
872.428	10718.49
872.748	10794.42
873.067	10715.55
873.386	10636.91
873.706	10725.72
874.025	10533.86
874.344	10546.52
874.663	10699.73
874.982	10589.68
875.301	10544.03
875.62	10507.42
875.939	10570.47
876.258	10569.57
876.577	10526.86
876.896	10519.85
877.214	10433.98
877.533	10423.58
877.852	10389.46
878.17	10337.48
878.489	10447.08
878.807	10337.03
879.125	10429.01
879.444	10338.61
879.762	10301.1
880.08	10365.05
880.398	10297.03
880.716	10259.74
881.034	10231.72
881.352	10219.07
881.67	10193.08
881.988	10245.51
882.306	10159.63
882.624	10160.99
882.941	10071.95
883.259	10024.04
883.577	10054.1
883.894	10061.33
884.212	10064.5
884.529	10000.54
884.846	9944.05
885.164	9984.72
885.481	9879.19
885.798	10008.45
886.115	9936.36
886.432	9816.37
886.75	9832.86
887.067	9853.2
887.383	9814.56
887.7	9829.7
888.017	9752.19
888.334	9741.57
888.651	9678.74
888.967	9714
889.284	9649.36
889.6	9542.02
889.917	9604.39
890.233	9564.62
890.55	9515.58
890.866	9511.97
891.182	9512.87
891.498	9457.73
891.815	9429.26
892.131	9313.1
892.447	9337.06
892.763	9330.28
893.079	9362.14
893.395	9269.49
893.71	9295.93
894.026	9199.89
894.342	9205.76
894.657	9192.65
894.973	9093
895.289	9132.77
895.604	9093.22
895.92	9005.77
896.235	8921.47
896.55	8963.28
896.865	8977.29
897.181	8956.5
897.496	8868.82
897.811	8850.29
898.126	8857.97
898.441	8798.09
898.756	8831.53
899.071	8740.24
899.386	8723.97
899.7	8651.65
900.015	8652.78
900.33	8545.21
900.644	8537.76
900.959	8630.86
901.273	8510.19
901.588	8463.41
901.902	8489.17
902.216	8431.32
902.531	8444.65
902.845	8376.86
903.159	8331.43
903.473	8325.56
903.787	8314.03
904.101	8253.24
904.415	8217.31
904.729	8126.92
905.042	8173.02
905.356	8107.26
905.67	8106.35
905.984	8073.36
906.297	8065.9
906.611	8005.34
906.924	7995.62
907.237	7919.69
907.551	7908.62
907.864	7872.69
908.177	7880.82
908.491	7816.64
908.804	7761.05
909.117	7695.97
909.43	7698.68
909.743	7655.75
910.056	7618.46
910.368	7581.17
910.681	7568.29
910.994	7585.92
911.307	7561.74
911.619	7429.08
911.932	7527.84
912.244	7418.46
912.557	7435.19
912.869	7349.31
913.181	7270.22
913.494	7299.6
913.806	7241.97
914.118	7218.69
914.43	7215.3
914.742	7143.89
915.054	7140.73
915.366	7055.08
915.678	7065.25
915.99	7062.99
916.302	7020.06
916.613	6969.89
916.925	6998.59
917.236	6959.49
917.548	6905.93
917.859	6877.23
918.171	6893.51
918.482	6827.07
918.794	6785.26
919.105	6796.33
919.416	6787.07
919.727	6692.83
920.038	6758.37
920.349	6688.76
920.66	6588.65
920.971	6644.02
921.282	6589.56
921.593	6583
921.903	6519.96
922.214	6556.11
922.525	6508.88
922.835	6470.47
923.146	6426.4
923.456	6381.88
923.767	6404.7
924.077	6350.69
924.387	6313.41
924.697	6234.31
925.008	6257.14
925.318	6278.15
925.628	6222.56
925.938	6225.05
926.248	6132.17
926.558	6176.46
926.867	6065.5
927.177	6122.23
927.487	6133.07
927.796	6044.71
928.106	6029.57
928.416	6003.36
928.725	6035.45
929.034	5952.96
929.344	5920.42
929.653	5931.04
929.962	5838.62
930.271	5853.08
930.581	5835.23
930.89	5759.3
931.199	5768.34
931.508	5703.03
931.817	5724.72
932.125	5728.34
932.434	5682.69
932.743	5663.26
933.051	5596.36
933.36	5642.01
933.669	5595.91
933.977	5558.85
934.286	5557.95
934.594	5559.3
934.902	5503.71
935.21	5458.51
935.519	5491.73
935.827	5414.45
936.135	5423.49
936.443	5331.06
936.751	5361.79
937.059	5427.78
937.367	5325.64
937.674	5358.86
937.982	5328.12
938.29	5282.47
938.597	5258.52
938.905	5236.83
939.213	5148.47
939.52	5148.92
939.827	5176.04
940.135	5136.26
940.442	5090.61
940.749	5134
941.056	5068.47
941.363	5053.55
941.67	5012.42
941.977	4989.37
942.284	4961.58
942.591	4973.33
942.898	4948.02
943.205	4919.09
943.511	4867.57
943.818	4900.56
944.125	4814.01
944.431	4820.11
944.738	4812.43
945.044	4777.18
945.35	4797.74
945.657	4729.49
945.963	4683.62
946.269	4694.47
946.575	4689.04
946.881	4677.07
947.187	4621.93
947.493	4634.13
947.799	4621.47
948.105	4564.07
948.41	4576.28
948.716	4582.61
949.022	4524.53
949.327	4552.55
949.633	4464.87
949.938	4498.99
950.244	4480.91
950.549	4440.69
950.854	4390.75
951.16	4423.51
951.465	4395.04
951.77	4336.51
952.075	4308.49
952.38	4339.67
952.685	4298.32
952.99	4281.37
953.294	4267.81
953.599	4258.32
953.904	4245.67
954.209	4214.48
954.513	4208.38
954.818	4128.83
955.122	4166.35
955.426	4158.21
955.731	4108.72
956.035	4131.77
956.339	4129.06
956.643	4064.43
956.948	4035.5
957.252	4015.16
957.556	4012.9
957.86	4014.48
958.163	3958.89
958.467	3988.72
958.771	3936.97
959.075	3899.46
959.378	3877.31
959.682	3967.03
959.985	3911.44
960.289	3887.26
960.592	3844.55
960.896	3837.77
961.199	3831.21
961.502	3809.07
961.805	3787.82
962.108	3738.79
962.411	3758.9
962.714	3733.59
963.017	3752.12
963.32	3731.1
963.623	3706.24
963.926	3692.69
964.228	3645.68
964.531	3672.57
964.833	3651.78
965.136	3615.63
965.438	3596.64
965.741	3566.81
966.043	3579.92
966.345	3558.23
966.648	3589.86
966.95	3553.93
967.252	3510.54
967.554	3483.88
967.856	3442.3
968.158	3452.92
968.46	3455.18
968.761	3444.78
969.063	3448.62
969.365	3397.1
969.666	3386.48
969.968	3384.67
970.269	3347.16
970.571	3384.22
970.872	3320.27
971.174	3298.8
971.475	3317.78
971.776	3293.37
972.077	3280.04
972.378	3274.62
972.679	3249.31
972.98	3217.67
973.281	3232.13
973.582	3201.62
973.883	3169.99
974.183	3184.45
974.484	3191.46
974.785	3145.13
975.085	3177.67
975.386	3138.35
975.686	3101.29
975.986	3108.52
976.287	3056.32
976.587	3117.56
976.887	3061.97
977.187	3054.96
977.487	3075.98
977.787	2974.96
978.087	2989.88
978.387	2967.96
978.687	2970.22
978.987	2928.19
979.286	2948.07
979.586	2945.59
979.885	2914.4
980.185	2899.71
980.484	2873.95
980.784	2894.74
981.083	2888.41
981.382	2798.7
981.682	2853.84
981.981	2822.43
982.28	2842.99
982.579	2760.73
982.878	2825.59
983.177	2784.23
983.475	2753.05
983.774	2748.98
984.073	2751.69
984.372	2707.17
984.67	2718.7
984.969	2700.62
985.267	2660.17
985.566	2684.12
985.864	2652.26
986.162	2681.41
986.461	2653.84
986.759	2626.5
987.057	2596.89
987.355	2614.07
987.653	2606.16
987.951	2584.24
988.249	2562.55
988.547	2588.53
988.844	2560.51
989.142	2531.13
989.44	2535.2
989.737	2503.56
990.035	2511.7
990.332	2522.77
990.63	2466.95
990.927	2472.6
991.224	2438.93
991.521	2442.55
991.819	2445.71
992.116	2432.38
992.413	2424.92
992.71	2386.51
993.006	2389.22
993.303	2352.61
993.6	2405.94
993.897	2368.43
994.193	2370.69
994.49	2332.72
994.787	2336.34
995.083	2313.74
995.379	2313.96
995.676	2323.91
995.972	2312.38
996.268	2289.78
996.565	2281.2
996.861	2241.65
997.157	2262.21
997.453	2228.54
997.749	2210.92
998.044	2215.21
998.34	2191.03
998.636	2172.5
998.932	2181.76
999.227	2147.87
999.523	2144.03
999.818	2135.66
1000.114	2123.01
1000.409	2092.28
1000.704	2102.67
1001	2068.32
1001.295	2062.45
1001.59	2059.73
1001.885	2057.7
1002.18	2023.35
1002.475	1995.1
1002.77	2040.98
1003.065	2003.01
1003.359	2052.73
1003.654	1999.62
1003.949	1967.76
1004.243	1946.74
1004.538	1960.3
1004.832	1955.33
1005.127	1959.4
1005.421	1946.74
1005.715	1948.78
1006.009	1889.79
1006.304	1898.83
1006.598	1864.48
1006.892	1883.69
1007.186	1837.37
1007.48	1856.8
1007.773	1864.94
1008.067	1832.4
1008.361	1836.24
1008.655	1829.01
1008.948	1808.44
1009.242	1783.13
1009.535	1789.46
1009.829	1771.61
1010.122	1764.37
1010.415	1754.21
1010.708	1744.04
1011.001	1741.55
1011.295	1699.29
1011.588	1692.29
1011.881	1669.24
1012.173	1715.56
1012.466	1704.49
1012.759	1687.31
1013.052	1692.96
1013.344	1639.63
1013.637	1642.57
1013.93	1647.54
1014.222	1621.1
1014.514	1604.6
1014.807	1582.68
1015.099	1607.54
1015.391	1576.58
1015.683	1578.16
1015.976	1574.55
1016.268	1575
1016.56	1548.79
1016.851	1512.86
1017.143	1526.41
1017.435	1522.12
1017.727	1531.16
1018.018	1476.47
1018.31	1485.74
1018.602	1482.57
1018.893	1471.27
1019.185	1460.88
1019.476	1461.33
1019.767	1457.49
1020.058	1453.2
1020.35	1432.63
1020.641	1440.99
1020.932	1370.49
1021.223	1417.26
1021.514	1413.88
1021.804	1376.36
1022.095	1373.2
1022.386	1389.47
1022.677	1330.94
1022.967	1332.07
1023.258	1355.8
1023.548	1335.01
1023.839	1331.62
1024.129	1343.59
1024.419	1268.57
1024.709	1303.37
1025	1292.07
1025.29	1264.05
1025.58	1278.74
1025.87	1239.87
1026.16	1242.81
1026.449	1264.27
1026.739	1233.77
1027.029	1240.09
1027.319	1210.49
1027.608	1244.39
1027.898	1207.78
1028.187	1218.17
1028.477	1179.08
1028.766	1187.89
1029.055	1194.9
1029.344	1168.46
1029.634	1167.33
1029.923	1163.03
1030.212	1173.88
1030.501	1156.71
1030.79	1105.63
1031.078	1111.74
1031.367	1125.97
1031.656	1101.57
1031.945	1105.86
1032.233	1113.54
1032.522	1113.77
1032.81	1076.26
1033.099	1064.28
1033.387	1089.36
1033.675	1092.08
1033.963	1076.03
1034.251	1054.34
1034.54	1034.22
1034.828	1048.46
1035.116	1035.13
1035.403	1031.29
1035.691	1001.91
1035.979	995.13
1036.267	1015.02
1036.554	991.29
1036.842	986.54
1037.129	967.33
1037.417	979.31
1037.704	974.11
1037.992	975.92
1038.279	946.54
1038.566	943.61
1038.853	943.61
1039.14	943.61
