Data from hue_270_FLMS001491_00017.txt Node
Date: Tue Feb 07 15:56:50 GMT 2017
User: dcchb
Spectrometer: FLMS00149
Trigger mode: 0
Integration Time (sec): 2.000000E-2
Scans to average: 10
Electric dark correction enabled: true
Nonlinearity correction enabled: false
Boxcar width: 0
XAxis mode: Wavelengths
Number of Pixels in Spectrum: 2048
>>>>>Begin Spectral Data<<<<<
341.393	-16.2
341.776	-16.2
342.16	-16.2
342.543	-54.39
342.927	-69.31
343.31	-93.94
343.693	-59.14
344.077	-71.34
344.46	-57.55
344.843	-50.78
345.226	-41.74
345.61	-43.54
345.993	1.88
346.376	-10.78
346.759	14.31
347.142	36.91
347.525	41.2
347.908	62.67
348.291	77.81
348.674	77.36
349.057	116.68
349.44	128.2
349.823	149.67
350.206	165.26
350.588	208.88
350.971	189.44
351.354	213.4
351.737	228.77
352.119	248.65
352.502	250.01
352.884	265.83
353.267	264.92
353.65	298.82
354.032	297.69
354.414	308.31
354.797	325.49
355.179	306.73
355.562	318.25
355.944	329.78
356.326	350.12
356.709	331.36
357.091	342.43
357.473	360.29
357.855	344.02
358.238	344.69
358.62	323.23
359.002	330.46
359.384	345.15
359.766	323.23
360.148	331.14
360.53	337.46
360.912	370.46
361.294	337.01
361.676	320.74
362.057	345.15
362.439	315.99
362.821	330.23
363.203	325.71
363.584	349.67
363.966	309.89
364.348	340.4
364.729	301.31
365.111	303.57
365.493	324.81
365.874	313.28
366.256	318.03
366.637	313.96
367.019	313.06
367.4	311.7
367.781	298.14
368.163	338.37
368.544	312.38
368.925	304.92
369.306	310.57
369.688	326.16
370.069	300.85
370.45	321.19
370.831	312.83
371.212	309.89
371.593	323
371.974	311.47
372.355	308.99
372.736	327.29
373.117	309.44
373.498	332.04
373.879	323.68
374.26	305.15
374.641	312.6
375.021	308.09
375.402	319.16
375.783	292.72
376.163	311.7
376.544	319.38
376.925	317.35
377.305	315.32
377.686	308.76
378.066	323.23
378.447	337.46
378.827	338.14
379.208	330.46
379.588	329.33
379.968	336.11
380.349	331.14
380.729	333.85
381.109	360.74
381.489	333.62
381.87	346.05
382.25	342.89
382.63	329.55
383.01	331.14
383.39	346.28
383.77	341.98
384.15	340.17
384.53	373.17
384.91	342.21
385.29	357.58
385.67	365.94
386.049	348.99
386.429	368.65
386.809	346.95
387.189	339.27
387.568	362.77
387.948	340.63
388.328	348.54
388.707	362.09
389.087	358.71
389.466	360.74
389.846	347.18
390.225	353.28
390.605	367.52
390.984	384.47
391.363	360.51
391.743	372.49
392.122	376.56
392.501	362.32
392.881	369.33
393.26	398.7
393.639	384.69
394.018	381.76
394.397	388.99
394.776	371.13
395.155	363.68
395.534	400.51
395.913	401.19
396.292	401.19
396.671	377.01
397.05	396.9
397.429	399.38
397.808	397.12
398.186	415.65
398.565	410.23
398.944	404.35
399.323	395.54
399.701	391.25
400.08	440.06
400.458	427.18
400.837	407.07
401.215	426.5
401.594	421.53
401.972	406.39
402.351	434.86
402.729	419.04
403.107	443.67
403.486	437.8
403.864	423.11
404.242	442.54
404.62	437.8
404.999	444.13
405.377	433.05
405.755	453.62
406.133	486.84
406.511	463.34
406.889	435.54
407.267	479.83
407.645	482.77
408.023	482.54
408.401	497.46
408.779	492.04
409.156	501.07
409.534	490.23
409.912	502.66
410.29	532.03
410.667	525.25
411.045	527.51
411.422	520.73
411.8	519.38
412.178	546.27
412.555	533.39
412.933	547.17
413.31	560.96
413.687	583.33
414.065	569.77
414.442	584.46
414.819	613.16
415.197	600.05
415.574	606.16
415.951	605.03
416.328	615.42
416.705	631.24
417.082	632.82
417.46	630.34
417.837	671.92
418.214	646.38
418.591	651.35
418.967	647.74
419.344	673.27
419.721	677.79
420.098	676.89
420.475	700.62
420.852	726.15
421.228	709.2
421.605	742.65
421.982	722.31
422.358	743.78
422.735	769.54
423.111	776.32
423.488	789.43
423.864	788.52
424.241	794.4
424.617	791.24
424.994	828.52
425.37	832.59
425.746	814.29
426.123	836.43
426.499	854.51
426.875	873.72
427.251	881.86
427.627	880.05
428.003	885.47
428.379	887.28
428.756	891.8
429.132	931.8
429.507	953.27
429.883	929.09
430.259	952.36
430.635	963.66
431.011	930.67
431.387	997.11
431.763	1024
432.138	983.32
432.514	1031.23
432.89	1015.86
433.265	1069.87
433.641	1070.78
434.016	1081.4
434.392	1111.91
434.767	1121.4
435.143	1141.28
435.518	1143.54
435.894	1157.55
436.269	1156.88
436.644	1202.52
437.02	1233.26
437.395	1232.13
437.77	1238.68
438.145	1251.11
438.52	1293.14
438.895	1314.61
439.271	1299.92
439.646	1325.01
440.021	1334.27
440.395	1339.24
440.77	1327.49
441.145	1405.01
441.52	1386.25
441.895	1392.12
442.27	1428.96
442.645	1395.97
443.019	1442.52
443.394	1465.34
443.769	1452.01
444.143	1463.76
444.518	1501.95
444.892	1474.83
445.267	1482.97
445.641	1507.38
446.016	1521.61
446.39	1548.96
446.764	1528.39
447.139	1539.69
447.513	1548.28
447.887	1580.14
448.262	1569.29
448.636	1565
449.01	1580.59
449.384	1641.16
449.758	1619.69
450.132	1632.8
450.506	1650.87
450.88	1682.29
451.254	1654.26
451.628	1687.71
452.002	1682.96
452.376	1694.72
452.75	1723.19
453.123	1708.95
453.497	1725.22
453.871	1738.56
454.244	1775.39
454.618	1766.13
454.992	1795.28
455.365	1819.46
455.739	1850.42
456.112	1845.9
456.486	1871.66
456.859	1914.82
457.232	1911.21
457.606	1907.59
457.979	1945.56
458.352	1959.34
458.725	1977.87
459.099	2001.37
459.472	2061.03
459.845	2049.28
460.218	2061.03
460.591	2082.28
460.964	2091.77
461.337	2127.92
461.71	2123.86
462.083	2160.69
462.456	2155.72
462.829	2186.23
463.201	2185.78
463.574	2221.93
463.947	2230.52
464.32	2269.16
464.692	2289.28
465.065	2284.3
465.438	2302.83
465.81	2351.65
466.183	2366.34
466.555	2414.92
466.928	2405.43
467.3	2441.14
467.672	2472.55
468.045	2508.25
468.417	2498.76
468.789	2539.44
469.161	2531.3
469.534	2605.88
469.906	2592.77
470.278	2650.4
470.65	2683.39
471.022	2708.93
471.394	2763.84
471.766	2766.55
472.138	2777.17
472.51	2810.39
472.882	2836.38
473.253	2887
473.625	2938.75
473.997	2984.17
474.369	3004.29
474.74	2990.5
475.112	3070.95
475.484	3104.62
475.855	3115.02
476.227	3187.33
476.598	3241.57
476.97	3239.53
477.341	3331.28
477.713	3325.86
478.084	3354.33
478.455	3432.3
478.827	3445.4
479.198	3536.93
479.569	3528.34
479.94	3622.8
480.311	3626.42
480.682	3695.11
481.053	3751.84
481.424	3808.11
481.795	3839.29
482.166	3899.4
482.537	3932.17
482.908	3982.79
483.279	4007.87
483.65	4057.14
484.021	4160.87
484.391	4187.53
484.762	4196.8
485.133	4228.21
485.503	4257.13
485.874	4332.61
486.244	4358.6
486.615	4435.66
486.985	4453.29
487.356	4531.7
487.726	4563.57
488.097	4665.71
488.467	4683.56
488.837	4706.61
489.207	4775.54
489.578	4811.02
489.948	4849.89
490.318	4899.83
490.688	4921.52
491.058	4978.92
491.428	5027.96
491.798	5043.55
492.168	5124.23
492.538	5129.88
492.908	5158.13
493.278	5272.02
493.648	5237.22
494.017	5272.25
494.387	5330.55
494.757	5378.69
495.126	5390.44
495.496	5428.85
495.866	5446.93
496.235	5489.87
496.605	5522.86
496.974	5487.38
497.344	5594.73
497.713	5605.12
498.082	5606.02
498.452	5668.4
498.821	5641.5
499.19	5659.58
499.559	5743.2
499.928	5751.11
500.298	5803.76
500.667	5895.06
501.036	5846.7
501.405	5832.46
501.774	5889.18
502.143	5911.78
502.512	5932.57
502.88	5997.88
503.249	5941.61
503.618	6013.47
503.987	6050.31
504.356	6034.04
504.724	6029.52
505.093	6066.8
505.462	6078.33
505.83	6106.8
506.199	6106.58
506.567	6158.33
506.936	6172.56
507.304	6218.21
507.672	6258.89
508.041	6257.53
508.409	6297.53
508.777	6248.27
509.145	6295.05
509.514	6310.87
509.882	6297.98
510.25	6361.26
510.618	6357.42
510.986	6372.78
511.354	6435.38
511.722	6464.76
512.09	6518.54
512.458	6493.91
512.826	6512.89
513.193	6541.37
513.561	6549.73
513.929	6493.23
514.297	6619.78
514.664	6564.64
515.032	6570.75
515.4	6657.75
515.767	6620.91
516.135	6623.4
516.502	6605.55
516.869	6700.91
517.237	6629.73
517.604	6633.12
517.972	6707.46
518.339	6725.32
518.706	6689.39
519.073	6729.39
519.44	6798.76
519.808	6852.32
520.175	6770.06
520.542	6822.94
520.909	6858.2
521.276	6816.16
521.643	6860
522.009	6825.2
522.376	6836.05
522.743	6909.95
523.11	6970.28
523.477	6978.19
523.843	7015.48
524.21	7041.69
524.577	7066.55
524.943	7049.6
525.31	7090.73
525.676	7093.9
526.043	7147.45
526.409	7146.55
526.776	7164.18
527.142	7177.73
527.508	7179.99
527.874	7250.95
528.241	7277.39
528.607	7208.92
528.973	7287.79
529.339	7283.72
529.705	7342.48
530.071	7401.23
530.437	7404.85
530.803	7403.27
531.169	7486.2
531.535	7394.68
531.901	7381.57
532.267	7372.76
532.632	7484.17
532.998	7457.5
533.364	7472.42
533.73	7557.84
534.095	7509.03
534.461	7504.51
534.826	7533.88
535.192	7610.04
535.557	7586.54
535.923	7565.75
536.288	7568.69
536.653	7629.47
537.019	7558.74
537.384	7582.02
537.749	7570.04
538.114	7618.18
538.479	7611.85
538.845	7669.47
539.21	7580.66
539.575	7597.61
539.94	7652.07
540.305	7641.23
540.67	7668.8
541.034	7734.78
541.399	7726.87
541.764	7672.86
542.129	7658.85
542.494	7738.4
542.858	7701.34
543.223	7714.22
543.587	7782.92
543.952	7678.06
544.316	7712.41
544.681	7670.15
545.045	7705.63
545.41	7700.21
545.774	7714.22
546.138	7800.54
546.503	7779.98
546.867	7732.97
547.231	7790.37
547.595	7787.44
547.959	7770.71
548.324	7784.05
548.688	7855.23
549.052	7836.02
549.416	7837.15
549.779	7760.54
550.143	7832.41
550.507	7894.55
550.871	7866.76
551.235	7805.52
551.599	7858.4
551.962	7867.89
552.326	7890.71
552.689	7923.03
553.053	7876.25
553.417	7920.54
553.78	7969.13
554.143	7869.92
554.507	7967.77
554.87	7992.63
555.234	8091.16
555.597	7989.01
555.96	8001.67
556.323	8041.22
556.686	8005.06
557.05	8068.11
557.413	8041.89
557.776	8052.74
558.139	8087.32
558.502	8102.68
558.865	8061.1
559.228	8169.35
559.59	8226.97
559.953	8155.79
560.316	8233.98
560.679	8190.36
561.041	8257.48
561.404	8285.73
561.767	8287.08
562.129	8267.65
562.492	8386.29
562.854	8363.47
563.217	8357.36
563.579	8386.97
563.941	8398.27
564.304	8464.03
564.666	8430.58
565.028	8492.28
565.39	8581.09
565.753	8571.6
566.115	8524.14
566.477	8596.45
566.839	8630.35
567.201	8632.16
567.563	8667.19
567.925	8756
568.287	8740.86
568.648	8750.8
569.01	8816.79
569.372	8780.4
569.734	8774.76
570.095	8879.84
570.457	8891.59
570.819	8958.71
571.18	8884.81
571.542	9039.38
571.903	8960.96
572.265	9010.23
572.626	9073.73
572.987	9067.63
573.349	9083
573.71	9125.03
574.071	9137.01
574.432	9144.01
574.794	9284.12
575.155	9191.02
575.516	9228.75
575.877	9175.2
576.238	9275.31
576.599	9324.8
576.96	9315.53
577.32	9401.41
577.681	9427.39
578.042	9480.95
578.403	9488.41
578.763	9461.29
579.124	9537.67
579.485	9506.04
579.845	9539.48
580.206	9594.39
580.566	9628.97
580.927	9676.88
581.287	9636.65
581.648	9680.27
582.008	9793.26
582.368	9760.49
582.728	9781.28
583.089	9828.51
583.449	9817.21
583.809	9916.87
584.169	9916.19
584.529	9894.5
584.889	10002.07
585.249	9939.47
585.609	9911.45
585.969	9977.89
586.329	10001.62
586.688	9992.35
587.048	10033.71
587.408	9997.32
587.768	10033.03
588.127	10080.71
588.487	10174.94
588.846	10151.89
589.206	10186.02
589.565	10240.25
589.925	10263.76
590.284	10334.94
590.643	10299.01
591.003	10263.08
591.362	10435.95
591.721	10314.6
592.08	10350.31
592.44	10418.1
592.799	10411.1
593.158	10410.64
593.517	10441.38
593.876	10411.1
594.235	10421.04
594.593	10484.09
594.952	10444.99
595.311	10445.9
595.67	10592.11
596.029	10655.38
596.387	10571.77
596.746	10631.88
597.104	10639.56
597.463	10624.88
597.822	10680.02
598.18	10661.94
598.538	10680.69
598.897	10756.85
599.255	10678.66
599.613	10781.26
599.972	10695.61
600.33	10719.34
600.688	10831.88
601.046	10864.87
601.404	10760.01
601.762	10846.11
602.12	10876.39
602.478	10860.8
602.836	10890.86
603.194	10788.71
603.552	10903.96
603.91	10884.76
604.268	10920.46
604.625	10946.9
604.983	10902.16
605.341	10909.61
605.698	10929.5
606.056	10962.04
606.413	11009.5
606.771	10934.7
607.128	10889.95
607.485	10915.94
607.843	11017.18
608.2	10981.7
608.557	11110.51
608.914	10996.84
609.272	11054.02
609.629	11175.82
609.986	11182.6
610.343	11106.9
610.7	11148.93
611.057	11147.57
611.414	11191.64
611.771	11180.79
612.127	11212.88
612.484	11192.32
612.841	11236.84
613.198	11208.59
613.554	11151.87
613.911	11270.73
614.267	11291.3
614.624	11329.49
614.98	11295.59
615.337	11317.97
615.693	11329.49
616.05	11314.8
616.406	11334.91
616.762	11330.17
617.118	11378.08
617.475	11344.41
617.831	11350.05
618.187	11396.16
618.543	11307.34
618.899	11426.21
619.255	11414.01
619.611	11399.54
619.967	11376.95
620.323	11417.17
620.678	11324.29
621.034	11385.53
621.39	11439.32
621.746	11407.45
622.101	11515.47
622.457	11369.94
622.812	11383.05
623.168	11510.05
623.523	11486.55
623.879	11531.07
624.234	11395.03
624.589	11442.48
624.945	11481.58
625.3	11484.29
625.655	11469.37
626.01	11448.13
626.365	11512.31
626.72	11433.89
627.075	11414.46
627.43	11454.46
627.785	11402.93
628.14	11444.97
628.495	11472.76
628.85	11477.51
629.205	11448.13
629.559	11428.7
629.914	11394.12
630.269	11462.82
630.623	11377.62
630.978	11325.2
631.332	11338.76
631.687	11393.22
632.041	11255.37
632.396	11428.02
632.75	11275.71
633.104	11322.71
633.459	11245.42
633.813	11232.09
634.167	11223.5
634.521	11164.97
634.875	11190.74
635.229	11199.1
635.583	11165.43
635.937	11226.89
636.291	11244.97
636.645	11174.69
636.999	11151.64
637.352	11152.32
637.706	11119.78
638.06	11161.81
638.413	11149.38
638.767	11160.91
639.121	11132.89
639.474	11014.92
639.828	11037.97
640.181	11028.93
640.534	11072.1
640.888	10984.41
641.241	11010.18
641.594	10971.08
641.947	10957.07
642.301	11031.87
642.654	11044.75
643.007	10943.74
643.36	10937.86
643.713	10923.4
644.066	10972.44
644.419	10897.86
644.771	10841.82
645.124	10814.93
645.477	10719.79
645.83	10739.22
646.182	10630.75
646.535	10567.7
646.888	10550.08
647.24	10524.09
647.593	10608.38
647.945	10588.04
648.298	10560.7
648.65	10544.88
649.002	10595.5
649.355	10458.1
649.707	10459.91
650.059	10475.5
650.411	10770.18
650.763	10710.75
651.115	10824.42
651.467	10759.56
651.819	10796.62
652.171	10816.51
652.523	10727.92
652.875	10781.71
653.227	10753.46
653.578	10833.46
653.93	10848.15
654.282	10755.04
654.633	10711.2
654.985	10712.33
655.337	10758.43
655.688	10761.6
656.039	10771.54
656.391	10740.58
656.742	10770.41
657.094	10776.96
657.445	10753.01
657.796	10784.42
658.147	10697.19
658.498	10687.02
658.849	10846.11
659.2	10713.01
659.551	10775.15
659.902	10797.53
660.253	10825.77
660.604	10808.15
660.955	10707.59
661.306	10826
661.656	10769.73
662.007	10828.71
662.358	10762.27
662.708	10783.52
663.059	10769.05
663.409	10821.03
663.76	10844.31
664.11	10813.8
664.461	10774.02
664.811	10781.03
665.161	10829.62
665.511	10803.63
665.862	10760.47
666.212	10818.09
666.562	10841.82
666.912	10809.05
667.262	10726.34
667.612	10713.46
667.962	10793.46
668.312	10725.89
668.662	10816.28
669.011	10756.4
669.361	10831.2
669.711	10742.61
670.06	10726.79
670.41	10731.99
670.76	10681.6
671.109	10739.9
671.459	10703.97
671.808	10720.01
672.157	10731.77
672.507	10592.56
672.856	10650.86
673.205	10734.7
673.554	10709.39
673.904	10709.39
674.253	10715.72
674.602	10674.59
674.951	10520.7
675.3	10483.64
675.649	10611.32
675.998	10641.37
676.346	10586.46
676.695	10640.47
677.044	10598.89
677.393	10582.62
677.741	10590.53
678.09	10547.59
678.438	10552.79
678.787	10471.43
679.135	10510.3
679.484	10461.94
679.832	10550.53
680.181	10425.56
680.529	10515.27
680.877	10393.47
681.225	10394.37
681.573	10449.06
681.922	10419.46
682.27	10328.61
682.618	10358.22
682.966	10401.15
683.314	10363.41
683.661	10288.39
684.009	10263.3
684.357	10247.94
684.705	10292.46
685.053	10279.57
685.4	10228.5
685.748	10145.79
686.095	10169.52
686.443	10176.98
686.79	10156.19
687.138	10153.25
687.485	10108.51
687.832	10092.01
688.18	10058.34
688.527	9998.45
688.874	10016.76
689.221	9975.4
689.568	9951.9
689.915	9922.97
690.262	9886.14
690.609	9843.43
690.956	9872.58
691.303	9773.82
691.65	9740.15
691.997	9777.89
692.344	9692.7
692.69	9685.47
693.037	9640.27
693.383	9560.05
693.73	9649.99
694.077	9529.99
694.423	9554.4
694.769	9473.49
695.116	9427.17
695.462	9408.41
695.808	9427.85
696.155	9421.74
696.501	9318.24
696.847	9365.25
697.193	9263.78
697.539	9256.32
697.885	9210.68
698.231	9189.21
698.577	9228.3
698.923	9171.81
699.269	9071.92
699.614	9022.21
699.96	9022.21
700.306	9025.14
700.651	8994.18
700.997	8881.19
701.342	8946.28
701.688	8896.79
702.033	8865.83
702.379	8844.13
702.724	8844.13
703.069	8821.76
703.415	8705.6
703.76	8675.32
704.105	8692.72
704.45	8652.95
704.795	8642.1
705.14	8598.49
705.485	8565.5
705.83	8586.29
706.175	8585.83
706.52	8564.14
706.865	8474.42
707.209	8521.65
707.554	8474.2
707.899	8433.75
708.243	8438.94
708.588	8412.73
708.932	8253.41
709.277	8332.51
709.621	8347.2
709.966	8283.02
710.31	8226.29
710.654	8199.63
710.998	8249.35
711.342	8197.82
711.687	8220.42
712.031	8151.27
712.375	8120.99
712.719	8124.15
713.063	8152.17
713.407	8127.77
713.75	8077.82
714.094	8071.04
714.438	8025.62
714.782	8058.84
715.125	7961.22
715.469	7939.07
715.812	7914.21
716.156	7922.8
716.499	7948.56
716.843	7958.73
717.186	7902.91
717.53	7984.49
717.873	7920.99
718.216	7899.98
718.559	7872.41
718.902	7840.09
719.246	7803.03
719.589	7810.26
719.932	7802.58
720.275	7786.31
720.617	7807.1
720.96	7729.36
721.303	7699.76
721.646	7831.73
721.989	7756.48
722.331	7747.44
722.674	7724.84
723.016	7778.85
723.359	7714.44
723.701	7721.68
724.044	7723.94
724.386	7638.74
724.729	7670.15
725.071	7660.43
725.413	7679.87
725.755	7644.62
726.097	7671.51
726.439	7595.58
726.782	7638.74
727.124	7621.57
727.465	7634.9
727.807	7681
728.149	7606.88
728.491	7611.4
728.833	7611.17
729.175	7590.38
729.516	7575.24
729.858	7581.79
730.199	7562.81
730.541	7522.13
730.882	7584.73
731.224	7614.56
731.565	7528.01
731.906	7575.46
732.248	7521.45
732.589	7537.5
732.93	7564.84
733.271	7531.17
733.612	7534.34
733.953	7570.04
734.294	7573.43
734.635	7532.98
734.976	7512.87
735.317	7495.01
735.658	7554.67
735.999	7506.54
736.339	7544.73
736.68	7591.28
737.021	7542.25
737.361	7505.64
737.702	7506.09
738.042	7531.62
738.383	7547.44
738.723	7529.36
739.063	7514.22
739.404	7666.76
739.744	7591.51
740.084	7563.49
740.424	7601.23
740.764	7589.02
741.104	7611.85
741.444	7643.71
741.784	7611.17
742.124	7652.07
742.464	7637.38
742.804	7690.26
743.143	7608.68
743.483	7713.09
743.823	7667.44
744.162	7685.07
744.502	7757.38
744.841	7699.76
745.181	7797.38
745.52	7776.14
745.86	7862.01
746.199	7915.79
746.538	7878.73
746.877	7981.56
747.216	7971.84
747.556	8038.05
747.895	8020.88
748.234	8092.06
748.573	8047.54
748.911	8165.51
749.25	8232.4
749.589	8264.49
749.928	8291.6
750.267	8385.61
750.605	8373.86
750.944	8552.61
751.283	8513.75
751.621	8686.62
751.96	8682.1
752.298	8728.88
752.636	8864.47
752.975	8879.84
753.313	9005.71
753.651	9135.42
753.989	9177.46
754.327	9314.18
754.666	9358.69
755.004	9496.32
755.342	9584.23
755.679	9668.29
756.017	9726.14
756.355	9959.81
756.693	10064.44
757.031	10190.76
757.368	10253.13
757.706	10442.96
758.044	10566.35
758.381	10695.83
758.719	10834.14
759.056	10952.78
759.394	11114.81
759.731	11176.05
760.068	11358.87
760.405	11551.41
760.743	11783.26
761.08	11882.24
761.417	12004.27
761.754	12080.66
762.091	12282.91
762.428	12354.55
762.765	12439.52
763.102	12701.88
763.438	12820.07
763.775	12960.41
764.112	13143.68
764.449	13287.18
764.785	13474.29
765.122	13575.31
765.458	13648.3
765.795	13900.72
766.131	14096.42
766.467	14187.04
766.804	14229.08
767.14	14400.6
767.476	14533.93
767.812	14587.94
768.148	14872.9
768.485	14890.75
768.821	14893.92
769.157	15151.99
769.492	15299.56
769.828	15394.24
770.164	15472.43
770.5	15537.52
770.836	15628.36
771.171	15764.63
771.507	15821.58
771.842	15906.55
772.178	16116.48
772.513	16158.97
772.849	16169.36
773.184	16269.02
773.519	16419.75
773.855	16410.71
774.19	16405.06
774.525	16461.33
774.86	16612.97
775.195	16747.88
775.53	16662.91
775.865	16770.25
776.2	16727.54
776.535	16768.9
776.87	16778.84
777.205	16938.61
777.539	16866.75
777.874	17027.87
778.209	16975.67
778.543	17118.26
778.878	16946.07
779.212	17073.07
779.547	17064.93
779.881	17137.25
780.215	17226.74
780.55	17273.74
780.884	17203.91
781.218	17252.27
781.552	17284.36
781.886	17192.61
782.22	17202.33
782.554	17198.71
782.888	17132.5
783.222	17086.85
783.556	17137.93
783.889	17080.3
784.223	17066.97
784.557	17096.34
784.89	17187.42
785.224	17076.01
785.557	16972.96
785.891	17082.56
786.224	17066.97
786.558	17106.06
786.891	16900.64
787.224	16938.61
787.557	16895.22
787.891	16972.05
788.224	16942.45
788.557	17031.94
788.89	17034.65
789.223	17038.94
789.556	16934.31
789.888	16859.74
790.221	16907.42
790.554	16767.09
790.887	16826.29
791.219	16712.4
791.552	16770.93
791.884	16713.53
792.217	16681.44
792.549	16717.15
792.882	16553.99
793.214	16488.45
793.546	16613.19
793.879	16486.42
794.211	16429.02
794.543	16506.53
794.875	16399.19
795.207	16553.53
795.539	16426.76
795.871	16392.41
796.203	16222.02
796.535	16187.22
796.867	16158.52
797.198	16135.47
797.53	16197.38
797.862	16080.33
798.193	16091.62
798.525	16001.01
798.856	16068.8
799.188	15979.76
799.519	15952.65
799.85	15911.29
800.182	15852.08
800.513	15913.55
800.844	15874.23
801.175	15798.98
801.506	15808.47
801.837	15762.14
802.168	15709.71
802.499	15626.33
802.83	15590.17
803.161	15585.42
803.491	15544.07
803.822	15529.38
804.153	15582.03
804.483	15463.62
804.814	15397.63
805.145	15413.68
805.475	15351.76
805.805	15333.45
806.136	15383.17
806.466	15338.88
806.796	15225.66
807.126	15149.95
807.457	15115.15
807.787	15191.99
808.117	15112.67
808.447	15067.25
808.777	15058.66
809.107	15046.23
809.436	15012.56
809.766	14943.63
810.096	14963.74
810.426	14877.65
810.755	14879.45
811.085	14849.85
811.414	14810.08
811.744	14742.51
812.073	14734.6
812.403	14691.66
812.732	14624.32
813.061	14667.03
813.39	14550.2
813.719	14598.56
814.049	14572.79
814.378	14534.15
814.707	14440.59
815.036	14482.85
815.365	14443.08
815.693	14266.14
816.022	14257.55
816.351	14308.62
816.68	14201.51
817.008	14280.83
817.337	14160.6
817.665	14150.66
817.994	14158.57
818.322	14179.81
818.651	14014.17
818.979	14055.07
819.307	14091.68
819.636	14102.52
819.964	13990.66
820.292	14038.12
820.62	14031.11
820.948	14030.66
821.276	14050.77
821.604	13966.26
821.932	13973.94
822.259	14002.64
822.587	13930.1
822.915	13952.92
823.243	14032.7
823.57	13960.38
823.898	14023.88
824.225	13902.53
824.553	13844.23
824.88	13934.62
825.207	13961.74
825.535	13913.38
825.862	14051.45
826.189	13959.7
826.516	14152.69
826.843	14100.49
827.17	14093.26
827.497	14100.49
827.824	14024.79
828.151	14096.42
828.478	14146.82
828.805	14103.2
829.131	14020.94
829.458	14058.46
829.785	13875.19
830.111	14012.81
830.438	14053.94
830.764	14032.02
831.09	14022.98
831.417	13957.44
831.743	14038.35
832.069	13939.59
832.395	13895.07
832.722	13990.89
833.048	13987.5
833.374	13996.54
833.7	13903.89
834.026	13867.73
834.351	13965.81
834.677	13851.01
835.003	13973.49
835.329	13937.11
835.654	13862.76
835.98	13785.92
836.306	13846.71
836.631	13728.98
836.956	13881.74
837.282	13834.96
837.607	13703.89
837.932	13723.78
838.258	13801.29
838.583	13762.42
838.908	13650.11
839.233	13747.05
839.558	13585.02
839.883	13563.33
840.208	13637.45
840.533	13539.15
840.858	13565.36
841.182	13579.15
841.507	13469.32
841.832	13365.37
842.156	13468.42
842.481	13418.93
842.805	13423.22
843.13	13358.59
843.454	13284.47
843.778	13304.81
844.103	13258.25
844.427	13180.97
844.751	13224.13
845.075	13125.6
845.399	13155.88
845.723	13088.54
846.047	13113.17
846.371	12940.97
846.695	13042.44
847.019	12793.18
847.343	12770.81
847.666	12750.02
847.99	12735.55
848.313	12717.7
848.637	12564.71
848.96	12613.98
849.284	12595.22
849.607	12429.57
849.931	12489.91
850.254	12385.51
850.577	12375.79
850.9	12193.42
851.223	12138.73
851.546	12122.01
851.869	12096.02
852.192	12143.48
852.515	11983.94
852.838	11957.5
853.161	12054.89
853.483	11891.28
853.806	11807.9
854.129	11887.44
854.451	11833.88
854.774	11780.78
855.096	11732.64
855.419	11667.56
855.741	11679.54
856.063	11571.97
856.385	11588.24
856.708	11511.41
857.03	11509.37
857.352	11524.51
857.674	11397.06
857.996	11389.83
858.318	11345.99
858.64	11341.24
858.961	11320.45
859.283	11364.74
859.605	11207.91
859.926	11320.45
860.248	11226.67
860.57	11190.06
860.891	11211.3
861.212	11107.58
861.534	11114.58
861.855	11058.54
862.176	11114.35
862.498	11071.64
862.819	11107.35
863.14	11002.27
863.461	10996.84
863.782	10919.78
864.103	10976.96
864.424	10919.78
864.745	10876.39
865.065	10841.37
865.386	10818.54
865.707	10816.96
866.027	10883.4
866.348	10710.3
866.668	10796.4
866.989	10760.24
867.309	10720.69
867.63	10694.93
867.95	10721.6
868.27	10643.86
868.59	10702.84
868.91	10654.48
869.23	10653.58
869.55	10577.65
869.87	10647.7
870.19	10593.01
870.51	10559.34
870.83	10516.63
871.15	10467.82
871.469	10562.96
871.789	10501.26
872.109	10547.36
872.428	10463.75
872.748	10464.43
873.067	10453.81
873.386	10473.92
873.706	10419.23
874.025	10365.9
874.344	10307.37
874.663	10348.73
874.982	10334.26
875.301	10325
875.62	10291.78
875.939	10260.59
876.258	10257.88
876.577	10207.03
876.896	10228.28
877.214	10152.8
877.533	10194.6
877.852	10209.29
878.17	10240.03
878.489	10184.44
878.807	10176.75
879.125	10063.76
879.444	10063.53
879.762	10053.59
880.08	10073.25
880.398	10018.79
880.716	10041.61
881.034	9985.34
881.352	9990.32
881.67	9911.45
881.988	9920.94
882.306	9915.97
882.624	9915.06
882.941	9829.64
883.259	9905.35
883.577	9727.27
883.894	9795.52
884.212	9764.33
884.529	9714.17
884.846	9716.2
885.164	9734.73
885.481	9744.9
885.798	9676.88
886.115	9653.38
886.432	9626.48
886.75	9586.26
887.067	9624.45
887.383	9546.71
887.7	9615.19
888.017	9512.14
888.334	9554.85
888.651	9396.66
888.967	9482.31
889.284	9424
889.6	9440.05
889.917	9282.31
890.233	9370.22
890.55	9316.44
890.866	9219.72
891.182	9265.14
891.498	9196.44
891.815	9258.58
892.131	9097.68
892.447	9146.72
892.763	9117.8
893.079	9099.72
893.395	9059.04
893.71	9014.52
894.026	9009.78
894.342	8956.22
894.657	8926.62
894.973	8872.15
895.289	8872.38
895.604	8859.05
895.92	8759.84
896.235	8758.26
896.55	8773.85
896.865	8704.02
897.181	8778.37
897.496	8633.52
897.811	8639.39
898.126	8645.27
898.441	8573.86
898.756	8561.88
899.071	8544.03
899.386	8461.54
899.7	8403.01
900.015	8477.59
900.33	8344.48
900.644	8324.82
900.959	8325.5
901.273	8318.95
901.588	8247.99
901.902	8201.89
902.216	8189.69
902.531	8185.17
902.845	8162.12
903.159	8089.35
903.473	8086.19
903.787	8043.25
904.101	8035.11
904.415	7995.34
904.729	7979.3
905.042	7917.6
905.356	7860.43
905.67	7862.46
905.984	7880.77
906.297	7813.2
906.611	7806.87
906.924	7808.45
907.237	7709.02
907.551	7716.25
907.864	7692.07
908.177	7653.2
908.491	7633.54
908.804	7589.48
909.117	7504.28
909.43	7474.9
909.743	7495.24
910.056	7456.82
910.368	7385.87
910.681	7453.21
910.994	7394
911.307	7423.83
911.619	7280.78
911.932	7298.64
912.244	7260.9
912.557	7231.07
912.869	7109.94
913.181	7161.92
913.494	7125.53
913.806	6999.89
914.118	7026.33
914.43	6949.04
914.742	7038.53
915.054	6952.2
915.366	6920.34
915.678	6911.75
915.99	6843.73
916.302	6860.68
916.613	6841.02
916.925	6815.48
917.236	6812.77
917.548	6736.39
917.859	6742.27
918.171	6673.12
918.482	6655.26
918.794	6575.04
919.105	6643.06
919.416	6556.06
919.727	6549.05
920.038	6544.31
920.349	6518.77
920.66	6472.67
920.971	6487.81
921.282	6455.04
921.593	6388.6
921.903	6354.03
922.214	6313.58
922.525	6298.66
922.835	6255.05
923.146	6281.71
923.456	6232.68
923.767	6201.94
924.077	6205.33
924.387	6132.34
924.697	6128.5
925.008	6069.74
925.318	6106.58
925.628	6090.08
925.938	6073.13
926.248	5984.55
926.558	5923.53
926.867	5992.68
927.177	5888.73
927.487	5889.86
927.796	5854.15
928.106	5844.21
928.416	5820.26
928.725	5791.33
929.034	5785.46
929.344	5773.25
929.653	5779.58
929.962	5700.26
930.271	5704.1
930.581	5602.64
930.89	5621.84
931.199	5637.66
931.508	5643.76
931.817	5561.28
932.125	5596.53
932.434	5540.49
932.743	5523.54
933.051	5479.02
933.36	5479.7
933.669	5442.41
933.977	5418.01
934.286	5429.53
934.594	5368.52
934.902	5357.67
935.21	5367.84
935.519	5325.35
935.827	5221.4
936.135	5293.72
936.443	5214.62
936.751	5202.65
937.059	5257.56
937.367	5166.94
937.674	5179.6
937.982	5149.54
938.29	5052.82
938.597	5112.93
938.905	5061.86
939.213	5077.9
939.52	5008.3
939.827	4973.73
940.135	5022.31
940.442	4973.5
940.749	4999.49
941.056	4944.35
941.363	4912.03
941.67	4887.17
941.977	4847.85
942.284	4820.73
942.591	4812.6
942.898	4804.69
943.205	4829.1
943.511	4793.62
943.818	4746.39
944.125	4736.22
944.431	4715.65
944.738	4645.15
945.044	4630.46
945.35	4603.79
945.657	4627.52
945.963	4576.22
946.269	4599.27
946.575	4611.25
946.881	4583.68
947.187	4510.91
947.493	4502.33
947.799	4485.83
948.105	4444.02
948.41	4427.52
948.716	4432.5
949.022	4405.15
949.327	4388.88
949.633	4324.93
949.938	4383.68
950.244	4339.17
950.549	4295.32
950.854	4263.46
951.16	4249.45
951.465	4232.05
951.77	4213.97
952.075	4237.7
952.38	4171.94
952.685	4198.6
952.99	4166.06
953.294	4140.3
953.599	4110.25
953.904	4140.53
954.209	4060.3
954.513	4051.49
954.818	4059.4
955.122	4061.43
955.426	4020.98
955.731	3996.58
956.035	4017.59
956.339	3980.3
956.643	3997.71
956.948	3960.42
957.252	3904.6
957.556	3926.52
957.86	3903.7
958.163	3907.54
958.467	3883.36
958.771	3873.19
959.075	3798.16
959.378	3796.81
959.682	3763.59
959.985	3769.24
960.289	3716.13
960.592	3774.89
960.896	3732.63
961.199	3713.19
961.502	3737.83
961.805	3725.62
962.108	3700.31
962.411	3676.58
962.714	3660.31
963.017	3615.57
963.32	3642.46
963.623	3570.6
963.926	3570.15
964.228	3555.68
964.531	3574.67
964.833	3540.32
965.136	3491.5
965.438	3503.26
965.741	3445.18
966.043	3434.56
966.345	3454.9
966.648	3463.26
966.95	3396.14
967.252	3411.73
967.554	3401.34
967.856	3361.34
968.158	3354.33
968.46	3334.22
968.761	3300.77
969.063	3339.64
969.365	3311.17
969.666	3283.15
969.968	3273.2
970.269	3270.95
970.571	3221.23
970.872	3255.8
971.174	3247.67
971.475	3221.91
971.776	3180.33
972.077	3191.63
972.378	3166.99
972.679	3129.71
972.98	3127.9
973.281	3135.58
973.582	3130.61
973.883	3100.55
974.183	3095.81
974.484	3058.75
974.785	3057.84
975.085	3047.67
975.386	3007.22
975.686	3038.63
975.986	3023.04
976.287	3009.03
976.587	2926.32
976.887	2979.65
977.187	2970.61
977.487	2922.93
977.787	2928.81
978.087	2897.17
978.387	2890.62
978.687	2898.75
978.987	2908.47
979.286	2839.09
979.586	2856.72
979.885	2854.68
980.185	2828.24
980.484	2846.55
980.784	2814.23
981.083	2774.01
981.382	2759.77
981.682	2743.5
981.981	2727
982.28	2723.16
982.579	2720
982.878	2684.07
983.177	2702.82
983.475	2695.37
983.774	2659.21
984.073	2637.29
984.372	2648.59
984.67	2617.4
984.969	2619.21
985.267	2631.87
985.566	2577.4
985.864	2607.23
986.162	2601.81
986.461	2540.34
986.759	2545.31
987.057	2535.6
987.355	2522.04
987.653	2515.03
987.951	2481.59
988.249	2522.94
988.547	2466.67
988.844	2483.4
989.142	2464.86
989.44	2483.85
989.737	2430.06
990.035	2442.94
990.332	2406.11
990.63	2398.43
990.927	2391.42
991.224	2397.75
991.521	2367.24
991.819	2374.02
992.116	2384.64
992.413	2348.03
992.71	2339.44
993.006	2324.76
993.303	2308.03
993.6	2314.59
993.897	2314.59
994.193	2290.86
994.49	2233.23
994.787	2272.33
995.083	2263.74
995.379	2235.27
995.676	2230.07
995.972	2237.98
996.268	2183.29
996.565	2176.74
996.861	2168.38
997.157	2166.57
997.453	2149.84
997.749	2144.65
998.044	2124.99
998.34	2139.68
998.636	2096.06
998.932	2103.52
999.227	2096.29
999.523	2078.66
999.818	2067.81
1000.114	2079.34
1000.409	2080.47
1000.704	1998.44
1001	1997.08
1001.295	2012.22
1001.59	2006.57
1001.885	1993.69
1002.18	1951.21
1002.475	1990.3
1002.77	1969.51
1003.065	1950.98
1003.359	1958.66
1003.654	1930.19
1003.949	1922.73
1004.243	1897.42
1004.538	1896.74
1004.832	1885.22
1005.127	1868.95
1005.421	1881.15
1005.715	1864.65
1006.009	1880.25
1006.304	1800.02
1006.598	1803.41
1006.892	1823.53
1007.186	1796.18
1007.48	1790.98
1007.773	1771.55
1008.067	1771.55
1008.361	1767.71
1008.655	1772.45
1008.948	1748.05
1009.242	1714.38
1009.535	1713.47
1009.829	1707.82
1010.122	1706.47
1010.415	1686.35
1010.708	1688.61
1011.001	1682.96
1011.295	1668.5
1011.588	1669.41
1011.881	1608.16
1012.173	1648.84
1012.466	1616.07
1012.759	1628.5
1013.052	1609.07
1013.344	1578.33
1013.637	1609.97
1013.93	1561.16
1014.222	1582.63
1014.514	1550.76
1014.807	1552.12
1015.099	1554.61
1015.391	1527.04
1015.683	1511.67
1015.976	1504.21
1016.268	1496.75
1016.56	1486.59
1016.851	1500.82
1017.143	1475.29
1017.435	1481.39
1017.727	1462.18
1018.018	1462.18
1018.31	1445.91
1018.602	1430.09
1018.893	1453.82
1019.185	1388.73
1019.476	1418.11
1019.767	1395.74
1020.058	1410.43
1020.35	1347.61
1020.641	1379.47
1020.932	1372.01
1021.223	1371.56
1021.514	1331.79
1021.804	1309.87
1022.095	1321.17
1022.386	1345.57
1022.677	1294.73
1022.967	1285.91
1023.258	1303.54
1023.548	1299.47
1023.839	1261.05
1024.129	1294.05
1024.419	1265.8
1024.709	1262.41
1025	1241.85
1025.29	1224.45
1025.58	1226.71
1025.87	1222.19
1026.16	1212.24
1026.449	1217.44
1026.739	1201.17
1027.029	1189.87
1027.319	1202.07
1027.608	1187.16
1027.898	1173.37
1028.187	1169.31
1028.477	1136.31
1028.766	1140.83
1029.055	1142.19
1029.344	1127.5
1029.634	1132.47
1029.923	1094.73
1030.212	1099.02
1030.501	1122.53
1030.79	1102.41
1031.078	1085.47
1031.367	1087.5
1031.656	1103.77
1031.945	1086.82
1032.233	1059.03
1032.522	1046.14
1032.81	1016.99
1033.099	1058.57
1033.387	1040.5
1033.675	1036.65
1033.963	1003.21
1034.251	1021.51
1034.54	1008.86
1034.828	1006.15
1035.116	983.32
1035.403	968.41
1035.691	986.26
1035.979	984.9
1036.267	991.46
1036.554	978.35
1036.842	957.11
1037.129	954.85
1037.417	930.44
1037.704	942.42
1037.992	936.32
1038.279	924.57
1038.566	935.41
1038.853	935.41
1039.14	935.41
