Data from hue_180_FLMS001491_00026.txt Node
Date: Tue Feb 07 16:46:46 GMT 2017
User: dcchb
Spectrometer: FLMS00149
Trigger mode: 0
Integration Time (sec): 2.000000E-2
Scans to average: 10
Electric dark correction enabled: true
Nonlinearity correction enabled: false
Boxcar width: 0
XAxis mode: Wavelengths
Number of Pixels in Spectrum: 2048
>>>>>Begin Spectral Data<<<<<
341.393	-20.18
341.776	-20.18
342.16	-20.18
342.543	-45.27
342.927	-65.38
343.31	-44.59
343.693	-72.61
344.077	-66.28
344.46	-67.87
344.843	-53.63
345.226	-40.97
345.61	-20.64
345.993	-19.96
346.376	-15.21
346.759	9.19
347.142	28.86
347.525	25.69
347.908	50.32
348.291	82.87
348.674	98.01
349.057	106.82
349.44	121.28
349.823	148.17
350.206	160.38
350.588	180.72
350.971	205.8
351.354	217.78
351.737	241.73
352.119	241.5
352.502	258.45
352.884	269.98
353.267	270.2
353.65	286.48
354.032	286.7
354.414	291.22
354.797	297.77
355.179	323.54
355.562	323.99
355.944	307.94
356.326	321.73
356.709	328.73
357.091	326.7
357.473	340.71
357.855	338
358.238	347.49
358.62	344.55
359.002	335.06
359.384	339.13
359.766	318.57
360.148	322.63
360.53	339.81
360.912	338.9
361.294	327.83
361.676	319.69
362.057	327.6
362.439	321.73
362.821	318.34
363.203	339.36
363.584	324.21
363.966	314.72
364.348	324.21
364.729	329.86
365.111	300.71
365.493	290.77
365.874	320.82
366.256	319.69
366.637	305.46
367.019	305.23
367.4	306.14
367.781	306.14
368.163	321.5
368.544	315.18
368.925	323.76
369.306	346.59
369.688	306.59
370.069	297.55
370.45	291.45
370.831	316.53
371.212	310.43
371.593	310.43
371.974	319.69
372.355	298.68
372.736	328.28
373.117	301.16
373.498	311.33
373.879	301.39
374.26	320.37
374.641	318.11
375.021	305.68
375.402	300.26
375.783	328.06
376.163	318.79
376.544	311.33
376.925	330.77
377.305	315.4
377.686	316.98
378.066	315.4
378.447	330.77
378.827	321.73
379.208	347.49
379.588	314.72
379.968	335.29
380.349	330.77
380.729	331.67
381.109	335.06
381.489	323.54
381.87	323.08
382.25	336.87
382.63	338.68
383.01	330.32
383.39	326.93
383.77	351.33
384.15	336.64
384.53	351.11
384.91	342.29
385.29	317.21
385.67	316.08
386.049	352.69
386.429	336.19
386.809	345.68
387.189	355.4
387.568	336.64
387.948	334.61
388.328	343.42
388.707	333.48
389.087	341.39
389.466	348.62
389.846	378.22
390.225	384.1
390.605	373.7
390.984	362.63
391.363	340.26
391.743	354.27
392.122	356.53
392.501	358.79
392.881	372.12
393.26	361.05
393.639	359.69
394.018	373.93
394.397	353.82
394.776	360.15
395.155	364.89
395.534	358.79
395.913	368.73
396.292	375.74
396.671	379.81
397.05	364.21
397.429	377.77
397.808	387.94
398.186	402.18
398.565	386.13
398.944	383.87
399.323	403.76
399.701	396.76
400.08	404.89
400.458	419.58
400.837	407.15
401.215	397.89
401.594	396.3
401.972	400.82
402.351	396.3
402.729	425.23
403.107	399.92
403.486	435.62
403.864	423.87
404.242	419.35
404.62	432.46
404.999	425.45
405.377	420.26
405.755	426.81
406.133	438.79
406.511	423.87
406.889	437.66
407.267	452.35
407.645	455.74
408.023	451.67
408.401	466.13
408.779	487.15
409.156	478.56
409.534	477.88
409.912	478.33
410.29	524.21
410.667	481.05
411.045	507.03
411.422	519.24
411.8	499.8
412.178	521.95
412.555	522.85
412.933	546.81
413.31	554.27
413.687	571.21
414.065	556.07
414.442	557.88
414.819	573.02
415.197	587.03
415.574	593.81
415.951	602.63
416.328	599.69
416.705	594.49
417.082	604.89
417.46	614.38
417.837	625.9
418.214	650.53
418.591	644.43
418.967	661.15
419.344	661.38
419.721	668.84
420.098	663.19
420.475	670.65
420.852	670.19
421.228	706.35
421.605	702.06
421.982	705
422.358	713.81
422.735	751.55
423.111	748.84
423.488	744.54
423.864	755.84
424.241	782.06
424.617	804.43
424.994	785.67
425.37	826.12
425.746	786.12
426.123	808.27
426.499	841.49
426.875	839.46
427.251	840.13
427.627	861.83
428.003	894.82
428.379	912.67
428.756	898.21
429.132	904.31
429.507	923.97
429.883	916.74
430.259	943.63
430.635	951.54
431.011	952.9
431.387	964.42
431.763	997.42
432.138	996.74
432.514	1018.89
432.89	1032.9
433.265	1053.91
433.641	1064.08
434.016	1085.32
434.392	1089.62
434.767	1111.76
435.143	1121.71
435.518	1128.71
435.894	1164.64
436.269	1178.88
436.644	1186.56
437.02	1238.09
437.395	1214.81
437.77	1230.18
438.145	1258.65
438.52	1275.83
438.895	1271.31
439.271	1299.33
439.646	1340.46
440.021	1360.12
440.395	1348.59
440.77	1366.9
441.145	1388.14
441.52	1416.62
441.895	1447.12
442.27	1412.32
442.645	1456.16
443.019	1471.76
443.394	1448.7
443.769	1504.75
444.143	1490.51
444.518	1530.96
444.892	1526.67
445.267	1530.96
445.641	1573.45
446.016	1554.46
446.39	1596.05
446.764	1622.03
447.139	1604.86
447.513	1597.63
447.887	1595.82
448.262	1611.86
448.636	1647.34
449.01	1643.95
449.384	1654.12
449.758	1708.59
450.132	1717.62
450.506	1688.7
450.88	1748.81
451.254	1725.31
451.628	1773.67
452.002	1775.02
452.376	1824.29
452.75	1821.35
453.123	1831.07
453.497	1855.02
453.871	1909.94
454.244	1937.73
454.618	1893.21
454.992	1957.17
455.365	1961.69
455.739	1979.76
456.112	2027.45
456.486	2072.42
456.859	2081.23
457.232	2085.07
457.606	2089.59
457.979	2137.05
458.352	2168.01
458.725	2202.13
459.099	2186.99
459.472	2262.47
459.845	2257.5
460.218	2304.5
460.591	2316.25
460.964	2339.98
461.337	2371.39
461.71	2434.67
462.083	2493.88
462.456	2467.21
462.829	2484.61
463.201	2540.65
463.574	2539.98
463.947	2564.16
464.32	2644.61
464.692	2672.85
465.065	2705.17
465.438	2732.74
465.81	2757.37
466.183	2815
466.555	2868.78
466.928	2876.69
467.3	2898.61
467.672	2934.09
468.045	3007.08
468.417	3021.32
468.789	3065.16
469.161	3098.38
469.534	3155.55
469.906	3193.07
470.278	3257.47
470.65	3264.48
471.022	3340.63
471.394	3459.05
471.766	3481.42
472.138	3506.28
472.51	3588.54
472.882	3626.5
473.253	3670.34
473.625	3755.76
473.997	3848.42
474.369	3884.57
474.74	3950.56
475.112	4022.87
475.484	4103.78
475.855	4150.55
476.227	4175.86
476.598	4362.07
476.97	4362.3
477.341	4500.6
477.713	4546.25
478.084	4608.17
478.455	4686.81
478.827	4768.17
479.198	4938.33
479.569	4954.83
479.94	5080.93
480.311	5171.54
480.682	5293.12
481.053	5379.67
481.424	5475.94
481.795	5537.86
482.166	5655.37
482.537	5775.14
482.908	5917.06
483.279	5952.77
483.65	6094.23
484.021	6259.88
484.391	6301.91
484.762	6319.54
485.133	6436.14
485.503	6505.75
485.874	6671.17
486.244	6809.69
486.615	6911.39
486.985	6976.02
487.356	7134.88
487.726	7222.79
488.097	7390.02
488.467	7454.65
488.837	7592.72
489.207	7689.67
489.578	7814.64
489.948	7932.6
490.318	8053.95
490.688	8082.43
491.058	8182.77
491.428	8373.49
491.798	8411.46
492.168	8565.81
492.538	8633.15
492.908	8687.38
493.278	8826.82
493.648	8808.74
494.017	8947.49
494.387	9066.58
494.757	9138.9
495.126	9184.09
495.496	9265
495.866	9307.71
496.235	9443.75
496.605	9483.3
496.974	9611.2
497.344	9640.81
497.713	9694.36
498.082	9766.9
498.452	9901.14
498.821	9914.47
499.19	9980.91
499.559	9990.18
499.928	9962.15
500.298	10108.82
500.667	10215.48
501.036	10232.65
501.405	10324.86
501.774	10285.08
502.143	10347.45
502.512	10389.03
502.88	10476.26
503.249	10448.24
503.618	10504.96
503.987	10567.11
504.356	10542.25
504.724	10603.94
505.093	10624.06
505.462	10663.15
505.83	10733.66
506.199	10853.66
506.567	10944.73
506.936	10885.52
507.304	10949.92
507.672	11017.49
508.041	11001
508.409	11087.55
508.777	11100.43
509.145	11154.66
509.514	11161.67
509.882	11258.84
510.25	11176.13
510.618	11241.67
510.986	11249.8
511.354	11271.5
511.722	11390.59
512.09	11403.02
512.458	11406.64
512.826	11436.92
513.193	11462.23
513.561	11470.14
513.929	11544.03
514.297	11585.16
514.664	11599.17
515.032	11619.96
515.4	11714.88
515.767	11611.38
516.135	11646.85
516.502	11494.99
516.869	11683.46
517.237	11668.32
517.604	11628.55
517.972	11730.47
518.339	11763.01
518.706	11727.98
519.073	11710.36
519.44	11732.05
519.808	11845.27
520.175	11711.26
520.542	11872.16
520.909	11913.51
521.276	11789.9
521.643	11911.25
522.009	11853.63
522.376	11937.24
522.743	11979.95
523.11	11941.31
523.477	12068.76
523.843	11965.26
524.21	12007.07
524.577	12069.89
524.943	12070.8
525.31	12056.34
525.676	12134.07
526.043	12125.26
526.409	12063.12
526.776	12167.29
527.142	12122.32
527.508	12109.22
527.874	12150.8
528.241	12158.25
528.607	12170.46
528.973	12090.46
529.339	12131.14
529.705	12131.36
530.071	12058.14
530.437	12151.47
530.803	12121.19
531.169	12169.55
531.535	12028.09
531.901	11975.89
532.267	12019.73
532.632	12028.31
532.998	11993.51
533.364	11968.43
533.73	11881.65
534.095	11966.39
534.461	11944.02
534.826	11891.82
535.192	11905.83
535.557	11896.11
535.923	11782.9
536.288	11767.08
536.653	11728.21
537.019	11598.04
537.384	11620.41
537.749	11599.85
538.114	11581.32
538.479	11534.99
538.845	11547.87
539.21	11479.63
539.575	11441.44
539.94	11349.01
540.305	11488.67
540.67	11265.85
541.034	11296.36
541.399	11224.27
541.764	11243.7
542.129	11240.31
542.494	11185.62
542.858	11110.82
543.223	11102.91
543.587	11083.48
543.952	10974.1
544.316	10912.18
544.681	10937.72
545.045	10861.56
545.41	10862.69
545.774	10810.49
546.138	10726.88
546.503	10735.47
546.867	10653.66
547.231	10646.43
547.595	10627.45
547.959	10519.88
548.324	10548.35
548.688	10423.84
549.052	10431.07
549.416	10327.34
549.779	10360.79
550.143	10304.29
550.507	10341.58
550.871	10279.89
551.235	10161.47
551.599	10152.88
551.962	10087.57
552.326	10085.99
552.689	10104.75
553.053	9992.89
553.417	9997.63
553.78	9997.18
554.143	9949.5
554.507	9892.78
554.87	9860.46
555.234	9916.5
555.597	9822.5
555.96	9821.14
556.323	9821.59
556.686	9723.29
557.05	9787.47
557.413	9770.97
557.776	9695.27
558.139	9701.6
558.502	9679
558.865	9673.8
559.228	9711.76
559.59	9577.76
559.953	9517.19
560.316	9736.62
560.679	9568.27
561.041	9641.48
561.404	9641.03
561.767	9623.18
562.129	9520.58
562.492	9560.81
562.854	9462.96
563.217	9502.96
563.579	9549.73
563.941	9554.93
564.304	9549.51
564.666	9522.62
565.028	9561.03
565.39	9525.1
565.753	9553.12
566.115	9526.01
566.477	9528.04
566.839	9565.55
567.201	9523.52
567.563	9486.69
567.925	9525.78
568.287	9516.06
568.648	9512
569.01	9544.54
569.372	9568.27
569.734	9513.58
570.095	9589.96
570.457	9564.2
570.819	9528.49
571.18	9474.48
571.542	9528.04
571.903	9541.15
572.265	9549.51
572.626	9560.36
572.987	9514.03
573.349	9530.53
573.71	9575.95
574.071	9589.96
574.432	9588.15
574.794	9623.41
575.155	9622.95
575.516	9467.03
575.877	9512
576.238	9492.34
576.599	9564.88
576.96	9554.71
577.32	9573.69
577.681	9547.93
578.042	9487.82
578.403	9540.47
578.763	9495.72
579.124	9480.13
579.485	9571.2
579.845	9553.12
580.206	9544.99
580.566	9523.97
580.927	9535.5
581.287	9546.35
581.648	9528.94
582.008	9482.17
582.368	9490.98
582.728	9564.88
583.089	9405.33
583.449	9435.16
583.809	9546.12
584.169	9413.47
584.529	9425.9
584.889	9497.76
585.249	9493.01
585.609	9340.93
585.969	9384.09
586.329	9408.27
586.688	9374.82
587.048	9389.06
587.408	9329.85
587.768	9302.28
588.127	9317.42
588.487	9246.92
588.846	9313.58
589.206	9306.8
589.565	9269.74
589.925	9306.8
590.284	9281.72
590.643	9277.2
591.003	9246.24
591.362	9397.42
591.721	9287.59
592.08	9305.45
592.44	9254.15
592.799	9269.74
593.158	9221.83
593.517	9185.22
593.876	9260.02
594.235	9182.29
594.593	9262.06
594.952	9227.71
595.311	9132.57
595.67	9173.25
596.029	9210.76
596.387	9205.79
596.746	9196.52
597.104	9173.7
597.463	9159.24
597.822	9162.63
598.18	9102.74
598.538	9093.7
598.897	9211.44
599.255	9083.08
599.613	9183.42
599.972	9093.02
600.33	9081.72
600.688	9086.02
601.046	9105.68
601.404	9137.54
601.762	9137.99
602.12	9206.24
602.478	9136.41
602.836	9113.59
603.194	9060.03
603.552	9079.69
603.91	9098.67
604.268	9079.46
604.625	9043.53
604.983	9100.26
605.341	9081.72
605.698	9106.58
606.056	9102.06
606.413	9086.7
606.771	9101.61
607.128	9086.02
607.485	9015.96
607.843	9015.74
608.2	9060.48
608.557	9130.31
608.914	9128.28
609.272	9150.65
609.629	9066.36
609.986	9169.18
610.343	9097.32
610.7	9172.12
611.057	9139.8
611.414	9148.39
611.771	9114.72
612.127	9130.08
612.484	9157.2
612.841	9146.13
613.198	9116.07
613.554	9151.1
613.911	9232.23
614.267	9258.89
614.624	9116.07
614.98	9142.51
615.337	9239.23
615.693	9233.58
616.05	9149.75
616.406	9263.87
616.762	9160.37
617.118	9256.41
617.475	9181.83
617.831	9244.21
618.187	9259.35
618.543	9259.8
618.899	9276.52
619.255	9221.38
619.611	9208.27
619.967	9300.25
620.323	9214.38
620.678	9271.78
621.034	9211.89
621.39	9211.66
621.746	9209.86
622.101	9327.59
622.457	9213.02
622.812	9269.52
623.168	9291.66
623.523	9272.91
623.879	9276.97
624.234	9251.89
624.589	9215.96
624.945	9265.22
625.3	9244.66
625.655	9212.57
626.01	9283.98
626.365	9250.53
626.72	9180.48
627.075	9264.32
627.43	9209.63
627.785	9151.1
628.14	9245.56
628.495	9242.4
628.85	9241.95
629.205	9204.66
629.559	9243.53
629.914	9161.27
630.269	9185.68
630.623	9093.48
630.978	9128.95
631.332	9152.46
631.687	9148.39
632.041	9148.62
632.396	9107.49
632.75	9090.76
633.104	9118.79
633.459	9156.52
633.813	9067.94
634.167	9066.36
634.521	9083.53
634.875	9105.9
635.229	9015.96
635.583	9048.28
635.937	8945.46
636.291	8965.8
636.645	9033.82
636.999	9002.4
637.352	8970.31
637.706	8959.47
638.06	8946.59
638.413	8937.55
638.767	8947.72
639.121	8874.5
639.474	8873.14
639.828	8856.87
640.181	8940.03
640.534	8842.41
640.888	8843.54
641.241	8791.34
641.594	8910.66
641.947	8851.67
642.301	8888.51
642.654	8848.06
643.007	8874.95
643.36	8845.8
643.713	8806.03
644.066	8825.91
644.419	8757.67
644.771	8775.29
645.124	8626.6
645.477	8662.98
645.83	8589.76
646.182	8581.17
646.535	8574.62
646.888	8578.46
647.24	8498.91
647.593	8596.31
647.945	8636.09
648.298	8462.98
648.65	8503.43
649.002	8492.81
649.355	8534.39
649.707	8513.15
650.059	8596.31
650.411	8670.66
650.763	8666.59
651.115	8742.07
651.467	8674.96
651.819	8724.9
652.171	8726.93
652.523	8698.01
652.875	8695.29
653.227	8656.2
653.578	8713.6
653.93	8743.88
654.282	8667.05
654.633	8662.75
654.985	8681.28
655.337	8658.68
655.688	8732.13
656.039	8789.53
656.391	8658.46
656.742	8695.29
657.094	8787.04
657.445	8762.86
657.796	8766.25
658.147	8773.26
658.498	8769.64
658.849	8752.92
659.2	8748.4
659.551	8726.93
659.902	8787.72
660.253	8715.63
660.604	8761.96
660.955	8772.81
661.306	8766.48
661.656	8763.77
662.007	8773.48
662.358	8881.28
662.708	8805.35
663.059	8792.69
663.409	8746.14
663.76	8831.11
664.11	8854.61
664.461	8794.05
664.811	8820.71
665.161	8801.96
665.511	8754.95
665.862	8786.82
666.212	8768.51
666.562	8850.54
666.912	8816.87
667.262	8820.71
667.612	8791.56
667.962	8852.35
668.312	8812.58
668.662	8903.65
669.011	8831.11
669.361	8820.04
669.711	8811.22
670.06	8803.31
670.41	8830.43
670.76	8808.96
671.109	8824.1
671.459	8783.43
671.808	8733.71
672.157	8836.31
672.507	8710.21
672.856	8748.85
673.205	8760.15
673.554	8727.38
673.904	8734.61
674.253	8790.88
674.602	8748.85
674.951	8644.9
675.3	8514.28
675.649	8667.5
675.998	8703.88
676.346	8646.48
676.695	8726.93
677.044	8625.01
677.393	8647.61
677.741	8624.11
678.09	8661.4
678.438	8591.34
678.787	8602.64
679.135	8588.63
679.484	8569.87
679.832	8643.77
680.181	8512.7
680.529	8554.96
680.877	8502.08
681.225	8467.05
681.573	8557.67
681.922	8487.39
682.27	8455.07
682.618	8439.26
682.966	8395.64
683.314	8437.67
683.661	8412.59
684.009	8333.5
684.357	8399.03
684.705	8318.13
685.053	8385.92
685.4	8319.48
685.748	8252.59
686.095	8292.82
686.443	8262.54
686.79	8237
687.138	8299.15
687.485	8267.28
687.832	8210.79
688.18	8238.81
688.527	8175.76
688.874	8128.53
689.221	8114.52
689.568	8066.84
689.915	8074.97
690.262	8050.79
690.609	8021.87
690.956	7957.91
691.303	7936.9
691.65	7931.7
691.997	7917.69
692.344	7840.18
692.69	7913.39
693.037	7856.9
693.383	7769.67
693.73	7887.18
694.077	7696
694.423	7707.52
694.769	7661.2
695.116	7698.94
695.462	7642.67
695.808	7608.54
696.155	7606.28
696.501	7512.05
696.847	7532.39
697.193	7446.51
697.539	7529.45
697.885	7432.05
698.231	7378.04
698.577	7377.81
698.923	7375.55
699.269	7301.66
699.614	7331.71
699.96	7324.03
700.306	7272.73
700.651	7238.38
700.997	7194.77
701.342	7189.8
701.688	7134.21
702.033	7160.65
702.379	7177.59
702.724	7091.04
703.069	7048.56
703.415	6988.9
703.76	7030.7
704.105	6952.51
704.45	6956.36
704.795	6921.1
705.14	6886.75
705.485	6870.26
705.83	6870.94
706.175	6870.48
706.52	6831.84
706.865	6826.42
707.209	6791.62
707.554	6773.54
707.899	6801.56
708.243	6707.78
708.588	6723.37
708.932	6645.4
709.277	6673.88
709.621	6691.05
709.966	6632.07
710.31	6611.51
710.654	6586.87
710.998	6539.64
711.342	6576.25
711.687	6503.49
712.031	6520.89
712.375	6550.49
712.719	6499.42
713.063	6434.34
713.407	6494.22
713.75	6432.3
714.094	6439.99
714.438	6404.51
714.782	6432.08
715.125	6418.29
715.469	6373.55
715.812	6328.58
716.156	6292.19
716.499	6328.58
716.843	6319.76
717.186	6318.63
717.53	6340.33
717.873	6313.44
718.216	6316.37
718.559	6298.75
718.902	6261.46
719.246	6272.08
719.589	6204.74
719.932	6191.41
720.275	6266.43
720.617	6211.07
720.96	6153.67
721.303	6235.92
721.646	6178.98
721.989	6158.19
722.331	6217.84
722.674	6174.68
723.016	6228.24
723.359	6133.55
723.701	6174.23
724.044	6158.19
724.386	6099.88
724.729	6144.17
725.071	6171.07
725.413	6138.07
725.755	6141.24
726.097	6133.1
726.439	6126.77
726.782	6062.14
727.124	6155.25
727.465	6069.83
727.807	6148.24
728.149	6119.09
728.491	6074.57
728.833	6102.14
729.175	6111.41
729.516	6107.79
729.858	6087.45
730.199	6111.63
730.541	6046.78
730.882	6103.05
731.224	6113.21
731.565	6043.61
731.906	6081.35
732.248	6131.52
732.589	6107.57
732.93	6099.43
733.271	6122.48
733.612	6057.62
733.953	6128.58
734.294	6091.52
734.635	6099.66
734.976	6068.02
735.317	6101.69
735.658	6112.31
735.999	6118.41
736.339	6157.51
736.68	6148.47
737.021	6150.5
737.361	6144.63
737.702	6115.25
738.042	6190.05
738.383	6176.72
738.723	6170.39
739.063	6156.6
739.404	6168.81
739.744	6211.97
740.084	6222.36
740.424	6235.25
740.764	6213.55
741.104	6230.05
741.444	6194.79
741.784	6251.74
742.124	6250.16
742.464	6279.99
742.804	6324.51
743.143	6372.19
743.483	6378.74
743.823	6404.05
744.162	6348.24
744.502	6445.86
744.841	6444.28
745.181	6481.79
745.52	6488.57
745.86	6520.89
746.199	6584.16
746.538	6588.68
746.877	6613.77
747.216	6675.46
747.556	6712.3
747.895	6811.05
748.234	6807.66
748.573	6862.57
748.911	6921.56
749.25	6980.76
749.589	7018.28
749.928	7123.58
750.267	7174.43
750.605	7230.93
750.944	7301.21
751.283	7360.19
751.621	7429.79
751.96	7524.03
752.298	7556.34
752.636	7695.77
752.975	7767.18
753.313	7835.88
753.651	8031.58
753.989	8094.41
754.327	8199.71
754.666	8287.62
755.004	8402.19
755.342	8585.24
755.679	8722.19
756.017	8725.35
756.355	8963.08
756.693	9091.67
757.031	9164.21
757.368	9301.83
757.706	9462.51
758.044	9646.91
758.381	9785.89
758.719	9949.05
759.056	10114.92
759.394	10237.85
759.731	10298.42
760.068	10515.59
760.405	10642.36
760.743	10697.73
761.08	10998.96
761.417	11158.51
761.754	11293.19
762.091	11503.13
762.428	11660.19
762.765	11771.82
763.102	12014.3
763.438	12022.21
763.775	12229.66
764.112	12456.78
764.449	12639.6
764.785	12783.55
765.122	12952.13
765.458	13076.65
765.795	13202.29
766.131	13284.78
766.467	13603.87
766.804	13712.11
767.14	13760.92
767.476	13934.25
767.812	14096.73
768.148	14343.28
768.485	14337.86
768.821	14471.41
769.157	14632.09
769.492	14757.73
769.828	14915.7
770.164	14915.24
770.5	15058.97
770.836	15298.06
771.171	15255.12
771.507	15336.93
771.842	15456.25
772.178	15626.86
772.513	15663.7
772.849	15792.06
773.184	15840.64
773.519	15929
773.855	16063.91
774.19	16053.29
774.525	16151.6
774.86	16304.59
775.195	16347.07
775.53	16379.84
775.865	16374.19
776.2	16369.67
776.535	16443.79
776.87	16540.06
777.205	16576.22
777.539	16591.36
777.874	16749.55
778.209	16651.69
778.543	16739.38
778.878	16684.24
779.212	16793.61
779.547	16809.66
779.881	16993.38
780.215	16906.15
780.55	16917.45
780.884	16946.38
781.218	16878.36
781.552	16944.79
781.886	16957.9
782.22	16923.1
782.554	17044.45
782.888	16882.65
783.222	16961.29
783.556	16872.71
783.889	16984.12
784.223	16788.64
784.557	16874.06
784.89	16884.68
785.224	16835.87
785.557	16926.49
785.891	16816.89
786.224	16989.09
786.558	16908.86
786.891	16803.78
787.224	16761.07
787.557	16762.43
787.891	16823.67
788.224	16821.63
788.557	16819.6
788.89	16768.08
789.223	16773.95
789.556	16702.32
789.888	16656.44
790.221	16700.28
790.554	16585.03
790.887	16650.34
791.219	16590.45
791.552	16584.8
791.884	16586.61
792.217	16502.09
792.549	16503.68
792.882	16431.14
793.214	16368.31
793.546	16437.46
793.879	16344.36
794.211	16244.47
794.543	16355.88
794.875	16299.16
795.207	16289.67
795.539	16221.42
795.871	16279.95
796.203	16180.29
796.535	16052.16
796.867	16025.04
797.198	16132.39
797.53	16070.92
797.862	15979.4
798.193	16085.61
798.525	15964.71
798.856	15916.57
799.188	15766.29
799.519	15819.4
799.85	15676.58
800.182	15682.23
800.513	15719.29
800.844	15609.69
801.175	15658.73
801.506	15758.16
801.837	15590.25
802.168	15479.3
802.499	15510.93
802.83	15414.44
803.161	15470.03
803.491	15416.93
803.822	15366.53
804.153	15273.2
804.483	15216.7
804.814	15263.93
805.145	15191.85
805.475	15140.55
805.805	15223.48
806.136	15171.96
806.466	15206.54
806.796	15059.19
807.126	14992.98
807.457	14999.31
807.787	15007.67
808.117	14965.41
808.447	14800.9
808.777	14836.6
809.107	14933.77
809.436	14750.28
809.766	14849.71
810.096	14739.88
810.426	14713.44
810.755	14747.11
811.085	14727.68
811.414	14659.2
811.744	14597.96
812.073	14540.56
812.403	14607
812.732	14447.23
813.061	14406.1
813.39	14451.53
813.719	14492.66
814.049	14429.15
814.378	14410.4
814.707	14299.89
815.036	14382.38
815.365	14311.42
815.693	14185.32
816.022	14257.86
816.351	14146.45
816.68	14105.77
817.008	14254.02
817.337	14049.73
817.665	14020.58
817.994	14075.49
818.322	14062.84
818.651	14052.44
818.979	13978.32
819.307	14004.98
819.636	14021.48
819.964	13926.57
820.292	13904.42
820.62	13966.12
820.948	13927.02
821.276	13890.64
821.604	13821.03
821.932	13869.62
822.259	13899.45
822.587	13895.16
822.915	13944.2
823.243	13994.82
823.57	13778.55
823.898	13802.05
824.225	13899
824.553	13830.53
824.88	13776.06
825.207	13911.88
825.535	13865.33
825.862	13971.77
826.189	13861.71
826.516	13918.21
826.843	13990.3
827.17	13898.55
827.497	13960.01
827.824	13873.69
828.151	13926.79
828.478	13902.16
828.805	13959.34
829.131	13827.81
829.458	13883.18
829.785	13858.55
830.111	13832.79
830.438	13927.25
830.764	13954.36
831.09	13886.8
831.417	13846.8
831.743	13904.65
832.069	13917.08
832.395	13833.92
832.722	13943.97
833.048	13876.17
833.374	13789.4
833.7	13761.83
834.026	13794.82
834.351	13817.65
834.677	13755.73
835.003	13816.97
835.329	13807.25
835.654	13772.67
835.98	13762.05
836.306	13753.24
836.631	13784.43
836.956	13762.73
837.282	13722.96
837.607	13689.74
837.932	13562.06
838.258	13684.77
838.583	13618.1
838.908	13483.42
839.233	13575.17
839.558	13452.91
839.883	13450.88
840.208	13466.92
840.533	13409.52
840.858	13451.78
841.182	13419.69
841.507	13384.21
841.832	13406.81
842.156	13292.69
842.481	13268.28
842.805	13313.25
843.13	13273.93
843.454	13185.35
843.778	13166.59
844.103	13163.65
844.427	13082.98
844.751	13101.28
845.075	13043.2
845.399	13003.2
845.723	12974.28
846.047	12997.55
846.371	12865.35
846.695	12937.67
847.019	12815.86
847.343	12655.19
847.666	12737.67
847.99	12611.12
848.313	12629.43
848.637	12562.31
848.96	12501.52
849.284	12441.18
849.607	12359.6
849.931	12321.41
850.254	12258.36
850.577	12271.02
850.9	12102.44
851.223	12159.61
851.546	12033.74
851.869	11981.31
852.192	12054.98
852.515	11952.84
852.838	11888.88
853.161	11950.35
853.483	11914.19
853.806	11809.34
854.129	11742.9
854.451	11708.55
854.774	11636.46
855.096	11637.59
855.419	11574.77
855.741	11639.4
856.063	11506.75
856.385	11451.15
856.708	11462
857.03	11420.42
857.352	11462
857.674	11411.15
857.996	11357.14
858.318	11275.79
858.64	11297.26
858.961	11278.73
859.283	11225.62
859.605	11199.18
859.926	11117.6
860.248	11108.56
860.57	11099.98
860.891	11078.96
861.212	11012.52
861.534	11009.36
861.855	10924.16
862.176	11016.59
862.498	11027.44
862.819	10940.43
863.14	10974.33
863.461	10912.41
863.782	10846.88
864.103	10791.96
864.424	10818.18
864.745	10881.23
865.065	10736.82
865.386	10697.05
865.707	10675.81
866.027	10709.03
866.348	10729.59
866.668	10669.03
866.989	10659.76
867.309	10566.43
867.63	10647.11
867.95	10632.19
868.27	10563.95
868.59	10633.1
868.91	10517.39
869.23	10481.46
869.55	10494.57
869.87	10563.27
870.19	10465.87
870.51	10502.03
870.83	10480.56
871.15	10445.98
871.469	10401.69
871.789	10456.6
872.109	10467
872.428	10405.08
872.748	10394.01
873.067	10398.07
873.386	10291.64
873.706	10361.69
874.025	10217.51
874.344	10272.65
874.663	10319.43
874.982	10197.18
875.301	10216.84
875.62	10243.73
875.939	10209.83
876.258	10185.2
876.577	10163.96
876.896	10151.75
877.214	10064.07
877.533	10212.77
877.852	10114.92
878.17	10095.48
878.489	10159.66
878.807	10085.09
879.125	10057.29
879.444	9991.31
879.762	10039.21
880.08	10019.78
880.398	9911.99
880.716	9924.41
881.034	9973.23
881.352	9874.47
881.67	9860.24
881.988	9872.21
882.306	9836.73
882.624	9842.16
882.941	9713.12
883.259	9730.3
883.577	9754.93
883.894	9722.84
884.212	9724.87
884.529	9679.67
884.846	9647.81
885.164	9677.64
885.481	9580.47
885.798	9621.82
886.115	9550.19
886.432	9572.33
886.75	9542.5
887.067	9545.89
887.383	9447.59
887.7	9495.72
888.017	9501.6
888.334	9495.72
888.651	9376.86
888.967	9405.56
889.284	9381.15
889.6	9328.95
889.917	9295.05
890.233	9281.72
890.55	9259.8
890.866	9150.2
891.182	9176.19
891.498	9149.29
891.815	9119.69
892.131	9065.68
892.447	9133.47
892.763	9081.95
893.079	9048.73
893.395	8985.46
893.71	8948.62
894.026	8940.94
894.342	8898.68
894.657	8877.66
894.973	8847.15
895.289	8843.31
895.604	8831.79
895.92	8771
896.235	8696.42
896.55	8698.01
896.865	8708.63
897.181	8610.78
897.496	8655.97
897.811	8555.86
898.126	8578.91
898.441	8492.14
898.756	8536.43
899.071	8467.73
899.386	8453.49
899.7	8362.42
900.015	8328.98
900.33	8355.64
900.644	8261.86
900.959	8272.48
901.273	8243.33
901.588	8155.2
901.902	8164.01
902.216	8104.8
902.531	8100.73
902.845	8110.68
903.159	8087.4
903.473	7936.44
903.787	8011.02
904.101	7889.21
904.415	7973.51
904.729	7947.29
905.042	7835.43
905.356	7825.94
905.67	7751.59
905.984	7808.99
906.297	7745.49
906.611	7704.13
906.924	7711.82
907.237	7664.13
907.551	7668.2
907.864	7623.68
908.177	7600.41
908.491	7585.27
908.804	7494.42
909.117	7478.83
909.43	7459.85
909.743	7369.23
910.056	7340.98
910.368	7328.78
910.681	7294.43
910.994	7275.44
911.307	7287.87
911.619	7206.52
911.932	7209.23
912.244	7119.06
912.557	7134.66
912.869	7082.46
913.181	7109.8
913.494	7181.66
913.806	7009.91
914.118	7009.91
914.43	6954.1
914.742	6959.75
915.054	6849.47
915.366	6901.67
915.678	6868.9
915.99	6842.24
916.302	6811.28
916.613	6773.08
916.925	6710.26
917.236	6750.94
917.548	6684.73
917.859	6724.27
918.171	6664.84
918.482	6559.08
918.794	6578.97
919.105	6549.14
919.416	6548.01
919.727	6526.99
920.038	6472.3
920.349	6470.72
920.66	6474.56
920.971	6452.64
921.282	6379.65
921.593	6331.97
921.903	6365.86
922.214	6294.45
922.525	6269.14
922.835	6188.24
923.146	6228.01
923.456	6235.7
923.767	6193.66
924.077	6186.66
924.387	6121.12
924.697	6128.58
925.008	6055.59
925.318	6000.22
925.628	6094.01
925.938	6026.89
926.248	5956.16
926.558	5963.61
926.867	5931.98
927.177	5921.13
927.487	5881.81
927.796	5844.52
928.106	5868.02
928.416	5856.27
928.725	5781.47
929.034	5791.19
929.344	5788.7
929.653	5726.33
929.962	5693.79
930.271	5632.32
930.581	5644.07
930.89	5620.35
931.199	5586.45
931.508	5556.85
931.817	5616.05
932.125	5584.19
932.434	5541.25
932.743	5512.78
933.051	5479.33
933.36	5483.85
933.669	5426.68
933.977	5363.18
934.286	5358.88
934.594	5381.71
934.902	5307.13
935.21	5302.61
935.519	5329.73
935.827	5323.18
936.135	5264.2
936.443	5252.22
936.751	5199.57
937.059	5169.51
937.367	5142.39
937.674	5101.49
937.982	5101.94
938.29	5093.13
938.597	5083.86
938.905	5015.84
939.213	4981.27
939.52	5023.75
939.827	5011.32
940.135	4973.36
940.442	4974.49
940.749	4933.58
941.056	4898.11
941.363	4890.87
941.67	4889.74
941.977	4805.45
942.284	4793.02
942.591	4800.93
942.898	4765.91
943.205	4768.84
943.511	4728.62
943.818	4692.01
944.125	4708.96
944.431	4671.44
944.738	4653.14
945.044	4659.69
945.35	4657.89
945.657	4602.07
945.963	4583.54
946.269	4511.45
946.575	4582.86
946.881	4499.47
947.187	4522.3
947.493	4502.86
947.799	4482.3
948.105	4449.98
948.41	4410.66
948.716	4421.96
949.022	4386.93
949.327	4381.06
949.633	4337.22
949.938	4367.95
950.244	4366.37
950.549	4280.27
950.854	4245.92
951.16	4283.88
951.465	4258.35
951.77	4275.07
952.075	4239.37
952.38	4191.91
952.685	4162.76
952.99	4141.74
953.294	4146.49
953.599	4095.19
953.904	4113.72
954.209	4064.46
954.513	4039.15
954.818	4050.9
955.122	4055.42
955.426	4051.57
955.731	3997.79
956.035	4001.86
956.339	3974.74
956.643	3971.8
956.948	3932.26
957.252	3902.65
957.556	3890
957.86	3919.6
958.163	3899.26
958.467	3867.17
958.771	3817.46
959.075	3840.73
959.378	3771.36
959.682	3782.43
959.985	3765.48
960.289	3781.3
960.592	3714.63
960.896	3716.67
961.199	3745.37
961.502	3698.82
961.805	3643.22
962.108	3618.59
962.411	3645.71
962.714	3624.01
963.017	3617.46
963.32	3608.2
963.623	3571.36
963.926	3533.17
964.228	3527.97
964.531	3518.03
964.833	3511.48
965.136	3529.1
965.438	3499.95
965.741	3470.8
966.043	3429.44
966.345	3445.94
966.648	3410.24
966.95	3411.37
967.252	3376.56
967.554	3378.37
967.856	3353.29
968.158	3343.12
968.46	3324.36
968.761	3290.46
969.063	3312.16
969.365	3294.53
969.666	3292.72
969.968	3250.47
970.269	3300.41
970.571	3212.27
970.872	3247.98
971.174	3238.26
971.475	3197.59
971.776	3180.18
972.077	3186.29
972.378	3144.25
972.679	3128.21
972.98	3114.2
973.281	3111.26
973.582	3117.59
973.883	3071.26
974.183	3080.3
974.484	3061.77
974.785	3049.34
975.085	3040.53
975.386	3016.35
975.686	3027.42
975.986	2973.41
976.287	2972.96
976.587	2937.03
976.887	2947.65
977.187	2948.1
977.487	2936.12
977.787	2919.4
978.087	2920.76
978.387	2877.59
978.687	2878.95
978.987	2864.94
979.286	2817.03
979.586	2858.84
979.885	2843.7
980.185	2840.76
980.484	2822
980.784	2829.01
981.083	2783.36
981.382	2762.57
981.682	2791.72
981.981	2752.17
982.28	2729.58
982.579	2696.58
982.878	2704.49
983.177	2702.23
983.475	2680.54
983.774	2674.21
984.073	2633.98
984.372	2647.32
984.67	2626.53
984.969	2608.9
985.267	2654.1
985.566	2631.95
985.864	2584.27
986.162	2555.12
986.461	2554.44
986.759	2540.65
987.057	2544.27
987.355	2519.86
987.653	2533.2
987.951	2520.32
988.249	2494.55
988.547	2492.97
988.844	2451.84
989.142	2476.47
989.44	2457.49
989.737	2422.24
990.035	2425.85
990.332	2402.13
990.63	2412.52
990.927	2395.57
991.224	2400.54
991.521	2359.42
991.819	2357.38
992.116	2356.48
992.413	2350.83
992.71	2311.73
993.006	2340.43
993.303	2321.9
993.6	2296.37
993.897	2293.43
994.193	2274.9
994.49	2293.2
994.787	2248.91
995.083	2237.61
995.379	2214.79
995.676	2224.5
995.972	2207.1
996.268	2205.75
996.565	2178.4
996.861	2203.49
997.157	2173.66
997.453	2162.58
997.749	2156.48
998.044	2108.12
998.34	2129.82
998.636	2143.38
998.932	2118.74
999.227	2093.43
999.523	2074.68
999.818	2069.03
1000.114	2032.42
1000.409	2064.06
1000.704	2042.81
1001	2053.66
1001.295	2004.17
1001.59	2010.95
1001.885	2005.53
1002.18	2009.37
1002.475	1972.98
1002.77	1966.43
1003.065	1952.87
1003.359	1936.6
1003.654	1941.57
1003.949	1932.99
1004.243	1915.36
1004.538	1910.84
1004.832	1919.65
1005.127	1881.91
1005.421	1859.54
1005.715	1855.47
1006.009	1858.86
1006.304	1832.65
1006.598	1842.14
1006.892	1829.71
1007.186	1796.04
1007.48	1814.12
1007.773	1801.24
1008.067	1767.34
1008.361	1742.93
1008.655	1744.74
1008.948	1727.34
1009.242	1742.93
1009.535	1749.94
1009.829	1738.41
1010.122	1673.11
1010.415	1697.51
1010.708	1692.09
1011.001	1704.74
1011.295	1659.77
1011.588	1672.65
1011.881	1670.17
1012.173	1626.55
1012.466	1605.31
1012.759	1602.83
1013.052	1591.53
1013.344	1594.24
1013.637	1600.79
1013.93	1577.29
1014.222	1575.93
1014.514	1586.1
1014.807	1601.47
1015.099	1578.64
1015.391	1542.71
1015.683	1500.91
1015.976	1532.32
1016.268	1521.47
1016.56	1487.12
1016.851	1495.48
1017.143	1511.53
1017.435	1465.65
1017.727	1471.76
1018.018	1445.77
1018.31	1410.74
1018.602	1460.46
1018.893	1410.97
1019.185	1426.33
1019.476	1410.29
1019.767	1413.45
1020.058	1431.53
1020.35	1367.35
1020.641	1388.14
1020.932	1356.5
1021.223	1361.48
1021.514	1331.87
1021.804	1335.04
1022.095	1351.08
1022.386	1296.39
1022.677	1305.66
1022.967	1310.4
1023.258	1310.4
1023.548	1278.09
1023.839	1265.21
1024.129	1287.35
1024.419	1268.37
1024.709	1233.57
1025	1228.82
1025.29	1231.54
1025.58	1266.11
1025.87	1243.74
1026.16	1214.13
1026.449	1203.74
1026.739	1214.81
1027.029	1213
1027.319	1170.97
1027.608	1204.42
1027.898	1182.5
1028.187	1173.46
1028.477	1161.48
1028.766	1151.76
1029.055	1143.4
1029.344	1137.53
1029.634	1126.68
1029.923	1122.61
1030.212	1099.56
1030.501	1112.67
1030.79	1098.88
1031.078	1087.36
1031.367	1095.27
1031.656	1048.26
1031.945	1073.35
1032.233	1053.46
1032.522	1063.63
1032.81	1048.94
1033.099	1026.8
1033.387	1039.68
1033.675	1042.39
1033.963	1014.59
1034.251	1042.39
1034.54	1005.33
1034.828	1012.33
1035.116	1012.33
1035.403	999.45
1035.691	1001.48
1035.979	993.58
1036.267	943.63
1036.554	954.03
1036.842	954.48
1037.129	938.44
1037.417	949.51
1037.704	940.24
1037.992	933.69
1038.279	910.19
1038.566	923.97
1038.853	923.97
1039.14	923.97
