Data from hue_20_FLMS001491_3.txt Node
Date: Mon Feb 06 15:33:32 GMT 2017
User: dcchb
Spectrometer: FLMS00149
Trigger mode: 0
Integration Time (sec): 2.000000E-2
Scans to average: 10
Electric dark correction enabled: true
Nonlinearity correction enabled: false
Boxcar width: 0
XAxis mode: Wavelengths
Number of Pixels in Spectrum: 2048
>>>>>Begin Spectral Data<<<<<
341.393	-1.58
341.776	-1.58
342.16	-1.58
342.543	-56.5
342.927	-76.16
343.31	-56.27
343.693	-55.37
344.077	-52.43
344.46	-63.28
344.843	-66.66
345.226	-46.1
345.61	-27.57
345.993	-26.89
346.376	-14.91
346.759	9.27
347.142	19.66
347.525	35.48
347.908	64.41
348.291	88.13
348.674	91.75
349.057	100.79
349.44	120.67
349.823	133.1
350.206	181.69
350.588	169.26
350.971	198.41
351.354	226.43
351.737	240.9
352.119	255.36
352.502	235.93
352.884	283.83
353.267	277.28
353.65	271.86
354.032	304.85
354.414	313.44
354.797	296.72
355.179	325.42
355.562	321.12
355.944	326.32
356.326	341.46
356.709	326.77
357.091	361.57
357.473	344.85
357.855	331.97
358.238	365.64
358.62	339.2
359.002	354.34
359.384	355.7
359.766	352.31
360.148	341.23
360.53	343.72
360.912	348.69
361.294	346.43
361.676	348.92
362.057	345.75
362.439	334.91
362.821	341.91
363.203	311.63
363.584	321.35
363.966	348.69
364.348	318.64
364.729	327.22
365.111	324.06
365.493	323.38
365.874	321.8
366.256	334.45
366.637	313.44
367.019	305.53
367.4	333.1
367.781	307.56
368.163	324.74
368.544	317.96
368.925	340.33
369.306	328.8
369.688	301.91
370.069	302.82
370.45	333.55
370.831	297.39
371.212	320.9
371.593	324.51
371.974	294.91
372.355	325.64
372.736	339.88
373.117	325.19
373.498	291.07
373.879	305.53
374.26	309.82
374.641	308.01
375.021	327
375.402	317.96
375.783	317.96
376.163	343.72
376.544	344.85
376.925	311.4
377.305	323.16
377.686	341.91
378.066	348.01
378.447	308.01
378.827	319.54
379.208	337.84
379.588	308.01
379.968	321.12
380.349	329.03
380.729	345.3
381.109	345.08
381.489	324.29
381.87	332.19
382.25	320.22
382.63	321.57
383.01	337.62
383.39	349.82
383.77	340.56
384.15	335.13
384.53	363.61
384.91	353.89
385.29	347.11
385.67	369.71
386.049	352.08
386.429	326.09
386.809	347.56
387.189	357.05
387.568	348.92
387.948	351.86
388.328	358.41
388.707	357.5
389.087	369.71
389.466	362.7
389.846	367.45
390.225	360.89
390.605	359.99
390.984	348.69
391.363	382.14
391.743	355.24
392.122	374.91
392.501	370.61
392.881	388.24
393.26	358.41
393.639	364.74
394.018	381.01
394.397	368.58
394.776	376.04
395.155	376.26
395.534	370.39
395.913	380.1
396.292	396.83
396.671	367.22
397.05	368.13
397.429	388.69
397.808	366.54
398.186	365.87
398.565	392.31
398.944	390.72
399.323	366.09
399.701	381.68
400.08	385.07
400.458	393.44
400.837	381.46
401.215	362.25
401.594	409.93
401.972	383.94
402.351	402.02
402.729	397.28
403.107	406.54
403.486	408.58
403.864	406.09
404.242	395.7
404.62	401.35
404.999	420.1
405.377	420.33
405.755	416.03
406.133	407.22
406.511	425.98
406.889	413.77
407.267	421.68
407.645	407.22
408.023	404.06
408.401	409.48
408.779	419.42
409.156	422.14
409.534	436.15
409.912	431.63
410.29	439.76
410.667	423.72
411.045	455.81
411.422	424.17
411.8	423.04
412.178	448.8
412.555	464.85
412.933	452.19
413.31	435.92
413.687	462.81
414.065	456.49
414.442	445.64
414.819	452.87
415.197	453.55
415.574	463.94
415.951	461.46
416.328	474.11
416.705	475.69
417.082	481.57
417.46	473.43
417.837	488.8
418.214	487.44
418.591	476.6
418.967	459.2
419.344	493.09
419.721	478.18
420.098	488.57
420.475	480.44
420.852	494.68
421.228	500.78
421.605	507.11
421.982	526.09
422.358	502.59
422.735	485.41
423.111	513.66
423.488	499.42
423.864	506.2
424.241	529.48
424.617	522.47
424.994	538.06
425.37	520.66
425.746	508.91
426.123	524.96
426.499	532.64
426.875	536.71
427.251	541.45
427.627	541
428.003	550.49
428.379	543.04
428.756	547.56
429.132	554.11
429.507	561.12
429.883	550.27
430.259	556.82
430.635	565.18
431.011	552.98
431.387	576.26
431.763	576.93
432.138	592.75
432.514	599.08
432.89	597.27
433.265	603.37
433.641	611.51
434.016	611.28
434.392	591.85
434.767	608.35
435.143	636.37
435.518	614.22
435.894	618.74
436.269	636.37
436.644	640.44
437.02	648.57
437.395	662.81
437.77	665.97
438.145	639.76
438.52	661
438.895	651.96
439.271	661.9
439.646	685.41
440.021	665.52
440.395	653.32
440.77	681.11
441.145	686.76
441.52	705.97
441.895	685.63
442.27	689.02
442.645	683.37
443.019	714.33
443.394	702.81
443.769	711.85
444.143	713.88
444.518	745.52
444.892	721.11
445.267	726.53
445.641	747.1
446.016	754.78
446.39	726.31
446.764	740.09
447.139	740.09
447.513	734.67
447.887	743.71
448.262	763.14
448.636	759.98
449.01	746.65
449.384	769.92
449.758	771.96
450.132	755.46
450.506	771.73
450.88	798.85
451.254	790.04
451.628	778.74
452.002	815.12
452.376	802.92
452.75	801.79
453.123	795.91
453.497	830.94
453.871	828.45
454.244	844.72
454.618	852.86
454.992	828.45
455.365	843.82
455.739	868.68
456.112	858.96
456.486	878.85
456.859	856.7
457.232	895.8
457.606	891.05
457.979	881.78
458.352	934.21
458.725	891.95
459.099	908
459.472	931.5
459.845	954.55
460.218	964.27
460.591	980.31
460.964	955.68
461.337	983.03
461.71	978.73
462.083	1004.49
462.456	985.51
462.829	1010.59
463.201	1037.49
463.574	1023.02
463.947	1054.21
464.32	1055.34
464.692	1071.16
465.065	1063.47
465.438	1099.63
465.81	1089.91
466.183	1116.81
466.555	1157.26
466.928	1145.96
467.3	1140.08
467.672	1166.75
468.045	1195.9
468.417	1180.99
468.789	1164.04
469.161	1211.27
469.534	1218.5
469.906	1242.91
470.278	1254.43
470.65	1278.61
471.022	1322
471.394	1299.17
471.766	1286.07
472.138	1323.81
472.51	1369.91
472.882	1385.73
473.253	1402
473.625	1407.65
473.997	1435.44
474.369	1443.35
474.74	1469.79
475.112	1503.01
475.484	1536.68
475.855	1553.63
476.227	1557.47
476.598	1591.37
476.97	1621.43
477.341	1640.41
477.713	1678.37
478.084	1670.92
478.455	1717.47
478.827	1762.89
479.198	1835.21
479.569	1804.47
479.94	1860.74
480.311	1855.54
480.682	1893.28
481.053	1948.42
481.424	1964.47
481.795	2013.96
482.166	2030.46
482.537	2071.81
482.908	2121.98
483.279	2115.65
483.65	2195.65
484.021	2235.87
484.391	2225.03
484.762	2273.61
485.133	2294.4
485.503	2378.69
485.874	2389.99
486.244	2405.81
486.615	2452.36
486.985	2505.92
487.356	2544.11
487.726	2564.45
488.097	2606.03
488.467	2671.79
488.837	2737.56
489.207	2749.98
489.578	2775.75
489.948	2830.89
490.318	2865.01
490.688	2872.69
491.058	2959.7
491.428	2976.19
491.798	3044.21
492.168	3069.52
492.538	3096.64
492.908	3159.24
493.278	3218.45
493.648	3202.4
494.017	3209.41
494.387	3255.06
494.757	3333.92
495.126	3280.82
495.496	3356.07
495.866	3393.13
496.235	3420.93
496.605	3454.37
496.974	3479.91
497.344	3501.38
497.713	3544.09
498.082	3575.05
498.452	3614.82
498.821	3617.53
499.19	3657.53
499.559	3691.43
499.928	3697.08
500.298	3721.71
500.667	3760.35
501.036	3746.34
501.405	3796.96
501.774	3862.72
502.143	3869.95
502.512	3874.93
502.88	3896.62
503.249	3892.55
503.618	3955.6
503.987	3962.61
504.356	3980.23
504.724	3995.38
505.093	3961.7
505.462	4062.94
505.83	4086.22
506.199	4094.36
506.567	4148.37
506.936	4137.74
507.304	4170.29
507.672	4173.45
508.041	4256.84
508.409	4258.19
508.777	4263.39
509.145	4274.46
509.514	4315.37
509.882	4327.57
510.25	4325.76
510.618	4341.13
510.986	4380.68
511.354	4408.25
511.722	4451.41
512.09	4440.79
512.458	4467.91
512.826	4485.53
513.193	4511.75
513.561	4547
513.929	4562.37
514.297	4551.29
514.664	4620.22
515.032	4661.8
515.4	4675.81
515.767	4672.42
516.135	4713.1
516.502	4686.43
516.869	4756.71
517.237	4753.55
517.604	4773.21
517.972	4783.38
518.339	4803.49
518.706	4778.41
519.073	4843.71
519.44	4839.65
519.808	4866.54
520.175	4886.43
520.542	4940.21
520.909	4944.95
521.276	4976.82
521.643	4988.12
522.009	4984.5
522.376	5038.51
522.743	5052.3
523.11	5101.11
523.477	5130.26
523.843	5123.03
524.21	5189.92
524.577	5205.29
524.943	5277.6
525.31	5277.15
525.676	5261.1
526.043	5396.69
526.409	5345.4
526.776	5393.3
527.142	5416.35
527.508	5416.13
527.874	5475.79
528.241	5509.01
528.607	5502.68
528.973	5551.49
529.339	5558.5
529.705	5553.53
530.071	5623.81
530.437	5654.99
530.803	5699.96
531.169	5714.43
531.535	5695.9
531.901	5745.84
532.267	5785.61
532.632	5805.72
532.998	5863.12
533.364	5817.93
533.73	5839.39
534.095	5911.71
534.461	5950.8
534.826	5975.44
535.192	5973.63
535.557	6060.41
535.923	6065.83
536.288	6036.68
536.653	6074.87
537.019	6100.18
537.384	6096.11
537.749	6131.82
538.114	6096.79
538.479	6136.34
538.845	6189.44
539.21	6159.84
539.575	6206.39
539.94	6269.67
540.305	6316.22
540.67	6318.25
541.034	6275.09
541.399	6336.56
541.764	6353.28
542.129	6423.79
542.494	6439.83
542.858	6423.11
543.223	6464.24
543.587	6486.16
543.952	6495.42
544.316	6520.96
544.681	6521.18
545.045	6588.98
545.41	6576.1
545.774	6652.71
546.138	6587.85
546.503	6677.11
546.867	6722.99
547.231	6734.74
547.595	6772.03
547.959	6823.32
548.324	6827.17
548.688	6817.9
549.052	6839.37
549.416	6838.01
549.779	6913.72
550.143	6957.78
550.507	6887.95
550.871	6974.28
551.235	6973.83
551.599	7071
551.962	7019.7
552.326	7052.47
552.689	7044.33
553.053	7129.53
553.417	7109.64
553.78	7153.03
554.143	7202.52
554.507	7277.55
554.87	7207.04
555.234	7250.2
555.597	7258.34
555.96	7302.63
556.323	7346.25
556.686	7339.47
557.05	7341.28
557.413	7396.64
557.776	7395.74
558.139	7448.62
558.502	7464.66
558.865	7536.75
559.228	7517.99
559.59	7518.67
559.953	7582.63
560.316	7654.71
560.679	7619.01
561.041	7681.83
561.404	7686.58
561.767	7759.8
562.129	7740.36
562.492	7823.98
562.854	7769.74
563.217	7740.81
563.579	7896.29
563.941	7851.54
564.304	7885.89
564.666	8001.6
565.028	7922.96
565.39	7954.14
565.753	7991.2
566.115	8116.85
566.477	8129.96
566.839	8130.18
567.201	8177.86
567.563	8171.99
567.925	8167.92
568.287	8211.76
568.648	8249.05
569.01	8276.39
569.372	8359.1
569.734	8278.65
570.095	8433.68
570.457	8409.04
570.819	8476.84
571.18	8419.89
571.542	8550.06
571.903	8601.58
572.265	8585.31
572.626	8654.91
572.987	8682.94
573.349	8744.4
573.71	8829.82
574.071	8788.7
574.432	8844.74
574.794	8985.98
575.155	8977.62
575.516	8941.46
575.877	9098.97
576.238	9082.93
576.599	9215.12
576.96	9265.52
577.32	9294.9
577.681	9364.73
578.042	9462.12
578.403	9497.15
578.763	9545.51
579.124	9654.89
579.485	9800.19
579.845	9875.67
580.206	9919.06
580.566	10011.26
580.927	10081.77
581.287	10247.19
581.648	10314.98
582.008	10490.8
582.368	10547.29
582.728	10687.63
583.089	10800.39
583.449	10907.96
583.809	11129.88
584.169	11323.77
584.529	11389.53
584.889	11664.33
585.249	11733.7
585.609	11889.63
585.969	12169.4
586.329	12247.36
586.688	12498.43
587.048	12646
587.408	12790.17
587.768	13091.18
588.127	13248.47
588.487	13447.56
588.846	13810.94
589.206	13866.53
589.565	14111.95
589.925	14431.48
590.284	14618.6
590.643	14853.85
591.003	15159.6
591.362	15331.8
591.721	15566.6
592.08	15795.06
592.44	16100.82
592.799	16468.72
593.158	16736.06
593.517	16945.09
593.876	17211.3
594.235	17513.66
594.593	17738.52
594.952	18016.25
595.311	18351.38
595.67	18663.92
596.029	18969.67
596.387	19291.24
596.746	19660.95
597.104	19750.44
597.463	20021.85
597.822	20453.93
598.18	20626.58
598.538	20864.99
598.897	21309.95
599.255	21433.79
599.613	22045.75
599.972	22145.63
600.33	22519.18
600.688	22715.56
601.046	23043.69
601.404	23500.63
601.762	23575.2
602.12	24055.41
602.478	24294.5
602.836	24508.06
603.194	24685.9
603.552	24957.54
603.91	25170.41
604.268	25678.87
604.625	25761.81
604.983	26124.06
605.341	26302.13
605.698	26637.94
606.056	26912.29
606.413	27112.51
606.771	27357.25
607.128	27617.13
607.485	27832.49
607.843	28119.26
608.2	28394.73
608.557	28679.7
608.914	28698.68
609.272	29056.86
609.629	29378.89
609.986	29645.77
610.343	29662.95
610.7	30130.06
611.057	30273.78
611.414	30443.27
611.771	30805.52
612.127	30981.56
612.484	31101.56
612.841	31562.79
613.198	31494.09
613.554	31608.66
613.911	32036.45
614.267	32136.78
614.624	32215.65
614.98	32403.67
615.337	32722.98
615.693	32851.34
616.05	32949.64
616.406	33232.57
616.762	33344.89
617.118	33400.03
617.475	33613.35
617.831	33816.96
618.187	33981.71
618.543	33952.78
618.899	34463.27
619.255	34473.67
619.611	34488.58
619.967	34771.74
620.323	34884.96
620.678	34809.03
621.034	34858.52
621.39	34939.87
621.746	35142.8
622.101	35608.33
622.457	35420.76
622.812	35491.95
623.168	35730.36
623.523	35905.5
623.879	35874.99
624.234	35856.23
624.589	36016.45
624.945	36063.68
625.3	36337.12
625.655	36252.15
626.01	36418.7
626.365	36381.64
626.72	36477.91
627.075	36695.08
627.43	36695.53
627.785	36638.58
628.14	36723.78
628.495	36888.75
628.85	36835.87
629.205	36818.47
629.559	37170.1
629.914	37105.69
630.269	37055.97
630.623	37114.96
630.978	36969.2
631.332	37217.55
631.687	37337.32
632.041	37325.57
632.396	37201.28
632.75	37100.95
633.104	37382.29
633.459	37292.58
633.813	37253.71
634.167	37241.05
634.521	37322.86
634.875	37524.89
635.229	37292.13
635.583	37245.12
635.937	37343.65
636.291	37303.88
636.645	37408.73
636.999	37181.4
637.352	37390.66
637.706	37222.3
638.06	37392.46
638.413	37291
638.767	37297.32
639.121	37470.2
639.474	37208.29
639.828	37339.13
640.181	37300.04
640.534	37356.98
640.888	37240.6
641.241	37131.45
641.594	37235.41
641.947	37384.33
642.301	37286.03
642.654	37227.72
643.007	37211.45
643.36	37110.21
643.713	37129.19
644.066	37347.49
644.419	37135.07
644.771	37022.53
645.124	36633.39
645.477	36566.72
645.83	36396.11
646.182	36172.16
646.535	36224.81
646.888	36216.67
647.24	35962.67
647.593	36188.88
647.945	36199.73
648.298	36024.14
648.65	36040.86
649.002	35936
649.355	36066.62
649.707	35915.67
650.059	36114.98
650.411	36471.58
650.763	36611.01
651.115	37008.07
651.467	36797
651.819	36793.83
652.171	36739.15
652.523	36793.83
652.875	36839.48
653.227	36546.84
653.578	36883.32
653.93	36727.17
654.282	36647.17
654.633	36541.19
654.985	36633.61
655.337	36723.55
655.688	36597.91
656.039	36669.54
656.391	36504.8
656.742	36597.46
657.094	36531.69
657.445	36648.75
657.796	36591.35
658.147	36557
658.498	36479.04
658.849	36539.83
659.2	36439.95
659.551	36515.2
659.902	36592.26
660.253	36412.83
660.604	36624.35
660.955	36416.22
661.306	36417.8
661.656	36478.59
662.007	36314.75
662.358	36418.7
662.708	36493.73
663.059	36438.14
663.409	36270.23
663.76	36406.27
664.11	36507.29
664.461	36468.87
664.811	36389.33
665.161	36333.06
665.511	36227.3
665.862	36401.08
666.212	36433.39
666.562	36383.45
666.912	36377.12
667.262	36373.05
667.612	36274.98
667.962	36433.62
668.312	36241.31
668.662	36520.62
669.011	36399.27
669.361	36258.93
669.711	36319.5
670.06	36188.65
670.41	36250.8
670.76	36138.48
671.109	36358.82
671.459	36390.46
671.808	36170.57
672.157	36283.34
672.507	36149.56
672.856	36011.71
673.205	36093.06
673.554	36256.9
673.904	36028.21
674.253	36224.58
674.602	36190.91
674.951	35673.64
675.3	35490.82
675.649	36047.19
675.998	35876.57
676.346	35974.2
676.695	36115.43
677.044	35887.19
677.393	35995.21
677.741	35969
678.09	35982.1
678.438	35802.45
678.787	35908.66
679.135	35867.76
679.484	35588.89
679.832	35804.03
680.181	35653.53
680.529	35650.59
680.877	35646.75
681.225	35513.19
681.573	35746.86
681.922	35604.26
682.27	35464.15
682.618	35363.59
682.966	35284.5
683.314	35410.82
683.661	35420.76
684.009	35111.39
684.357	34995.92
684.705	35001.57
685.053	34991.62
685.4	35006.31
685.748	34847.22
686.095	34847.45
686.443	34640.45
686.79	34744.62
687.138	34712.31
687.485	34752.53
687.832	34623.5
688.18	34631.86
688.527	34397.97
688.874	34457.4
689.221	34355.93
689.568	34207.69
689.915	34247.69
690.262	34160.23
690.609	34072.32
690.956	33926.11
691.303	33937.19
691.65	33847.47
691.997	33797.76
692.344	33505.11
692.69	33668.95
693.037	33721.37
693.383	33463.98
693.73	33496.29
694.077	33321.61
694.423	33330.88
694.769	33249.07
695.116	33169.98
695.462	33110.32
695.808	32975.18
696.155	32997.55
696.501	32672.59
696.847	32805.47
697.193	32491.12
697.539	32573.38
697.885	32424.68
698.231	32336.78
698.577	32332.71
698.923	32270.79
699.269	32061.98
699.614	32052.26
699.96	31793.74
700.306	31940.18
700.651	31798.71
700.997	31656.34
701.342	31586.29
701.688	31514.65
702.033	31513.75
702.379	31479.62
702.724	31362.79
703.069	31433.07
703.415	31099.07
703.76	31052.29
704.105	31196.02
704.45	31125.06
704.795	30931.62
705.14	30888.68
705.485	30711.51
705.83	30757.61
706.175	30744.05
706.52	30543.38
706.865	30473.55
707.209	30385.64
707.554	30253.22
707.899	30392.87
708.243	30143.16
708.588	30119.21
708.932	30044.63
709.277	29897.07
709.621	29977.06
709.966	29704.76
710.31	29914.47
710.654	29572.1
710.998	29579.11
711.342	29601.71
711.687	29574.82
712.031	29489.85
712.375	29370.3
712.719	29401.49
713.063	29260.93
713.407	29492.33
713.75	29153.81
714.094	29105
714.438	29132.34
714.782	29210.31
715.125	28983.87
715.469	29040.14
715.812	28848.96
716.156	28789.75
716.499	28747.72
716.843	28680.38
717.186	28591.79
717.53	28796.76
717.873	28698.45
718.216	28577.1
718.559	28361.97
718.902	28314.06
719.246	28434.73
719.589	28254.62
719.932	28145.47
720.275	28149.77
720.617	28086.04
720.96	27999.94
721.303	28134.18
721.646	28048.75
721.989	27910.68
722.331	28003.56
722.674	27788.42
723.016	27933.5
723.359	27736.67
723.701	27716.33
724.044	27633.4
724.386	27572.83
724.729	27633.4
725.071	27591.59
725.413	27397.02
725.755	27672.49
726.097	27382.1
726.439	27261.2
726.782	27305.27
727.124	27362.9
727.465	27218.49
727.807	27234.54
728.149	27157.93
728.491	27047.2
728.833	27166.29
729.175	26974.66
729.516	27023.47
729.858	26906.19
730.199	26930.14
730.541	26846.75
730.882	26995.45
731.224	26914.55
731.565	26672.97
731.906	26759.07
732.248	26638.4
732.589	26574.67
732.93	26530.6
733.271	26546.19
733.612	26554.78
733.953	26521.34
734.294	26394.33
734.635	26426.42
734.976	26490.15
735.317	26319.31
735.658	26350.95
735.999	26317.73
736.339	26205.19
736.68	26178.29
737.021	26152.53
737.361	26081.57
737.702	26129.48
738.042	26092.65
738.383	26143.04
738.723	26037.28
739.063	25950.5
739.404	26086.77
739.744	26005.87
740.084	25811.75
740.424	25841.58
740.764	25860.34
741.104	25890.62
741.444	25609.72
741.784	25653.79
742.124	25714.8
742.464	25618.54
742.804	25698.99
743.143	25529.05
743.483	25505.32
743.823	25484.98
744.162	25368.6
744.502	25378.32
744.841	25294.25
745.181	25478.43
745.52	25288.37
745.86	25321.59
746.199	25289.96
746.538	25104.88
746.877	25239.11
747.216	25251.31
747.556	25143.52
747.895	25069.62
748.234	25090.64
748.573	25029.85
748.911	24983.52
749.25	24962.73
749.589	24852
749.928	24850.42
750.267	24883.64
750.605	24812.23
750.944	24720.25
751.283	24531.78
751.621	24761.16
751.96	24647.71
752.298	24539.69
752.636	24586.7
752.975	24517.55
753.313	24316.65
753.651	24577.66
753.989	24421.73
754.327	24348.29
754.666	24161.62
755.004	24228.06
755.342	24228.74
755.679	24135.41
756.017	24023.78
756.355	24076.66
756.693	23934.51
757.031	24032.36
757.368	23861.07
757.706	23871.24
758.044	23818.36
758.381	23807.06
758.719	23674.86
759.056	23757.79
759.394	23706.04
759.731	23446.16
760.068	23481.19
760.405	23406.62
760.743	23204.81
761.08	23343.79
761.417	23224.47
761.754	23199.16
762.091	23033.52
762.428	23038.04
762.765	22908.32
763.102	23090.69
763.438	22861.09
763.775	22787.65
764.112	22762.79
764.449	22822.22
764.785	22693.87
765.122	22483.25
765.458	22431.05
765.795	22332.07
766.131	22426.08
766.467	22260.88
766.804	22193.77
767.14	22077.84
767.476	22077.39
767.812	22013.88
768.148	22013.21
768.485	21781.8
768.821	21763.72
769.157	21771.63
769.492	21634.69
769.828	21688.47
770.164	21375.71
770.5	21418.65
770.836	21427.23
771.171	21259.33
771.507	21221.14
771.842	20991.76
772.178	21058.43
772.513	21019.11
772.849	20923.29
773.184	20886.68
773.519	20881.71
773.855	20707.25
774.19	20711.09
774.525	20613.24
774.86	20657.76
775.195	20512.68
775.53	20405.11
775.865	20307.04
776.2	20218.23
776.535	20115.63
776.87	20066.37
777.205	20096.65
777.539	19927.39
777.874	19927.84
778.209	19714.96
778.543	19778.46
778.878	19553.61
779.212	19585.47
779.547	19524.91
779.881	19510.67
780.215	19385.7
780.55	19408.08
780.884	19276.56
781.218	19139.16
781.552	19194.52
781.886	19073.62
782.22	19048.09
782.554	18887.41
782.888	18729.45
783.222	18647.87
783.556	18677.93
783.889	18559.51
784.223	18458.72
784.557	18442.68
784.89	18451.94
785.224	18358.84
785.557	18303.7
785.891	18129.69
786.224	18185.06
786.558	18094.44
786.891	18011.05
787.224	17913.88
787.557	17755.69
787.891	17796.59
788.224	17804.96
788.557	17771.28
788.89	17719.31
789.223	17687.9
789.556	17448.13
789.888	17470.73
790.221	17510.05
790.554	17333.33
790.887	17330.62
791.219	17267.12
791.552	17244.74
791.884	17215.37
792.217	17156.39
792.549	16999.55
792.882	16944.64
793.214	16903.74
793.546	16904.41
793.879	16725.66
794.211	16739.9
794.543	16669.17
794.875	16590.3
795.207	16602.05
795.539	16549.85
795.871	16480.02
796.203	16402.96
796.535	16301.27
796.867	16215.39
797.198	16177.43
797.53	16118.45
797.862	16100.14
798.193	16165.22
798.525	16007.71
798.856	16089.29
799.188	15942.41
799.519	15754.84
799.85	15753.71
800.182	15716.87
800.513	15713.26
800.844	15643.88
801.175	15732.92
801.506	15647.05
801.837	15520.95
802.168	15473.94
802.499	15402.31
802.83	15358.01
803.161	15343.55
803.491	15173.84
803.822	15238.7
804.153	15154.86
804.483	15122.54
804.814	14965.48
805.145	15092.71
805.475	14981.98
805.805	14972.04
806.136	14886.16
806.466	14898.37
806.796	14856.11
807.126	14667.64
807.457	14645.26
807.787	14740.18
808.117	14639.39
808.447	14545.15
808.777	14596.68
809.107	14604.59
809.436	14585.15
809.766	14584.93
810.096	14464.7
810.426	14412.28
810.755	14376.57
811.085	14369.57
811.414	14305.16
811.744	14147.42
812.073	14200.3
812.403	14124.37
812.732	13986.3
813.061	14089.12
813.39	14026.07
813.719	13959.18
814.049	14021.33
814.378	14006.41
814.707	13942.91
815.036	13933.64
815.365	13855
815.693	13768.23
816.022	13685.52
816.351	13727.32
816.68	13604.16
817.008	13663.6
817.337	13526.88
817.665	13488.91
817.994	13553.32
818.322	13575.69
818.651	13487.78
818.979	13412.3
819.307	13445.07
819.636	13341.8
819.964	13295.92
820.292	13404.17
820.62	13311.74
820.948	13251.85
821.276	13314.68
821.604	13293.21
821.932	13283.04
822.259	13286.66
822.587	13198.97
822.915	13201.46
823.243	13330.95
823.57	13268.8
823.898	13260.44
824.225	13184.74
824.553	13249.82
824.88	13224.29
825.207	13164.63
825.535	13235.13
825.862	13285.07
826.189	13236.49
826.516	13293.44
826.843	13301.12
827.17	13274.23
827.497	13193.33
827.824	13299.99
828.151	13268.35
828.478	13186.77
828.805	13189.03
829.131	13117.17
829.458	13107.23
829.785	13153.1
830.111	13069.94
830.438	13179.09
830.764	13219.54
831.09	13120.11
831.417	12989.49
831.743	13094.57
832.069	13111.29
832.395	13132.31
832.722	13135.02
833.048	13120.56
833.374	13051.18
833.7	12981.58
834.026	13036.95
834.351	13113.33
834.677	13003.05
835.003	13012.09
835.329	13046.21
835.654	12946.1
835.98	12950.62
836.306	12932.54
836.631	12895.25
836.956	12924.86
837.282	12871.07
837.607	12806.22
837.932	12878.98
838.258	12830.62
838.583	12779.78
838.908	12747.69
839.233	12754.01
839.558	12708.59
839.883	12614.36
840.208	12606.22
840.533	12638.31
840.858	12605.77
841.182	12663.85
841.507	12633.79
841.832	12620.69
842.156	12577.52
842.481	12481.03
842.805	12532.78
843.13	12464.08
843.454	12457.53
843.778	12378.43
844.103	12398.09
844.427	12338.88
844.751	12327.13
845.075	12295.27
845.399	12250.07
845.723	12177.76
846.047	12230.64
846.371	12014.6
846.695	12086.91
847.019	11980.02
847.343	11989.52
847.666	11811.67
847.99	11854.38
848.313	11802.18
848.637	11725.12
848.96	11720.6
849.284	11700.26
849.607	11658.68
849.931	11543.2
850.254	11519.47
850.577	11482.86
850.9	11419.36
851.223	11373.94
851.546	11338.91
851.869	11322.19
852.192	11258.46
852.515	11145.02
852.838	11167.16
853.161	11112.7
853.483	11123.55
853.806	11051.23
854.129	11004
854.451	10968.3
854.774	10929.66
855.096	10916.1
855.419	10914.52
855.741	10837.68
856.063	10765.59
856.385	10779.38
856.708	10707.74
857.03	10693.5
857.352	10691.92
857.674	10640.85
857.996	10681.08
858.318	10505.71
858.64	10527.63
858.961	10558.59
859.283	10463.91
859.605	10457.35
859.926	10488.09
860.248	10386.17
860.57	10470.23
860.891	10371.25
861.212	10298.94
861.534	10305.72
861.855	10294.64
862.176	10227.53
862.498	10307.75
862.819	10294.42
863.14	10199.73
863.461	10217.81
863.782	10134.87
864.103	10139.39
864.424	10122.67
864.745	10136
865.065	10081.99
865.386	10114.31
865.707	10066.18
866.027	10050.13
866.348	9933.3
866.668	10050.81
866.989	10004.93
867.309	9934.88
867.63	9936.91
867.95	9969
868.27	9856.69
868.59	9934.43
868.91	9854.66
869.23	9832.28
869.55	9807.65
869.87	9823.92
870.19	9799.52
870.51	9813.3
870.83	9756.35
871.15	9683.81
871.469	9757.94
871.789	9687.88
872.109	9734.21
872.428	9596.58
872.748	9671.16
873.067	9650.37
873.386	9723.59
873.706	9577.38
874.025	9587.32
874.344	9546.42
874.663	9560.65
874.982	9479.98
875.301	9531.73
875.62	9497.15
875.939	9446.76
876.258	9520.88
876.577	9446.98
876.896	9407.44
877.214	9381
877.533	9445.18
877.852	9432.07
878.17	9384.39
878.489	9381.45
878.807	9380.09
879.125	9362.47
879.444	9309.36
879.762	9331.51
880.08	9338.51
880.398	9250.15
880.716	9235.92
881.034	9281.11
881.352	9247.89
881.67	9185.52
881.988	9254.45
882.306	9186.65
882.624	9119.31
882.941	9141
883.259	9141.68
883.577	9046.32
883.894	9034.11
884.212	9058.74
884.529	9085.64
884.846	8980.1
885.164	9033.89
885.481	9045.41
885.798	8928.35
886.115	8916.38
886.432	8867.11
886.75	8880.67
887.067	8922.03
887.383	8831.18
887.7	8792.54
888.017	8792.31
888.334	8767.45
888.651	8770.84
888.967	8702.82
889.284	8678.64
889.6	8652.88
889.917	8620.56
890.233	8571.53
890.55	8612.2
890.866	8574.69
891.182	8541.7
891.498	8510.28
891.815	8492.88
892.131	8469.61
892.447	8435.26
892.763	8416.95
893.079	8407.69
893.395	8370.4
893.71	8373.11
894.026	8304.41
894.342	8329.72
894.657	8291.53
894.973	8258.09
895.289	8240.01
895.604	8206.11
895.92	8135.61
896.235	8112.78
896.55	8140.58
896.865	8132.44
897.181	8036.62
897.496	8040.24
897.811	8083.4
898.126	7998.21
898.441	7931.09
898.756	7956.63
899.071	7908.04
899.386	7939.9
899.7	7834.6
900.015	7825.1
900.33	7751.66
900.644	7704.43
900.959	7769.74
901.273	7675.96
901.588	7745.79
901.902	7666.69
902.216	7624.66
902.531	7609.97
902.845	7588.73
903.159	7560.03
903.473	7483.42
903.787	7541.72
904.101	7480.93
904.415	7377.21
904.729	7429.86
905.042	7354.16
905.356	7364.78
905.67	7279.36
905.984	7281.16
906.297	7285.23
906.611	7209.08
906.924	7225.12
907.237	7165.46
907.551	7170.21
907.864	7100.38
908.177	7071
908.491	7071
908.804	7078.91
909.117	7038.01
909.43	6964.34
909.743	6950.33
910.056	6965.92
910.368	6932.93
910.681	6886.82
910.994	6842.08
911.307	6856.54
911.619	6810.22
911.932	6813.38
912.244	6766.83
912.557	6760.73
912.869	6624.01
913.181	6666.72
913.494	6706.26
913.806	6631.92
914.118	6626.94
914.43	6572.26
914.742	6535.2
915.054	6484.58
915.366	6513.73
915.678	6463.11
915.99	6398.25
916.302	6430.34
916.613	6359.15
916.925	6356.44
917.236	6347.86
917.548	6330.23
917.859	6302.43
918.171	6270.34
918.482	6212.72
918.794	6120.97
919.105	6184.7
919.416	6118.26
919.727	6134.3
920.038	6089.78
920.349	6072.16
920.66	6028.77
920.971	6014.98
921.282	6004.36
921.593	5925.49
921.903	5920.07
922.214	5883.24
922.525	5850.69
922.835	5894.76
923.146	5854.76
923.456	5796.68
923.767	5823.58
924.077	5831.26
924.387	5731.15
924.697	5739.06
925.008	5659.51
925.318	5701.32
925.628	5651.38
925.938	5583.58
926.248	5576.12
926.558	5613.86
926.867	5600.98
927.177	5503.81
927.487	5473.3
927.796	5445.28
928.106	5468.56
928.416	5415.9
928.725	5439.18
929.034	5376.81
929.344	5396.47
929.653	5401.67
929.962	5346.98
930.271	5335
930.581	5255.46
930.89	5214.1
931.199	5176.14
931.508	5238.51
931.817	5237.15
932.125	5174.78
932.434	5172.97
932.743	5101.11
933.051	5106.08
933.36	5030.15
933.669	5036.7
933.977	5043.71
934.286	5005.29
934.594	4996.93
934.902	4979.53
935.21	4960.55
935.519	4963.94
935.827	4912.19
936.135	4915.8
936.443	4828.57
936.751	4837.61
937.059	4863.37
937.367	4781.34
937.674	4783.83
937.982	4797.16
938.29	4740.21
938.597	4781.12
938.905	4690.72
939.213	4655.92
939.52	4697.5
939.827	4685.3
940.135	4616.15
940.442	4584.29
940.749	4577.73
941.056	4597.17
941.363	4549.71
941.67	4551.07
941.977	4513.1
942.284	4480.56
942.591	4474.23
942.898	4438.98
943.205	4438.75
943.511	4398.75
943.818	4407.34
944.125	4374.57
944.431	4343.61
944.738	4339.32
945.044	4349.04
945.35	4293.45
945.657	4282.37
945.963	4271.98
946.269	4274.92
946.575	4244.18
946.881	4198.08
947.187	4173.45
947.493	4169.61
947.799	4142.04
948.105	4121.93
948.41	4142.04
948.716	4070.18
949.022	4079.21
949.327	4105.43
949.633	4003.28
949.938	4018.88
950.244	4003.28
950.549	4002.83
950.854	3935.04
951.16	3986.11
951.465	3946.56
951.77	3914.93
952.075	3913.34
952.38	3872.67
952.685	3896.39
952.99	3856.4
953.294	3875.15
953.599	3838.09
953.904	3792.89
954.209	3814.36
954.513	3769.62
954.818	3753.8
955.122	3798.54
955.426	3737.53
955.731	3733.69
956.035	3668.83
956.339	3697.76
956.643	3680.36
956.948	3700.47
957.252	3645.33
957.556	3637.87
957.86	3600.13
958.163	3615.27
958.467	3592.67
958.771	3591.09
959.075	3555.16
959.378	3540.47
959.682	3540.92
959.985	3504.09
960.289	3489.85
960.592	3453.02
960.896	3465.22
961.199	3448.5
961.502	3467.48
961.805	3457.76
962.108	3400.36
962.411	3407.37
962.714	3366.47
963.017	3353.81
963.32	3385
963.623	3308.61
963.926	3299.57
964.228	3324.88
964.531	3311.33
964.833	3280.82
965.136	3267.48
965.438	3263.87
965.741	3230.88
966.043	3222.06
966.345	3235.85
966.648	3185.68
966.95	3188.84
967.252	3136.64
967.554	3147.26
967.856	3176.41
968.158	3116.53
968.46	3101.39
968.761	3091.9
969.063	3104.78
969.365	3083.08
969.666	3073.14
969.968	3032.69
970.269	3015.74
970.571	3043.76
970.872	3040.6
971.174	3008.96
971.475	2953.14
971.776	2941.62
972.077	2947.04
972.378	2945.01
972.679	2945.01
972.98	2936.19
973.281	2900.04
973.582	2894.84
973.883	2887.61
974.183	2852.13
974.484	2821.17
974.785	2846.93
975.085	2833.37
975.386	2818.68
975.686	2799.25
975.986	2818.01
976.287	2785.92
976.587	2780.94
976.887	2730.55
977.187	2753.6
977.487	2695.07
977.787	2731.91
978.087	2758.8
978.387	2688.97
978.687	2692.58
978.987	2662.75
979.286	2669.31
979.586	2642.87
979.885	2613.72
980.185	2639.25
980.484	2636.31
980.784	2622.98
981.083	2566.49
981.382	2571.01
981.682	2592.02
981.981	2534.62
982.28	2537.79
982.579	2546.15
982.878	2513.83
983.177	2491.23
983.475	2501.63
983.774	2521.97
984.073	2500.05
984.372	2479.26
984.67	2444.68
984.969	2470.44
985.267	2427.73
985.566	2410.78
985.864	2392.71
986.162	2413.72
986.461	2417.56
986.759	2401.74
987.057	2350.67
987.355	2372.82
987.653	2330.56
987.951	2333.5
988.249	2327.17
988.547	2325.81
988.844	2300.5
989.142	2284.23
989.44	2270.45
989.737	2286.72
990.035	2251.24
990.332	2264.57
990.63	2264.35
990.927	2247.17
991.224	2223.9
991.521	2231.81
991.819	2205.82
992.116	2196.33
992.413	2181.86
992.71	2190
993.006	2161.53
993.303	2202.2
993.6	2157.23
993.897	2163.33
994.193	2137.8
994.49	2125.37
994.787	2111.36
995.083	2115.2
995.379	2089.66
995.676	2100.06
995.972	2076.33
996.268	2083.11
996.565	2055.31
996.861	2063.9
997.157	2023.9
997.453	1988.42
997.749	2030
998.044	1984.35
998.34	1980.06
998.636	1986.61
998.932	1998.14
999.227	1963.56
999.523	1967.63
999.818	1929.21
1000.114	1900.51
1000.409	1913.4
1000.704	1902.32
1001	1870.69
1001.295	1856
1001.59	1898.93
1001.885	1870.01
1002.18	1884.47
1002.475	1864.13
1002.77	1830.01
1003.065	1811.25
1003.359	1811.48
1003.654	1818.94
1003.949	1823.91
1004.243	1801.31
1004.538	1800.18
1004.832	1794.76
1005.127	1747.07
1005.421	1738.71
1005.715	1759.5
1006.009	1752.5
1006.304	1743.23
1006.598	1690.8
1006.892	1724.02
1007.186	1718.82
1007.48	1700.52
1007.773	1674.31
1008.067	1698.94
1008.361	1651.48
1008.655	1652.16
1008.948	1659.39
1009.242	1635.21
1009.535	1652.16
1009.829	1611.71
1010.122	1613.97
1010.415	1598.83
1010.708	1592.73
1011.001	1569.22
1011.295	1560.64
1011.588	1604.7
1011.881	1569
1012.173	1551.37
1012.466	1550.02
1012.759	1549.56
1013.052	1527.42
1013.344	1536.91
1013.637	1509.79
1013.93	1489.68
1014.222	1478.61
1014.514	1467.31
1014.807	1480.19
1015.099	1474.54
1015.391	1428.21
1015.683	1484.48
1015.976	1444.26
1016.268	1438.15
1016.56	1424.82
1016.851	1424.82
1017.143	1413.52
1017.435	1414.43
1017.727	1371.72
1018.018	1386.63
1018.31	1359.51
1018.602	1368.1
1018.893	1359.74
1019.185	1347.08
1019.476	1365.61
1019.767	1357.93
1020.058	1340.76
1020.35	1309.34
1020.641	1324.94
1020.932	1266.63
1021.223	1296.01
1021.514	1289.68
1021.804	1282.68
1022.095	1270.02
1022.386	1245.84
1022.677	1247.65
1022.967	1263.02
1023.258	1229.57
1023.548	1223.02
1023.839	1212.85
1024.129	1215.79
1024.419	1224.37
1024.709	1191.38
1025	1186.64
1025.29	1182.34
1025.58	1164.26
1025.87	1148.9
1026.16	1159.07
1026.449	1160.87
1026.739	1151.16
1027.029	1156.35
1027.319	1133.76
1027.608	1123.13
1027.898	1140.99
1028.187	1083.81
1028.477	1109.12
1028.766	1110.25
1029.055	1094.66
1029.344	1112.29
1029.634	1088.56
1029.923	1072.51
1030.212	1079.52
1030.501	1056.7
1030.79	1031.61
1031.078	1064.38
1031.367	1045.85
1031.656	1041.55
1031.945	1024.83
1032.233	1025.06
1032.522	1030.03
1032.81	1004.27
1033.099	997.71
1033.387	976.92
1033.675	991.39
1033.963	989.13
1034.251	982.35
1034.54	983.48
1034.828	961.56
1035.116	962.91
1035.403	940.31
1035.691	956.59
1035.979	933.53
1036.267	939.86
1036.554	926.08
1036.842	902.12
1037.129	934.66
1037.417	907.55
1037.704	908.22
1037.992	918.17
1038.279	894.44
1038.566	895.12
1038.853	895.12
1039.14	895.12
