Data from hue_26_FLMS001491_00016.txt Node
Date: Tue Feb 07 17:13:37 GMT 2017
User: dcchb
Spectrometer: FLMS00149
Trigger mode: 0
Integration Time (sec): 2.000000E-2
Scans to average: 10
Electric dark correction enabled: true
Nonlinearity correction enabled: false
Boxcar width: 0
XAxis mode: Wavelengths
Number of Pixels in Spectrum: 2048
>>>>>Begin Spectral Data<<<<<
341.393	-9.05
341.776	-9.05
342.16	-9.05
342.543	-48.6
342.927	-66.45
343.31	-61.26
343.693	-94.47
344.077	-69.16
344.46	-51.99
344.843	-56.06
345.226	-37.3
345.61	-44.31
345.993	-33.01
346.376	-7.02
346.759	-0.92
347.142	18.74
347.525	47.89
347.908	64.84
348.291	86.76
348.674	114.33
349.057	122.92
349.44	147.33
349.823	143.03
350.206	191.39
350.588	197.95
350.971	211.05
351.354	200.21
351.737	244.5
352.119	283.82
352.502	268.68
352.884	290.15
353.267	270.49
353.65	288.34
354.032	311.62
354.414	301.22
354.797	304.84
355.179	356.81
355.562	359.75
355.944	324.95
356.326	321.79
356.709	365.17
357.091	341.9
357.473	339.86
357.855	345.51
358.238	365.17
358.62	365.17
359.002	332.41
359.384	361.56
359.766	351.62
360.148	345.97
360.53	338.28
360.912	332.63
361.294	337.83
361.676	348.45
362.057	355.68
362.439	326.76
362.821	339.64
363.203	342.58
363.584	320.66
363.966	341.22
364.348	334.89
364.729	333.54
365.111	342.35
365.493	328.56
365.874	325.18
366.256	335.8
366.637	362.01
367.019	326.98
367.4	321.56
367.781	330.15
368.163	325.18
368.544	333.76
368.925	321.79
369.306	348.68
369.688	331.95
370.069	318.62
370.45	311.16
370.831	304.61
371.212	299.64
371.593	312.52
371.974	330.82
372.355	319.53
372.736	324.27
373.117	326.3
373.498	331.28
373.879	335.12
374.26	304.61
374.641	309.58
375.021	332.86
375.402	318.4
375.783	345.29
376.163	330.37
376.544	325.63
376.925	345.06
377.305	335.8
377.686	365.85
378.066	329.24
378.447	340.09
378.827	326.53
379.208	335.34
379.588	346.42
379.968	328.79
380.349	342.8
380.729	333.31
381.109	354.55
381.489	340.54
381.87	356.81
382.25	364.04
382.63	353.2
383.01	377.6
383.39	355
383.77	361.56
384.15	373.08
384.53	345.74
384.91	346.87
385.29	347.55
385.67	378.96
386.049	355.91
386.429	372.18
386.809	361.11
387.189	345.06
387.568	356.59
387.948	374.89
388.328	355.91
388.707	346.64
389.087	359.52
389.466	389.81
389.846	373.99
390.225	371.73
390.605	364.95
390.984	376.25
391.363	389.35
391.743	371.28
392.122	405.85
392.501	373.08
392.881	406.3
393.26	365.17
393.639	408.11
394.018	375.57
394.397	392.07
394.776	397.72
395.155	390.94
395.534	380.77
395.913	392.74
396.292	406.3
396.671	395.68
397.05	399.75
397.429	416.92
397.808	396.59
398.186	434.32
398.565	410.6
398.944	403.82
399.323	405.62
399.701	408.34
400.08	410.6
400.458	406.3
400.837	421.44
401.215	416.25
401.594	428.68
401.972	422.57
402.351	414.66
402.729	419.86
403.107	437.71
403.486	422.8
403.864	404.27
404.242	425.51
404.62	416.02
404.999	435
405.377	440.65
405.755	432.06
406.133	439.97
406.511	437.04
406.889	450.37
407.267	463.02
407.645	450.14
408.023	421.44
408.401	453.53
408.779	446.98
409.156	460.76
409.534	447.43
409.912	452.86
410.29	454.66
410.667	471.39
411.045	479.52
411.422	476.81
411.8	473.42
412.178	469.58
412.555	486.98
412.933	486.07
413.31	486.07
413.687	502.57
414.065	508
414.442	492.4
414.819	499.63
415.197	522.91
415.574	494.21
415.951	494.66
416.328	515.45
416.705	507.77
417.082	499.18
417.46	534.44
417.837	522.91
418.214	508.22
418.591	525.17
418.967	537.6
419.344	554.32
419.721	544.83
420.098	560.42
420.475	540.76
420.852	544.6
421.228	548.9
421.605	550.48
421.982	564.49
422.358	564.49
422.735	553.87
423.111	569.91
423.488	570.14
423.864	584.6
424.241	581.89
424.617	582.12
424.994	580.99
425.37	589.57
425.746	594.55
426.123	573.53
426.499	594.55
426.875	595.22
427.251	605.17
427.627	599.07
428.003	619.63
428.379	630.93
428.756	622.57
429.132	648.56
429.507	641.32
429.883	650.82
430.259	645.62
430.635	654.88
431.011	646.75
431.387	665.96
431.763	669.35
432.138	660.08
432.514	693.3
432.89	695.11
433.265	696.24
433.641	707.54
434.016	714.54
434.392	679.29
434.767	707.99
435.143	686.52
435.518	710.7
435.894	736.46
436.269	731.94
436.644	737.37
437.02	759.51
437.395	729.68
437.77	749.57
438.145	751.6
438.52	747.08
438.895	762.23
439.271	767.65
439.646	767.2
440.021	765.39
440.395	787.31
440.77	786.41
441.145	787.99
441.52	797.93
441.895	828.44
442.27	829.12
442.645	805.39
443.019	784.37
443.394	835.44
443.769	834.31
444.143	858.49
444.518	846.07
444.892	837.7
445.267	834.09
445.641	838.16
446.016	853.52
446.39	853.3
446.764	853.75
447.139	867.08
447.513	880.41
447.887	859.17
448.262	900.53
448.636	875.44
449.01	899.4
449.384	886.52
449.758	891.71
450.132	914.54
450.506	905.05
450.88	907.98
451.254	916.12
451.628	939.4
452.002	932.16
452.376	929
452.75	945.95
453.123	971.71
453.497	952.96
453.871	969.9
454.244	994.08
454.618	993.41
454.992	1004.71
455.365	1018.94
455.739	1033.86
456.112	1034.76
456.486	1020.75
456.859	1019.39
457.232	1065.95
457.606	1049.68
457.979	1079.51
458.352	1075.66
458.725	1126.51
459.099	1109.34
459.472	1129.45
459.845	1153.18
460.218	1141.2
460.591	1160.63
460.964	1160.63
461.337	1170.12
461.71	1206.51
462.083	1228.65
462.456	1179.62
462.829	1223.46
463.201	1221.42
463.574	1231.37
463.947	1271.82
464.32	1281.76
464.692	1306.39
465.065	1286.51
465.438	1308.65
465.81	1332.61
466.183	1347.52
466.555	1364.92
466.928	1379.16
467.3	1386.39
467.672	1380.51
468.045	1408.54
468.417	1415.09
468.789	1436.56
469.161	1464.81
469.534	1494.86
469.906	1502.77
470.278	1537.12
470.65	1553.62
471.022	1572.83
471.394	1605.14
471.766	1624.35
472.138	1652.6
472.51	1669.55
472.882	1690.56
473.253	1698.02
473.625	1741.86
473.997	1772.37
474.369	1819.83
474.74	1784.8
475.112	1836.1
475.484	1874.51
475.855	1893.27
476.227	1907.51
476.598	1992.25
476.97	2013.27
477.341	2017.11
477.713	2033.83
478.084	2090.78
478.455	2141.62
478.827	2189.08
479.198	2224.33
479.569	2245.8
479.94	2310.43
480.311	2336.65
480.682	2391.34
481.053	2416.19
481.424	2487.6
481.795	2510.88
482.166	2566.92
482.537	2588.84
482.908	2674.49
483.279	2666.81
483.65	2764.43
484.021	2800.14
484.391	2864.77
484.762	2858.22
485.133	2910.19
485.503	2954.48
485.874	3034.26
486.244	3079.68
486.615	3131.2
486.985	3209.84
487.356	3291.65
487.726	3283.52
488.097	3333.23
488.467	3393.79
488.837	3449.61
489.207	3564.41
489.578	3588.82
489.948	3614.81
490.318	3671.3
490.688	3691.87
491.058	3772.77
491.428	3842.37
491.798	3888.25
492.168	3925.53
492.538	3966.21
492.908	4063.61
493.278	4071.29
493.648	4102.02
494.017	4144.96
494.387	4217.05
494.757	4272.64
495.126	4285.52
495.496	4362.58
495.866	4377.05
496.235	4424.95
496.605	4457.95
496.974	4510.6
497.344	4535.46
497.713	4570.71
498.082	4621.33
498.452	4717.15
498.821	4676.7
499.19	4690.94
499.559	4769.13
499.928	4841.89
500.298	4863.36
500.667	4886.41
501.036	4895.45
501.405	4958.05
501.774	4917.37
502.143	5008.44
502.512	5061.1
502.88	5080.08
503.249	5106.97
503.618	5128.66
503.987	5132.28
504.356	5193.07
504.724	5184.71
505.093	5237.81
505.462	5250.92
505.83	5259.51
506.199	5351.94
506.567	5407.53
506.936	5393.29
507.304	5471.25
507.672	5520.07
508.041	5495.89
508.409	5507.64
508.777	5579.05
509.145	5647.3
509.514	5621.98
509.882	5683.9
510.25	5676.45
510.618	5724.81
510.986	5747.41
511.354	5774.98
511.722	5791.47
512.09	5848.42
512.458	5766.61
512.826	5890.68
513.193	5928.42
513.561	5883.9
513.929	5959.6
514.297	6014.74
514.664	6053.61
515.032	6070.56
515.4	6113.5
515.767	6129.32
516.135	6129.77
516.502	6106.49
516.869	6203.66
517.237	6214.29
517.604	6254.51
517.972	6298.8
518.339	6315.3
518.706	6328.41
519.073	6356.88
519.44	6345.36
519.808	6428.29
520.175	6412.92
520.542	6530.44
520.909	6501.06
521.276	6513.94
521.643	6575.18
522.009	6594.16
522.376	6644.56
522.743	6670.54
523.11	6736.53
523.477	6728.85
523.843	6784.44
524.21	6898.56
524.577	6878
524.943	6895.17
525.31	6957.32
525.676	7008.16
526.043	7083.64
526.409	7085.9
526.776	7088.16
527.142	7202.06
527.508	7163.19
527.874	7249.74
528.241	7228.04
528.607	7285.67
528.973	7326.57
529.339	7346.23
529.705	7415.16
530.071	7483.86
530.437	7501.03
530.803	7587.81
531.169	7578.32
531.535	7589.84
531.901	7614.47
532.267	7701.93
532.632	7677.75
532.998	7770.85
533.364	7818.31
533.73	7764.53
534.095	7858.08
534.461	7909.38
534.826	7869.84
535.192	7967.91
535.557	8040.68
535.923	8033.22
536.288	8106.44
536.653	8055.59
537.019	8089.04
537.384	8187.79
537.749	8152.09
538.114	8184.4
538.479	8237.06
538.845	8302.37
539.21	8223.72
539.575	8266.89
539.94	8291.07
540.305	8401.57
540.67	8380.78
541.034	8423.49
541.399	8506.88
541.764	8490.38
542.129	8497.62
542.494	8581.91
542.858	8631.85
543.223	8625.52
543.587	8696.71
543.952	8670.49
544.316	8684.5
544.681	8742.13
545.045	8793.88
545.41	8809.47
545.774	8878.4
546.138	8889.02
546.503	8933.76
546.867	8902.8
547.231	9007.43
547.595	9032.74
547.959	9019.18
548.324	9098.05
548.688	9138.5
549.052	9132.63
549.416	9122.68
549.779	9110.25
550.143	9215.79
550.507	9246.07
550.871	9267.76
551.235	9275.9
551.599	9363.13
551.962	9472.28
552.326	9416.69
552.689	9403.58
553.053	9430.92
553.417	9473.64
553.78	9613.74
554.143	9540.07
554.507	9613.52
554.87	9655.55
555.234	9745.49
555.597	9625.27
555.96	9740.75
556.323	9669.79
556.686	9812.38
557.05	9784.36
557.413	9892.61
557.776	9907.97
558.139	9898.71
558.502	9944.36
558.865	9963.57
559.228	10059.61
559.59	10061.87
559.953	10056.22
560.316	10228.87
560.679	10151.58
561.041	10222.54
561.404	10204.24
561.767	10341.63
562.129	10290.79
562.492	10349.54
562.854	10412.37
563.217	10429.54
563.579	10377.79
563.941	10457.11
564.304	10604
564.666	10570.78
565.028	10600.39
565.39	10653.04
565.753	10661.4
566.115	10741.62
566.477	10771.23
566.839	10794.5
567.201	10900.26
567.563	10852.36
567.925	10986.59
568.287	11026.14
568.648	11010.32
569.01	11061.16
569.372	11116.53
569.734	11043.31
570.095	11110.88
570.457	11249.41
570.819	11256.19
571.18	11290.31
571.542	11361.95
571.903	11348.16
572.265	11503.19
572.626	11487.37
572.987	11532.56
573.349	11641.71
573.71	11596.97
574.071	11699.57
574.432	11736.63
574.794	11923.29
575.155	11918.99
575.516	11969.84
575.877	12000.35
576.238	12186.33
576.599	12238.76
576.96	12268.36
577.32	12376.38
577.681	12402.15
578.042	12540
578.403	12530.5
578.763	12718.52
579.124	12783.6
579.485	12926.88
579.845	12994.9
580.206	13132.97
580.566	13257.49
580.927	13302.46
581.287	13562.57
581.648	13580.19
582.008	13813.41
582.368	13882.33
582.728	14046.85
583.089	14137.02
583.449	14323.45
583.809	14525.71
584.169	14687.96
584.529	14866.26
584.889	15137.89
585.249	15334.27
585.609	15282.3
585.969	15666.69
586.329	15744.43
586.688	16020.13
587.048	16269.61
587.408	16477.52
587.768	16598.42
588.127	16856.27
588.487	17124.51
588.846	17450.83
589.206	17494.67
589.565	17860.08
589.925	18207.42
590.284	18364.7
590.643	18619.16
591.003	18872.48
591.362	19234.51
591.721	19498.23
592.08	19735.29
592.44	20123.07
592.799	20330.3
593.158	20624.3
593.517	20837.86
593.876	21160.79
594.235	21431.29
594.593	21810.03
594.952	22088.67
595.311	22337.7
595.67	22672.84
596.029	23116.44
596.387	23360.73
596.746	23659.7
597.104	23973.14
597.463	24211.78
597.822	24650.86
598.18	24790.52
598.538	25140.12
598.897	25474.12
599.255	25658.97
599.613	26187.09
599.972	26289.69
600.33	26731.71
600.688	26892.61
601.046	27291.7
601.404	27599.26
601.762	27842.42
602.12	28147.49
602.478	28539.12
602.836	28733.47
603.194	29020.69
603.552	29312.89
603.91	29361.25
604.268	29793.1
604.625	30030.38
604.983	30397.38
605.341	30418.4
605.698	30944.93
606.056	31230.35
606.413	31366.17
606.771	31749.66
607.128	32002.31
607.485	32081.4
607.843	32320.04
608.2	32614.27
608.557	33012.68
608.914	33117.08
609.272	33561.14
609.629	33709.83
609.986	33992.31
610.343	34069.6
610.7	34633.2
611.057	34603.14
611.414	34803.82
611.771	35037.03
612.127	35335.33
612.484	35538.94
612.841	35823.68
613.198	35749.55
613.554	36113.39
613.911	36432.25
614.267	36542.53
614.624	36833.82
614.98	36995.4
615.337	37136.18
615.693	37229.06
616.05	37422.96
616.406	37763.51
616.762	37674.48
617.118	37910.63
617.475	37964.19
617.831	38232.2
618.187	38387.45
618.543	38456.6
618.899	38809.81
619.255	38892.97
619.611	38912.86
619.967	39226.75
620.323	39433.07
620.678	39317.37
621.034	39402.34
621.39	39574.31
621.746	39630.58
622.101	40125.94
622.457	39896.56
622.812	40085.94
623.168	40267.4
623.523	40298.59
623.879	40600.27
624.234	40395.53
624.589	40813.83
624.945	40680.27
625.3	40816.31
625.655	40661.74
626.01	40922.98
626.365	40977.89
626.72	40896.31
627.075	40971.11
627.43	40995.97
627.785	41176.3
628.14	41398.45
628.495	41335.62
628.85	41454.26
629.205	41270.77
629.559	41525
629.914	41378.11
630.269	41513.7
630.623	41541.49
630.978	41492.45
631.332	41630.53
631.687	41773.12
632.041	41662.62
632.396	41807.93
632.75	41610.87
633.104	41802.05
633.459	41701.49
633.813	41749.62
634.167	41774.25
634.521	41733.8
634.875	41729.51
635.229	41714.37
635.583	41600.25
635.937	41680.25
636.291	41604.32
636.645	41774.48
636.999	41508.05
637.352	41870.3
637.706	41580.81
638.06	41786.46
638.413	41745.78
638.767	41690.87
639.121	41724.54
639.474	41428.95
639.828	41658.1
640.181	41722.73
640.534	41714.82
640.888	41566.8
641.241	41559.12
641.594	41599.12
641.947	41815.38
642.301	41543.3
642.654	41662.62
643.007	41576.75
643.36	41516.63
643.713	41513.7
644.066	41569.06
644.419	41394.15
644.771	41157.1
645.124	40831.45
645.477	40836.43
645.83	40567.28
646.182	40512.37
646.535	40257.46
646.888	40480.05
647.24	40345.82
647.593	40465.36
647.945	40362.99
648.298	40321.64
648.65	40137.91
649.002	39988.31
649.355	40365.7
649.707	40195.31
650.059	40454.74
650.411	40961.17
650.763	40986.25
651.115	41313.02
651.467	41231.44
651.819	41149.86
652.171	41105.12
652.523	41143.99
652.875	41047.27
653.227	40950.55
653.578	41237.09
653.93	41035.97
654.282	41091.56
654.633	40953.26
654.985	40974.73
655.337	41025.57
655.688	40975.86
656.039	41098.57
656.391	40891.11
656.742	40843.88
657.094	40979.25
657.445	41051.34
657.796	40893.15
658.147	40824.22
658.498	40892.7
658.849	40990.32
659.2	40820.38
659.551	40640.5
659.902	40735.41
660.253	40676.88
660.604	40844.34
660.955	40606.15
661.306	40762.08
661.656	40715.98
662.007	40768.86
662.358	40758.01
662.708	40803.43
663.059	40663.55
663.409	40565.92
663.76	40751.23
664.11	40774.96
664.461	40711.01
664.811	40696.54
665.161	40822.87
665.511	40687.96
665.862	40519.37
666.212	40720.95
666.562	40716.88
666.912	40655.64
667.262	40666.71
667.612	40628.75
667.962	40692.25
668.312	40725.02
668.662	40766.6
669.011	40657
669.361	40475.98
669.711	40575.87
670.06	40498.13
670.41	40492.03
670.76	40374.29
671.109	40501.29
671.459	40493.84
671.808	40478.47
672.157	40455.19
672.507	40207.97
672.856	40273.05
673.205	40346.27
673.554	40501.75
673.904	40477.11
674.253	40678.46
674.602	40318.02
674.951	39829.22
675.3	39709
675.649	40222.88
675.998	40389.21
676.346	40233.73
676.695	40351.69
677.044	40115.77
677.393	40301.53
677.741	40256.1
678.09	40034.19
678.438	39996
678.787	40199.38
679.135	40112.15
679.484	39787.87
679.832	40048.88
680.181	39649.11
680.529	39967.3
680.877	39646.63
681.225	39765.49
681.573	39871.48
681.922	39685.5
682.27	39480.08
682.618	39619.74
682.966	39507.42
683.314	39577.25
683.661	39449.57
684.009	39243.47
684.357	39223.59
684.705	39152.18
685.053	39156.24
685.4	39114.89
685.748	38967.55
686.095	38900.43
686.443	38855.46
686.79	38738.4
687.138	38968.45
687.485	38740.44
687.832	38812.98
688.18	38642.36
688.527	38567.79
688.874	38486.21
689.221	38424.96
689.568	38222.48
689.915	38375.93
690.262	38278.08
690.609	38187.23
690.956	38118.98
691.303	38054.13
691.65	37918.76
691.997	37773.46
692.344	37517.42
692.69	37606.45
693.037	37557.87
693.383	37227.48
693.73	37416.63
694.077	37183.87
694.423	37217.31
694.769	37001.95
695.116	37044.44
695.462	36994.95
695.808	36834.72
696.155	36945.23
696.501	36629.76
696.847	36627.05
697.193	36254.17
697.539	36575.97
697.885	36296.21
698.231	36254.63
698.577	36297.79
698.923	36190.22
699.269	35989.77
699.614	35863.9
699.96	35663.68
700.306	35717.24
700.651	35596.11
700.997	35464.82
701.342	35568.54
701.688	35416.46
702.033	35243.8
702.379	35216.69
702.724	35061.66
703.069	35189.34
703.415	34852.63
703.76	34997.48
704.105	34732.86
704.45	34779.64
704.795	34504.16
705.14	34398.4
705.485	34318.41
705.83	34367.67
706.175	34321.8
706.52	34280.21
706.865	34174.68
707.209	34102.82
707.554	33940.56
707.899	34110.05
708.243	33790.74
708.588	33845.2
708.932	33589.84
709.277	33627.58
709.621	33618.31
709.966	33472.1
710.31	33466.45
710.654	33296.29
710.998	33210.41
711.342	33387.36
711.687	33146.01
712.031	33111.43
712.375	32894.04
712.719	32976.07
713.063	32979.91
713.407	32963.86
713.75	32837.54
714.094	32763.87
714.438	32743.31
714.782	32621.95
715.125	32398.23
715.469	32554.38
715.812	32299.25
716.156	32196.43
716.499	32268.74
716.843	32353.71
717.186	31941.52
717.53	32197.56
717.873	32143.32
718.216	32156.43
718.559	31907.17
718.902	31895.42
719.246	31767.74
719.589	31739.94
719.932	31538.14
720.275	31410.46
720.617	31545.6
720.96	31421.08
721.303	31506.95
721.646	31406.39
721.989	31262.67
722.331	31392.83
722.674	31238.26
723.016	31338.6
723.359	31212.95
723.701	31227.64
724.044	31186.28
724.386	31033.29
724.729	31069.23
725.071	30918.95
725.413	30916.24
725.755	30883.69
726.097	30832.62
726.439	30612.51
726.782	30658.39
727.124	30767.31
727.465	30674.43
727.807	30669.91
728.149	30432.86
728.491	30398.06
728.833	30448.9
729.175	30313.99
729.516	30276.7
729.858	30204.39
730.199	30245.74
730.541	30228.57
730.882	30158.06
731.224	30283.94
731.565	29930.27
731.906	30081.91
732.248	30062.92
732.589	29947.67
732.93	29647.34
733.271	29800.33
733.612	29839.43
733.953	29781.12
734.294	29596.04
734.635	29572.99
734.976	29703.84
735.317	29584.29
735.658	29523.96
735.999	29592.43
736.339	29465.65
736.68	29693.89
737.021	29431.53
737.361	29420.46
737.702	29521.24
738.042	29376.84
738.383	29329.38
738.723	29387.69
739.063	29183.17
739.404	29203.74
739.744	29159.67
740.084	29004.42
740.424	29015.72
740.764	28973.46
741.104	29159.45
741.444	28929.17
741.784	28805.33
742.124	28851.2
742.464	28716.29
742.804	28772.79
743.143	28648.72
743.483	28820.47
743.823	28611.21
744.162	28629.97
744.502	28612.34
744.841	28577.54
745.181	28631.32
745.52	28489.41
745.86	28429.07
746.199	28513.59
746.538	28340.94
746.877	28416.64
747.216	28366.25
747.556	28323.31
747.895	28248.96
748.234	28111.56
748.573	28108.4
748.911	28023.66
749.25	28062.3
749.589	27984.11
749.928	28003.09
750.267	27971
750.605	27900.95
750.944	27946.37
751.283	27785.02
751.621	27814.4
751.96	27673.83
752.298	27701.86
752.636	27633.38
752.975	27595.87
753.313	27527.85
753.651	27576.66
753.989	27361.53
754.327	27337.57
754.666	27232.04
755.004	27138.93
755.342	27303.9
755.679	27188.42
756.017	27023
756.355	27039.73
756.693	27048.54
757.031	27055.77
757.368	26913.63
757.706	26853.74
758.044	26719.06
758.381	26902.78
758.719	26611.26
759.056	26562
759.394	26632.28
759.731	26482.23
760.068	26389.35
760.405	26444.49
760.743	26269.8
761.08	26297.15
761.417	26188.22
761.754	26207.43
762.091	26038.17
762.428	25977.61
762.765	25779.2
763.102	25987.55
763.438	25773.32
763.775	25658.52
764.112	25716.37
764.449	25599.76
764.785	25458.07
765.122	25283.61
765.458	25217.63
765.795	25208.59
766.131	25280.23
766.467	25182.6
766.804	24969.27
767.14	24908.26
767.476	24905.77
767.812	24705.32
768.148	24812.21
768.485	24586.68
768.821	24433.02
769.157	24431.21
769.492	24423.52
769.828	24388.27
770.164	24072.12
770.5	24070.54
770.836	24122.06
771.171	23910.54
771.507	23930.88
771.842	23680.95
772.178	23751.68
772.513	23668.52
772.849	23591.68
773.184	23394.85
773.519	23511.68
773.855	23283.44
774.19	23192.14
774.525	23199.6
774.86	23124.35
775.195	23175.2
775.53	22981.53
775.865	22915.77
776.2	22718.48
776.535	22508.09
776.87	22547.42
777.205	22509
777.539	22443.69
777.874	22444.82
778.209	22245.95
778.543	22206.41
778.878	22145.17
779.212	22043.02
779.547	21990.37
779.881	22006.19
780.215	21717.38
780.55	22019.29
780.884	21747.44
781.218	21623.6
781.552	21610.72
781.886	21470.16
782.22	21357.84
782.554	21318.3
782.888	21094.12
783.222	20963.5
783.556	21015.48
783.889	20888.93
784.223	20807.8
784.557	20733.45
784.89	20693.23
785.224	20685.32
785.557	20501.82
785.891	20420.47
786.224	20453.01
786.558	20368.04
786.891	20268.61
787.224	20229.96
787.557	20118.78
787.891	20046.24
788.224	20080.81
788.557	19969.63
788.89	19995.17
789.223	19806.02
789.556	19762.4
789.888	19727.15
790.221	19700.03
790.554	19535.74
790.887	19538.23
791.219	19479.47
791.552	19409.65
791.884	19170.33
792.217	19224.11
792.549	19188.86
792.882	19039.49
793.214	18968.53
793.546	18935.31
793.879	18840.85
794.211	18709.78
794.543	18820.28
794.875	18754.3
795.207	18733.73
795.539	18599.5
795.871	18536.67
796.203	18439.95
796.535	18313.4
796.867	18298.71
797.198	18227.53
797.53	18310.92
797.862	18184.37
798.193	18174.65
798.525	18070.7
798.856	18077.02
799.188	17850.14
799.519	17805.39
799.85	17683.14
800.182	17765.85
800.513	17763.13
800.844	17637.71
801.175	17664.61
801.506	17601.78
801.837	17549.81
802.168	17389.81
802.499	17432.52
802.83	17325.18
803.161	17345.52
803.491	17258.97
803.822	17263.03
804.153	17247.89
804.483	17121.57
804.814	17033.66
805.145	16965.64
805.475	16946.21
805.805	16833.89
806.136	16898.98
806.466	16835.48
806.796	16756.38
807.126	16607.46
807.457	16595.71
807.787	16545.54
808.117	16526.11
808.447	16468.48
808.777	16492.43
809.107	16405.88
809.436	16296.73
809.766	16435.71
810.096	16261.93
810.426	16215.38
810.755	16238.88
811.085	16091.77
811.414	16143.06
811.744	16048.6
812.073	15944.88
812.403	15948.04
812.732	15883.64
813.061	15847.93
813.39	15843.64
813.719	15808.16
814.049	15878.89
814.378	15734.04
814.707	15666.01
815.036	15675.96
815.365	15553.7
815.693	15409.3
816.022	15412.01
816.351	15368.4
816.68	15347.15
817.008	15360.03
817.337	15314.84
817.665	15268.06
817.994	15262.41
818.322	15242.07
818.651	15139.7
818.979	15130.21
819.307	15190.77
819.636	15165.24
819.964	15015.41
820.292	14942.87
820.62	15111.68
820.948	14990.55
821.276	14953.27
821.604	14951.01
821.932	15014.73
822.259	15022.64
822.587	14963.89
822.915	14877.11
823.243	14997.33
823.57	14916.88
823.898	14857.45
824.225	14892.93
824.553	14880.95
824.88	14893.83
825.207	14907.84
825.535	14937.67
825.862	14924.57
826.189	14857
826.516	14896.32
826.843	14918.46
827.17	14964.79
827.497	15000.27
827.824	14931.12
828.151	14968.86
828.478	14947.62
828.805	14890.44
829.131	14892.25
829.458	14835.75
829.785	14807.73
830.111	14829.88
830.438	14839.14
830.764	14846.38
831.09	14869.2
831.417	14854.96
831.743	14927.95
832.069	14822.2
832.395	14782.2
832.722	14828.97
833.048	14754.63
833.374	14803.66
833.7	14703.33
834.026	14703.33
834.351	14706.04
834.677	14673.27
835.003	14685.93
835.329	14722.54
835.654	14631.92
835.98	14597.34
836.306	14628.3
836.631	14580.85
836.956	14722.08
837.282	14588.3
837.607	14447.52
837.932	14505.37
838.258	14472.6
838.583	14453.62
838.908	14304.69
839.233	14390.79
839.558	14345.6
839.883	14326.61
840.208	14243.68
840.533	14215.21
840.858	14279.16
841.182	14265.37
841.507	14289.1
841.832	14140.63
842.156	14145.15
842.481	14170.01
842.805	14117.58
843.13	14137.69
843.454	13985.15
843.778	13980.86
844.103	13918.94
844.427	13898.38
844.751	13939.73
845.075	13850.02
845.399	13835.33
845.723	13781.77
846.047	13763.01
846.371	13688.44
846.695	13678.5
847.019	13542.23
847.343	13488.9
847.666	13377.26
847.99	13312.4
848.313	13339.07
848.637	13282.35
848.96	13158.51
849.284	13175.91
849.607	13178.4
849.931	13108.57
850.254	13064.5
850.577	12925.52
850.9	12875.58
851.223	12835.13
851.546	12769.59
851.869	12609.15
852.192	12816.82
852.515	12674
852.838	12638.75
853.161	12583.61
853.483	12563.95
853.806	12456.16
854.129	12476.95
854.451	12429.04
854.774	12356.27
855.096	12325.54
855.419	12228.36
855.741	12217.29
856.063	12141.14
856.385	12165.77
856.708	12114.7
857.03	12075.6
857.352	12022.27
857.674	12075.6
857.996	11987.92
858.318	11909.73
858.64	11898.2
858.961	11889.84
859.283	11870.41
859.605	11831.09
859.926	11804.87
860.248	11733.69
860.57	11732.56
860.891	11772.56
861.212	11605.33
861.534	11607.82
861.855	11617.08
862.176	11591.32
862.498	11568.72
862.819	11574.82
863.14	11467.48
863.461	11484.88
863.782	11465.67
864.103	11478.78
864.424	11483.98
864.745	11428.84
865.065	11392.91
865.386	11290.76
865.707	11287.37
866.027	11355.85
866.348	11317.88
866.668	11361.5
866.989	11310.2
867.309	11247.6
867.63	11227.04
867.95	11185.68
868.27	11141.61
868.59	11086.02
868.91	11147.04
869.23	11081.05
869.55	11019.81
869.87	11131.44
870.19	11066.59
870.51	11075.4
870.83	11096.64
871.15	10956.76
871.469	11006.02
871.789	10999.92
872.109	10913.82
872.428	10894.16
872.748	10927.38
873.067	10855.07
873.386	10891.68
873.706	10856.88
874.025	10771.91
874.344	10773.49
874.663	10806.93
874.982	10788.85
875.301	10778.46
875.62	10758.8
875.939	10718.35
876.258	10667.5
876.577	10668.63
876.896	10742.3
877.214	10649.42
877.533	10617.33
877.852	10654.85
878.17	10629.08
878.489	10604.45
878.807	10568.07
879.125	10597
879.444	10543.89
879.762	10530.33
880.08	10526.94
880.398	10462.08
880.716	10453.72
881.034	10371.92
881.352	10472.93
881.67	10370.79
881.988	10395.64
882.306	10313.16
882.624	10346.83
882.941	10194.75
883.259	10237.46
883.577	10227.51
883.894	10173.96
884.212	10200.17
884.529	10235.2
884.846	10225.71
885.164	10165.82
885.481	10128.53
885.798	10112.49
886.115	9997.24
886.432	10009.89
886.75	9990.23
887.067	10016.67
887.383	9956.56
887.7	9945.49
888.017	9926.73
888.334	9912.27
888.651	9867.75
888.967	9894.41
889.284	9835.66
889.6	9753.63
889.917	9725.38
890.233	9740.75
890.55	9692.16
890.866	9700.75
891.182	9607.42
891.498	9673.63
891.815	9557.25
892.131	9580.07
892.447	9546.63
892.763	9488.1
893.079	9523.13
893.395	9474.09
893.71	9442.9
894.026	9448.1
894.342	9367.2
894.657	9345.05
894.973	9306.63
895.289	9292.62
895.604	9299.85
895.92	9146.86
896.235	9193.42
896.55	9141.44
896.865	9189.12
897.181	9065.28
897.496	9091.95
897.811	9018.96
898.126	8986.64
898.441	8991.16
898.756	9013.08
899.071	8920.43
899.386	8907.55
899.7	8868.68
900.015	8856.48
900.33	8718.4
900.644	8729.93
900.959	8751.17
901.273	8699.42
901.588	8656.03
901.902	8626.88
902.216	8542.36
902.531	8548.69
902.845	8559.31
903.159	8503.72
903.473	8455.81
903.787	8391.63
904.101	8426.88
904.415	8455.81
904.729	8369.94
905.042	8326.77
905.356	8327.68
905.67	8275.25
905.984	8194.12
906.297	8212.88
906.611	8215.36
906.924	8176.49
907.237	8087.91
907.551	8128.81
907.864	8112.54
908.177	8042.03
908.491	8040.9
908.804	7967.01
909.117	7928.36
909.43	7863.28
909.743	7843.4
910.056	7872.32
910.368	7798.2
910.681	7822.83
910.994	7746
911.307	7732.44
911.619	7623.51
911.932	7731.76
912.244	7577.19
912.557	7595.72
912.869	7516.17
913.181	7508.71
913.494	7507.13
913.806	7487.47
914.118	7419
914.43	7429.4
914.742	7376.06
915.054	7327.7
915.366	7294.26
915.678	7246.57
915.99	7265.33
916.302	7202.28
916.613	7138.33
916.925	7175.62
917.236	7132.68
917.548	7068.27
917.859	7110.31
918.171	7009.97
918.482	7017.88
918.794	6928.17
919.105	6947.15
919.416	6912.8
919.727	6880.03
920.038	6877.09
920.349	6813.59
920.66	6747.38
920.971	6769.53
921.282	6799.13
921.593	6761.84
921.903	6642.75
922.214	6591.22
922.525	6647.95
922.835	6587.61
923.146	6547.61
923.456	6532.7
923.767	6495.63
924.077	6546.48
924.387	6488.63
924.697	6443.66
925.008	6429.2
925.318	6412.02
925.628	6334.96
925.938	6318.69
926.248	6292.7
926.558	6262.87
926.867	6231.46
927.177	6238.01
927.487	6232.14
927.796	6135.64
928.106	6117.11
928.416	6084.12
928.725	6116.44
929.034	6061.97
929.344	6066.04
929.653	6046.61
929.962	6037.34
930.271	5998.25
930.581	5938.36
930.89	5912.15
931.199	5848.87
931.508	5843.67
931.817	5879.15
932.125	5853.39
932.434	5790.57
932.743	5731.81
933.051	5712.6
933.36	5654.98
933.669	5704.02
933.977	5681.42
934.286	5673.73
934.594	5644.81
934.902	5588.99
935.21	5469.22
935.519	5569.1
935.827	5549.44
936.135	5473.06
936.443	5482.33
936.751	5419.96
937.059	5454.98
937.367	5400.52
937.674	5389
937.982	5343.57
938.29	5347.19
938.597	5352.39
938.905	5275.55
939.213	5291.6
939.52	5246.18
939.827	5234.2
940.135	5171.6
940.442	5235.1
940.749	5147.65
941.056	5160.53
941.363	5117.82
941.67	5072.85
941.977	5081.89
942.284	5035.79
942.591	5003.7
942.898	5015.9
943.205	4999.85
943.511	4920.99
943.818	4910.82
944.125	4921.66
944.431	4872.63
944.738	4871.27
945.044	4833.53
945.35	4832.18
945.657	4792.63
945.963	4789.24
946.269	4798.28
946.575	4780.88
946.881	4723.48
947.187	4738.39
947.493	4721.67
947.799	4700.88
948.105	4656.59
948.41	4629.92
948.716	4625.17
949.022	4596.93
949.327	4612.07
949.633	4524.39
949.938	4548.11
950.244	4545.63
950.549	4458.63
950.854	4418.63
951.16	4471.51
951.465	4444.16
951.77	4376.14
952.075	4398.06
952.38	4366.65
952.685	4356.71
952.99	4301.57
953.294	4331.4
953.599	4287.33
953.904	4274.68
954.209	4208.91
954.513	4241
954.818	4184.96
955.122	4216.15
955.426	4165.75
955.731	4136.6
956.035	4178.41
956.339	4089.14
956.643	4107.67
956.948	4120.78
957.252	4078.07
957.556	4066.32
957.86	4032.65
958.163	4036.26
958.467	4027.68
958.771	4001.69
959.075	3950.16
959.378	3940
959.682	3916.72
959.985	3933.22
960.289	3896.83
960.592	3886.44
960.896	3869.94
961.199	3876.04
961.502	3852.54
961.805	3820.22
962.108	3783.84
962.411	3780
962.714	3766.67
963.017	3763.05
963.32	3769.15
963.623	3707.46
963.926	3702.04
964.228	3702.04
964.531	3682.83
964.833	3655.48
965.136	3644.64
965.438	3663.62
965.741	3606.22
966.043	3588.37
966.345	3563.96
966.648	3575.03
966.95	3546.11
967.252	3519.67
967.554	3523.28
967.856	3537.75
968.158	3471.76
968.46	3441.93
968.761	3478.99
969.063	3476.5
969.365	3416.39
969.666	3420.69
969.968	3403.06
970.269	3353.8
970.571	3384.98
970.872	3355.83
971.174	3359.9
971.475	3332.55
971.776	3321.71
972.077	3301.14
972.378	3294.14
972.679	3290.29
972.98	3207.13
973.281	3266.57
973.582	3208.04
973.883	3235.83
974.183	3190.41
974.484	3176.85
974.785	3200.13
975.085	3138.66
975.386	3142.73
975.686	3122.62
975.986	3121.71
976.287	3089.4
976.587	3126.68
976.887	3080.13
977.187	3077.19
977.487	3032.22
977.787	3023.18
978.087	3004.43
978.387	3007.36
978.687	2991.32
978.987	2981.83
979.286	2927.82
979.586	2975.5
979.885	2985.44
980.185	2941.15
980.484	2928.72
980.784	2897.99
981.083	2882.4
981.382	2895.5
981.682	2876.29
981.981	2842.4
982.28	2870.42
982.579	2827.48
982.878	2834.94
983.177	2840.36
983.475	2803.75
983.774	2770.31
984.073	2770.31
984.372	2710.2
984.67	2734.15
984.969	2720.14
985.267	2738.9
985.566	2708.39
985.864	2655.06
986.162	2666.81
986.461	2703.42
986.759	2639.01
987.057	2672.91
987.355	2626.81
987.653	2615.74
987.951	2612.8
988.249	2617.54
988.547	2599.69
988.844	2598.79
989.142	2585.45
989.44	2563.08
989.737	2535.96
990.035	2503.87
990.332	2505.91
990.63	2489.64
990.927	2489.19
991.224	2482.41
991.521	2490.09
991.819	2486.7
992.116	2447.61
992.413	2421.84
992.71	2398.57
993.006	2431.33
993.303	2431.56
993.6	2412.58
993.897	2361.96
994.193	2399.47
994.49	2374.84
994.787	2335.29
995.083	2312.24
995.379	2347.27
995.676	2278.12
995.972	2307.95
996.268	2297.1
996.565	2328.51
996.861	2294.16
997.157	2279.7
997.453	2281.96
997.749	2227.5
998.044	2234.73
998.34	2196.99
998.636	2193.6
998.932	2194.5
999.227	2199.48
999.523	2172.81
999.818	2150.44
1000.114	2132.13
1000.409	2119.25
1000.704	2118.12
1001	2106.15
1001.295	2096.43
1001.59	2076.09
1001.885	2075.64
1002.18	2050.55
1002.475	2021.18
1002.77	2050.33
1003.065	2049.2
1003.359	2015.3
1003.654	2013.94
1003.949	1992.93
1004.243	2020.27
1004.538	1966.49
1004.832	1951.8
1005.127	1983.44
1005.421	1948.18
1005.715	1939.82
1006.009	1909.31
1006.304	1909.99
1006.598	1935.53
1006.892	1883.78
1007.186	1890.11
1007.48	1864.34
1007.773	1899.6
1008.067	1856.89
1008.361	1845.36
1008.655	1829.54
1008.948	1813.27
1009.242	1804.46
1009.535	1810.79
1009.829	1783.67
1010.122	1814.18
1010.415	1745.48
1010.708	1780.5
1011.001	1766.95
1011.295	1716.78
1011.588	1698.02
1011.881	1679.49
1012.173	1755.87
1012.466	1721.75
1012.759	1679.94
1013.052	1720.62
1013.344	1675.87
1013.637	1654.41
1013.93	1666.38
1014.222	1661.64
1014.514	1639.26
1014.807	1643.11
1015.099	1586.16
1015.391	1616.21
1015.683	1590.9
1015.976	1602.2
1016.268	1567.85
1016.56	1587.74
1016.851	1580.06
1017.143	1559.04
1017.435	1545.26
1017.727	1515.43
1018.018	1542.54
1018.31	1507.29
1018.602	1482.43
1018.893	1495.99
1019.185	1473.17
1019.476	1503.45
1019.767	1480.62
1020.058	1451.7
1020.35	1478.59
1020.641	1449.44
1020.932	1425.94
1021.223	1446.28
1021.514	1429.78
1021.804	1407.63
1022.095	1402.89
1022.386	1394.3
1022.677	1388.2
1022.967	1376.45
1023.258	1380.97
1023.548	1350.01
1023.839	1367.86
1024.129	1321.76
1024.419	1315.21
1024.709	1311.36
1025	1276.11
1025.29	1311.36
1025.58	1286.28
1025.87	1297.58
1026.16	1281.08
1026.449	1272.72
1026.739	1254.42
1027.029	1238.6
1027.319	1240.86
1027.608	1225.26
1027.898	1221.65
1028.187	1216.23
1028.477	1203.8
1028.766	1200.86
1029.055	1194.3
1029.344	1170.58
1029.634	1162.44
1029.923	1176.45
1030.212	1161.31
1030.501	1143.23
1030.79	1141.42
1031.078	1123.8
1031.367	1132.84
1031.656	1124.48
1031.945	1131.71
1032.233	1114.08
1032.522	1094.87
1032.81	1107.53
1033.099	1079.73
1033.387	1086.74
1033.675	1074.31
1033.963	1061.2
1034.251	1075.21
1034.54	1063.46
1034.828	1050.81
1035.116	1054.2
1035.403	1023.69
1035.691	1053.07
1035.979	1024.37
1036.267	978.94
1036.554	1011.94
1036.842	996.57
1037.129	1001.09
1037.417	994.08
1037.704	985.04
1037.992	984.82
1038.279	974.42
1038.566	961.77
1038.853	961.77
1039.14	961.77
