Data from hue_90_FLMS001491_82.txt Node
Date: Mon Feb 06 15:25:47 GMT 2017
User: dcchb
Spectrometer: FLMS00149
Trigger mode: 0
Integration Time (sec): 2.000000E-2
Scans to average: 10
Electric dark correction enabled: true
Nonlinearity correction enabled: false
Boxcar width: 0
XAxis mode: Wavelengths
Number of Pixels in Spectrum: 2048
>>>>>Begin Spectral Data<<<<<
341.393	-0.42
341.776	-0.42
342.16	-0.42
342.543	-62.79
342.927	-65.96
343.31	-88.11
343.693	-67.54
344.077	-59.63
344.46	-59.86
344.843	-31.61
345.226	-35.45
345.61	-31.16
345.993	-21.89
346.376	20.37
346.759	1.84
347.142	15.4
347.525	30.54
347.908	56.52
348.291	67.82
348.674	106.47
349.057	96.3
349.44	123.64
349.823	167.26
350.206	173.13
350.588	165
350.971	223.75
351.354	233.92
351.737	221.94
352.119	265.11
352.502	276.63
352.884	287.25
353.267	273.24
353.65	292.68
354.032	305.33
354.414	318.44
354.797	316.18
355.179	323.18
355.562	308.04
355.944	327.03
356.326	325.44
356.709	343.07
357.091	346.23
357.473	348.04
357.855	339.23
358.238	347.82
358.62	342.17
359.002	329.74
359.384	361.15
359.766	357.76
360.148	318.66
360.53	345.1
360.912	330.19
361.294	335.16
361.676	348.04
362.057	341.94
362.439	339
362.821	346.23
363.203	328.61
363.584	335.16
363.966	320.02
364.348	322.73
364.729	315.5
365.111	291.77
365.493	339.23
365.874	329.06
366.256	330.19
366.637	295.39
367.019	313.69
367.4	308.27
367.781	331.09
368.163	317.53
368.544	331.54
368.925	306.23
369.306	313.24
369.688	315.27
370.069	323.41
370.45	311.88
370.831	316.63
371.212	307.36
371.593	306.23
371.974	316.18
372.355	320.47
372.736	319.12
373.117	326.57
373.498	295.39
373.879	324.77
374.26	320.92
374.641	319.12
375.021	316.86
375.402	326.8
375.783	331.54
376.163	326.8
376.544	330.19
376.925	333.35
377.305	342.62
377.686	341.49
378.066	334.48
378.447	340.36
378.827	347.14
379.208	344.88
379.588	341.04
379.968	346.91
380.349	319.12
380.729	342.17
381.109	345.56
381.489	367.48
381.87	331.09
382.25	356.86
382.63	358.21
383.01	350.53
383.39	336.52
383.77	357.53
384.15	333.8
384.53	364.31
384.91	335.61
385.29	337.65
385.67	363.41
386.049	359.79
386.429	368.15
386.809	356.63
387.189	364.99
387.568	364.31
387.948	371.32
388.328	364.09
388.707	384.65
389.087	374.03
389.466	364.31
389.846	368.83
390.225	378.1
390.605	373.35
390.984	397.98
391.363	378.32
391.743	391.88
392.122	369.96
392.501	376.97
392.881	391.2
393.26	403.86
393.639	396.18
394.018	373.8
394.397	376.29
394.776	383.52
395.155	392.79
395.534	396.18
395.913	381.71
396.292	419.68
396.671	408.61
397.05	376.06
397.429	406.8
397.808	423.75
398.186	401.83
398.565	407.25
398.944	395.05
399.323	406.57
399.701	443.63
400.08	407.25
400.458	398.66
400.837	403.63
401.215	423.75
401.594	409.96
401.972	412.45
402.351	410.19
402.729	440.24
403.107	446.57
403.486	414.03
403.864	431.2
404.242	423.07
404.62	419.68
404.999	454.03
405.377	430.07
405.755	448.6
406.133	439.56
406.511	449.73
406.889	439.34
407.267	452.22
407.645	458.55
408.023	465.33
408.401	462.39
408.779	463.52
409.156	458.55
409.534	463.52
409.912	465.55
410.29	472.56
410.667	484.54
411.045	469.17
411.422	478.89
411.8	473.46
412.178	479.56
412.555	469.62
412.933	504.2
413.31	491.99
413.687	502.84
414.065	513.91
414.442	493.12
414.819	516.85
415.197	500.58
415.574	520.69
415.951	517.75
416.328	517.75
416.705	524.99
417.082	513.91
417.46	527.02
417.837	535.38
418.214	526.79
418.591	552.33
418.967	544.87
419.344	557.3
419.721	535.61
420.098	559.34
420.475	555.95
420.852	552.1
421.228	575.38
421.605	575.15
421.982	588.26
422.358	571.99
422.735	578.77
423.111	579.45
423.488	582.84
423.864	560.01
424.241	591.2
424.617	583.06
424.994	598.2
425.37	618.09
425.746	603.18
426.123	602.5
426.499	620.35
426.875	635.04
427.251	661.71
427.627	628.94
428.003	639.56
428.379	643.63
428.756	643.18
429.132	628.49
429.507	664.19
429.883	686.34
430.259	682.95
430.635	674.59
431.011	690.18
431.387	691.76
431.763	702.38
432.138	708.03
432.514	706
432.89	719.78
433.265	727.92
433.641	749.61
434.016	731.08
434.392	758.2
434.767	730.4
435.143	749.16
435.518	754.81
435.894	789.16
436.269	781.02
436.644	759.78
437.02	788.93
437.395	783.06
437.77	792.1
438.145	793
438.52	807.01
438.895	816.28
439.271	809.72
439.646	840.01
440.021	837.75
440.395	821.48
440.77	829.16
441.145	849.5
441.52	832.55
441.895	873.45
442.27	865.54
442.645	870.97
443.019	881.14
443.394	907.58
443.769	889.72
444.143	907.58
444.518	893.79
444.892	906.22
445.267	899.21
445.641	907.8
446.016	913.22
446.39	937.86
446.764	933.79
447.139	922.26
447.513	956.39
447.887	954.58
448.262	936.27
448.636	974.47
449.01	965.88
449.384	968.59
449.758	958.42
450.132	1004.75
450.506	1003.62
450.88	991.19
451.254	996.61
451.628	998.42
452.002	1029.38
452.376	1012.21
452.75	1042.03
453.123	1080.45
453.497	1075.03
453.871	1084.75
454.244	1081.81
454.618	1087.23
454.992	1105.31
455.365	1112.32
455.739	1152.99
456.112	1129.04
456.486	1155.25
456.859	1153.9
457.232	1179.21
457.606	1189.83
457.979	1210.17
458.352	1214.46
458.725	1249.49
459.099	1253.1
459.472	1271.86
459.845	1271.18
460.218	1270.28
460.591	1304.17
460.964	1304.17
461.337	1350.95
461.71	1374
462.083	1375.13
462.456	1388.01
462.829	1397.96
463.201	1412.19
463.574	1418.52
463.947	1445.64
464.32	1489.03
464.692	1497.39
465.065	1524.06
465.438	1515.02
465.81	1554.11
466.183	1591.62
466.555	1587.78
466.928	1590.04
467.3	1614.45
467.672	1632.53
468.045	1699.87
468.417	1697.61
468.789	1691.51
469.161	1731.96
469.534	1793.2
469.906	1799.98
470.278	1827.32
470.65	1848.57
471.022	1904.16
471.394	1927.21
471.766	1958.17
472.138	2002.91
472.51	2051.05
472.882	2082.91
473.253	2106.87
473.625	2160.65
473.997	2219.4
474.369	2236.58
474.74	2273.87
475.112	2325.16
475.484	2361.32
475.855	2451.94
476.227	2485.84
476.598	2582.11
476.97	2602.22
477.341	2676.12
477.713	2722.44
478.084	2762.89
478.455	2851.93
478.827	2940.74
479.198	3010.34
479.569	3051.7
479.94	3184.8
480.311	3242.65
480.682	3356.78
481.053	3437.23
481.424	3521.74
481.795	3626.83
482.166	3674.96
482.537	3762.64
482.908	3864.56
483.279	3959.7
483.65	4051
484.021	4171.67
484.391	4252.8
484.762	4379.35
485.133	4470.65
485.503	4561.72
485.874	4683.07
486.244	4774.37
486.615	4926.45
486.985	5024.98
487.356	5075.38
487.726	5235.14
488.097	5432.65
488.467	5495.03
488.837	5702.93
489.207	5777.73
489.578	5917.39
489.948	6040.77
490.318	6128.68
490.688	6257.04
491.058	6407.54
491.428	6529.12
491.798	6673.3
492.168	6871.03
492.538	6899.96
492.908	7055.89
493.278	7240.74
493.648	7304.47
494.017	7418.59
494.387	7568.64
494.757	7702.42
495.126	7827.85
495.496	7903.55
495.866	8017.44
496.235	8179.25
496.605	8288.85
496.974	8430.09
497.344	8488.62
497.713	8625.11
498.082	8746.24
498.452	8865.11
498.821	8962.28
499.19	9049.06
499.559	9200.69
499.928	9246.79
500.298	9357.3
500.667	9530.4
501.036	9465.77
501.405	9660.79
501.774	9733.11
502.143	9858.53
502.512	9875.7
502.88	10018.97
503.249	10153.21
503.618	10188.69
503.987	10260.1
504.356	10385.97
504.724	10430.26
505.093	10537.6
505.462	10637.71
505.83	10643.36
506.199	10791.83
506.567	10872.06
506.936	10932.17
507.304	11074.09
507.672	11102.34
508.041	11171.49
508.409	11247.64
508.777	11247.87
509.145	11410.12
509.514	11389.33
509.882	11479.73
510.25	11595.66
510.618	11648.76
510.986	11722.43
511.354	11817.12
511.722	11841.75
512.09	11956.1
512.458	11937.79
512.826	12099.82
513.193	12092.37
513.561	12122.65
513.929	12213.27
514.297	12252.59
514.664	12361.96
515.032	12332.81
515.4	12477.67
515.767	12441.96
516.135	12583.88
516.502	12458.46
516.869	12686.7
517.237	12709.3
517.604	12714.04
517.972	12754.95
518.339	12853.7
518.706	12841.72
519.073	12962.85
519.44	12911.33
519.808	13073.13
520.175	13029.29
520.542	13063.64
520.909	13185.22
521.276	13181.83
521.643	13170.76
522.009	13249.85
522.376	13426.34
522.743	13428.6
523.11	13455.72
523.477	13524.64
523.843	13516.96
524.21	13689.84
524.577	13685.32
524.943	13666.34
525.31	13727.8
525.676	13878.76
526.043	13862.71
526.409	13833.56
526.776	13931.64
527.142	13962.15
527.508	14016.61
527.874	14087.79
528.241	14079.21
528.607	14117.17
528.973	14170.5
529.339	14126.89
529.705	14264.96
530.071	14271.29
530.437	14259.09
530.803	14271.97
531.169	14328.01
531.535	14171.18
531.901	14277.39
532.267	14241.91
532.632	14238.98
532.998	14297.73
533.364	14287.56
533.73	14375.24
534.095	14365.98
534.461	14349.48
534.826	14457.05
535.192	14405.53
535.557	14403.72
535.923	14308.13
536.288	14343.15
536.653	14369.59
537.019	14299.77
537.384	14333.44
537.749	14309.71
538.114	14321.01
538.479	14235.36
538.845	14236.72
539.21	14185.19
539.575	14193.78
539.94	14279.43
540.305	14339.31
540.67	14194.01
541.034	14196.27
541.399	14139.32
541.764	14159.88
542.129	14265.42
542.494	14109.04
542.858	14138.87
543.223	14075.82
543.587	14165.53
543.952	14131.41
544.316	14040.34
544.681	13891.87
545.045	14015.7
545.41	13984.52
545.774	13954.24
546.138	14002.37
546.503	13940.9
546.867	13880.57
547.231	14000.34
547.595	13953.11
547.959	13932.54
548.324	13866.33
548.688	13874.69
549.052	13888.48
549.416	13806.44
549.779	13746.33
550.143	13740.23
550.507	13735.71
550.871	13824.98
551.235	13707.46
551.599	13774.13
551.962	13786.11
552.326	13698.43
552.689	13699.33
553.053	13599.22
553.417	13651.87
553.78	13761.93
554.143	13684.41
554.507	13643.74
554.87	13591.99
555.234	13770.74
555.597	13555.83
555.96	13643.06
556.323	13621.14
556.686	13620.24
557.05	13669.05
557.413	13644.19
557.776	13623.62
558.139	13697.3
558.502	13578.65
558.865	13694.13
559.228	13774.36
559.59	13665.21
559.953	13650.74
560.316	13784.98
560.679	13647.35
561.041	13736.84
561.404	13744.75
561.767	13807.35
562.129	13711.98
562.492	13842.38
562.854	13776.84
563.217	13740.68
563.579	13793.79
563.941	13869.49
564.304	13851.87
564.666	13914.92
565.028	13934.35
565.39	13892.54
565.753	13934.8
566.115	13999.43
566.477	14003.73
566.839	13979.32
567.201	14041.92
567.563	14027.91
567.925	14170.96
568.287	14072.2
568.648	14136.83
569.01	14209.15
569.372	14160.56
569.734	14159.2
570.095	14165.98
570.457	14189.49
570.819	14150.39
571.18	14204.63
571.542	14205.98
571.903	14248.24
572.265	14275.81
572.626	14308.8
572.987	14296.38
573.349	14292.99
573.71	14363.49
574.071	14360.78
574.432	14424.06
574.794	14472.64
575.155	14509.48
575.516	14324.4
575.877	14514.45
576.238	14437.61
576.599	14514.45
576.96	14443.26
577.32	14462.7
577.681	14556.26
578.042	14533.66
578.403	14540.21
578.763	14460.44
579.124	14468.57
579.485	14523.26
579.845	14542.24
580.206	14527.78
580.566	14527.33
580.927	14504.28
581.287	14523.04
581.648	14509.48
582.008	14589.25
582.368	14617.95
582.728	14602.81
583.089	14554.22
583.449	14509.7
583.809	14590.15
584.169	14590.83
584.529	14580.21
584.889	14607.78
585.249	14491.62
585.609	14422.47
585.969	14529.36
586.329	14547.67
586.688	14600.77
587.048	14447.11
587.408	14437.39
587.768	14434
588.127	14452.98
588.487	14297.51
588.846	14501.34
589.206	14375.02
589.565	14361.46
589.925	14469.25
590.284	14338.18
590.643	14468.57
591.003	14449.59
591.362	14506.09
591.721	14461.57
592.08	14408.24
592.44	14450.27
592.799	14394.68
593.158	14446.43
593.517	14358.52
593.876	14476.26
594.235	14353.1
594.593	14429.25
594.952	14374.34
595.311	14320.1
595.67	14325.98
596.029	14411.85
596.387	14452.3
596.746	14457.5
597.104	14340.67
597.463	14418.41
597.822	14283.95
598.18	14311.74
598.538	14245.98
598.897	14456.37
599.255	14323.04
599.613	14497.05
599.972	14289.6
600.33	14356.49
600.688	14351.74
601.046	14378.18
601.404	14333.21
601.762	14398.52
602.12	14412.98
602.478	14454.11
602.836	14403.04
603.194	14380.67
603.552	14304.96
603.91	14349.48
604.268	14428.8
604.625	14384.28
604.983	14372.76
605.341	14395.58
605.698	14363.49
606.056	14401.01
606.413	14370.05
606.771	14348.35
607.128	14373.44
607.485	14342.02
607.843	14332.76
608.2	14382.93
608.557	14441
608.914	14327.34
609.272	14422.93
609.629	14518.74
609.986	14467.9
610.343	14465.41
610.7	14507.22
611.057	14592.86
611.414	14492.3
611.771	14582.02
612.127	14595.58
612.484	14638.97
612.841	14598.74
613.198	14498.86
613.554	14607.55
613.911	14624.5
614.267	14580.66
614.624	14579.31
614.98	14665.41
615.337	14659.53
615.693	14627.21
616.05	14650.49
616.406	14680.32
616.762	14671.73
617.118	14735.69
617.475	14629.25
617.831	14686.2
618.187	14759.41
618.543	14826.08
618.899	14835.57
619.255	14766.42
619.611	14740.66
619.967	14837.6
620.323	14744.27
620.678	14783.37
621.034	14786.08
621.39	14748.34
621.746	14720.09
622.101	14924.83
622.457	14768.68
622.812	14751.05
623.168	14920.54
623.523	14862.46
623.879	14890.48
624.234	14746.76
624.589	14816.14
624.945	14830.6
625.3	14783.37
625.655	14786.98
626.01	14831.95
626.365	14813.88
626.72	14774.56
627.075	14846.87
627.43	14854.33
627.785	14769.58
628.14	14811.39
628.495	14827.43
628.85	14844.38
629.205	14779.75
629.559	14800.54
629.914	14738.17
630.269	14726.42
630.623	14791.28
630.978	14647.1
631.332	14691.85
631.687	14760.54
632.041	14746.08
632.396	14662.02
632.75	14648.46
633.104	14713.77
633.459	14618.17
633.813	14602.58
634.167	14637.61
634.521	14557.16
634.875	14605.29
635.229	14498.4
635.583	14520.32
635.937	14417.05
636.291	14489.82
636.645	14525.97
636.999	14433.55
637.352	14549.48
637.706	14392.42
638.06	14452.98
638.413	14337.05
638.767	14402.59
639.121	14372.31
639.474	14211.18
639.828	14350.84
640.181	14211.63
640.534	14214.8
640.888	14275.59
641.241	14322.36
641.594	14182.03
641.947	14240.78
642.301	14239.65
642.654	14231.07
643.007	14191.29
643.36	14124.63
643.713	14172.08
644.066	14199.88
644.419	14078.98
644.771	13948.36
645.124	13844.18
645.477	13920.34
645.83	13834.24
646.182	13805.77
646.535	13679.44
646.888	13765.32
647.24	13597.18
647.593	13744.07
647.945	13702.94
648.298	13733
648.65	13591.31
649.002	13597.86
649.355	13659.1
649.707	13637.64
650.059	13655.26
650.411	13895.93
650.763	13898.65
651.115	13989.49
651.467	13980.9
651.819	13925.54
652.171	13965.76
652.523	13907.91
652.875	13860
653.227	13924.18
653.578	13978.64
653.93	13928.7
654.282	13869.49
654.633	13848.48
654.985	13837.63
655.337	13924.18
655.688	13870.85
656.039	13978.19
656.391	13823.85
656.742	13876.5
657.094	13847.57
657.445	14005.76
657.796	13864.07
658.147	13925.99
658.498	13933.9
658.849	13937.06
659.2	13930.96
659.551	13904.52
659.902	14005.76
660.253	13904.97
660.604	13947.68
660.955	13938.19
661.306	13876.05
661.656	13881.25
662.007	14063.39
662.358	13931.87
662.708	13887.8
663.059	13935.03
663.409	13861.13
663.76	14074.23
664.11	14011.41
664.461	13984.07
664.811	13977.06
665.161	13928.02
665.511	13885.54
665.862	13987.23
666.212	14009.15
666.562	13955.14
666.912	14005.54
667.262	13951.3
667.612	14025.87
667.962	13948.81
668.312	13888.25
668.662	14009.38
669.011	13990.17
669.361	13952.66
669.711	13902.49
670.06	13878.31
670.41	13866.1
670.76	13843.73
671.109	13892.77
671.459	13864.3
671.808	13831.53
672.157	13906.56
672.507	13786.33
672.856	13799.67
673.205	13832.43
673.554	13780.68
673.904	13730.51
674.253	13839.21
674.602	13764.86
674.951	13604.19
675.3	13501.37
675.649	13668.6
675.998	13733.23
676.346	13721.93
676.695	13712.89
677.044	13653.23
677.393	13779.78
677.741	13687.13
678.09	13628.37
678.438	13589.73
678.787	13714.02
679.135	13668.82
679.484	13597.86
679.832	13575.94
680.181	13528.49
680.529	13657.75
680.877	13592.44
681.225	13514.48
681.573	13596.05
681.922	13483.52
682.27	13433.35
682.618	13408.72
682.966	13420.01
683.314	13357.87
683.661	13358.55
684.009	13243.07
684.357	13296.85
684.705	13174.82
685.053	13278.32
685.4	13196.07
685.748	13138.67
686.095	13137.54
686.443	13144.32
686.79	12999.23
687.138	13091.66
687.485	13095.05
687.832	12963.53
688.18	12969.4
688.527	12946.81
688.874	12934.38
689.221	12906.13
689.568	12803.31
689.915	12753.37
690.262	12821.16
690.609	12707.72
690.956	12676.76
691.303	12669.07
691.65	12533.26
691.997	12672.24
692.344	12526.93
692.69	12489.19
693.037	12503.65
693.383	12413.71
693.73	12406.71
694.077	12391.79
694.423	12342.08
694.769	12324
695.116	12267.28
695.462	12194.96
695.808	12227.73
696.155	12133.04
696.501	12074.96
696.847	12100.05
697.193	11904.57
697.539	12082.2
697.885	11896.66
698.231	11842.65
698.577	11875.2
698.923	11835.88
699.269	11782.77
699.614	11680.63
699.96	11665.03
700.306	11688.99
700.651	11529.22
700.997	11566.5
701.342	11472.95
701.688	11527.18
702.033	11531.7
702.379	11443.8
702.724	11391.59
703.069	11393.85
703.415	11246.74
703.76	11278.38
704.105	11288.09
704.45	11273.18
704.795	11273.18
705.14	11128.78
705.485	11105.72
705.83	11037.48
706.175	11082.67
706.52	11023.69
706.865	10921.1
707.209	10819.86
707.554	10922.68
707.899	10936.92
708.243	10880.65
708.588	10849.91
708.932	10723.81
709.277	10736.7
709.621	10694.89
709.966	10685.62
710.31	10609.01
710.654	10547.1
710.998	10561.11
711.342	10541.9
711.687	10549.36
712.031	10530.15
712.375	10479.53
712.719	10536.47
713.063	10528.34
713.407	10517.94
713.75	10393.88
714.094	10365.18
714.438	10373.31
714.782	10356.59
715.125	10362.47
715.469	10300.77
715.812	10310.49
716.156	10278.63
716.499	10282.47
716.843	10241.79
717.186	10213.09
717.53	10257.16
717.873	10258.52
718.216	10178.74
718.559	10210.61
718.902	10096.26
719.246	10110.95
719.589	10075.47
719.932	10063.49
720.275	10059.2
720.617	10058.07
720.96	10065.3
721.303	10048.8
721.646	10052.19
721.989	9940.11
722.331	10129.25
722.674	9987.56
723.016	10052.87
723.359	10007.9
723.701	9985.08
724.044	9915.02
724.386	9876.83
724.729	9896.72
725.071	9871.41
725.413	9920.67
725.755	9827.57
726.097	9789.15
726.439	9786.44
726.782	9784.18
727.124	9917.06
727.465	9783.05
727.807	9731.98
728.149	9777.62
728.491	9807.68
728.833	9778.75
729.175	9792.31
729.516	9736.72
729.858	9766.1
730.199	9697.4
730.541	9774.46
730.882	9749.6
731.224	9760.45
731.565	9724.97
731.906	9711.86
732.248	9704.86
732.589	9689.04
732.93	9659.89
733.271	9727.23
733.612	9730.39
733.953	9762.48
734.294	9615.59
734.635	9687.46
734.976	9683.62
735.317	9680.45
735.658	9733.33
735.999	9652.43
736.339	9630.74
736.68	9719.77
737.021	9672.09
737.361	9646.33
737.702	9647.68
738.042	9648.36
738.383	9692.65
738.723	9727.46
739.063	9623.05
739.404	9675.93
739.744	9699.66
740.084	9634.35
740.424	9676.16
740.764	9654.24
741.104	9680.9
741.444	9624.18
741.784	9718.64
742.124	9779.66
742.464	9735.59
742.804	9736.95
743.143	9783.05
743.483	9804.97
743.823	9864.63
744.162	9872.31
744.502	9863.95
744.841	9835.02
745.181	9896.94
745.52	9909.6
745.86	9814.23
746.199	10004.96
746.538	9957.28
746.877	10045.87
747.216	10132.87
747.556	10080.22
747.895	10242.7
748.234	10146.43
748.573	10252.87
748.911	10314.33
749.25	10310.49
749.589	10357.04
749.928	10466.87
750.267	10474.56
750.605	10546.87
750.944	10614.21
751.283	10650.37
751.621	10731.27
751.96	10773.76
752.298	10866.41
752.636	10958.16
752.975	10962.45
753.313	11082.67
753.651	11162.22
753.989	11209.9
754.327	11301.2
754.666	11325.38
755.004	11503
755.342	11550.23
755.679	11702.77
756.017	11804.01
756.355	11952.93
756.693	12036.77
757.031	12234.06
757.368	12195.19
757.706	12356.31
758.044	12529.42
758.381	12597.21
758.719	12707.49
759.056	12949.74
759.394	12928.95
759.731	13074.03
760.068	13205.1
760.405	13368.04
760.743	13359.9
761.08	13662.27
761.417	13670.4
761.754	13829.04
762.091	13944.07
762.428	14074.46
762.765	14124.85
763.102	14360.33
763.438	14431.74
763.775	14512.19
764.112	14706.99
764.449	14906.08
764.785	14937.04
765.122	15047.77
765.458	15127.09
765.795	15264.94
766.131	15441.88
766.467	15456.35
766.804	15672.84
767.14	15710.35
767.476	15873.96
767.812	15824.92
768.148	16072.15
768.485	16024.24
768.821	16105.37
769.157	16331.8
769.492	16337.45
769.828	16451.12
770.164	16431.46
770.5	16630.55
770.836	16681.4
771.171	16715.52
771.507	16848.85
771.842	16811.56
772.178	16932.46
772.513	16940.6
772.849	16976.76
773.184	17001.39
773.519	17175.62
773.855	17156.87
774.19	17202.51
774.525	17270.99
774.86	17307.6
775.195	17385.56
775.53	17349.4
775.865	17413.58
776.2	17310.08
776.535	17345.79
776.87	17369.97
777.205	17412.45
777.539	17357.09
777.874	17543.75
778.209	17388.27
778.543	17475.95
778.878	17366.35
779.212	17467.59
779.547	17426.01
779.881	17552.11
780.215	17435.28
780.55	17624.2
780.884	17401.6
781.218	17471.43
781.552	17503.3
781.886	17467.14
782.22	17448.83
782.554	17498.33
782.888	17303.75
783.222	17256.3
783.556	17281.83
783.889	17219.46
784.223	17146.92
784.557	17273.92
784.89	17317.09
785.224	17238.67
785.557	17184.89
785.891	17202.74
786.224	17169.52
786.558	17240.03
786.891	17024.44
787.224	17051.78
787.557	17075.06
787.891	17098.56
788.224	17063.53
788.557	17068.51
788.89	16994.61
789.223	17035.51
789.556	16870.09
789.888	16870.55
790.221	16801.17
790.554	16796.87
790.887	16772.47
791.219	16734.28
791.552	16778.8
791.884	16609.99
792.217	16629.65
792.549	16624.22
792.882	16525.24
793.214	16513.49
793.546	16595.3
793.879	16436.66
794.211	16294.06
794.543	16454.06
794.875	16418.13
795.207	16361.18
795.539	16394.17
795.871	16368.19
796.203	16180.39
796.535	16157.34
796.867	16174.97
797.198	16142.2
797.53	16155.76
797.862	15931.81
798.193	16043.9
798.525	15885.26
798.856	15915.54
799.188	15737.69
799.519	15712.84
799.85	15696.79
800.182	15691.59
800.513	15731.59
800.844	15540.86
801.175	15712.16
801.506	15623.35
801.837	15515.33
802.168	15523.69
802.499	15423.13
802.83	15379.28
803.161	15310.59
803.491	15422.9
803.822	15337.48
804.153	15291.15
804.483	15192.17
804.814	15209.8
805.145	15006.64
805.475	15207.54
805.805	15051.61
806.136	15008.45
806.466	15033.98
806.796	14985.17
807.126	14862.01
807.457	14813.65
807.787	14890.26
808.117	14801.45
808.447	14806.19
808.777	14876.25
809.107	14709.92
809.436	14733.2
809.766	14754.89
810.096	14636.93
810.426	14600.1
810.755	14674.22
811.085	14578.85
811.414	14595.35
811.744	14435.13
812.073	14397.62
812.403	14417.95
812.732	14312.42
813.061	14401.01
813.39	14240.56
813.719	14326.88
814.049	14330.95
814.378	14280.78
814.707	14203.72
815.036	14224.29
815.365	14151.97
815.693	14006.67
816.022	14068.36
816.351	13993.56
816.68	13933.45
817.008	13956.05
817.337	13876.05
817.665	13900.91
817.994	13933.9
818.322	13814.13
818.651	13815.94
818.979	13728.93
819.307	13783.17
819.636	13737.29
819.964	13715.6
820.292	13791.08
820.62	13741.36
820.948	13682.38
821.276	13722.15
821.604	13683.74
821.932	13661.82
822.259	13716.28
822.587	13690.52
822.915	13591.54
823.243	13711.76
823.57	13713.79
823.898	13741.14
824.225	13649.61
824.553	13626.34
824.88	13615.49
825.207	13607.81
825.535	13677.41
825.862	13647.58
826.189	13604.42
826.516	13653.23
826.843	13685.54
827.17	13634.25
827.497	13683.06
827.824	13691.87
828.151	13728.71
828.478	13625.21
828.805	13723.28
829.131	13596.73
829.458	13626.79
829.785	13515.61
830.111	13556.06
830.438	13640.35
830.764	13556.51
831.09	13695.49
831.417	13636.51
831.743	13694.81
832.069	13690.06
832.395	13623.85
832.722	13678.76
833.048	13490.75
833.374	13562.84
833.7	13607.58
834.026	13546.34
834.351	13565.77
834.677	13543.17
835.003	13541.37
835.329	13519.67
835.654	13475.83
835.98	13478.32
836.306	13481.71
836.631	13346.34
836.956	13504.53
837.282	13418.43
837.607	13337.08
837.932	13357.64
838.258	13411.88
838.583	13322.84
838.908	13239.91
839.233	13295.5
839.558	13281.03
839.883	13241.49
840.208	13182.05
840.533	13238.55
840.858	13208.04
841.182	13225.44
841.507	13146.12
841.832	13171.43
842.156	13014.38
842.481	13140.47
842.805	13074.94
843.13	13011.89
843.454	12975.96
843.778	12893.93
844.103	12894.6
844.427	12903.64
844.751	12840.14
845.075	12888.28
845.399	12850.99
845.723	12773.25
846.047	12752.46
846.371	12684.67
846.695	12705.91
847.019	12566.7
847.343	12533.48
847.666	12387.05
847.99	12371.23
848.313	12399.25
848.637	12267.05
848.96	12254.62
849.284	12295.3
849.607	12244.9
849.931	12127.84
850.254	11992.71
850.577	12098.24
850.9	11984.12
851.223	11907.74
851.546	11858.25
851.869	11757.46
852.192	11876.78
852.515	11694.86
852.838	11684.69
853.161	11629.78
853.483	11565.37
853.806	11540.52
854.129	11550.01
854.451	11467.52
854.774	11423.23
855.096	11440.41
855.419	11381.88
855.741	11339.17
856.063	11286.51
856.385	11222.78
856.708	11184.82
857.03	11279.96
857.352	11181.88
857.674	11164.71
857.996	11134.2
858.318	11069.12
858.64	11023.02
858.961	10959.51
859.283	10965.39
859.605	10951.83
859.926	10904.15
860.248	10867.31
860.57	10823.02
860.891	10891.04
861.212	10827.54
861.534	10814.89
861.855	10734.44
862.176	10745.73
862.498	10707.32
862.819	10744.15
863.14	10638.17
863.461	10649.24
863.782	10593.87
864.103	10524.27
864.424	10588.45
864.745	10546.87
865.065	10493.54
865.386	10506.64
865.707	10525.63
866.027	10517.94
866.348	10437.49
866.668	10474.1
866.989	10406.31
867.309	10354.56
867.63	10364.05
867.95	10341.45
868.27	10290.83
868.59	10335.12
868.91	10317.72
869.23	10283.15
869.55	10303.94
869.87	10321.34
870.19	10305.75
870.51	10278.4
870.83	10350.26
871.15	10239.31
871.469	10212.87
871.789	10235.24
872.109	10227.56
872.428	10110.5
872.748	10129.93
873.067	10118.18
873.386	10091.97
873.706	10129.03
874.025	10034.57
874.344	10079.99
874.663	10092.64
874.982	10068.24
875.301	10042.25
875.62	9992.08
875.939	9939.43
876.258	9921.12
876.577	9904.4
876.896	9952.31
877.214	9894.01
877.533	9881.58
877.852	9837.51
878.17	9858.3
878.489	9902.59
878.807	9844.97
879.125	9765.65
879.444	9743.27
879.762	9765.65
880.08	9773.33
880.398	9761.13
880.716	9739.43
881.034	9702.82
881.352	9659.21
881.67	9712.54
881.988	9759.09
882.306	9681.81
882.624	9670.51
882.941	9627.35
883.259	9562.26
883.577	9511.64
883.894	9439.55
884.212	9534.24
884.529	9456.73
884.846	9409.5
885.164	9427.58
885.481	9414.7
885.798	9431.42
886.115	9321.82
886.432	9374.02
886.75	9297.18
887.067	9328.14
887.383	9231.2
887.7	9236.4
888.017	9298.31
888.334	9288.15
888.651	9176.06
888.967	9210.41
889.284	9144.65
889.6	9102.61
889.917	9030.07
890.233	9068.49
890.55	9047.7
890.866	9040.47
891.182	8973.8
891.498	8938.78
891.815	8954.6
892.131	8899.68
892.447	8906.46
892.763	8829.4
893.079	8789.4
893.395	8756.41
893.71	8802.06
894.026	8762.28
894.342	8703.53
894.657	8659.91
894.973	8619.91
895.289	8656.98
895.604	8584.89
895.92	8522.52
896.235	8540.59
896.55	8520.71
896.865	8487.94
897.181	8450.65
897.496	8443.87
897.811	8379.92
898.126	8368.85
898.441	8264.22
898.756	8319.36
899.071	8265.57
899.386	8276.19
899.7	8192.36
900.015	8206.37
900.33	8118.23
900.644	8161.4
900.959	8131.79
901.273	8100.61
901.588	8054.73
901.902	7988.52
902.216	7974.96
902.531	8000.27
902.845	7956.2
903.159	7920.95
903.473	7875.08
903.787	7796.66
904.101	7774.74
904.415	7805.02
904.729	7759.37
905.042	7711.01
905.356	7629.88
905.67	7679.37
905.984	7664.69
906.297	7663.33
906.611	7562.77
906.924	7587.63
907.237	7557.12
907.551	7536.33
907.864	7461.08
908.177	7487.29
908.491	7385.6
908.804	7367.07
909.117	7332.26
909.43	7262.89
909.743	7265.6
910.056	7231.25
910.368	7181.31
910.681	7214.3
910.994	7173.85
911.307	7152.83
911.619	7087.53
911.932	7111.71
912.244	7038.71
912.557	7017.24
912.869	7005.27
913.181	7019.96
913.494	6914.2
913.806	6866.51
914.118	6811.15
914.43	6808.66
914.742	6825.61
915.054	6798.27
915.366	6800.98
915.678	6735.67
915.99	6670.14
916.302	6662.23
916.613	6651.83
916.925	6622.9
917.236	6612.51
917.548	6554.21
917.859	6509.24
918.171	6461.78
918.482	6468.33
918.794	6443.02
919.105	6446.19
919.416	6367.09
919.727	6439.86
920.038	6410.03
920.349	6326.64
920.66	6271.05
920.971	6317.15
921.282	6208
921.593	6250.49
921.903	6199.41
922.214	6166.19
922.525	6185.18
922.835	6152.41
923.146	6118.29
923.456	6093.65
923.767	6009.14
924.077	6066.76
924.387	6037.84
924.697	5940.44
925.008	5984.73
925.318	5951.51
925.628	5900.21
925.938	5960.78
926.248	5908.12
926.558	5811.4
926.867	5816.82
927.177	5782.7
927.487	5764.62
927.796	5756.49
928.106	5695.02
928.416	5688.69
928.725	5739.76
929.034	5643.5
929.344	5680.56
929.653	5657.28
929.962	5616.15
930.271	5531.86
930.581	5536.61
930.89	5522.59
931.199	5465.42
931.508	5485.08
931.817	5422.94
932.125	5481.01
932.434	5438.98
932.743	5376.16
933.051	5359.44
933.36	5388.59
933.669	5321.7
933.977	5278.31
934.286	5255.71
934.594	5249.83
934.902	5174.13
935.21	5190.85
935.519	5166.45
935.827	5098.2
936.135	5159.67
936.443	5123.74
936.751	5123.74
937.059	5056.17
937.367	5013.68
937.674	5029.5
937.982	5004.19
938.29	4995.6
938.597	4984.08
938.905	4925.77
939.213	4879.45
939.52	4898.66
939.827	4897.98
940.135	4840.8
940.442	4869.28
940.749	4829.51
941.056	4870.41
941.363	4762.39
941.67	4746.34
941.977	4745.89
942.284	4692.11
942.591	4679.68
942.898	4666.12
943.205	4684.88
943.511	4669.51
943.818	4675.16
944.125	4584.54
944.431	4568.72
944.738	4576.63
945.044	4570.3
945.35	4524.43
945.657	4465.67
945.963	4468.16
946.269	4460.93
946.575	4453.47
946.881	4431.32
947.187	4432.45
947.493	4409.63
947.799	4387.03
948.105	4308.84
948.41	4313.59
948.716	4369.4
949.022	4300.25
949.327	4321.5
949.633	4270.88
949.938	4279.69
950.244	4252.35
950.549	4217.77
950.854	4179.35
951.16	4164.89
951.465	4178.45
951.77	4139.35
952.075	4111.56
952.38	4114.04
952.685	4088.51
952.99	4100.49
953.294	4070.43
953.599	4063.88
953.904	4016.19
954.209	3967.83
954.513	4002.63
954.818	3950.88
955.122	3947.27
955.426	3934.39
955.731	3951.11
956.035	3899.36
956.339	3915.41
956.643	3862.3
956.948	3838.57
957.252	3828.4
957.556	3847.61
957.86	3790.89
958.163	3807.39
958.467	3757.44
958.771	3787.95
959.075	3778.69
959.378	3720.83
959.682	3771.91
959.985	3708.18
960.289	3674.73
960.592	3696.43
960.896	3649.2
961.199	3635.86
961.502	3610.55
961.805	3559.48
962.108	3613.04
962.411	3587.05
962.714	3526.72
963.017	3526.26
963.32	3521.97
963.623	3509.77
963.926	3482.2
964.228	3495.76
964.531	3460.05
964.833	3438.36
965.136	3422.99
965.438	3417.11
965.741	3419.83
966.043	3408.75
966.345	3405.81
966.648	3374.4
966.95	3374.85
967.252	3339.15
967.554	3337.57
967.856	3331.01
968.158	3277.68
968.46	3267.51
968.761	3220.06
969.063	3248.3
969.365	3231.81
969.666	3230.68
969.968	3196.78
970.269	3178.93
970.571	3170.79
970.872	3171.92
971.174	3151.58
971.475	3164.69
971.776	3124.47
972.077	3121.3
972.378	3096.44
972.679	3088.53
972.98	3058.48
973.281	3084.01
973.582	3076.11
973.883	3022.55
974.183	3020.74
974.484	2992.94
974.785	3011.02
975.085	2966.73
975.386	2975.09
975.686	2960.4
975.986	2915.66
976.287	2925.38
976.587	2856.9
976.887	2897.58
977.187	2883.34
977.487	2907.52
977.787	2883.34
978.087	2872.95
978.387	2849.22
978.687	2834.3
978.987	2826.17
979.286	2782.1
979.586	2818.94
979.885	2731.03
980.185	2766.28
980.484	2745.04
980.784	2728.54
981.083	2710.47
981.382	2747.3
981.682	2727.87
981.981	2698.94
982.28	2666.62
982.579	2670.24
982.878	2637.7
983.177	2650.35
983.475	2662.56
983.774	2611.94
984.073	2610.13
984.372	2591.82
984.67	2576.23
984.969	2592.95
985.267	2541.66
985.566	2564.71
985.864	2519.06
986.162	2555.89
986.461	2544.37
986.759	2536.46
987.057	2463.01
987.355	2468.89
987.653	2490.13
987.951	2436.12
988.249	2463.92
988.547	2469.34
988.844	2447.65
989.142	2438.16
989.44	2383.92
989.737	2399.06
990.035	2391.38
990.332	2350.7
990.63	2361.55
990.927	2357.71
991.224	2360.64
991.521	2350.7
991.819	2319.97
992.116	2295.79
992.413	2310.25
992.71	2279.06
993.006	2288.33
993.303	2277.71
993.6	2297.59
993.897	2263.47
994.193	2240.65
994.49	2247.43
994.787	2269.35
995.083	2221.44
995.379	2218.05
995.676	2227.77
995.972	2178.5
996.268	2166.98
996.565	2137.6
996.861	2154.77
997.157	2122.91
997.453	2138.96
997.749	2139.63
998.044	2071.84
998.34	2072.06
998.636	2089.24
998.932	2083.36
999.227	2046.75
999.523	2035.91
999.818	2035.23
1000.114	2032.07
1000.409	1992.29
1000.704	1995.46
1001	2004.5
1001.295	1957.94
1001.59	1967.21
1001.885	1966.98
1002.18	1952.52
1002.475	1952.97
1002.77	1939.86
1003.065	1924.27
1003.359	1915.68
1003.654	1906.19
1003.949	1897.38
1004.243	1900.32
1004.538	1847.66
1004.832	1852.63
1005.127	1876.36
1005.421	1851.96
1005.715	1825.07
1006.009	1802.92
1006.304	1825.74
1006.598	1775.12
1006.892	1794.56
1007.186	1812.41
1007.48	1790.26
1007.773	1760.89
1008.067	1761.56
1008.361	1726.99
1008.655	1743.71
1008.948	1691.06
1009.242	1708.01
1009.535	1705.97
1009.829	1693.77
1010.122	1676.59
1010.415	1667.1
1010.708	1678.63
1011.001	1696.48
1011.295	1669.14
1011.588	1644.28
1011.881	1676.59
1012.173	1632.08
1012.466	1593.88
1012.759	1596.37
1013.052	1629.59
1013.344	1590.27
1013.637	1569.48
1013.93	1553.21
1014.222	1564.96
1014.514	1549.14
1014.807	1541.23
1015.099	1543.94
1015.391	1531.29
1015.683	1498.29
1015.976	1488.12
1016.268	1511.4
1016.56	1463.72
1016.851	1487.9
1017.143	1476.37
1017.435	1468.01
1017.727	1451.97
1018.018	1412.87
1018.31	1405.64
1018.602	1416.49
1018.893	1464.17
1019.185	1409.03
1019.476	1397.73
1019.767	1390.27
1020.058	1379.65
1020.35	1376.26
1020.641	1359.54
1020.932	1335.59
1021.223	1371.97
1021.514	1345.3
1021.804	1334
1022.095	1309.82
1022.386	1303.27
1022.677	1294.91
1022.967	1278.86
1023.258	1265.76
1023.548	1302.82
1023.839	1283.38
1024.129	1277.96
1024.419	1275.25
1024.709	1247
1025	1247.23
1025.29	1213.33
1025.58	1240.9
1025.87	1225.08
1026.16	1212.43
1026.449	1225.76
1026.739	1221.47
1027.029	1191.41
1027.319	1167.68
1027.608	1186.66
1027.898	1178.98
1028.187	1171.75
1028.477	1151.41
1028.766	1142.15
1029.055	1119.32
1029.344	1132.43
1029.634	1110.51
1029.923	1108.93
1030.212	1108.7
1030.501	1116.38
1030.79	1102.37
1031.078	1087.68
1031.367	1087.01
1031.656	1072.54
1031.945	1078.64
1032.233	1023.73
1032.522	1047.68
1032.81	1031.64
1033.099	1007.01
1033.387	1046.55
1033.675	1017.18
1033.963	1030.51
1034.251	1007.23
1034.54	1015.14
1034.828	989.38
1035.116	986.89
1035.403	965.43
1035.691	974.47
1035.979	987.57
1036.267	963.17
1036.554	934.47
1036.842	976.27
1037.129	954.35
1037.417	922.26
1037.704	927.91
1037.992	923.39
1038.279	923.85
1038.566	914.81
1038.853	914.81
1039.14	914.81
