Data from hue_150_FLMS001491_00043.txt Node
Date: Tue Feb 07 16:54:05 GMT 2017
User: dcchb
Spectrometer: FLMS00149
Trigger mode: 0
Integration Time (sec): 2.000000E-2
Scans to average: 10
Electric dark correction enabled: true
Nonlinearity correction enabled: false
Boxcar width: 0
XAxis mode: Wavelengths
Number of Pixels in Spectrum: 2048
>>>>>Begin Spectral Data<<<<<
341.393	1.67
341.776	1.67
342.16	1.67
342.543	-41.5
342.927	-60.7
343.31	-79.91
343.693	-60.48
344.077	-83.53
344.46	-55.51
344.843	-55.51
345.226	-46.02
345.61	-16.41
345.993	-17.32
346.376	10.25
346.759	20.88
347.142	24.94
347.525	27.88
347.908	42.57
348.291	76.92
348.674	91.83
349.057	119.4
349.44	149.46
349.823	149.23
350.206	177.71
350.588	194.43
350.971	221.32
351.354	222.68
351.737	235.56
352.119	247.31
352.502	257.03
352.884	263.58
353.267	259.51
353.65	308.33
354.032	295.9
354.414	299.96
354.797	323.47
355.179	314.88
355.562	324.82
355.944	325.5
356.326	344.03
356.709	325.05
357.091	334.31
357.473	333.18
357.855	338.83
358.238	339.51
358.62	340.87
359.002	337.93
359.384	329.34
359.766	330.25
360.148	330.02
360.53	349.68
360.912	326.86
361.294	322.34
361.676	333.64
362.057	340.19
362.439	313.97
362.821	325.27
363.203	319.85
363.584	328.66
363.966	319.62
364.348	310.36
364.729	319.4
365.111	322.56
365.493	313.97
365.874	321.88
366.256	310.81
366.637	315.33
367.019	307.42
367.4	311.49
367.781	319.4
368.163	306.29
368.544	326.18
368.925	324.14
369.306	321.21
369.688	316.01
370.069	312.17
370.45	302.68
370.831	310.36
371.212	316.69
371.593	336.8
371.974	309
372.355	313.97
372.736	323.24
373.117	325.27
373.498	315.33
373.879	308.33
374.26	312.17
374.641	324.14
375.021	336.8
375.402	319.17
375.783	315.78
376.163	331.83
376.544	322.11
376.925	317.59
377.305	316.69
377.686	332.28
378.066	322.11
378.447	338.83
378.827	332.28
379.208	327.53
379.588	330.92
379.968	334.77
380.349	330.02
380.729	316.46
381.109	343.13
381.489	342.67
381.87	333.18
382.25	332.28
382.63	339.06
383.01	381.32
383.39	342.22
383.77	354.65
384.15	342.45
384.53	334.09
384.91	345.16
385.29	350.81
385.67	368.21
386.049	353.75
386.429	361.66
386.809	358.04
387.189	367.53
387.568	352.62
387.948	357.82
388.328	342
388.707	353.75
389.087	369.34
389.466	362.34
389.846	376.57
390.225	357.14
390.605	370.24
390.984	365.72
391.363	356.46
391.743	377.02
392.122	388.1
392.501	366.63
392.881	372.5
393.26	378.38
393.639	394.42
394.018	388.55
394.397	374.76
394.776	367.08
395.155	397.14
395.534	365.5
395.913	398.72
396.292	389.45
396.671	405.72
397.05	387.65
397.429	398.04
397.808	388.32
398.186	388.1
398.565	373.86
398.944	380.87
399.323	380.19
399.701	398.94
400.08	402.33
400.458	385.39
400.837	419.73
401.215	407.31
401.594	406.63
401.972	403.92
402.351	411.15
402.729	414.54
403.107	406.18
403.486	410.47
403.864	407.98
404.242	414.09
404.62	410.02
404.999	429.45
405.377	412.05
405.755	419.96
406.133	411.6
406.511	427.64
406.889	440.53
407.267	412.96
407.645	444.14
408.023	439.62
408.401	424.71
408.779	438.72
409.156	450.24
409.534	435.33
409.912	427.64
410.29	462.9
410.667	460.86
411.045	465.84
411.422	467.87
411.8	469.9
412.178	456.8
412.555	464.93
412.933	464.25
413.31	521.88
413.687	486.17
414.065	493.63
414.442	484.37
414.819	497.47
415.197	514.65
415.574	499.51
415.951	477.13
416.328	522.56
416.705	504.93
417.082	510.81
417.46	530.92
417.837	512.84
418.214	536.79
418.591	533.4
418.967	524.59
419.344	516
419.721	546.06
420.098	531.14
420.475	530.69
420.852	528.21
421.228	542.67
421.605	543.35
421.982	581.31
422.358	544.25
422.735	560.07
423.111	554.19
423.488	556.68
423.864	560.75
424.241	590.35
424.617	598.26
424.994	603.46
425.37	594.65
425.746	602.33
426.123	588.77
426.499	599.17
426.875	594.65
427.251	613.85
427.627	604.36
428.003	613.4
428.379	619.05
428.756	609.56
429.132	632.61
429.507	620.41
429.883	655.43
430.259	655.66
430.635	667.41
431.011	675.32
431.387	686.62
431.763	677.36
432.138	690.01
432.514	692.95
432.89	655.89
433.265	710.8
433.641	706.28
434.016	713.29
434.392	721.65
434.767	722.33
435.143	733.62
435.518	738.82
435.894	745.6
436.269	736.56
436.644	767.3
437.02	764.13
437.395	768.2
437.77	781.08
438.145	794.41
438.52	784.7
438.895	824.92
439.271	798.71
439.646	793.96
440.021	814.98
440.395	821.53
440.77	813.17
441.145	844.13
441.52	830.8
441.895	840.97
442.27	848.88
442.645	872.38
443.019	878.48
443.394	863.79
443.769	876.45
444.143	893.39
444.518	883.45
444.892	894.98
445.267	893.62
445.641	897.69
446.016	888.87
446.39	920.74
446.764	911.47
447.139	907.63
447.513	906.95
447.887	906.95
448.262	919.38
448.636	920.06
449.01	940.85
449.384	976.1
449.758	965.26
450.132	976.56
450.506	952.6
450.88	986.73
451.254	985.37
451.628	998.02
452.002	1022.43
452.376	1020.17
452.75	1015.88
453.123	1049.55
453.497	1043.45
453.871	1054.29
454.244	1058.36
454.618	1082.09
454.992	1054.75
455.365	1066.5
455.739	1090.9
456.112	1133.16
456.486	1131.35
456.859	1114.18
457.232	1168.87
457.606	1159.15
457.979	1198.7
458.352	1207.28
458.725	1192.37
459.099	1206.15
459.472	1263.1
459.845	1240.5
460.218	1281.86
460.591	1278.7
460.964	1273.5
461.337	1334.29
461.71	1322.76
462.083	1334.29
462.456	1376.55
462.829	1408.18
463.201	1407.51
463.574	1434.17
463.947	1424.91
464.32	1439.37
464.692	1455.64
465.065	1441.18
465.438	1498.35
465.81	1509.42
466.183	1556.2
466.555	1583.32
466.928	1575.41
467.3	1605.24
467.672	1632.36
468.045	1676.65
468.417	1654.05
468.789	1705.12
469.161	1719.36
469.534	1779.92
469.906	1806.82
470.278	1822.18
470.65	1885.46
471.022	1910.99
471.394	1944.44
471.766	1960.03
472.138	2040.71
472.51	2034.16
472.882	2093.82
473.253	2113.93
473.625	2167.49
473.997	2193.47
474.369	2256.52
474.74	2287.03
475.112	2341.27
475.484	2397.99
475.855	2451.32
476.227	2520.24
476.598	2603.86
476.97	2645.44
477.341	2719.34
477.713	2747.81
478.084	2844.3
478.455	2923.62
478.827	2963.4
479.198	3069.61
479.569	3127.01
479.94	3248.81
480.311	3254.69
480.682	3416.72
481.053	3479.32
481.424	3534.91
481.795	3606.32
482.166	3711.85
482.537	3812.64
482.908	3942.35
483.279	4001.79
483.65	4115.68
484.021	4263.25
484.391	4314.1
484.762	4421.44
485.133	4537.14
485.503	4637.02
485.874	4751.37
486.244	4838.83
486.615	5000.63
486.985	5126.73
487.356	5287.86
487.726	5372.15
488.097	5500.73
488.467	5623.21
488.837	5750.44
489.207	5881.06
489.578	6046.03
489.948	6162.41
490.318	6279.02
490.688	6378.9
491.058	6533.02
491.428	6687.14
491.798	6821.83
492.168	6979.79
492.538	7065.21
492.908	7196.96
493.278	7371.19
493.648	7435.14
494.017	7524.86
494.387	7779.54
494.757	7765.08
495.126	7996.03
495.496	8000.1
495.866	8168.91
496.235	8317.38
496.605	8523.25
496.974	8571.61
497.344	8627.88
497.713	8735.9
498.082	8851.15
498.452	8981.32
498.821	9115.55
499.19	9171.82
499.559	9273.06
499.928	9399.16
500.298	9420.18
500.667	9594.63
501.036	9620.17
501.405	9720.06
501.774	9774.07
502.143	9915.98
502.512	10007.73
502.88	10092.47
503.249	10146.48
503.618	10289.08
503.987	10285.24
504.356	10421.96
504.724	10457.89
505.093	10492.92
505.462	10564.33
505.83	10596.19
506.199	10826.69
506.567	10871.66
506.936	10939.01
507.304	11107.82
507.672	11137.65
508.041	11197.76
508.409	11167.47
508.777	11359.11
509.145	11439.33
509.514	11358.2
509.882	11414.02
510.25	11552.55
510.618	11551.19
510.986	11608.59
511.354	11688.36
511.722	11730.62
512.09	11837.29
512.458	11889.72
512.826	11963.84
513.193	11983.72
513.561	12004.29
513.929	12130.39
514.297	12106.21
514.664	12208.58
515.032	12298.74
515.4	12335.58
515.767	12371.51
516.135	12394.56
516.502	12310.27
516.869	12510.04
517.237	12540.55
517.604	12458.06
517.972	12615.12
518.339	12599.75
518.706	12601.34
519.073	12625.97
519.44	12661.67
519.808	12737.83
520.175	12770.82
520.542	12953.64
520.909	12930.82
521.276	12814.66
521.643	12964.94
522.009	13008.33
522.376	12927.2
522.743	13063.24
523.11	13161.55
523.477	13180.98
523.843	13264.59
524.21	13322.22
524.577	13386.4
524.943	13345.04
525.31	13350.69
525.676	13428.88
526.043	13443.57
526.409	13432.05
526.776	13485.38
527.142	13509.79
527.508	13484.02
527.874	13600.18
528.241	13586.85
528.607	13577.13
528.973	13623.68
529.339	13637.24
529.705	13657.13
530.071	13729.67
530.437	13668.43
530.803	13708.88
531.169	13771.02
531.535	13614.42
531.901	13670.91
532.267	13654.19
532.632	13715.66
532.998	13595.21
533.364	13634.08
533.73	13697.35
534.095	13671.59
534.461	13739.84
534.826	13660.29
535.192	13680.4
535.557	13746.62
535.923	13591.59
536.288	13663.68
536.653	13596.56
537.019	13535.1
537.384	13538.94
537.749	13526.51
538.114	13498.26
538.479	13532.84
538.845	13476.57
539.21	13413.29
539.575	13373.97
539.94	13379.62
540.305	13376.68
540.67	13293.75
541.034	13350.92
541.399	13367.64
541.764	13354.08
542.129	13283.35
542.494	13272.05
542.858	13248.1
543.223	13179.63
543.587	13200.64
543.952	13154.09
544.316	13011.72
544.681	13077.26
545.045	13157.25
545.41	13102.57
545.774	13054.2
546.138	13067.09
546.503	12946.86
546.867	12923.36
547.231	12946.64
547.595	12940.08
547.959	12817.6
548.324	12819.63
548.688	12827.54
549.052	12803.14
549.416	12741.44
549.779	12740.77
550.143	12705.51
550.507	12737.6
550.871	12630.49
551.235	12609.7
551.599	12686.3
551.962	12535.35
552.326	12575.8
552.689	12696.25
553.053	12522.24
553.417	12533.99
553.78	12616.25
554.143	12464.62
554.507	12502.58
554.87	12464.62
555.234	12550.94
555.597	12463.03
555.96	12478.4
556.323	12452.64
556.686	12423.26
557.05	12484.28
557.413	12413.77
557.776	12362.7
558.139	12397.5
558.502	12399.08
558.865	12325.64
559.228	12491.51
559.59	12507.55
559.953	12406.31
560.316	12450.83
560.679	12468.01
561.041	12488.8
561.404	12509.36
561.767	12524.5
562.129	12418.52
562.492	12551.39
562.854	12491.28
563.217	12459.87
563.579	12470.49
563.941	12538.29
564.304	12559.98
564.666	12617.61
565.028	12564.73
565.39	12529.92
565.753	12517.27
566.115	12620.32
566.477	12554.1
566.839	12567.89
567.201	12630.26
567.563	12607.66
567.925	12666.64
568.287	12642.46
568.648	12582.13
569.01	12679.3
569.372	12769.24
569.734	12648.79
570.095	12738.51
570.457	12754.1
570.819	12864.61
571.18	12762.01
571.542	12785.74
571.903	12751.84
572.265	12837.49
572.626	12810.82
572.987	12871.38
573.349	12846.07
573.71	12850.37
574.071	12855.79
574.432	12843.81
574.794	12957.03
575.155	12853.53
575.516	12827.54
575.877	12903.02
576.238	12898.28
576.599	12883.14
576.96	12928.11
577.32	12893.98
577.681	12978.95
578.042	13010.82
578.403	12873.19
578.763	12967.2
579.124	12982.34
579.485	12966.52
579.845	13015.11
580.206	13000.42
580.566	12990.25
580.927	13002.45
581.287	12985.05
581.648	12925.62
582.008	13019.18
582.368	13023.92
582.728	13011.72
583.089	13031.15
583.449	12955.68
583.809	13024.15
584.169	12927.2
584.529	12934.89
584.889	13047.2
585.249	12963.13
585.609	12898.73
585.969	12981.89
586.329	12925.39
586.688	12978.73
587.048	12909.58
587.408	12868.67
587.768	12784.38
588.127	12840.88
588.487	12865.06
588.846	12897.37
589.206	12845.4
589.565	12720.2
589.925	12876.13
590.284	12905.96
590.643	12908.9
591.003	12859.63
591.362	12817.37
591.721	12840.2
592.08	12898.28
592.44	12820.09
592.799	12860.76
593.158	12770.6
593.517	12851.27
593.876	12814.89
594.235	12782.8
594.593	12757.72
594.952	12776.25
595.311	12715
595.67	12792.97
596.029	12858.05
596.387	12787.55
596.746	12804.72
597.104	12692.18
597.463	12754.33
597.822	12746.42
598.18	12712.97
598.538	12762.46
598.897	12685.63
599.255	12620.32
599.613	12818.73
599.972	12757.49
600.33	12731.5
600.688	12705.06
601.046	12674.33
601.404	12851.72
601.762	12719.98
602.12	12849.92
602.478	12829.13
602.836	12778.28
603.194	12746.87
603.552	12763.14
603.91	12671.39
604.268	12725.4
604.625	12724.27
604.983	12769.92
605.341	12705.51
605.698	12809.69
606.056	12801.1
606.413	12724.27
606.771	12764.72
607.128	12795.23
607.485	12746.19
607.843	12703.48
608.2	12777.15
608.557	12788.68
608.914	12794.78
609.272	12836.36
609.629	12837.26
609.986	12913.87
610.343	12816.47
610.7	12886.07
611.057	12887.43
611.414	12839.52
611.771	12857.37
612.127	13002
612.484	12921.33
612.841	12998.61
613.198	13025.73
613.554	12886.53
613.911	12978.27
614.267	13048.1
614.624	12925.17
614.98	12976.01
615.337	12968.56
615.693	12969.91
616.05	12985.96
616.406	13084.49
616.762	12994.55
617.118	12959.74
617.475	13029.57
617.831	13020.99
618.187	13076.35
618.543	13154.99
618.899	13118.16
619.255	13183.47
619.611	13113.64
619.967	13185.95
620.323	13176.24
620.678	13170.59
621.034	13124.49
621.39	13139.63
621.746	13077.26
622.101	13262.33
622.457	13187.31
622.812	13058.72
623.168	13202
623.523	13182.11
623.879	13229.57
624.234	13112.73
624.589	13063.47
624.945	13150.47
625.3	13206.29
625.655	13146.18
626.01	13089.46
626.365	13159.29
626.72	13051.94
627.075	13087.2
627.43	13091.04
627.785	13040.19
628.14	13041.55
628.495	13066.41
628.85	13057.37
629.205	13011.27
629.559	13084.26
629.914	13086.75
630.269	13081.1
630.623	12994.09
630.978	13025.05
631.332	13060.76
631.687	13108.89
632.041	13013.3
632.396	13025.96
632.75	12950.7
633.104	12957.94
633.459	12893.31
633.813	12799.75
634.167	12933.08
634.521	12874.1
634.875	12864.83
635.229	12918.62
635.583	12882.01
635.937	12896.47
636.291	12818.5
636.645	12790.26
636.999	12779.41
637.352	12953.19
637.706	12712.97
638.06	12765.62
638.413	12755.23
638.767	12719.52
639.121	12700.32
639.474	12726.53
639.828	12646.08
640.181	12626.19
640.534	12697.6
640.888	12697.38
641.241	12613.76
641.594	12606.76
641.947	12640.2
642.301	12666.19
642.654	12556.14
643.007	12664.16
643.36	12566.76
643.713	12575.57
644.066	12580.32
644.419	12562.47
644.771	12507.33
645.124	12397.05
645.477	12348.23
645.83	12208.8
646.182	12244.73
646.535	12139.2
646.888	12097.17
647.24	12086.32
647.593	12168.58
647.945	12098.75
648.298	12084.29
648.65	12094.46
649.002	11984.63
649.355	12134.91
649.707	12087.22
650.059	12172.42
650.411	12331.96
650.763	12314.79
651.115	12444.96
651.467	12420.55
651.819	12510.72
652.171	12478.63
652.523	12517.27
652.875	12395.92
653.227	12384.84
653.578	12439.76
653.93	12412.41
654.282	12341.68
654.633	12343.26
654.985	12308.69
655.337	12406.09
655.688	12405.41
656.039	12323.6
656.391	12345.97
656.742	12372.87
657.094	12374.45
657.445	12337.39
657.796	12329.93
658.147	12374
658.498	12381.45
658.849	12305.75
659.2	12390.27
659.551	12262.59
659.902	12299.65
660.253	12324.28
660.604	12320.21
660.955	12330.38
661.306	12353.88
661.656	12321.34
662.007	12414.45
662.358	12400.89
662.708	12412.19
663.059	12348.01
663.409	12303.72
663.76	12413.32
664.11	12469.81
664.461	12439.53
664.811	12537.83
665.161	12430.04
665.511	12425.97
665.862	12335.58
666.212	12383.26
666.562	12435.24
666.912	12438.18
667.262	12383.49
667.612	12415.8
667.962	12467.1
668.312	12371.06
668.662	12341.91
669.011	12435.69
669.361	12390.04
669.711	12300.33
670.06	12357.27
670.41	12340.55
670.76	12288.12
671.109	12330.61
671.459	12264.85
671.808	12385.97
672.157	12346.2
672.507	12275.24
672.856	12319.76
673.205	12272.76
673.554	12323.6
673.904	12264.85
674.253	12327.22
674.602	12218.52
674.951	12084.06
675.3	12029.15
675.649	12277.73
675.998	12227.33
676.346	12282.93
676.695	12297.39
677.044	12198.63
677.393	12180.56
677.741	12191.63
678.09	12171.29
678.438	12215.81
678.787	12207.22
679.135	12192.98
679.484	12073.67
679.832	12156.38
680.181	12009.26
680.529	12076.83
680.877	12021.24
681.225	12025.53
681.573	12084.51
681.922	12038.41
682.27	11905.08
682.618	11920.68
682.966	11854.91
683.314	11917.96
683.661	11749.38
684.009	11759.1
684.357	11793
684.705	11677.29
685.053	11728.36
685.4	11663.96
685.748	11586.9
686.095	11627.8
686.443	11648.82
686.79	11569.95
687.138	11582.38
687.485	11567.46
687.832	11545.77
688.18	11572.66
688.527	11484.53
688.874	11395.94
689.221	11395.04
689.568	11323.18
689.915	11313.46
690.262	11395.72
690.609	11313.69
690.956	11287.25
691.303	11312.33
691.65	11204.76
691.997	11242.95
692.344	11186.46
692.69	11146.46
693.037	11092
693.383	11042.96
693.73	10955.95
694.077	10926.13
694.423	10979.01
694.769	10920.7
695.116	10835.96
695.462	10837.99
695.808	10825.34
696.155	10825.79
696.501	10699.24
696.847	10757.77
697.193	10600.03
697.539	10653.14
697.885	10600.26
698.231	10536.3
698.577	10567.49
698.923	10493.59
699.269	10502.86
699.614	10360.04
699.96	10363.43
700.306	10354.16
700.651	10318.01
700.997	10239.59
701.342	10254.5
701.688	10255.63
702.033	10142.42
702.379	10087.5
702.724	10160.04
703.069	10089.76
703.415	10006.15
703.76	9956.66
704.105	9985.36
704.45	9927.73
704.795	9892.03
705.14	9914.85
705.485	9838.7
705.83	9810
706.175	9799.83
706.52	9742.2
706.865	9708.76
707.209	9746.27
707.554	9682.09
707.899	9715.08
708.243	9627.4
708.588	9584.92
708.932	9610.45
709.277	9614.75
709.621	9526.16
709.966	9483
710.31	9507.86
710.654	9487.07
710.998	9456.56
711.342	9401.42
711.687	9417.69
712.031	9327.07
712.375	9361.65
712.719	9310.12
713.063	9285.26
713.407	9334.75
713.75	9202.78
714.094	9281.42
714.438	9229.22
714.782	9277.35
715.125	9159.62
715.469	9204.81
715.812	9161.43
716.156	9117.59
716.499	9144.03
716.843	9113.97
717.186	9069.68
717.53	9166.4
717.873	9083.46
718.216	9051.82
718.559	9016.57
718.902	9024.25
719.246	8948.78
719.589	8979.51
719.932	8942.22
720.275	8942.67
720.617	8932.96
720.96	8965.05
721.303	8937.48
721.646	8873.75
721.989	8868.33
722.331	8875.78
722.674	8888.66
723.016	8856.35
723.359	8838.95
723.701	8890.7
724.044	8831.26
724.386	8800.31
724.729	8807.54
725.071	8865.61
725.413	8777.03
725.755	8838.5
726.097	8740.87
726.439	8701.32
726.782	8753.3
727.124	8756.92
727.465	8748.56
727.807	8702
728.149	8686.41
728.491	8712.4
728.833	8716.01
729.175	8698.61
729.516	8680.99
729.858	8682.12
730.199	8722.12
730.541	8676.69
730.882	8634.66
731.224	8720.08
731.565	8704.26
731.906	8669.91
732.248	8717.6
732.589	8628.11
732.93	8656.35
733.271	8662.23
733.612	8672.85
733.953	8722.34
734.294	8644.15
734.635	8681.66
734.976	8647.77
735.317	8552.4
735.658	8651.16
735.999	8582.91
736.339	8664.26
736.68	8676.47
737.021	8703.36
737.361	8628.56
737.702	8606.86
738.042	8649.12
738.383	8516.92
738.723	8664.94
739.063	8666.07
739.404	8715.34
739.744	8695.68
740.084	8675.34
740.424	8743.36
740.764	8683.47
741.104	8755.56
741.444	8722.57
741.784	8688.22
742.124	8829.01
742.464	8757.37
742.804	8736.58
743.143	8805.5
743.483	8853.86
743.823	8777.93
744.162	8847.76
744.502	8923.01
744.841	8901.09
745.181	8978.83
745.52	8969.34
745.86	8963.92
746.199	8996.68
746.538	9060.41
746.877	9051.6
747.216	9160.07
747.556	9174.31
747.895	9212.5
748.234	9211.14
748.573	9293.17
748.911	9377.47
749.25	9365.49
749.589	9434.19
749.928	9492.72
750.267	9602.09
750.605	9571.36
750.944	9632.6
751.283	9731.13
751.621	9796.21
751.96	9888.64
752.298	10000.95
752.636	10024.23
752.975	10131.12
753.313	10198.23
753.651	10338.12
753.989	10434.84
754.327	10452.69
754.666	10484.55
755.004	10721.16
755.342	10830.53
755.679	10852.23
756.017	11014.94
756.355	11197.08
756.693	11247.92
757.031	11431.2
757.368	11519.78
757.706	11679.1
758.044	11752.32
758.381	11955.25
758.719	12022.59
759.056	12296.48
759.394	12402.24
759.731	12439.53
760.068	12733.08
760.405	12753.87
760.743	12935.56
761.08	13216.23
761.417	13208.33
761.754	13382.33
762.091	13608.77
762.428	13604.47
762.765	13824.35
763.102	14086.72
763.438	14157.45
763.775	14263.66
764.112	14474.96
764.449	14644.67
764.785	14697.55
765.122	14865.68
765.458	14906.13
765.795	15102.29
766.131	15373.69
766.467	15307.7
766.804	15375.95
767.14	15558.32
767.476	15812.1
767.812	15834.7
768.148	16025.65
768.485	16123.5
768.821	16225.87
769.157	16272.88
769.492	16398.98
769.828	16557.62
770.164	16535.24
770.5	16632.64
770.836	16798.06
771.171	16861.56
771.507	16889.13
771.842	16911.73
772.178	17201.44
772.513	17245.51
772.849	17278.95
773.184	17268.56
773.519	17501.09
773.855	17476.91
774.19	17528.89
774.525	17516.23
774.86	17663.35
775.195	17672.39
775.53	17674.65
775.865	17648.89
776.2	17824.02
776.535	17753.29
776.87	17867.86
777.205	17915.55
777.539	17951.48
777.874	18033.96
778.209	17898.37
778.543	18002.78
778.878	17927.52
779.212	18015.66
779.547	17982.89
779.881	18081.64
780.215	17972.27
780.55	18146.73
780.884	18020.18
781.218	18142.88
781.552	18159.16
781.886	18091.59
782.22	18126.39
782.554	18080.74
782.888	17927.52
783.222	17964.36
783.556	17966.39
783.889	17921.42
784.223	17903.12
784.557	18017.46
784.89	18006.16
785.224	17914.42
785.557	17873.06
785.891	17791.93
786.224	17937.47
786.558	17913.96
786.891	17779.96
787.224	17753.29
787.557	17760.52
787.891	17785.15
788.224	17706.74
788.557	17787.41
788.89	17852.04
789.223	17713.07
789.556	17633.29
789.888	17635.55
790.221	17631.26
790.554	17486.4
790.887	17525.5
791.219	17466.07
791.552	17462
791.884	17365.05
792.217	17326.86
792.549	17405.73
792.882	17316.92
793.214	17202.34
793.546	17297.71
793.879	17210.71
794.211	17110.37
794.543	17056.59
794.875	17105.4
795.207	17211.16
795.539	17060.43
795.871	17064.72
796.203	16973.2
796.535	16833.99
796.867	16896.36
797.198	16855.69
797.53	16811.39
797.862	16737.72
798.193	16757.38
798.525	16777.72
798.856	16735.46
799.188	16556.94
799.519	16448.47
799.85	16476.26
800.182	16455.02
800.513	16507.45
800.844	16305.19
801.175	16426.77
801.506	16440.56
801.837	16308.58
802.168	16281.24
802.499	16276.27
802.83	16148.13
803.161	16109.94
803.491	16156.72
803.822	16156.5
804.153	16068.59
804.483	15977.52
804.814	15833.34
805.145	15845.54
805.475	15830.4
805.805	15789.27
806.136	15818.43
806.466	15846.67
806.796	15806.9
807.126	15657.75
807.457	15607.13
807.787	15707.92
808.117	15552.9
808.447	15500.92
808.777	15546.79
809.107	15514.93
809.436	15493.46
809.766	15439.45
810.096	15381.83
810.426	15349.74
810.755	15370.75
811.085	15325.56
811.414	15360.81
811.744	15216.18
812.073	15125.11
812.403	15173.7
812.732	15108.61
813.061	15085.11
813.39	15001.27
813.719	15041.95
814.049	15101.61
814.378	14971.22
814.707	14966.47
815.036	14977.77
815.365	14878.34
815.693	14760.83
816.022	14737.55
816.351	14810.99
816.68	14682.41
817.008	14822.97
817.337	14718.57
817.665	14628.85
817.994	14570.55
818.322	14529.65
818.651	14554.05
818.979	14495.07
819.307	14591.11
819.636	14495.52
819.964	14537.56
820.292	14493.49
820.62	14422.98
820.948	14468.63
821.276	14472.25
821.604	14410.33
821.932	14481.96
822.259	14408.75
822.587	14418.46
822.915	14401.97
823.243	14408.52
823.57	14418.24
823.898	14412.14
824.225	14414.17
824.553	14384.11
824.88	14428.86
825.207	14508.86
825.535	14369.42
825.862	14473.6
826.189	14411.46
826.516	14479.7
826.843	14524.22
827.17	14527.16
827.497	14503.66
827.824	14493.49
828.151	14439.71
828.478	14387.96
828.805	14439.03
829.131	14442.42
829.458	14372.81
829.785	14420.04
830.111	14394.28
830.438	14451
830.764	14474.96
831.09	14363.77
831.417	14302.31
831.743	14462.3
832.069	14372.14
832.395	14276.09
832.722	14369.65
833.048	14339.59
833.374	14350.67
833.7	14288.97
834.026	14276.77
834.351	14334.62
834.677	14233.38
835.003	14359.48
835.329	14276.09
835.654	14279.94
835.98	14208.3
836.306	14243.78
836.631	14197.9
836.956	14204.46
837.282	14219.15
837.607	14140.73
837.932	14089.88
838.258	14110.22
838.583	14068.42
838.908	14036.78
839.233	14060.96
839.558	14059.38
839.883	13976.67
840.208	13902.54
840.533	13925.14
840.858	13911.36
841.182	13972.6
841.507	13911.36
841.832	13835.2
842.156	13841.53
842.481	13767.63
842.805	13792.72
843.13	13789.33
843.454	13772.15
843.778	13678.6
844.103	13698.93
844.427	13627.52
844.751	13648.77
845.075	13608.09
845.399	13527.41
845.723	13488.09
846.047	13485.15
846.371	13299.62
846.695	13358.83
847.019	13162.68
847.343	13158.38
847.666	13158.16
847.99	13067.54
848.313	13017.14
848.637	13049.01
848.96	13004.26
849.284	12956.58
849.607	12843.59
849.931	12877.49
850.254	12718.62
850.577	12752.29
850.9	12644.95
851.223	12542.58
851.546	12537.16
851.869	12462.13
852.192	12543.94
852.515	12351.17
852.838	12328.12
853.161	12289.48
853.483	12267.78
853.806	12201.8
854.129	12168.13
854.451	12107.11
854.774	12101.46
855.096	12032.99
855.419	12060.11
855.741	11976.49
856.063	11949.15
856.385	11895.82
856.708	11913.67
857.03	11821.02
857.352	11845.87
857.674	11865.54
857.996	11797.51
858.318	11685.88
858.64	11707.8
858.961	11648.37
859.283	11621.47
859.605	11543.51
859.926	11588.25
860.248	11517.97
860.57	11499.22
860.891	11490.63
861.212	11380.35
861.534	11345.55
861.855	11317.3
862.176	11317.3
862.498	11381.48
862.819	11295.83
863.14	11240.69
863.461	11329.73
863.782	11221.03
864.103	11307.13
864.424	11219
864.745	11237.08
865.065	11118.44
865.386	11104.88
865.707	11137.87
866.027	11061.94
866.348	11065.78
866.668	11087.93
866.989	11021.72
867.309	10907.37
867.63	11053.35
867.95	10945.79
868.27	10884.54
868.59	10967.93
868.91	10889.97
869.23	10995.28
869.55	10925.22
869.87	10929.29
870.19	10813.59
870.51	10909.4
870.83	10856.97
871.15	10855.84
871.469	10708.5
871.789	10767.94
872.109	10725.45
872.428	10724.1
872.748	10784.21
873.067	10692.68
873.386	10669.86
873.706	10693.81
874.025	10633.03
874.344	10652.69
874.663	10579.02
874.982	10599.13
875.301	10626.92
875.62	10520.03
875.939	10555.06
876.258	10661.5
876.577	10491.79
876.896	10469.87
877.214	10508.28
877.533	10491.56
877.852	10421.51
878.17	10427.16
878.489	10483.65
878.807	10365.91
879.125	10404.56
879.444	10386.93
879.762	10397.55
880.08	10394.16
880.398	10215.86
880.716	10299.47
881.034	10280.94
881.352	10206.37
881.67	10234.84
881.988	10200.04
882.306	10086.6
882.624	10118.01
882.941	10092.25
883.259	10067.84
883.577	10038.01
883.894	10062.42
884.212	10028.75
884.529	10045.7
884.846	9995.3
885.164	9964.79
885.481	9941.74
885.798	9902.65
886.115	9835.31
886.432	9874.18
886.75	9861.97
887.067	9822.2
887.383	9826.04
887.7	9724.57
888.017	9774.52
888.334	9735.87
888.651	9697.91
888.967	9739.94
889.284	9701.52
889.6	9678.7
889.917	9546.27
890.233	9581.98
890.55	9540.62
890.866	9537.01
891.182	9465.37
891.498	9459.27
891.815	9374.08
892.131	9394.87
892.447	9387.41
892.763	9295.66
893.079	9393.51
893.395	9328.88
893.71	9304.25
894.026	9211.59
894.342	9233.06
894.657	9167.75
894.973	9111.94
895.289	9156.68
895.604	9152.39
895.92	9099.73
896.235	9006.4
896.55	9073.97
896.865	9008.89
897.181	8958.72
897.496	8910.81
897.811	8915.33
898.126	8913.3
898.441	8804.37
898.756	8791.04
899.071	8744.71
899.386	8731.61
899.7	8685.73
900.015	8634.43
900.33	8638.28
900.644	8660.2
900.959	8539.75
901.273	8473.08
901.588	8501.1
901.902	8462.91
902.216	8417.49
902.531	8446.87
902.845	8414.33
903.159	8320.54
903.473	8291.62
903.787	8241.68
904.101	8251.85
904.415	8245.29
904.729	8173.43
905.042	8084.17
905.356	8116.26
905.67	8085.3
905.984	8070.83
906.297	8027.44
906.611	8021.12
906.924	7965.53
907.237	7935.47
907.551	7852.31
907.864	7937.73
908.177	7863.61
908.491	7797.39
908.804	7772.54
909.117	7703.84
909.43	7648.25
909.743	7680.56
910.056	7705.87
910.368	7648.92
910.681	7538.42
910.994	7522.15
911.307	7560.79
911.619	7460.68
911.932	7511.75
912.244	7411.19
912.557	7478.76
912.869	7366.44
913.181	7346.56
913.494	7340.91
913.806	7177.3
914.118	7193.79
914.43	7191.08
914.742	7145.43
915.054	7166
915.366	7116.51
915.678	7081.71
915.99	7014.82
916.302	7017.75
916.613	6971.43
916.925	6959.68
917.236	6963.29
917.548	6920.35
917.859	6949.28
918.171	6917.87
918.482	6860.47
918.794	6845.1
919.105	6844.65
919.416	6800.36
919.727	6761.71
920.038	6747.93
920.349	6691.43
920.66	6668.61
920.971	6695.05
921.282	6616.18
921.593	6578.22
921.903	6541.16
922.214	6488.5
922.525	6492.12
922.835	6485.11
923.146	6477.88
923.456	6434.72
923.767	6385
924.077	6347.71
924.387	6352.01
924.697	6340.26
925.008	6264.1
925.318	6219.81
925.628	6254.16
925.938	6262.52
926.248	6132.8
926.558	6176.87
926.867	6139.58
927.177	6124.22
927.487	6114.73
927.796	6046.93
928.106	6019.14
928.416	5973.71
928.725	6010.55
929.034	5959.02
929.344	5969.87
929.653	5950.21
929.962	5855.52
930.271	5901.85
930.581	5829.76
930.89	5806.94
931.199	5811.91
931.508	5749.09
931.817	5807.39
932.125	5750.22
932.434	5745.7
932.743	5704.12
933.051	5632.71
933.36	5654.17
933.669	5602.65
933.977	5556.1
934.286	5565.36
934.594	5532.14
934.902	5441.52
935.21	5510
935.519	5530.11
935.827	5487.4
936.135	5406.72
936.443	5402.2
936.751	5332.83
937.059	5351.58
937.367	5322.66
937.674	5307.74
937.982	5290.34
938.29	5279.27
938.597	5254.18
938.905	5225.48
939.213	5110.68
939.52	5179.38
939.827	5204.02
940.135	5131.93
940.442	5126.96
940.749	5083.57
941.056	5068.65
941.363	5058.48
941.67	5037.01
941.977	4995.43
942.284	4968.32
942.591	4965.6
942.898	4885.15
943.205	4953.17
943.511	4881.31
943.818	4868.21
944.125	4839.28
944.431	4797.92
944.738	4813.29
945.044	4761.99
945.35	4763.58
945.657	4775.78
945.963	4751.6
946.269	4720.19
946.575	4716.57
946.881	4657.14
947.187	4669.34
947.493	4626.63
947.799	4633.18
948.105	4623.01
948.41	4579.4
948.716	4565.84
949.022	4524.49
949.327	4519.74
949.633	4486.75
949.938	4521.32
950.244	4462.11
950.549	4463.47
950.854	4412.62
951.16	4393.42
951.465	4387.54
951.77	4305.51
952.075	4366.07
952.38	4324.94
952.685	4300.99
952.99	4270.71
953.294	4263.02
953.599	4249.46
953.904	4249.24
954.209	4204.27
954.513	4203.36
954.818	4172.86
955.122	4162.91
955.426	4129.24
955.731	4182.57
956.035	4091.28
956.339	4121.56
956.643	4092.18
956.948	4070.71
957.252	4035.01
957.556	4035.91
957.86	4013.99
958.163	3977.83
958.467	3962.92
958.771	4020.54
959.075	3979.42
959.378	3869.81
959.682	3911.85
959.985	3860.77
960.289	3889.25
960.592	3869.59
960.896	3853.99
961.199	3814.67
961.502	3794.79
961.805	3813.09
962.108	3774.45
962.411	3750.72
962.714	3729.03
963.017	3777.16
963.32	3716.6
963.623	3700.55
963.926	3666.66
964.228	3665.3
964.531	3625.98
964.833	3644.06
965.136	3651.29
965.438	3594.34
965.741	3544.62
966.043	3564.28
966.345	3525.64
966.648	3537.39
966.95	3539.88
967.252	3500.33
967.554	3476.6
967.856	3450.84
968.158	3415.36
968.46	3475.02
968.761	3425.98
969.063	3384.63
969.365	3383.05
969.666	3366.32
969.968	3349.38
970.269	3350.05
970.571	3356.15
970.872	3325.87
971.174	3329.26
971.475	3304.4
971.776	3292.65
972.077	3241.58
972.378	3280.9
972.679	3241.81
972.98	3231.64
973.281	3226.21
973.582	3199.1
973.883	3191.41
974.183	3171.3
974.484	3196.38
974.785	3122.71
975.085	3164.97
975.386	3134.47
975.686	3100.12
975.986	3111.19
976.287	3096.5
976.587	3074.81
976.887	3019.21
977.187	3038.87
977.487	3046.78
977.787	3048.59
978.087	2983.74
978.387	2970.18
978.687	2993
978.987	2939.67
979.286	2948.93
979.586	2939.22
979.885	2901.25
980.185	2899.22
980.484	2850.18
980.784	2894.25
981.083	2872.78
981.382	2871.42
981.682	2870.97
981.981	2805.89
982.28	2821.25
982.579	2806.34
982.878	2769.73
983.177	2785.55
983.475	2737.87
983.774	2764.53
984.073	2716.4
984.372	2756.17
984.67	2719.11
984.969	2675.95
985.267	2686.57
985.566	2700.8
985.864	2668.94
986.162	2667.13
986.461	2607.93
986.759	2645.89
987.057	2588.94
987.355	2593.69
987.653	2588.72
987.951	2581.26
988.249	2540.81
988.547	2529.28
988.844	2563.18
989.142	2560.92
989.44	2510.75
989.737	2483.18
990.035	2484.31
990.332	2485.67
990.63	2466.46
990.927	2478.89
991.224	2459.91
991.521	2446.35
991.819	2472.79
992.116	2460.36
992.413	2387.59
992.71	2404.09
993.006	2392.11
993.303	2381.94
993.6	2401.38
993.897	2349.63
994.193	2349.18
994.49	2339.46
994.787	2304.2
995.083	2300.36
995.379	2294.71
995.676	2308.95
995.972	2292
996.268	2280.7
996.565	2247.94
996.861	2266.92
997.157	2245
997.453	2247.26
997.749	2181.27
998.044	2226.69
998.34	2173.81
998.636	2168.16
998.932	2154.15
999.227	2142.85
999.523	2126.58
999.818	2148.05
1000.114	2141.95
1000.409	2146.92
1000.704	2097.43
1001	2092.23
1001.295	2080.71
1001.59	2113.93
1001.885	2059.24
1002.18	2045.91
1002.475	2061.27
1002.77	2032.57
1003.065	2007.72
1003.359	2038.22
1003.654	2007.72
1003.949	1992.57
1004.243	1951.9
1004.538	1965.46
1004.832	1950.09
1005.127	1957.1
1005.421	1967.26
1005.715	1929.75
1006.009	1887.49
1006.304	1882.3
1006.598	1893.82
1006.892	1857.66
1007.186	1858.57
1007.48	1843.65
1007.773	1864.22
1008.067	1848.4
1008.361	1812.01
1008.655	1833.26
1008.948	1827.61
1009.242	1804.78
1009.535	1794.16
1009.829	1774.5
1010.122	1763.65
1010.415	1753.48
1010.708	1729.3
1011.001	1714.16
1011.295	1718.91
1011.588	1729.53
1011.881	1697.22
1012.173	1672.81
1012.466	1698.12
1012.759	1678.23
1013.052	1654.96
1013.344	1649.31
1013.637	1644.11
1013.93	1618.12
1014.222	1626.48
1014.514	1602.08
1014.807	1588.29
1015.099	1621.06
1015.391	1589.65
1015.683	1616.31
1015.976	1562.76
1016.268	1601.62
1016.56	1542.64
1016.851	1536.32
1017.143	1521.85
1017.435	1539.71
1017.727	1536.09
1018.018	1538.35
1018.31	1511.68
1018.602	1493.38
1018.893	1466.03
1019.185	1455.87
1019.476	1458.8
1019.767	1464.45
1020.058	1427.17
1020.35	1436.66
1020.641	1441.63
1020.932	1426.94
1021.223	1395.75
1021.514	1421.52
1021.804	1367.51
1022.095	1403.44
1022.386	1333.38
1022.677	1340.84
1022.967	1342.87
1023.258	1317.34
1023.548	1332.71
1023.839	1306.94
1024.129	1305.59
1024.419	1292.03
1024.709	1289.09
1025	1287.06
1025.29	1321.63
1025.58	1267.62
1025.87	1260.84
1026.16	1238.24
1026.449	1270.79
1026.739	1248.41
1027.029	1239.6
1027.319	1259.03
1027.608	1224.23
1027.898	1226.49
1028.187	1215.19
1028.477	1182.43
1028.766	1219.94
1029.055	1199.6
1029.344	1184.23
1029.634	1170.9
1029.923	1156.21
1030.212	1153.27
1030.501	1140.85
1030.79	1122.77
1031.078	1116.67
1031.367	1146.27
1031.656	1120.73
1031.945	1097.23
1032.233	1102.88
1032.522	1084.12
1032.81	1094.75
1033.099	1097.23
1033.387	1088.87
1033.675	1061.3
1033.963	1068.76
1034.251	1049.55
1034.54	1042.32
1034.828	1035.76
1035.116	1009.55
1035.403	1008.19
1035.691	1019.27
1035.979	1001.87
1036.267	983.56
1036.554	989.66
1036.842	991.02
1037.129	993.5
1037.417	950.57
1037.704	967.74
1037.992	985.6
1038.279	959.61
1038.566	959.16
1038.853	959.16
1039.14	959.16
