Data from hue_50_FLMS001491_100.txt Node
Date: Mon Feb 06 15:11:22 GMT 2017
User: dcchb
Spectrometer: FLMS00149
Trigger mode: 0
Integration Time (sec): 2.000000E-2
Scans to average: 10
Electric dark correction enabled: true
Nonlinearity correction enabled: false
Boxcar width: 0
XAxis mode: Wavelengths
Number of Pixels in Spectrum: 2048
>>>>>Begin Spectral Data<<<<<
341.393	7.73
341.776	7.73
342.16	7.73
342.543	-70.92
342.927	-63.46
343.31	-61.2
343.693	-63.68
344.077	-62.55
344.46	-66.4
344.843	-46.06
345.226	-36.57
345.61	-9.67
345.993	-13.06
346.376	2.08
346.759	-1.31
347.142	20.38
347.525	24.45
347.908	71
348.291	59.48
348.674	77.78
349.057	105.35
349.44	123.43
349.823	156.87
350.206	143.32
350.588	182.64
350.971	197.78
351.354	229.41
351.737	216.76
352.119	263.31
352.502	270.09
352.884	270.32
353.267	279.13
353.65	304.67
354.032	279.36
354.414	310.77
354.797	321.84
355.179	339.92
355.562	322.52
355.944	340.37
356.326	358.68
356.709	323.2
357.091	332.46
357.473	368.17
357.855	332.24
358.238	343.31
358.62	353.71
359.002	329.3
359.384	371.11
359.766	348.96
360.148	339.92
360.53	342.86
360.912	331.11
361.294	357.1
361.676	341.95
362.057	362.52
362.439	323.42
362.821	356.87
363.203	312.12
363.584	352.35
363.966	340.15
364.348	336.98
364.729	303.76
365.111	314.16
365.493	327.72
365.874	332.91
366.256	313.03
366.637	334.72
367.019	317.55
367.4	304.22
367.781	304.22
368.163	320.94
368.544	297.44
368.925	319.58
369.306	320.94
369.688	328.4
370.069	313.93
370.45	332.24
370.831	314.16
371.212	324.33
371.593	327.27
371.974	312.58
372.355	336.08
372.736	306.25
373.117	304.22
373.498	338.56
373.879	334.95
374.26	321.39
374.641	324.55
375.021	310.54
375.402	321.16
375.783	313.25
376.163	322.75
376.544	339.02
376.925	354.16
377.305	324.33
377.686	331.11
378.066	336.3
378.447	338.11
378.827	319.81
379.208	328.62
379.588	341.5
379.968	328.85
380.349	334.04
380.729	354.16
381.109	336.76
381.489	338.11
381.87	340.82
382.25	343.54
382.63	346.47
383.01	343.31
383.39	356.87
383.77	372.91
384.15	364.55
384.53	364.55
384.91	348.96
385.29	367.49
385.67	365.23
386.049	358.9
386.429	339.92
386.809	362.07
387.189	379.47
387.568	351.9
387.948	344.44
388.328	382.18
388.707	379.02
389.087	360.48
389.466	377.43
389.846	358.23
390.225	367.49
390.605	383.54
390.984	381.05
391.363	376.53
391.743	353.48
392.122	365.23
392.501	379.47
392.881	370.43
393.26	364.1
393.639	380.15
394.018	381.95
394.397	395.29
394.776	399.35
395.155	405.68
395.534	390.99
395.913	391.9
396.292	412.01
396.671	416.08
397.05	393.03
397.429	386.92
397.808	394.16
398.186	411.11
398.565	405.91
398.944	413.14
399.323	394.16
399.701	404.33
400.08	410.43
400.458	428.28
400.837	396.42
401.215	406.36
401.594	418.11
401.972	432.12
402.351	431.22
402.729	411.56
403.107	424.89
403.486	419.92
403.864	419.47
404.242	422.63
404.62	436.42
404.999	436.19
405.377	436.64
405.755	438.9
406.133	422.18
406.511	430.54
406.889	442.29
407.267	432.8
407.645	459.69
408.023	443.87
408.401	469.41
408.779	450.2
409.156	483.19
409.534	473.02
409.912	464.21
410.29	448.17
410.667	492.46
411.045	486.36
411.422	479.35
411.8	470.31
412.178	485.91
412.555	491.1
412.933	499.46
413.31	493.36
413.687	501.95
414.065	486.36
414.442	480.71
414.819	507.15
415.197	504.44
415.574	504.89
415.951	550.54
416.328	523.42
416.705	537.66
417.082	522.29
417.46	545.79
417.837	554.38
418.214	535.85
418.591	538.79
418.967	541.72
419.344	539.01
419.721	543.53
420.098	581.95
420.475	559.35
420.852	577.88
421.228	566.81
421.605	583.08
421.982	578.33
422.358	575.62
422.735	564.77
423.111	581.72
423.488	601.38
423.864	595.73
424.241	626.69
424.617	606.81
424.994	588.5
425.37	630.08
425.746	592.12
426.123	599.57
426.499	628.95
426.875	618.78
427.251	650.65
427.627	624.43
428.003	635.96
428.379	645.68
428.756	640.25
429.132	635.73
429.507	649.06
429.883	688.39
430.259	679.12
430.635	648.16
431.011	687.48
431.387	714.15
431.763	715.28
432.138	699.68
432.514	726.8
432.89	692.23
433.265	736.07
433.641	734.49
434.016	738.55
434.392	745.33
434.767	764.32
435.143	739.68
435.518	742.85
435.894	767.25
436.269	764.99
436.644	781.72
437.02	786.24
437.395	775.16
437.77	818.1
438.145	805.9
438.52	802.96
438.895	809.74
439.271	808.83
439.646	839.79
440.021	849.29
440.395	841.38
440.77	832.34
441.145	848.61
441.52	859.68
441.895	859.45
442.27	890.41
442.645	869.62
443.019	858.1
443.394	849.74
443.769	888.15
444.143	862.84
444.518	867.14
444.892	869.4
445.267	895.16
445.641	915.72
446.016	902.62
446.39	888.61
446.764	914.37
447.139	923.86
447.513	936.51
447.887	939.68
448.262	928.38
448.636	931.77
449.01	963.63
449.384	973.58
449.758	944.65
450.132	950.3
450.506	969.06
450.88	973.35
451.254	979.23
451.628	995.04
452.002	967.93
452.376	1023.74
452.75	1036.4
453.123	1023.29
453.497	1034.59
453.871	1043.63
454.244	1101.93
454.618	1081.6
454.992	1094.48
455.365	1079.11
455.739	1108.49
456.112	1101.26
456.486	1140.13
456.859	1118.21
457.232	1182.16
457.606	1158.66
457.979	1184.19
458.352	1200.91
458.725	1179.9
459.099	1192.78
459.472	1221.03
459.845	1242.95
460.218	1256.73
460.591	1273.23
460.964	1318.88
461.337	1293.57
461.71	1313.68
462.083	1351.19
462.456	1345.77
462.829	1340.35
463.201	1397.97
463.574	1381.7
463.947	1383.06
464.32	1439.33
464.692	1425.32
465.065	1453.56
465.438	1492.66
465.81	1489.04
466.183	1490.4
466.555	1517.74
466.928	1570.4
467.3	1565.88
467.672	1598.19
468.045	1628.93
468.417	1646.1
468.789	1657.85
469.161	1648.59
469.534	1698.08
469.906	1750.05
470.278	1716.61
470.65	1786.66
471.022	1843.84
471.394	1849.94
471.766	1889.26
472.138	1922.7
472.51	1964.74
472.882	1968.35
473.253	2017.39
473.625	2092.87
473.997	2121.79
474.369	2122.02
474.74	2169.48
475.112	2214.45
475.484	2281.34
475.855	2322.92
476.227	2400.88
476.598	2451.05
476.97	2499.19
477.341	2580.31
477.713	2597.71
478.084	2697.6
478.455	2756.13
478.827	2806.07
479.198	2842.91
479.569	2908.67
479.94	3031.15
480.311	3072.96
480.682	3165.38
481.053	3257.58
481.424	3355.89
481.795	3410.57
482.166	3539.38
482.537	3605.37
482.908	3693.96
483.279	3785.03
483.65	3867.06
484.021	3976.43
484.391	4065.02
484.762	4146.37
485.133	4270.44
485.503	4315.64
485.874	4494.39
486.244	4559.7
486.615	4734.16
486.985	4787.04
487.356	4948.61
487.726	5069.74
488.097	5192.45
488.467	5316.74
488.837	5458.2
489.207	5571.65
489.578	5722.6
489.948	5840.79
490.318	6003.5
490.688	6054.35
491.058	6212.53
491.428	6340.21
491.798	6485.52
492.168	6650.94
492.538	6709.47
492.908	6933.87
493.278	7075.56
493.648	7129.8
494.017	7318.49
494.387	7404.37
494.757	7618.15
495.126	7744.92
495.496	7901.76
495.866	8012.49
496.235	8173.61
496.605	8305.36
496.974	8382.65
497.344	8508.07
497.713	8678.46
498.082	8762.3
498.452	8956.64
498.821	9097.88
499.19	9192.12
499.559	9381.26
499.928	9500.13
500.298	9615.38
500.667	9719.79
501.036	9783.97
501.405	9957.75
501.774	9973.34
502.143	10204.29
502.512	10223.05
502.88	10444.97
503.249	10540.78
503.618	10638.41
503.987	10772.64
504.356	10845.41
504.724	10998.4
505.093	11137.6
505.462	11210.37
505.83	11352.51
506.199	11430.93
506.567	11729.9
506.936	11735.1
507.304	11849.45
507.672	11970.8
508.041	12083.11
508.409	12153.4
508.777	12226.84
509.145	12531.01
509.514	12554.74
509.882	12670.67
510.25	12717.67
510.618	12784.56
510.986	12880.61
511.354	13140.94
511.722	13186.36
512.09	13392.01
512.458	13428.62
512.826	13551.78
513.193	13627.25
513.561	13742.96
513.929	13864.99
514.297	14028.83
514.664	14149.73
515.032	14131.65
515.4	14351.08
515.767	14480.79
516.135	14601.47
516.502	14498.64
516.869	14825.42
517.237	14883.94
517.604	14830.61
517.972	15086.43
518.339	15178.63
518.706	15204.16
519.073	15290.94
519.44	15414.78
519.808	15678.05
520.175	15650.25
520.542	15864.94
520.909	15923.69
521.276	15890.25
521.643	16154.65
522.009	16301.31
522.376	16381.98
522.743	16478.48
523.11	16663.33
523.477	16846.83
523.843	16931.57
524.21	17182.42
524.577	17243.43
524.943	17341.06
525.31	17452.46
525.676	17599.13
526.043	17600.94
526.409	17772.91
526.776	18015.39
527.142	18064.2
527.508	18124.76
527.874	18254.48
528.241	18484.3
528.607	18535.83
528.973	18648.14
529.339	18586.9
529.705	18940.79
530.071	18970.39
530.437	19118.41
530.803	19226.2
531.169	19300.55
531.535	19303.04
531.901	19444.5
532.267	19518.63
532.632	19531.28
532.998	19750.26
533.364	19720.65
533.73	19852.85
534.095	19978.5
534.461	20126.29
534.826	20309.79
535.192	20303.92
535.557	20503.01
535.923	20510.01
536.288	20494.87
536.653	20578.94
537.019	20648.31
537.384	20758.59
537.749	20869.78
538.114	20952.94
538.479	21062.31
538.845	21148.86
539.21	21125.81
539.575	21195.87
539.94	21304.57
540.305	21367.62
540.67	21473.6
541.034	21544.33
541.399	21748.4
541.764	21600.83
542.129	21780.49
542.494	21765.35
542.858	21897.09
543.223	21949.97
543.587	22088.95
543.952	22087.37
544.316	22279.23
544.681	22179.57
545.045	22336.86
545.41	22469.06
545.774	22502.05
546.138	22605.32
546.503	22603.06
546.867	22697.75
547.231	22820.23
547.595	22846.45
547.959	23004.18
548.324	23121.02
548.688	23111.75
549.052	23109.49
549.416	23244.63
549.779	23259.54
550.143	23259.09
550.507	23546.09
550.871	23598.52
551.235	23619.53
551.599	23741.11
551.962	23785.86
552.326	23895.01
552.689	24050.03
553.053	23968.9
553.417	24071.95
553.78	24452.28
554.143	24245.05
554.507	24344.26
554.87	24405.95
555.234	24693.63
555.597	24577.93
555.96	24607.98
556.323	24834.64
556.686	24946.96
557.05	24985.37
557.413	25072.83
557.776	25173.84
558.139	25423.78
558.502	25396.66
558.865	25406.15
559.228	25535.19
559.59	25643.66
559.953	25724.11
560.316	25996.65
560.679	25938.8
561.041	26094.95
561.404	26214.04
561.767	26395.05
562.129	26295.62
562.492	26547.14
562.854	26580.59
563.217	26645.22
563.579	26827.59
563.941	26956.85
564.304	26918.88
564.666	27178.08
565.028	27292.21
565.39	27398.87
565.753	27463.5
566.115	27507.34
566.477	27694.23
566.839	27779.42
567.201	28074.33
567.563	27966.31
567.925	28054.45
568.287	28151.84
568.648	28197.95
569.01	28357.26
569.372	28482.23
569.734	28427.77
570.095	28566.75
570.457	28941.88
570.819	28825.05
571.18	29008.55
571.542	29151.82
571.903	29224.58
572.265	29335.32
572.626	29301.42
572.987	29456.67
573.349	29512.71
573.71	29743.44
574.071	29754.51
574.432	29885.81
574.794	30045.58
575.155	30095.52
575.516	30048.74
575.877	30348.62
576.238	30373.48
576.599	30488.28
576.96	30455.06
577.32	30556.75
577.681	30768.5
578.042	30896.41
578.403	30978.44
578.763	31039.9
579.124	31092.11
579.485	31309.05
579.845	31450.29
580.206	31529.38
580.566	31593.56
580.927	31790.39
581.287	31715.37
581.648	31787.46
582.008	32025.19
582.368	32158.29
582.728	32185.41
583.089	32286.2
583.449	32304.73
583.809	32368
584.169	32648
584.529	32716.47
584.889	33030.13
585.249	32855.68
585.609	32887.54
585.969	33059.06
586.329	33144.26
586.688	33216.8
587.048	33322.78
587.408	33318.49
587.768	33553.74
588.127	33574.75
588.487	33697.69
588.846	33981.07
589.206	33926.38
589.565	33964.12
589.925	34174.96
590.284	34216.32
590.643	34428.06
591.003	34568.62
591.362	34740.15
591.721	34652.01
592.08	34672.13
592.44	35077.31
592.799	35101.27
593.158	34962.29
593.517	35184.65
593.876	35184.88
594.235	35315.72
594.593	35390.3
594.952	35609.5
595.311	35547.58
595.67	35708.48
596.029	35912.32
596.387	36052.65
596.746	36142.37
597.104	35939.66
597.463	36045.2
597.822	36261.01
598.18	36251.29
598.538	36325.41
598.897	36520.89
599.255	36359.09
599.613	37050.82
599.972	36707.55
600.33	36966.53
600.688	36820.54
601.046	37121.55
601.404	37104.15
601.762	37245.84
602.12	37406.29
602.478	37415.78
602.836	37507.76
603.194	37427.53
603.552	37597.02
603.91	37663.01
604.268	37829.56
604.625	37635.89
604.983	38005.82
605.341	37748.2
605.698	38084.92
606.056	38209.21
606.413	38167.85
606.771	38251.92
607.128	38361.07
607.485	38351.8
607.843	38331.01
608.2	38512.25
608.557	38634.05
608.914	38726.48
609.272	38944.1
609.629	38909.53
609.986	39045.57
610.343	38957.21
610.7	39365.33
611.057	39256.19
611.414	39261.61
611.771	39390.19
612.127	39673.12
612.484	39580.7
612.841	39844.42
613.198	39611.88
613.554	39755.83
613.911	39978.88
614.267	39970.06
614.624	39999.89
614.98	40031.31
615.337	40232.88
615.693	40230.62
616.05	40176.16
616.406	40459.09
616.762	40307.91
617.118	40327.57
617.475	40455.48
617.831	40571.4
618.187	40563.72
618.543	40749.25
618.899	40861.11
619.255	40770.04
619.611	40858.4
619.967	40982.47
620.323	41228.11
620.678	40985.86
621.034	40934.56
621.39	40919.19
621.746	40962.13
622.101	41387.43
622.457	41099.3
622.812	41305.4
623.168	41394.21
623.523	41394.66
623.879	41487.31
624.234	41189.02
624.589	41469.01
624.945	41304.95
625.3	41478.95
625.655	41586.52
626.01	41546.07
626.365	41572.06
626.72	41588.33
627.075	41640.53
627.43	41465.62
627.785	41450.7
628.14	41601.66
628.495	41600.98
628.85	41624.48
629.205	41484.15
629.559	41762.11
629.914	41549.91
630.269	41650.92
630.623	41625.61
630.978	41546.29
631.332	41692.51
631.687	41793.29
632.041	41533.64
632.396	41731.37
632.75	41506.75
633.104	41509.01
633.459	41457.26
633.813	41380.65
634.167	41484.38
634.521	41394.89
634.875	41484.38
635.229	41367.99
635.583	41295.23
635.937	41203.25
636.291	41270.37
636.645	41360.31
636.999	41241.67
637.352	41315.11
637.706	41196.93
638.06	41246.64
638.413	41078.96
638.767	41111.5
639.121	41130.49
639.474	40901.79
639.828	41016.14
640.181	40931.17
640.534	40975.01
640.888	41033.54
641.241	40810.27
641.594	40864.73
641.947	40953.99
642.301	40782.92
642.654	40943.6
643.007	40914.67
643.36	40736.6
643.713	40757.16
644.066	40892.3
644.419	40505.87
644.771	40370.73
645.124	40199.44
645.477	40085.77
645.83	39873.12
646.182	39646.46
646.535	39510.64
646.888	39651.2
647.24	39321.72
647.593	39580.24
647.945	39523.75
648.298	39352.45
648.65	39278.11
649.002	39233.36
649.355	39361.04
649.707	39244.43
650.059	39418.67
650.411	39847.58
650.763	40008.26
651.115	40157.63
651.467	40160.79
651.819	40102.04
652.171	40126.9
652.523	39939.56
652.875	39999.67
653.227	39904.98
653.578	40122.6
653.93	39985.88
654.282	39849.39
654.633	39802.16
654.985	39802.84
655.337	39943.62
655.688	39825.21
656.039	39988.82
656.391	39640.13
656.742	39782.5
657.094	39716.29
657.445	39818.66
657.796	39804.87
658.147	39748.6
658.498	39704.08
658.849	39730.75
659.2	39761.93
659.551	39728.26
659.902	39772.78
660.253	39750.41
660.604	39710.18
660.955	39475.39
661.306	39540.47
661.656	39616.63
662.007	39676.51
662.358	39493.92
662.708	39573.92
663.059	39489.17
663.409	39319.46
663.76	39676.29
664.11	39650.07
664.461	39597.19
664.811	39662.05
665.161	39596.06
665.511	39521.72
665.862	39432.68
666.212	39492.34
666.562	39557.19
666.912	39366.69
667.262	39385.22
667.612	39457.31
667.962	39528.04
668.312	39339.35
668.662	39470.42
669.011	39408.72
669.361	39333.92
669.711	39337.54
670.06	39283.76
670.41	39161.05
670.76	39221.61
671.109	39366.92
671.459	39347.71
671.808	39303.64
672.157	39211.21
672.507	39124.89
672.856	39021.39
673.205	39116.53
673.554	39130.31
673.904	39104.1
674.253	39204.89
674.602	39043.76
674.951	38568.29
675.3	38407.85
675.649	38941.17
675.998	38992.92
676.346	38942.07
676.695	39060.48
677.044	38728.29
677.393	38957.89
677.741	38927.38
678.09	38900.26
678.438	38588.86
678.787	38732.81
679.135	38905.91
679.484	38631.34
679.832	38731.23
680.181	38422.76
680.529	38712.7
680.877	38469.09
681.225	38443.55
681.573	38677.22
681.922	38413.95
682.27	38370.56
682.618	38278.36
682.966	38160.39
683.314	38406.04
683.661	38189.32
684.009	37978.48
684.357	37921.08
684.705	38010.34
685.053	37898.03
685.4	37938.48
685.748	37613.06
686.095	37669.11
686.443	37528.55
686.79	37530.35
687.138	37636.34
687.485	37441.77
687.832	37359.74
688.18	37463.24
688.527	37185.73
688.874	37136.47
689.221	37039.97
689.568	37032.51
689.915	36940.99
690.262	36916.13
690.609	36920.43
690.956	36619.64
691.303	36648.8
691.65	36422.59
691.997	36598.18
692.344	36401.57
692.69	36294.91
693.037	36434.34
693.383	36107.34
693.73	36224.63
694.077	35938.31
694.423	35857.4
694.769	35852.21
695.116	35816.73
695.462	35729.27
695.808	35628.26
696.155	35713.91
696.501	35414.03
696.847	35401.6
697.193	35113.47
697.539	35423.74
697.885	35170.87
698.231	34970.65
698.577	35104.88
698.923	34895.85
699.269	34753.03
699.614	34574.05
699.96	34544.44
700.306	34472.36
700.651	34290.67
700.997	34256.99
701.342	34243.66
701.688	34140.61
702.033	34043.67
702.379	33932.48
702.724	34017
703.069	34016.32
703.415	33413.85
703.76	33555.32
704.105	33684.13
704.45	33490.69
704.795	33321.2
705.14	33228.55
705.485	33131.37
705.83	33088.21
706.175	33071.26
706.52	33017.03
706.865	32919.85
707.209	32776.58
707.554	32766.64
707.899	32765.96
708.243	32516.48
708.588	32652.07
708.932	32351.06
709.277	32495.23
709.621	32521.9
709.966	32117.62
710.31	32234.22
710.654	32017.73
710.998	32151.06
711.342	32059.76
711.687	32046.88
712.031	31936.6
712.375	31725.99
712.719	31749.49
713.063	31752.2
713.407	31799.88
713.75	31685.31
714.094	31580.91
714.438	31546.33
714.782	31533
715.125	31255.94
715.469	31466.79
715.812	31238.99
716.156	31138.66
716.499	31148.83
716.843	31173.69
717.186	30928.27
717.53	31126.91
717.873	30984.09
718.216	30985.44
718.559	30860.02
718.902	30611.44
719.246	30506.36
719.589	30495.96
719.932	30505.45
720.275	30478.11
720.617	30304.56
720.96	30281.73
721.303	30324.89
721.646	30262.98
721.989	30079.48
722.331	30199.25
722.674	30121.96
723.016	30155.86
723.359	29985.69
723.701	30047.16
724.044	29801.29
724.386	29669.77
724.729	29925.58
725.071	29747.06
725.413	29792.25
725.755	29794.06
726.097	29587.96
726.439	29443.34
726.782	29536.21
727.124	29619.15
727.465	29369.67
727.807	29363.79
728.149	29365.15
728.491	29239.73
728.833	29362.21
729.175	29156.11
729.516	29116.11
729.858	29166.96
730.199	29106.85
730.541	29114.53
730.882	28990.92
731.224	29051.93
731.565	28804.26
731.906	28912.95
732.248	28997.92
732.589	28691.49
732.93	28659.85
733.271	28663.92
733.612	28577.14
733.953	28679.29
734.294	28519.97
734.635	28460.54
734.976	28498.5
735.317	28413.31
735.658	28374.21
735.999	28299.41
736.339	28294.44
736.68	28317.94
737.021	28241.11
737.361	28157.27
737.702	28097.16
738.042	28025.07
738.383	28048.57
738.723	28158.4
739.063	28094.22
739.404	28071.17
739.744	27896.71
740.084	27878.18
740.424	27877.95
740.764	27857.61
741.104	27950.72
741.444	27695.81
741.784	27644.06
742.124	27735.13
742.464	27703.04
742.804	27571.97
743.143	27533.56
743.483	27536.95
743.823	27371.75
744.162	27337.63
744.502	27369.94
744.841	27246.33
745.181	27319.55
745.52	27259.21
745.86	27239.1
746.199	27150.97
746.538	27037.3
746.877	27310.28
747.216	27028.26
747.556	27083.85
747.895	27111.19
748.234	26934.93
748.573	26955.27
748.911	26836.17
749.25	26829.62
749.589	26697.87
749.928	26858.32
750.267	26754.59
750.605	26654.48
750.944	26614.94
751.283	26541.49
751.621	26571.1
751.96	26394.38
752.298	26354.6
752.636	26483.19
752.975	26336.3
753.313	26250.43
753.651	26327.71
753.989	26190.31
754.327	26186.47
754.666	25965.01
755.004	25981.05
755.342	26092.46
755.679	25943.32
756.017	25779.7
756.355	25912.58
756.693	25755.98
757.031	25759.82
757.368	25550.78
757.706	25576.09
758.044	25440.5
758.381	25433.5
758.719	25334.97
759.056	25485.47
759.394	25359.15
759.731	25182.66
760.068	25151.02
760.405	25015.43
760.743	24987.41
761.08	24963.23
761.417	24812.72
761.754	24745.15
762.091	24720.3
762.428	24648.66
762.765	24457.48
763.102	24609.79
763.438	24468.55
763.775	24335.45
764.112	24437.37
764.449	24229.24
764.785	24206.86
765.122	24129.35
765.458	24011.16
765.795	23876.93
766.131	23952.86
766.467	23888.68
766.804	23659.08
767.14	23626.31
767.476	23565.75
767.812	23486.88
768.148	23443.72
768.485	23317.4
768.821	23152.43
769.157	23215.93
769.492	23147.91
769.828	23036.05
770.164	22780.46
770.5	22774.13
770.836	22840.12
771.171	22674.02
771.507	22655.72
771.842	22439.23
772.178	22552.67
772.513	22349.74
772.849	22357.42
773.184	22245.56
773.519	22201.04
773.855	22048.95
774.19	21937.32
774.525	21975.96
774.86	22033.81
775.195	21804.44
775.53	21706.36
775.865	21537.56
776.2	21596.54
776.535	21370.1
776.87	21432.02
777.205	21349.09
777.539	21211.24
777.874	21284.68
778.209	21047.17
778.543	20971.24
778.878	20931.24
779.212	20958.81
779.547	20736.67
779.881	20877.91
780.215	20741.42
780.55	20686.96
780.884	20587.3
781.218	20483.12
781.552	20487.41
781.886	20408.32
782.22	20254.43
782.554	20128.1
782.888	19950.25
783.222	19881.78
783.556	19864.6
783.889	19836.13
784.223	19767.66
784.557	19745.96
784.89	19733.76
785.224	19570.38
785.557	19581.22
785.891	19505.74
786.224	19466.88
786.558	19449.02
786.891	19142.82
787.224	19169.93
787.557	19110.27
787.891	19022.14
788.224	18952.54
788.557	18992.99
788.89	18811.3
789.223	18891.07
789.556	18670.96
789.888	18728.36
790.221	18493.57
790.554	18442.5
790.887	18359.56
791.219	18345.32
791.552	18265.78
791.884	18290.63
792.217	18163.18
792.549	18006.35
792.882	17918.67
793.214	17842.29
793.546	17977.65
793.879	17901.49
794.211	17648.17
794.543	17779.24
794.875	17665.57
795.207	17723.64
795.539	17600.71
795.871	17580.15
796.203	17437.78
796.535	17373.82
796.867	17267.38
797.198	17260.61
797.53	17187.84
797.862	17105.58
798.193	17083.21
798.525	17030.33
798.856	17135.64
799.188	16917.56
799.519	16872.59
799.85	16783.56
800.182	16751.01
800.513	16797.57
800.844	16584.92
801.175	16636.22
801.506	16575.43
801.837	16546.27
802.168	16534.07
802.499	16423.34
802.83	16359.61
803.161	16285.94
803.491	16350.8
803.822	16282.78
804.153	16154.87
804.483	16107.42
804.814	15975.22
805.145	15969.11
805.475	16003.24
805.805	15924.14
806.136	15890.7
806.466	15869.91
806.796	15794.66
807.126	15781.55
807.457	15725.73
807.787	15649.57
808.117	15650.25
808.447	15406.42
808.777	15615.9
809.107	15482.57
809.436	15355.8
809.766	15425.63
810.096	15438.51
810.426	15317.83
810.755	15219.08
811.085	15358.06
811.414	15204.84
811.744	15126.42
812.073	15097.95
812.403	15034.9
812.732	15005.75
813.061	15047.56
813.39	14978.18
813.719	14891.63
814.049	14994.9
814.378	14893.21
814.707	14784.96
815.036	14810.73
815.365	14688.02
815.693	14581.81
816.022	14635.59
816.351	14587.91
816.68	14443.28
817.008	14540.45
817.337	14430.85
817.665	14379.55
817.994	14427.46
818.322	14353.79
818.651	14300.91
818.979	14163.06
819.307	14309.27
819.636	14259.78
819.964	14162.16
820.292	14167.81
820.62	14139.78
820.948	14117.64
821.276	14268.14
821.604	14093.01
821.932	14116.06
822.259	14193.12
822.587	14116.96
822.915	14127.58
823.243	14079.67
823.57	14093.68
823.898	14109.95
824.225	13995.15
824.553	13971.65
824.88	14033.8
825.207	14080.8
825.535	14038.09
825.862	14067.24
826.189	13983.18
826.516	14032.22
826.843	14097.98
827.17	14041.48
827.497	14096.17
827.824	14017.3
828.151	14077.86
828.478	14027.02
828.805	14123.51
829.131	13984.76
829.458	14024.76
829.785	13952.44
830.111	13918.32
830.438	14042.39
830.764	13960.81
831.09	13978.21
831.417	13857.98
831.743	14113.34
832.069	13969.39
832.395	14001.03
832.722	13985.89
833.048	13950.64
833.374	13929.85
833.7	13877.42
834.026	13834.48
834.351	13902.28
834.677	13842.84
835.003	13902.5
835.329	13817.08
835.654	13826.35
835.98	13760.81
836.306	13737.76
836.631	13742.73
836.956	13778.21
837.282	13721.49
837.607	13653.69
837.932	13621.83
838.258	13633.13
838.583	13659.57
838.908	13600.14
839.233	13649.85
839.558	13582.51
839.883	13492.34
840.208	13464.55
840.533	13476.3
840.858	13506.35
841.182	13431.78
841.507	13434.94
841.832	13332.57
842.156	13339.35
842.481	13405.34
842.805	13247.6
843.13	13275.63
843.454	13247.15
843.778	13171.45
844.103	13140.49
844.427	13223.88
844.751	13138.91
845.075	13150.66
845.399	13087.61
845.723	12985.24
846.047	13019.14
846.371	12794.06
846.695	12830.44
847.019	12729.65
847.343	12737.56
847.666	12632.25
847.99	12607.39
848.313	12635.64
848.637	12566.94
848.96	12483.78
849.284	12487.85
849.607	12383.45
849.931	12320.4
850.254	12230.91
850.577	12206.5
850.9	12065.26
851.223	12145.94
851.546	12000.63
851.869	11945.72
852.192	12006.51
852.515	11832.05
852.838	11870.24
853.161	11867.07
853.483	11814.42
853.806	11694.2
854.129	11683.8
854.451	11650.13
854.774	11593.41
855.096	11594.77
855.419	11573.52
855.741	11594.31
856.063	11520.19
856.385	11427.76
856.708	11447.2
857.03	11363.81
857.352	11377.37
857.674	11300.54
857.996	11255.79
858.318	11234.32
858.64	11212.85
858.961	11167.66
859.283	11154.55
859.605	11070.71
859.926	11138.51
860.248	11057.38
860.57	11025.52
860.891	11073.2
861.212	10908.23
861.534	10948.91
861.855	10922.92
862.176	10923.37
862.498	10918.17
862.819	10870.49
863.14	10837.95
863.461	10794.79
863.782	10740.55
864.103	10777.39
864.424	10702.13
864.745	10758.18
865.065	10725.86
865.386	10650.61
865.707	10611.06
866.027	10649.48
866.348	10580.56
866.668	10618.07
866.989	10625.75
867.309	10502.14
867.63	10593.44
867.95	10456.26
868.27	10495.36
868.59	10480.22
868.91	10492.87
869.23	10458.98
869.55	10385.98
869.87	10409.94
870.19	10347.11
870.51	10436.6
870.83	10481.12
871.15	10375.14
871.469	10329.94
871.789	10394.12
872.109	10330.39
872.428	10306.44
872.748	10275.48
873.067	10249.94
873.386	10281.13
873.706	10226.21
874.025	10162.94
874.344	10167.91
874.663	10214.92
874.982	10164.97
875.301	10108.93
875.62	10180.11
875.939	10085.43
876.258	10109.16
876.577	10068.48
876.896	10026.45
877.214	10057.63
877.533	10015.82
877.852	10007.46
878.17	9967.46
878.489	10009.5
878.807	9965.43
879.125	9967.92
879.444	9949.39
879.762	9944.64
880.08	9965.66
880.398	9915.94
880.716	9887.92
881.034	9893.57
881.352	9864.64
881.67	9752.33
881.988	9791.88
882.306	9767.47
882.624	9774.02
882.941	9750.97
883.259	9670.75
883.577	9703.97
883.894	9611.09
884.212	9622.16
884.529	9557.31
884.846	9543.97
885.164	9581.26
885.481	9487.93
885.798	9464.43
886.115	9410.19
886.432	9454.94
886.75	9387.59
887.067	9409.29
887.383	9388.95
887.7	9419
888.017	9379.23
888.334	9406.35
888.651	9298.1
888.967	9279.12
889.284	9198.22
889.6	9195.96
889.917	9189.86
890.233	9233.02
890.55	9133.59
890.866	9198.9
891.182	9038.9
891.498	9096.3
891.815	9042.97
892.131	8929.53
892.447	8986.92
892.763	8989.86
893.079	8922.29
893.395	8862.86
893.71	8837.1
894.026	8848.85
894.342	8867.83
894.657	8792.13
894.973	8768.63
895.289	8788.51
895.604	8766.37
895.92	8685.92
896.235	8689.98
896.55	8635.07
896.865	8593.26
897.181	8585.35
897.496	8578.57
897.811	8546.03
898.126	8518.24
898.441	8459.93
898.756	8487.73
899.071	8409.99
899.386	8439.82
899.7	8332.03
900.015	8281.18
900.33	8351.91
900.644	8224.68
900.959	8247.51
901.273	8212.48
901.588	8174.74
901.902	8092.03
902.216	8077.12
902.531	8071.92
902.845	8009.55
903.159	8031.7
903.473	7932.49
903.787	7898.37
904.101	7959.16
904.415	7897.91
904.729	7904.02
905.042	7829.44
905.356	7837.12
905.67	7723
905.984	7804.58
906.297	7801.87
906.611	7709.67
906.924	7679.61
907.237	7605.27
907.551	7611.14
907.864	7577.24
908.177	7578.15
908.491	7545.15
908.804	7483.46
909.117	7433.97
909.43	7397.81
909.743	7422.67
910.056	7402.79
910.368	7385.16
910.681	7324.82
910.994	7249.57
911.307	7251.83
911.619	7233.75
911.932	7208.67
912.244	7123.47
912.557	7099.97
912.869	7064.94
913.181	7068.11
913.494	7140.65
913.806	7055.68
914.118	6989.92
914.43	6924.83
914.742	6969.8
915.054	6888.22
915.366	6882.35
915.678	6875.34
915.99	6805.51
916.302	6794.21
916.613	6766.87
916.925	6735.01
917.236	6667.66
917.548	6666.08
917.859	6686.19
918.171	6656.82
918.482	6581.11
918.794	6568.01
919.105	6551.51
919.416	6502.7
919.727	6529.36
920.038	6491.17
920.349	6414.56
920.66	6368.69
920.971	6400.55
921.282	6369.59
921.593	6276.71
921.903	6308.35
922.214	6277.62
922.525	6243.72
922.835	6175.47
923.146	6164.17
923.456	6170.95
923.767	6137.96
924.077	6096.38
924.387	6075.14
924.697	6066.55
925.008	6084.18
925.318	6031.3
925.628	6022.48
925.938	6021.35
926.248	5929.38
926.558	5929.38
926.867	5902.71
927.177	5876.72
927.487	5817.74
927.796	5822.71
928.106	5769.83
928.416	5798.31
928.725	5775.03
929.034	5740.46
929.344	5726.67
929.653	5694.13
929.962	5676.5
930.271	5614.58
930.581	5571.2
930.89	5544.98
931.199	5545.89
931.508	5507.02
931.817	5513.8
932.125	5474.93
932.434	5461.59
932.743	5410.75
933.051	5397.41
933.36	5412.56
933.669	5338.66
933.977	5273.12
934.286	5344.76
934.594	5321.26
934.902	5302.95
935.21	5248.04
935.519	5254.59
935.827	5151.32
936.135	5170.53
936.443	5165.78
936.751	5127.14
937.059	5117.87
937.367	5111.09
937.674	5124.2
937.982	5046.01
938.29	5017.54
938.597	5032.45
938.905	5010.76
939.213	4926.92
939.52	4937.54
939.827	4925.56
940.135	4906.13
940.442	4870.87
940.749	4886.02
941.056	4885.11
941.363	4847.37
941.67	4816.41
941.977	4792.91
942.284	4748.84
942.591	4800.37
942.898	4752.91
943.205	4719.01
943.511	4719.92
943.818	4693.25
944.125	4619.36
944.431	4612.8
944.738	4589.98
945.044	4576.87
945.35	4547.49
945.657	4528.06
945.963	4501.62
946.269	4489.64
946.575	4516.53
946.881	4476.99
947.187	4487.61
947.493	4434.28
947.799	4420.27
948.105	4389.76
948.41	4378.46
948.716	4325.58
949.022	4285.81
949.327	4356.54
949.633	4293.26
949.938	4278.57
950.244	4284
950.549	4243.77
950.854	4263.89
951.16	4240.61
951.465	4176.2
951.77	4108.63
952.075	4157.22
952.38	4135.75
952.685	4137.33
952.99	4058.47
953.294	4085.81
953.599	4072.7
953.904	4008.98
954.209	3991.58
954.513	4054.17
954.818	3937.11
955.122	4016.66
955.426	3919.94
955.731	3954.51
956.035	3911.8
956.339	3917.23
956.643	3901.63
956.948	3874.74
957.252	3848.53
957.556	3829.55
957.86	3837
958.163	3866.16
958.467	3785.71
958.771	3747.29
959.075	3751.36
959.378	3731.47
959.682	3727.85
959.985	3683.56
960.289	3695.54
960.592	3687.63
960.896	3705.71
961.199	3644.92
961.502	3596.11
961.805	3640.62
962.108	3576.67
962.411	3546.62
962.714	3546.84
963.017	3576.22
963.32	3556.33
963.623	3493.96
963.926	3527.86
964.228	3503.23
964.531	3465.26
964.833	3498.93
965.136	3465.49
965.438	3419.16
965.741	3442.89
966.043	3361.08
966.345	3376
966.648	3374.19
966.95	3378.03
967.252	3335.32
967.554	3369.22
967.856	3300.07
968.158	3305.72
968.46	3290.13
968.761	3289.22
969.063	3295.77
969.365	3260.07
969.666	3247.64
969.968	3211.71
970.269	3200.64
970.571	3206.06
970.872	3161.99
971.174	3117.7
971.475	3144.59
971.776	3116.8
972.077	3113.86
972.378	3124.71
972.679	3112.95
972.98	3109.57
973.281	3047.87
973.582	3072.5
973.883	3046.97
974.183	3046.52
974.484	3023.24
974.785	2993.41
975.085	2984.6
975.386	2984.6
975.686	2971.04
975.986	2950.93
976.287	2926.29
976.587	2942.56
976.887	2917.93
977.187	2874.32
977.487	2873.87
977.787	2873.64
978.087	2848.1
978.387	2831.38
978.687	2834.32
978.987	2835.45
979.286	2798.61
979.586	2798.61
979.885	2768.11
980.185	2719.07
980.484	2765.17
980.784	2746.41
981.083	2785.73
981.382	2734.89
981.682	2698.5
981.981	2705.96
982.28	2712.74
982.579	2641.33
982.878	2659.63
983.177	2623.48
983.475	2669.12
983.774	2623.93
984.073	2621.22
984.372	2613.53
984.67	2589.13
984.969	2590.93
985.267	2589.58
985.566	2528.56
985.864	2560.43
986.162	2547.55
986.461	2528.11
986.759	2548.45
987.057	2499.64
987.355	2517.72
987.653	2467.77
987.951	2467.1
988.249	2477.94
988.547	2451.96
988.844	2433.2
989.142	2438.4
989.44	2400.43
989.737	2391.84
990.035	2385.06
990.332	2370.83
990.63	2353.2
990.927	2342.81
991.224	2335.12
991.521	2344.61
991.819	2332.41
992.116	2309.36
992.413	2323.6
992.71	2296.71
993.006	2279.53
993.303	2265.29
993.6	2267.33
993.897	2275.01
994.193	2262.58
994.49	2245.18
994.787	2206.76
995.083	2185.52
995.379	2214.9
995.676	2218.29
995.972	2169.7
996.268	2180.78
996.565	2160.21
996.861	2132.42
997.157	2127.9
997.453	2119.31
997.749	2117.27
998.044	2087.9
998.34	2105.98
998.636	2105.07
998.932	2092.19
999.227	2042.25
999.523	2039.99
999.818	2030.05
1000.114	2033.66
1000.409	1994.34
1000.704	2010.16
1001	1981.69
1001.295	1990.27
1001.59	1996.37
1001.885	1987.56
1002.18	1964.74
1002.475	1919.77
1002.77	1951.63
1003.065	1929.03
1003.359	1922.25
1003.654	1901.69
1003.949	1907.34
1004.243	1911.86
1004.538	1881.12
1004.832	1871.63
1005.127	1858.75
1005.421	1847.68
1005.715	1850.16
1006.009	1825.76
1006.304	1809.26
1006.598	1851.97
1006.892	1817.17
1007.186	1790.96
1007.48	1795.93
1007.773	1761.13
1008.067	1764.52
1008.361	1727.68
1008.655	1746.44
1008.948	1714.8
1009.242	1736.04
1009.535	1704.18
1009.829	1703.5
1010.122	1716.61
1010.415	1676.61
1010.708	1706.44
1011.001	1673.22
1011.295	1666.67
1011.588	1656.5
1011.881	1631.86
1012.173	1613.11
1012.466	1622.37
1012.759	1596.16
1013.052	1578.08
1013.344	1590.28
1013.637	1586.44
1013.93	1580.34
1014.222	1564.52
1014.514	1573.79
1014.807	1521.58
1015.099	1529.04
1015.391	1503.05
1015.683	1526.33
1015.976	1521.36
1016.268	1480
1016.56	1499.44
1016.851	1486.33
1017.143	1470.29
1017.435	1452.43
1017.727	1458.31
1018.018	1443.62
1018.31	1421.02
1018.602	1447.69
1018.893	1410.63
1019.185	1413.11
1019.476	1405.2
1019.767	1394.13
1020.058	1411.98
1020.35	1384.64
1020.641	1381.47
1020.932	1371.08
1021.223	1336.73
1021.514	1357.75
1021.804	1304.87
1022.095	1323.85
1022.386	1297.86
1022.677	1301.93
1022.967	1302.61
1023.258	1309.39
1023.548	1293.12
1023.839	1278.88
1024.129	1278.43
1024.419	1241.82
1024.709	1242.04
1025	1229.84
1025.29	1226.45
1025.58	1225.32
1025.87	1216.51
1026.16	1214.02
1026.449	1162.05
1026.739	1213.12
1027.029	1195.72
1027.319	1171.09
1027.608	1182.16
1027.898	1171.54
1028.187	1177.86
1028.477	1186.45
1028.766	1165.66
1029.055	1169.28
1029.344	1142.39
1029.634	1129.05
1029.923	1138.09
1030.212	1100.13
1030.501	1097.87
1030.79	1116.4
1031.078	1089.73
1031.367	1044.08
1031.656	1053.8
1031.945	1047.47
1032.233	1068.94
1032.522	1041.37
1032.81	1049.73
1033.099	1050.86
1033.387	1022.39
1033.675	1028.04
1033.963	1035.04
1034.251	1010.19
1034.54	1040.69
1034.828	1023.29
1035.116	1002.73
1035.403	977.87
1035.691	983.97
1035.979	954.37
1036.267	969.73
1036.554	960.02
1036.842	965.67
1037.129	950.75
1037.417	926.8
1037.704	939.9
1037.992	957.31
1038.279	921.15
1038.566	923.18
1038.853	923.18
1039.14	923.18
