Data from hue_260_FLMS001491_00008.txt Node
Date: Tue Feb 07 15:58:29 GMT 2017
User: dcchb
Spectrometer: FLMS00149
Trigger mode: 0
Integration Time (sec): 2.000000E-2
Scans to average: 10
Electric dark correction enabled: true
Nonlinearity correction enabled: false
Boxcar width: 0
XAxis mode: Wavelengths
Number of Pixels in Spectrum: 2048
>>>>>Begin Spectral Data<<<<<
341.393	-10.79
341.776	-10.79
342.16	-10.79
342.543	-56.89
342.927	-60.05
343.31	-61.18
343.693	-53.28
344.077	-60.51
344.46	-51.92
344.843	-73.39
345.226	-51.24
345.61	-21.19
345.993	-26.61
346.376	-15.99
346.759	19.27
347.142	16.1
347.525	26.5
347.908	55.2
348.291	89.77
348.674	92.71
349.057	115.76
349.44	127.06
349.823	137.68
350.206	170.22
350.588	197.11
350.971	179.94
351.354	212.71
351.737	238.92
352.119	245.47
352.502	251.35
352.884	255.64
353.267	289.99
353.65	280.95
354.032	286.15
354.414	282.76
354.797	300.61
355.179	315.75
355.562	311.69
355.944	311.46
356.326	321.63
356.709	336.77
357.091	332.03
357.473	337.67
357.855	337.9
358.238	343.78
358.62	322.08
359.002	326.38
359.384	350.1
359.766	347.62
360.148	330.67
360.53	321.4
360.912	327.96
361.294	329.99
361.676	332.03
362.057	316.66
362.439	338.35
362.821	336.32
363.203	320.27
363.584	328.86
363.966	338.13
364.348	320.05
364.729	301.97
365.111	309.88
365.493	332.03
365.874	308.52
366.256	306.72
366.637	311.91
367.019	340.61
367.4	315.75
367.781	302.87
368.163	302.2
368.544	304.91
368.925	308.97
369.306	308.97
369.688	310.33
370.069	324.34
370.45	316.88
370.831	305.81
371.212	297.68
371.593	317.79
371.974	306.04
372.355	287.96
372.736	304.91
373.117	328.41
373.498	332.48
373.879	325.7
374.26	326.6
374.641	318.24
375.021	310.33
375.402	311.01
375.783	313.72
376.163	318.24
376.544	309.65
376.925	316.88
377.305	313.95
377.686	328.18
378.066	306.94
378.447	334.06
378.827	322.08
379.208	312.82
379.588	339.48
379.968	333.16
380.349	311.23
380.729	328.86
381.109	351.01
381.489	325.25
381.87	364.57
382.25	329.09
382.63	332.7
383.01	349.65
383.39	343.55
383.77	342.42
384.15	340.39
384.53	345.13
384.91	355.3
385.29	346.26
385.67	342.42
386.049	348.97
386.429	342.65
386.809	357.34
387.189	374.51
387.568	358.01
387.948	351.23
388.328	354.17
388.707	373.61
389.087	350.56
389.466	373.61
389.846	364.34
390.225	374.74
390.605	361.4
390.984	371.35
391.363	358.92
391.743	363.89
392.122	388.52
392.501	371.8
392.881	384.45
393.26	388.97
393.639	382.87
394.018	383.32
394.397	375.64
394.776	391.46
395.155	397.79
395.534	385.81
395.913	392.81
396.292	384.91
396.671	403.66
397.05	412.93
397.429	399.37
397.808	420.38
398.186	419.25
398.565	413.83
398.944	395.53
399.323	402.08
399.701	415.41
400.08	414.73
400.458	420.84
400.837	410.67
401.215	402.53
401.594	433.49
401.972	426.03
402.351	434.17
402.729	429.65
403.107	436.2
403.486	433.49
403.864	423.32
404.242	433.49
404.62	446.37
404.999	450.44
405.377	441.4
405.755	448.41
406.133	482.76
406.511	467.39
406.889	469.65
407.267	493.6
407.645	479.59
408.023	503.32
408.401	494.73
408.779	519.14
409.156	510.1
409.534	512.13
409.912	505.35
410.29	532.02
410.667	544.22
411.045	544.9
411.422	540.83
411.8	552.58
412.178	538.8
412.555	543.32
412.933	566.6
413.31	543.77
413.687	575.18
414.065	610.44
414.442	591
414.819	611.34
415.197	618.35
415.574	618.35
415.951	627.38
416.328	619.93
416.705	646.59
417.082	629.87
417.46	638.68
417.837	667.84
418.214	666.93
418.591	682.3
418.967	657.67
419.344	673.26
419.721	709.42
420.098	699.47
420.475	720.26
420.852	720.26
421.228	723.65
421.605	748.96
421.982	754.16
422.358	734.05
422.735	761.84
423.111	783.31
423.488	789.41
423.864	795.29
424.241	811.56
424.617	812.01
424.994	823.76
425.37	839.13
425.746	849.53
426.123	870.99
426.499	847.94
426.875	889.3
427.251	900.15
427.627	914.38
428.003	929.3
428.379	920.48
428.756	947.83
429.132	951.44
429.507	968.84
429.883	988.28
430.259	976.3
430.635	983.53
431.011	998.67
431.387	994.61
431.763	1028.5
432.138	1039.58
432.514	1098.11
432.89	1069.41
433.265	1119.58
433.641	1104.21
434.016	1099.69
434.392	1141.5
434.767	1173.58
435.143	1154.38
435.518	1204.32
435.894	1218.56
436.269	1230.98
436.644	1250.19
437.02	1278.21
437.395	1258.78
437.77	1298.55
438.145	1334.03
438.52	1344.65
438.895	1357.53
439.271	1356.86
439.646	1389.17
440.021	1411.32
440.395	1375.16
440.77	1443.63
441.145	1438.89
441.52	1446.35
441.895	1466.91
442.27	1485.22
442.645	1490.86
443.019	1512.11
443.394	1525.89
443.769	1550.3
444.143	1505.33
444.518	1569.51
444.892	1569.05
445.267	1586.91
445.641	1605.66
446.016	1583.74
446.39	1602.05
446.764	1633.46
447.139	1632.78
447.513	1657.64
447.887	1669.39
448.262	1658.32
448.636	1676.62
449.01	1704.19
449.384	1719.33
449.758	1713.68
450.132	1711.88
450.506	1741.25
450.88	1733.57
451.254	1749.16
451.628	1779.44
452.002	1786
452.376	1799.33
452.75	1820.8
453.123	1854.7
453.497	1864.64
453.871	1867.58
454.244	1906.67
454.618	1921.59
454.992	1983.06
455.365	1958.2
455.739	1992.32
456.112	1989.38
456.486	2033.68
456.859	2027.57
457.232	2083.62
457.606	2033.45
457.979	2126.55
458.352	2133.79
458.725	2187.34
459.099	2159.1
459.472	2223.05
459.845	2227.57
460.218	2243.16
460.591	2257.62
460.964	2266.44
461.337	2324.06
461.71	2333.78
462.083	2353.21
462.456	2352.99
462.829	2358.41
463.201	2402.48
463.574	2424.85
463.947	2487
464.32	2515.24
464.692	2526.09
465.065	2540.1
465.438	2601.8
465.81	2603.6
466.183	2622.36
466.555	2695.13
466.928	2698.52
467.3	2687.9
467.672	2764.96
468.045	2810.83
468.417	2802.69
468.789	2815.12
469.161	2829.36
469.534	2895.35
469.906	2942.58
470.278	2946.87
470.65	2969.02
471.022	3044.72
471.394	3085.63
471.766	3115.45
472.138	3157.26
472.51	3199.75
472.882	3217.6
473.253	3299.18
473.625	3286.98
473.997	3398.61
474.369	3436.35
474.74	3423.92
475.112	3486.97
475.484	3542.56
475.855	3586.18
476.227	3582.11
476.598	3667.3
476.97	3707.08
477.341	3785.27
477.713	3812.84
478.084	3832.72
478.455	3929.9
478.827	3963.79
479.198	4087.63
479.569	4107.52
479.94	4173.51
480.311	4180.74
480.682	4259.15
481.053	4376.89
481.424	4422.99
481.795	4437.91
482.166	4488.75
482.537	4545.25
482.908	4614.62
483.279	4646.04
483.65	4701.4
484.021	4809.42
484.391	4824.56
484.762	4902.53
485.133	4930.77
485.503	5017.1
485.874	5102.75
486.244	5111.79
486.615	5205.8
486.985	5269.07
487.356	5296.64
487.726	5359.46
488.097	5468.84
488.467	5453.47
488.837	5585.22
489.207	5615.73
489.578	5674.94
489.948	5749.28
490.318	5764.65
490.688	5794.93
491.058	5901.37
491.428	5907.25
491.798	5948.15
492.168	6116.51
492.538	6127.35
492.908	6145.88
493.278	6267.24
493.648	6226.33
494.017	6319.89
494.387	6317.86
494.757	6425.88
495.126	6440.57
495.496	6444.18
495.866	6470.85
496.235	6557.17
496.605	6600.56
496.974	6606.21
497.344	6672.42
497.713	6648.47
498.082	6755.59
498.452	6764.4
498.821	6791.06
499.19	6789.26
499.559	6862.93
499.928	6946.31
500.298	6952.64
500.667	6964.85
501.036	6980.44
501.405	7014.34
501.774	7041.23
502.143	7080.1
502.512	7081.9
502.88	7168.91
503.249	7171.85
503.618	7179.3
503.987	7260.2
504.356	7278.96
504.724	7296.59
505.093	7272.41
505.462	7314.21
505.83	7361.67
506.199	7367.32
506.567	7429.24
506.936	7438.28
507.304	7473.08
507.672	7481.44
508.041	7534.1
508.409	7567.54
508.777	7567.09
509.145	7632.17
509.514	7662.91
509.882	7632.85
510.25	7692.28
510.618	7730.25
510.986	7791.72
511.354	7839.4
511.722	7805.27
512.09	7781.09
512.458	7782.9
512.826	7879.85
513.193	7891.83
513.561	7879.62
513.929	7898.15
514.297	8028.77
514.664	8005.5
515.032	7967.98
515.4	8047.75
515.767	8063.35
516.135	8068.54
516.502	7985.84
516.869	8061.99
517.237	8090.69
517.604	8078.04
517.972	8173.17
518.339	8234.87
518.706	8205.49
519.073	8165.49
519.44	8189.9
519.808	8289.1
520.175	8243.23
520.542	8373.17
520.909	8387.18
521.276	8303.57
521.643	8345.6
522.009	8367.97
522.376	8462.21
522.743	8395.54
523.11	8469.66
523.477	8521.41
523.843	8530.91
524.21	8565.93
524.577	8584.69
524.943	8628.53
525.31	8631.24
525.676	8707.62
526.043	8709.43
526.409	8699.94
526.776	8761.41
527.142	8727.06
527.508	8798.7
527.874	8837.34
528.241	8870.78
528.607	8853.83
528.973	8876.66
529.339	8877.34
529.705	8864.46
530.071	8953.72
530.437	8854.51
530.803	8949.65
531.169	8988.75
531.535	8925.47
531.901	8935.64
532.267	8901.97
532.632	8969.76
532.998	9008.63
533.364	9054.96
533.73	8982.42
534.095	9016.77
534.461	9006.83
534.826	9046.6
535.192	9041.63
535.557	9099.7
535.923	9072.36
536.288	9044.34
536.653	9062.87
537.019	8998.69
537.384	9039.14
537.749	9063.1
538.114	9112.36
538.479	9041.4
538.845	8990.78
539.21	9009.31
539.575	9061.06
539.94	9056.99
540.305	9102.64
540.67	9021.74
541.034	9038.24
541.399	9067.61
541.764	9018.12
542.129	9035.75
542.494	9028.75
542.858	9039.37
543.223	9042.08
543.587	9092.02
543.952	9014.51
544.316	8995.07
544.681	8969.54
545.045	9053.83
545.41	9021.97
545.774	8991.23
546.138	8998.46
546.503	9017.67
546.867	8955.3
547.231	9078.69
547.595	8954.17
547.959	9009.31
548.324	8966.37
548.688	8994.17
549.052	9031.91
549.416	8964.11
549.779	8973.38
550.143	9029.2
550.507	8981.52
550.871	9012.7
551.235	8950.78
551.599	8985.13
551.962	8958.92
552.326	9014.96
552.689	9004.57
553.053	8928.18
553.417	9004.34
553.78	9079.59
554.143	8957.34
554.507	8987.16
554.87	8960.5
555.234	9065.35
555.597	9025.13
555.96	9005.7
556.323	9080.72
556.686	9021.97
557.05	9054.28
557.413	9027.62
557.776	9065.13
558.139	9078.69
558.502	9068.07
558.865	9072.81
559.228	9090.21
559.59	9171.79
559.953	9122.08
560.316	9216.54
560.679	9172.7
561.041	9197.1
561.404	9191.45
561.767	9204.33
562.129	9188.74
562.492	9257.67
562.854	9295.86
563.217	9285.69
563.579	9281.62
563.941	9322.3
564.304	9410.88
564.666	9367.95
565.028	9401.17
565.39	9398.91
565.753	9373.6
566.115	9453.37
566.477	9520.94
566.839	9474.16
567.201	9578.79
567.563	9543.99
567.925	9585.34
568.287	9511.44
568.648	9612.91
569.01	9687.94
569.372	9680.93
569.734	9624.66
570.095	9747.37
570.457	9743.76
570.819	9726.58
571.18	9681.38
571.542	9745.34
571.903	9880.7
572.265	9831.21
572.626	9872.79
572.987	9858.1
573.349	9913.69
573.71	9961.6
574.071	9929.51
574.432	9960.47
574.794	9993.24
575.155	10007.25
575.516	9960.92
575.877	10064.88
576.238	10043.18
576.599	10090.86
576.96	10105.55
577.32	10129.06
577.681	10180.13
578.042	10164.08
578.403	10269.17
578.763	10222.84
579.124	10251.99
579.485	10291.54
579.845	10324.3
580.206	10266.68
580.566	10316.62
580.927	10350.07
581.287	10387.35
581.648	10360.24
582.008	10401.14
582.368	10422.16
582.728	10429.16
583.089	10458.99
583.449	10490.18
583.809	10495.83
584.169	10493.57
584.529	10467.35
584.889	10579.67
585.249	10556.16
585.609	10543.73
585.969	10566.33
586.329	10625.31
586.688	10632.32
587.048	10607.01
587.408	10554.58
587.768	10647.23
588.127	10640.91
588.487	10599.78
588.846	10723.39
589.206	10642.94
589.565	10629.16
589.925	10751.86
590.284	10691.75
590.643	10718.64
591.003	10787.57
591.362	10818.53
591.721	10769.26
592.08	10803.61
592.44	10831.18
592.799	10829.83
593.158	10801.81
593.517	10909.15
593.876	10902.59
594.235	10832.77
594.593	10830.05
594.952	10913.22
595.311	10918.41
595.67	10992.31
596.029	10976.04
596.387	10955.7
596.746	10946.44
597.104	10974.46
597.463	10874.35
597.822	10991.41
598.18	10960.67
598.538	10940.79
598.897	11045.64
599.255	10873.67
599.613	11064.62
599.972	11016.94
600.33	11009.48
600.688	11048.81
601.046	11098.07
601.404	11054
601.762	11060.1
602.12	11070.73
602.478	11067.34
602.836	11176.49
603.194	11072.53
603.552	11160.44
603.91	11068.24
604.268	11147.56
604.625	11052.2
604.983	11102.36
605.341	11103.04
605.698	11152.08
606.056	11167.9
606.413	11146.43
606.771	11201.57
607.128	11175.13
607.485	11144.17
607.843	11138.97
608.2	11241.12
608.557	11268.91
608.914	11208.12
609.272	11269.14
609.629	11286.09
609.986	11379.42
610.343	11294.45
610.7	11354.11
611.057	11305.52
611.414	11315.92
611.771	11322.47
612.127	11376.93
612.484	11404.28
612.841	11400.21
613.198	11360.44
613.554	11369.25
613.911	11390.04
614.267	11424.39
614.624	11394.33
614.98	11441.56
615.337	11478.62
615.693	11446.76
616.05	11459.64
616.406	11572.18
616.762	11525.63
617.118	11478.62
617.475	11473.2
617.831	11536.48
618.187	11515.69
618.543	11502.8
618.899	11572.86
619.255	11522.24
619.611	11499.42
619.967	11520.21
620.323	11565.18
620.678	11529.24
621.034	11521.34
621.39	11544.39
621.746	11536.7
622.101	11688.11
622.457	11583.71
622.812	11534.22
623.168	11618.73
623.523	11593.42
623.879	11616.47
624.234	11540.09
624.589	11595.91
624.945	11603.37
625.3	11607.89
625.655	11532.86
626.01	11567.66
626.365	11595.46
626.72	11611.73
627.075	11615.8
627.43	11542.13
627.785	11553.88
628.14	11503.03
628.495	11526.08
628.85	11613.08
629.205	11488.12
629.559	11530.83
629.914	11566.76
630.269	11498.96
630.623	11494.22
630.978	11386.2
631.332	11561.11
631.687	11452.86
632.041	11402.69
632.396	11463.94
632.75	11370.6
633.104	11457.38
633.459	11354.11
633.813	11412.19
634.167	11340.55
634.521	11293.54
634.875	11389.81
635.229	11282.47
635.583	11280.66
635.937	11332.41
636.291	11354.56
636.645	11305.97
636.999	11204.28
637.352	11242.47
637.706	11291.29
638.06	11229.59
638.413	11219.2
638.767	11234.34
639.121	11234.34
639.474	11120.44
639.828	11118.63
640.181	11145.53
640.534	11138.29
640.888	11117.5
641.241	11001.35
641.594	11053.33
641.947	11134
642.301	11079.54
642.654	11134.9
643.007	11134.9
643.36	10997.96
643.713	11020.78
644.066	11051.29
644.419	10971.07
644.771	10962.25
645.124	10854.46
645.477	10817.63
645.83	10736.5
646.182	10728.59
646.535	10656.5
646.888	10724.52
647.24	10662.15
647.593	10685.88
647.945	10630.96
648.298	10630.96
648.65	10623.28
649.002	10587.35
649.355	10650.62
649.707	10675.26
650.059	10715.25
650.411	10796.83
650.763	10736.05
651.115	10939.2
651.467	10942.82
651.819	10880.22
652.171	10833.44
652.523	10867.79
652.875	10871.41
653.227	10720.45
653.578	10934.23
653.93	10883.16
654.282	10851.07
654.633	10796.83
654.985	10853.1
655.337	10821.01
655.688	10849.94
656.039	10834.12
656.391	10786.89
656.742	10753.45
657.094	10793.67
657.445	10854.91
657.796	10838.64
658.147	10808.13
658.498	10807.68
658.849	10819.88
659.2	10832.77
659.551	10781.24
659.902	10822.37
660.253	10781.24
660.604	10816.27
660.955	10772.2
661.306	10845.42
661.656	10884.74
662.007	10869.83
662.358	10840.45
662.708	10879.54
663.059	10775.59
663.409	10805.87
663.76	10827.79
664.11	10812.2
664.461	10866.89
664.811	10923.84
665.161	10855.14
665.511	10805.87
665.862	10847.68
666.212	10847.91
666.562	10898.98
666.912	10859.21
667.262	10812.2
667.612	10844.29
667.962	10796.16
668.312	10822.14
668.662	10962.48
669.011	10885.65
669.361	10817.17
669.711	10807.46
670.06	10872.09
670.41	10814.91
670.76	10751.19
671.109	10854.23
671.459	10793.22
671.808	10759.55
672.157	10732.88
672.507	10687.01
672.856	10798.87
673.205	10767.23
673.554	10780.56
673.904	10819.66
674.253	10767.23
674.602	10760.68
674.951	10534.47
675.3	10564.3
675.649	10768.81
675.998	10667.8
676.346	10687.01
676.695	10701.24
677.044	10553.45
677.393	10615.82
677.741	10652.43
678.09	10650.62
678.438	10509.38
678.787	10599.78
679.135	10623.96
679.484	10495.37
679.832	10515.71
680.181	10461.25
680.529	10496.5
680.877	10475.71
681.225	10502.38
681.573	10451.76
681.922	10434.13
682.27	10422.38
682.618	10399.33
682.966	10315.27
683.314	10409.73
683.661	10363.17
684.009	10288.83
684.357	10261.26
684.705	10262.39
685.053	10350.74
685.4	10178.32
685.748	10227.13
686.095	10212.9
686.443	10155.04
686.79	10206.79
687.138	10124.08
687.485	10129.51
687.832	10080.24
688.18	10146.46
688.527	10068.72
688.874	9932.45
689.221	9975.84
689.568	9930.19
689.915	9920.25
690.262	9887.25
690.609	9899.46
690.956	9919.34
691.303	9868.72
691.65	9803.87
691.997	9776.75
692.344	9696.52
692.69	9719.57
693.037	9680.48
693.383	9584.89
693.73	9593.93
694.077	9559.81
694.423	9541.95
694.769	9526.36
695.116	9543.53
695.462	9489.98
695.808	9404.33
696.155	9410.2
696.501	9303.31
696.847	9345.57
697.193	9340.6
697.539	9320.04
697.885	9175.86
698.231	9209.31
698.577	9219.7
698.923	9213.83
699.269	9147.61
699.614	9066.71
699.96	9002.31
700.306	9111.46
700.651	9005.47
700.997	8953.49
701.342	8948.07
701.688	8965.24
702.033	8897
702.379	8933.83
702.724	8894.29
703.069	8863.1
703.415	8745.59
703.76	8713.5
704.105	8817
704.45	8748.75
704.795	8722.54
705.14	8611.36
705.485	8600.28
705.83	8583.56
706.175	8586.05
706.52	8578.81
706.865	8471.47
707.209	8523
707.554	8464.92
707.899	8472.15
708.243	8418.14
708.588	8372.72
708.932	8350.35
709.277	8275.55
709.621	8324.81
709.966	8263.12
710.31	8313.51
710.654	8239.84
710.998	8290.23
711.342	8246.62
711.687	8250.24
712.031	8128.66
712.375	8175.21
712.719	8140.86
713.063	8149.67
713.407	8204.36
713.75	8169.33
714.094	8083.69
714.438	8130.01
714.782	8038.49
715.125	8046.85
715.469	8071.48
715.812	8059.05
716.156	7976.8
716.499	7925.95
716.843	7924.14
717.186	7983.12
717.53	7885.95
717.873	7996.68
718.216	7923.46
718.559	7878.27
718.902	7882.34
719.246	7859.28
719.589	7897.02
719.932	7835.78
720.275	7846.18
720.617	7758.27
720.96	7822
721.303	7811.38
721.646	7833.07
721.989	7796.69
722.331	7826.97
722.674	7809.79
723.016	7776.8
723.359	7750.14
723.701	7762.56
724.044	7735.45
724.386	7698.16
724.729	7737.25
725.071	7703.58
725.413	7742.9
725.755	7702.45
726.097	7655.9
726.439	7655
726.782	7671.72
727.124	7713.07
727.465	7667.65
727.807	7691.15
728.149	7618.39
728.491	7603.7
728.833	7657.71
729.175	7562.57
729.516	7573.64
729.858	7595.11
730.199	7677.37
730.541	7606.64
730.882	7577.71
731.224	7628.1
731.565	7562.12
731.906	7612.06
732.248	7567.77
732.589	7563.47
732.93	7504.04
733.271	7554.66
733.612	7544.49
733.953	7551.72
734.294	7534.77
734.635	7520.54
734.976	7545.17
735.317	7499.07
735.658	7469.01
735.999	7530.93
736.339	7529.35
736.68	7527.32
737.021	7534.1
737.361	7506.98
737.702	7631.04
738.042	7551.95
738.383	7533.19
738.723	7550.14
739.063	7543.13
739.404	7638.73
739.744	7566.64
740.084	7571.38
740.424	7539.75
740.764	7515.34
741.104	7592.17
741.444	7559.41
741.784	7623.36
742.124	7599.4
742.464	7613.64
742.804	7625.17
743.143	7636.01
743.483	7667.88
743.823	7644.15
744.162	7635.56
744.502	7699.29
744.841	7664.26
745.181	7736.58
745.52	7787.65
745.86	7826.74
746.199	7817.7
746.538	7837.82
746.877	7897.93
747.216	7983.35
747.556	7940.41
747.895	7971.82
748.234	7967.98
748.573	8010.24
748.911	8033.07
749.25	8142.22
749.589	8134.53
749.928	8247.07
750.267	8281.42
750.605	8337.92
750.944	8325.26
751.283	8438.25
751.621	8552.15
751.96	8557.8
752.298	8635.99
752.636	8695.65
752.975	8754.4
753.313	8778.81
753.651	8906.26
753.989	8925.47
754.327	8981.29
754.666	9096.09
755.004	9221.96
755.342	9325.69
755.679	9457.89
756.017	9439.58
756.355	9599.58
756.693	9716.19
757.031	9849.29
757.368	10010.87
757.706	10023.3
758.044	10190.52
758.381	10309.84
758.719	10360.01
759.056	10515.49
759.394	10627.8
759.731	10737.63
760.068	10854.23
760.405	10920.9
760.743	11075.92
761.08	11270.27
761.417	11346.88
761.754	11423.94
762.091	11580.32
762.428	11722.69
762.765	11844.72
763.102	12048.78
763.438	12052.85
763.775	12164.71
764.112	12395.44
764.449	12456.9
764.785	12591.82
765.122	12656.22
765.458	12795.65
765.795	12932.82
766.131	13034.74
766.467	13123.33
766.804	13312.02
767.14	13325.58
767.476	13424.56
767.812	13524.9
768.148	13608.51
768.485	13745.91
768.821	13761.28
769.157	13884.89
769.492	13970.31
769.828	14046.01
770.164	14074.26
770.5	14163.07
770.836	14282.39
771.171	14385.67
771.507	14384.76
771.842	14434.48
772.178	14535.27
772.513	14576.85
772.849	14657.52
773.184	14652.1
773.519	14691.87
773.855	14746.34
774.19	14793.79
774.525	14868.14
774.86	14959.44
775.195	14974.13
775.53	14945.2
775.865	15023.39
776.2	15001.24
776.535	14929.61
776.87	15072.43
777.205	14997.63
777.539	15070.85
777.874	15212.54
778.209	15086.21
778.543	15161.24
778.878	15110.85
779.212	15200.33
779.547	15209.15
779.881	15244.4
780.215	15136.61
780.55	15320.11
780.884	15119.43
781.218	15196.27
781.552	15282.14
781.886	15199.2
782.22	15189.04
782.554	15168.02
782.888	15091.86
783.222	15035.82
783.556	15109.72
783.889	15095.03
784.223	14958.53
784.557	15077.17
784.89	15093.22
785.224	15036.95
785.557	14943.39
785.891	15025.2
786.224	14927.57
786.558	15029.94
786.891	14916.27
787.224	14836.5
787.557	14755.83
787.891	14905.2
788.224	14869.04
788.557	14902.26
788.89	14875.15
789.223	14902.49
789.556	14847.12
789.888	14803.96
790.221	14800.35
790.554	14662.27
790.887	14698.43
791.219	14688.94
791.552	14657.75
791.884	14569.16
792.217	14602.16
792.549	14544.53
792.882	14463.41
793.214	14398.1
793.546	14523.06
793.879	14394.48
794.211	14341.37
794.543	14421.15
794.875	14440.13
795.207	14397.19
795.539	14343.18
795.871	14340.92
796.203	14183.86
796.535	14123.07
796.867	14183.64
797.198	14154.49
797.53	14196.29
797.862	14000.14
798.193	14060.93
798.525	13908.62
798.856	14020.48
799.188	13864.1
799.519	13770.99
799.85	13759.92
800.182	13789.98
800.513	13834.95
800.844	13731.9
801.175	13800.15
801.506	13749.53
801.837	13764.89
802.168	13647.61
802.499	13600.83
802.83	13487.84
803.161	13564.22
803.491	13532.81
803.822	13482.19
804.153	13507.95
804.483	13416.2
804.814	13328.07
805.145	13278.35
805.475	13281.52
805.805	13210.33
806.136	13251.69
806.466	13219.37
806.796	13241.06
807.126	13184.12
807.457	13092.59
807.787	13103.21
808.117	13112.03
808.447	13006.95
808.777	13128.75
809.107	13084.01
809.436	13027.28
809.766	12977.34
810.096	12876.55
810.426	12900.28
810.755	12846.05
811.085	12782.32
811.414	12857.35
811.744	12711.13
812.073	12742.32
812.403	12754.07
812.732	12642.89
813.061	12619.61
813.39	12661.42
813.719	12639.5
814.049	12636.56
814.378	12601.53
814.707	12568.99
815.036	12536.22
815.365	12467.75
815.693	12349.79
816.022	12363.8
816.351	12349.11
816.68	12305.72
817.008	12383.01
817.337	12284.93
817.665	12249.68
817.994	12289.22
818.322	12290.13
818.651	12270.92
818.979	12151.38
819.307	12226.4
819.636	12179.85
819.964	12097.82
820.292	12137.36
820.62	12076.58
820.948	12140.98
821.276	12141.43
821.604	12140.08
821.932	12136.23
822.259	12180.53
822.587	12131.71
822.915	12062.56
823.243	12062.79
823.57	12112.51
823.898	12060.08
824.225	12062.34
824.553	12082
824.88	12071.6
825.207	12111.6
825.535	11975.56
825.862	12166.97
826.189	11979.85
826.516	12128.55
826.843	12138.27
827.17	12089.46
827.497	12135.33
827.824	12135.1
828.151	12177.14
828.478	12024.15
828.805	12122
829.131	12027.99
829.458	12077.25
829.785	12043.36
830.111	12074.77
830.438	12120.64
830.764	12154.54
831.09	12122.45
831.417	12004.26
831.743	12069.57
832.069	12088.55
832.395	12007.88
832.722	12103.47
833.048	12063.92
833.374	12014.43
833.7	12030.25
834.026	12030.7
834.351	12043.36
834.677	12033.19
835.003	12018.72
835.329	12029.57
835.654	12018.72
835.98	11874.09
836.306	11939.63
836.631	11919.52
836.956	11968.56
837.282	11961.1
837.607	11905.28
837.932	11799.52
838.258	11792.97
838.583	11737.83
838.908	11850.59
839.233	11755.23
839.558	11713.19
839.883	11729.47
840.208	11745.96
840.533	11626.64
840.858	11660.31
841.182	11674.1
841.507	11683.37
841.832	11631.16
842.156	11562.01
842.481	11471.17
842.805	11537.38
843.13	11498.06
843.454	11549.13
843.778	11499.64
844.103	11478.62
844.427	11367.22
844.751	11416.93
845.075	11391.4
845.399	11285.18
845.723	11311.62
846.047	11260.78
846.371	11197.28
846.695	11243.83
847.019	11081.35
847.343	11124.51
847.666	10997.96
847.99	10977.39
848.313	11014.91
848.637	10875.02
848.96	10880.45
849.284	10797.96
849.607	10704.63
849.931	10784.18
850.254	10684.75
850.577	10662.6
850.9	10519.78
851.223	10538.08
851.546	10532.43
851.869	10411.08
852.192	10420.12
852.515	10323.17
852.838	10304.87
853.161	10362.27
853.483	10287.02
853.806	10236.17
854.129	10269.17
854.451	10207.7
854.774	10176.96
855.096	10074.82
855.419	10165.44
855.741	10062.16
856.063	10027.59
856.385	9987.14
856.708	9974.03
857.03	9952.34
857.352	9910.98
857.674	9909.4
857.996	9834.83
858.318	9891.1
858.64	9753.47
858.961	9826.01
859.283	9756.64
859.605	9752.57
859.926	9742.17
860.248	9693.36
860.57	9704.66
860.891	9602.52
861.212	9591.22
861.534	9579.69
861.855	9591.67
862.176	9569.07
862.498	9582.4
862.819	9568.17
863.14	9454.95
863.461	9457.21
863.782	9452.92
864.103	9455.85
864.424	9488.39
864.745	9485.91
865.065	9361.17
865.386	9287.95
865.707	9345.8
866.027	9353.26
866.348	9282.75
866.668	9300.15
866.989	9326.59
867.309	9188.97
867.63	9250.89
867.95	9230.55
868.27	9252.24
868.59	9228.51
868.91	9199.81
869.23	9188.97
869.55	9216.99
869.87	9165.92
870.19	9139.93
870.51	9154.17
870.83	9159.59
871.15	9071.91
871.469	9011.34
871.789	9096.31
872.109	9077.56
872.428	8994.85
872.748	9017.67
873.067	9036.43
873.386	9007.5
873.706	9060.61
874.025	8948.52
874.344	8944.68
874.663	8953.95
874.982	8897.22
875.301	8955.75
875.62	8906.26
875.939	8854.96
876.258	8910.56
876.577	8826.27
876.896	8771.8
877.214	8797.34
877.533	8832.37
877.852	8816.55
878.17	8836.21
878.489	8765.48
878.807	8755.08
879.125	8736.32
879.444	8695.2
879.762	8681.41
880.08	8725.25
880.398	8624.01
880.716	8695.87
881.034	8672.14
881.352	8621.3
881.67	8633.05
881.988	8621.52
882.306	8643.67
882.624	8508.53
882.941	8486.84
883.259	8520.96
883.577	8475.31
883.894	8504.69
884.212	8470.12
884.529	8459.27
884.846	8469.44
885.164	8385.82
885.481	8390.8
885.798	8405.71
886.115	8228.99
886.432	8309.22
886.75	8237.58
887.067	8297.47
887.383	8257.69
887.7	8277.8
888.017	8169.56
888.334	8221.31
888.651	8172.5
888.967	8197.81
889.284	8100.41
889.6	8165.04
889.917	8113.74
890.233	8058.83
890.55	8124.36
890.866	8088.21
891.182	8057.02
891.498	8002.78
891.815	7937.93
892.131	7899.28
892.447	7956.68
892.763	7892.73
893.079	7856.57
893.395	7822
893.71	7850.7
894.026	7832.39
894.342	7788.33
894.657	7705.16
894.973	7733.64
895.289	7732.51
895.604	7678.05
895.92	7617.26
896.235	7590.59
896.55	7557.15
896.865	7550.59
897.181	7500.88
897.496	7578.16
897.811	7446.87
898.126	7441.67
898.441	7443.48
898.756	7429.69
899.071	7396.47
899.386	7299.75
899.7	7291.16
900.015	7239.41
900.33	7188.57
900.644	7264.05
900.959	7229.92
901.273	7168.91
901.588	7169.13
901.902	7131.85
902.216	7097.95
902.531	7097.27
902.845	7062.7
903.159	7047.1
903.473	6954.22
903.787	6951.96
904.101	6935.69
904.415	6922.59
904.729	6898.18
905.042	6866.77
905.356	6840.1
905.67	6835.58
905.984	6826.09
906.297	6784.06
906.611	6709.26
906.924	6728.24
907.237	6714.46
907.551	6726.21
907.864	6600.11
908.177	6556.49
908.491	6597.85
908.804	6571.64
909.117	6588.81
909.43	6436.95
909.743	6466.33
910.056	6500.45
910.368	6496.38
910.681	6405.31
910.994	6419.1
911.307	6347.46
911.619	6318.53
911.932	6324.64
912.244	6281.7
912.557	6298.42
912.869	6243.96
913.181	6230.4
913.494	6227.92
913.806	6176.84
914.118	6178.88
914.43	6109.95
914.742	6115.38
915.054	6077.86
915.366	6053.68
915.678	6052.33
915.99	5988.37
916.302	5967.81
916.613	5956.51
916.925	5926
917.236	5905.66
917.548	5875.61
917.859	5881.94
918.171	5769.17
918.482	5813.24
918.794	5733.69
919.105	5752.9
919.416	5726.69
919.727	5736.18
920.038	5726.23
920.349	5662.28
920.66	5668.38
920.971	5654.15
921.282	5660.47
921.593	5565.11
921.903	5565.33
922.214	5554.94
922.525	5499.35
922.835	5511.78
923.146	5474.26
923.456	5435.39
923.767	5382.97
924.077	5392.68
924.387	5320.14
924.697	5320.82
925.008	5316.07
925.318	5309.75
925.628	5285.79
925.938	5263.19
926.248	5216.42
926.558	5239.47
926.867	5199.47
927.177	5192.01
927.487	5135.29
927.796	5135.51
928.106	5126.25
928.416	5093.03
928.725	5079.92
929.034	5073.14
929.344	5080.37
929.653	5052.8
929.962	5002.64
930.271	4980.04
930.581	4918.8
930.89	4901.85
931.199	4900.72
931.508	4911.79
931.817	4899.59
932.125	4905.24
932.434	4806.03
932.743	4831.57
933.051	4727.84
933.36	4790.66
933.669	4764.23
933.977	4723.55
934.286	4776.2
934.594	4707.05
934.902	4681.74
935.21	4639.26
935.519	4628.18
935.827	4655.98
936.135	4626.83
936.443	4540.5
936.751	4601.97
937.059	4519.71
937.367	4528.07
937.674	4510.22
937.982	4529.88
938.29	4477
938.597	4451.01
938.905	4455.53
939.213	4413.95
939.52	4391.58
939.827	4418.7
940.135	4394.97
940.442	4301.41
940.749	4366.27
941.056	4337.12
941.363	4253.73
941.67	4272.26
941.977	4260.74
942.284	4204.01
942.591	4242.2
942.898	4213.96
943.205	4196.56
943.511	4199.04
943.818	4096.22
944.125	4134.86
944.431	4122.43
944.738	4128.54
945.044	4043.79
945.35	4048.31
945.657	4052.61
945.963	3986.62
946.269	4001.99
946.575	4009.22
946.881	3961.08
947.187	3955.88
947.493	3961.08
947.799	3920.86
948.105	3924.7
948.41	3886.06
948.716	3930.8
949.022	3861.2
949.327	3864.14
949.633	3807.19
949.938	3794.98
950.244	3810.8
950.549	3787.3
950.854	3779.62
951.16	3734.87
951.465	3751.14
951.77	3736.68
952.075	3711.6
952.38	3718.83
952.685	3719.51
952.99	3674.76
953.294	3652.84
953.599	3606.06
953.904	3613.52
954.209	3592.05
954.513	3590.02
954.818	3524.94
955.122	3549.34
955.426	3519.06
955.731	3519.29
956.035	3493.98
956.339	3487.65
956.643	3469.57
956.948	3478.38
957.252	3450.81
957.556	3467.08
957.86	3418.27
958.163	3408.78
958.467	3393.87
958.771	3348.44
959.075	3344.38
959.378	3315.68
959.682	3341.66
959.985	3311.61
960.289	3297.14
960.592	3268.45
960.896	3258.5
961.199	3271.61
961.502	3258.28
961.805	3240.88
962.108	3239.75
962.411	3176.24
962.714	3159.07
963.017	3165.85
963.32	3204.94
963.623	3144.15
963.926	3130.14
964.228	3154.55
964.531	3139.41
964.833	3149.8
965.136	3097.38
965.438	3074.1
965.741	3016.7
966.043	3045.85
966.345	3038.17
966.648	2984.16
966.95	3008.34
967.252	3016.02
967.554	2996.81
967.856	2966.98
968.158	2936.25
968.46	2962.24
968.761	2933.54
969.063	2921.34
969.365	2926.99
969.666	2904.16
969.968	2860.77
970.269	2870.49
970.571	2840.21
970.872	2835.91
971.174	2848.57
971.475	2825.97
971.776	2825.07
972.077	2753.2
972.378	2799.76
972.679	2724.5
972.98	2762.24
973.281	2753.43
973.582	2719.53
973.883	2743.94
974.183	2707.33
974.484	2706.2
974.785	2719.31
975.085	2688.57
975.386	2715.47
975.686	2647.67
975.986	2636.37
976.287	2626.43
976.587	2616.03
976.887	2608.35
977.187	2594.11
977.487	2613.77
977.787	2557.96
978.087	2553.89
978.387	2553.66
978.687	2588.91
978.987	2550.5
979.286	2515.47
979.586	2498.97
979.885	2486.09
980.185	2507.56
980.484	2474.79
980.784	2475.47
981.083	2446.77
981.382	2453.1
981.682	2443.61
981.981	2424.63
982.28	2431.86
982.579	2413.33
982.878	2418.98
983.177	2394.12
983.475	2360.67
983.774	2331.07
984.073	2334.91
984.372	2311.18
984.67	2327.68
984.969	2337.17
985.267	2326.1
985.566	2301.24
985.864	2294.91
986.162	2287.91
986.461	2246.55
986.759	2282.71
987.057	2227.12
987.355	2232.54
987.653	2209.49
987.951	2235.48
988.249	2209.04
988.547	2219.21
988.844	2177.17
989.142	2166.33
989.44	2177.85
989.737	2165.65
990.035	2159.77
990.332	2154.35
990.63	2139.66
990.927	2123.16
991.224	2081.58
991.521	2133.79
991.819	2100.79
992.116	2071.64
992.413	2104.18
992.71	2045.88
993.006	2043.39
993.303	2039.32
993.6	2049.49
993.897	2044.75
994.193	2004.98
994.49	2005.65
994.787	1993.22
995.083	1997.52
995.379	1971.98
995.676	1977.18
995.972	1985.77
996.268	1964.98
996.565	1953.23
996.861	1959.78
997.157	1960.91
997.453	1909.61
997.749	1891.08
998.044	1908.71
998.34	1905.32
998.636	1869.39
998.932	1903.06
999.227	1826.68
999.523	1860.57
999.818	1842.49
1000.114	1816.96
1000.409	1820.57
1000.704	1817.41
1001	1826
1001.295	1785.32
1001.59	1805.88
1001.885	1805.43
1002.18	1758.88
1002.475	1782.16
1002.77	1799.56
1003.065	1727.02
1003.359	1748.49
1003.654	1728.37
1003.949	1693.8
1004.243	1719.33
1004.538	1685.66
1004.832	1679.33
1005.127	1684.98
1005.421	1685.66
1005.715	1659.67
1006.009	1640.01
1006.304	1653.35
1006.598	1616.96
1006.892	1618.32
1007.186	1599.79
1007.48	1621.26
1007.773	1606.79
1008.067	1579.9
1008.361	1574.48
1008.655	1574.03
1008.948	1559.56
1009.242	1562.95
1009.535	1522.5
1009.829	1532.45
1010.122	1546
1010.415	1536.06
1010.708	1516.63
1011.001	1481.83
1011.295	1474.82
1011.588	1482.96
1011.881	1479.34
1012.173	1488.15
1012.466	1482.73
1012.759	1459.68
1013.052	1445.22
1013.344	1485.67
1013.637	1433.01
1013.93	1416.29
1014.222	1389.17
1014.514	1403.86
1014.807	1390.98
1015.099	1387.36
1015.391	1390.75
1015.683	1365.67
1015.976	1366.35
1016.268	1335.16
1016.56	1307.82
1016.851	1341.49
1017.143	1325.22
1017.435	1318.44
1017.727	1340.36
1018.018	1323.19
1018.31	1301.94
1018.602	1281.6
1018.893	1248.61
1019.185	1259.91
1019.476	1286.8
1019.767	1278.44
1020.058	1267.82
1020.35	1250.19
1020.641	1243.64
1020.932	1225.11
1021.223	1223.53
1021.514	1211.32
1021.804	1228.05
1022.095	1233.02
1022.386	1189.86
1022.677	1201.38
1022.967	1185.56
1023.258	1147.6
1023.548	1177.43
1023.839	1172.68
1024.129	1173.13
1024.419	1136.98
1024.709	1124.32
1025	1131.33
1025.29	1133.59
1025.58	1124.55
1025.87	1080.03
1026.16	1102.4
1026.449	1083.64
1026.739	1093.81
1027.029	1070.76
1027.319	1067.37
1027.608	1067.15
1027.898	1053.36
1028.187	1068.28
1028.477	1059.01
1028.766	1052.01
1029.055	1038.22
1029.344	1030.09
1029.634	1023.53
1029.923	1035.06
1030.212	1013.14
1030.501	994.15
1030.79	1014.04
1031.078	980.37
1031.367	998.67
1031.656	1011.33
1031.945	989.63
1032.233	971.1
1032.522	968.17
1032.81	934.95
1033.099	943.08
1033.387	943.76
1033.675	946.47
1033.963	940.6
1034.251	929.52
1034.54	928.85
1034.828	907.6
1035.116	913.48
1035.403	901.05
1035.691	899.47
1035.979	875.97
1036.267	886.36
1036.554	882.97
1036.842	855.63
1037.129	889.3
1037.417	871.67
1037.704	860.6
1037.992	861.05
1038.279	850.88
1038.566	852.92
1038.853	852.92
1039.14	852.92
