Data from hue_200_FLMS001491_00056.txt Node
Date: Tue Feb 07 16:43:38 GMT 2017
User: dcchb
Spectrometer: FLMS00149
Trigger mode: 0
Integration Time (sec): 2.000000E-2
Scans to average: 10
Electric dark correction enabled: true
Nonlinearity correction enabled: false
Boxcar width: 0
XAxis mode: Wavelengths
Number of Pixels in Spectrum: 2048
>>>>>Begin Spectral Data<<<<<
341.393	2.16
341.776	2.16
342.16	2.16
342.543	-55.46
342.927	-66.76
343.31	-71.51
343.693	-64.28
344.077	-62.92
344.46	-50.04
344.843	-80.32
345.226	-48.69
345.61	-25.41
345.993	-14.11
346.376	-9.14
346.759	-0.1
347.142	41.26
347.525	39.22
347.908	67.7
348.291	78.54
348.674	96.85
349.057	102.95
349.44	113.57
349.823	124.87
350.206	171.87
350.588	185.43
350.971	204.42
351.354	220.23
351.737	224.75
352.119	264.53
352.502	259.56
352.884	259.1
353.267	275.83
353.65	300.23
354.032	287.58
354.414	297.52
354.797	305.66
355.179	301.81
355.562	318.31
355.944	317.18
356.326	323.06
356.709	330.06
357.091	348.14
357.473	349.27
357.855	339.1
358.238	323.06
358.62	340.46
359.002	310.4
359.384	344.75
359.766	325.77
360.148	342.49
360.53	318.54
360.912	328.93
361.294	340.23
361.676	339.33
362.057	332.55
362.439	316.28
362.821	332.55
363.203	319.89
363.584	339.55
363.966	314.47
364.348	321.47
364.729	309.05
365.111	308.14
365.493	316.05
365.874	323.51
366.256	289.16
366.637	283.96
367.019	311.08
367.4	313.34
367.781	294.13
368.163	330.51
368.544	281.48
368.925	299.55
369.306	311.31
369.688	317.63
370.069	300.91
370.45	290.06
370.831	299.1
371.212	313.11
371.593	296.39
371.974	316.5
372.355	318.08
372.736	325.54
373.117	324.19
373.498	315.83
373.879	320.34
374.26	322.15
374.641	302.72
375.021	327.12
375.402	321.93
375.783	330.06
376.163	307.92
376.544	310.4
376.925	307.46
377.305	308.14
377.686	331.87
378.066	344.3
378.447	301.81
378.827	323.51
379.208	317.18
379.588	323.06
379.968	333.45
380.349	326.9
380.729	326.22
381.109	326.45
381.489	323.06
381.87	316.73
382.25	295.26
382.63	336.84
383.01	342.94
383.39	352.43
383.77	339.55
384.15	331.42
384.53	322.83
384.91	319.21
385.29	329.84
385.67	361.7
386.049	369.38
386.429	358.99
386.809	356.05
387.189	337.29
387.568	354.69
387.948	350.63
388.328	364.64
388.707	347.24
389.087	355.15
389.466	342.72
389.846	355.37
390.225	372.77
390.605	357.41
390.984	345.88
391.363	386.78
391.743	355.82
392.122	368.7
392.501	376.16
392.881	383.85
393.26	379.1
393.639	374.81
394.018	370.96
394.397	366.9
394.776	375.71
395.155	390.17
395.534	386.33
395.913	398.76
396.292	393.11
396.671	382.04
397.05	391.53
397.429	394.47
397.808	406.44
398.186	387.69
398.565	389.95
398.944	426.78
399.323	385.88
399.701	412.09
400.08	413.68
400.458	412.77
400.837	397.86
401.215	417.52
401.594	428.36
401.972	431.98
402.351	415.03
402.729	423.84
403.107	430.17
403.486	437.18
403.864	433.79
404.242	447.8
404.62	430.4
404.999	434.92
405.377	459.1
405.755	455.03
406.133	445.09
406.511	455.71
406.889	470.85
407.267	494.8
407.645	479.89
408.023	502.49
408.401	489.83
408.779	510.85
409.156	489.15
409.534	501.81
409.912	509.94
410.29	533.9
410.667	537.97
411.045	548.14
411.422	560.79
411.8	541.81
412.178	558.98
412.555	584.74
412.933	582.94
413.31	603.95
413.687	589.72
414.065	613.9
414.442	625.2
414.819	609.83
415.197	641.24
415.574	634.91
415.951	649.15
416.328	659.32
416.705	664.74
417.082	692.54
417.46	674.01
417.837	693.44
418.214	696.38
418.591	710.39
418.967	711.29
419.344	748.13
419.721	743.61
420.098	754.01
420.475	736.15
420.852	778.19
421.228	789.03
421.605	793.33
421.982	806.66
422.358	813.21
422.735	829.71
423.111	837.62
423.488	868.8
423.864	889.14
424.241	892.53
424.617	897.96
424.994	945.86
425.37	945.86
425.746	965.98
426.123	959.2
426.499	981.34
426.875	992.64
427.251	1022.02
427.627	1032.87
428.003	1030.61
428.379	1036.94
428.756	1051.85
429.132	1075.81
429.507	1088.46
429.883	1110.15
430.259	1109.48
430.635	1142.24
431.011	1131.85
431.387	1160.77
431.763	1173.2
432.138	1205.97
432.514	1218.17
432.89	1219.53
433.265	1270.15
433.641	1283.94
434.016	1329.36
434.392	1315.35
434.767	1368.68
435.143	1387.89
435.518	1394.67
435.894	1424.04
436.269	1457.94
436.644	1476.47
437.02	1470.6
437.395	1534.32
437.77	1537.49
438.145	1578.16
438.52	1610.48
438.895	1656.35
439.271	1665.85
439.646	1687.77
440.021	1711.27
440.395	1720.99
440.77	1717.37
441.145	1755.56
441.52	1820.87
441.895	1818.38
442.27	1842.56
442.645	1859.74
443.019	1865.39
443.394	1914.65
443.769	1944.93
444.143	1934.09
444.518	1944.71
444.892	1965.5
445.267	1986.74
445.641	1990.81
446.016	1991.71
446.39	2014.76
446.764	2060.64
447.139	2089.34
447.513	2092.95
447.887	2085.72
448.262	2137.02
448.636	2130.47
449.01	2157.36
449.384	2192.84
449.758	2197.36
450.132	2241.88
450.506	2221.54
450.88	2244.81
451.254	2275.55
451.628	2288.88
452.002	2352.16
452.376	2344.25
452.75	2405.94
453.123	2397.35
453.497	2409.1
453.871	2445.03
454.244	2492.04
454.618	2463.57
454.992	2545.14
455.365	2546.27
455.739	2614.07
456.112	2642.77
456.486	2662.66
456.859	2657.01
457.232	2714.63
457.606	2752.6
457.979	2737.91
458.352	2776.33
458.725	2811.8
459.099	2875.31
459.472	2920.73
459.845	2901.07
460.218	2936.1
460.591	2974.74
460.964	2981.97
461.337	3072.81
461.71	3107.39
462.083	3151.68
462.456	3184.68
462.829	3191.91
463.201	3198.69
463.574	3239.59
463.947	3272.13
464.32	3339.02
464.692	3399.81
465.065	3444.33
465.438	3480.94
465.81	3548.73
466.183	3582.18
466.555	3641.61
466.928	3606.13
467.3	3633.25
467.672	3735.62
468.045	3798.9
468.417	3795.73
468.789	3828.28
469.161	3906.24
469.534	3937.65
469.906	4037.08
470.278	4019.46
470.65	4103.07
471.022	4126.35
471.394	4209.06
471.766	4221.94
472.138	4284.31
472.51	4340.35
472.882	4416.73
473.253	4452.21
473.625	4532.66
473.997	4665.32
474.369	4633
474.74	4687.46
475.112	4746.44
475.484	4831.86
475.855	4927.68
476.227	4973.1
476.598	5095.59
476.97	5139.65
477.341	5167
477.713	5337.61
478.084	5340.33
478.455	5495.12
478.827	5531.06
479.198	5683.59
479.569	5674.1
479.94	5829.35
480.311	5849.46
480.682	5957.03
481.053	6115.9
481.424	6165.39
481.795	6195.67
482.166	6322.9
482.537	6364.48
482.908	6467.3
483.279	6540.97
483.65	6726.96
484.021	6752.04
484.391	6829.78
484.762	6825.71
485.133	6909.1
485.503	7028.87
485.874	7145.7
486.244	7269.77
486.615	7276.55
486.985	7397.22
487.356	7479.7
487.726	7568.06
488.097	7730.32
488.467	7751.56
488.837	7887.6
489.207	7934.16
489.578	8008.28
489.948	8102.74
490.318	8237.42
490.688	8279.23
491.058	8349.06
491.428	8381.38
491.798	8532.11
492.168	8691.65
492.538	8678.99
492.908	8800.8
493.278	8836.05
493.648	8856.84
494.017	8890.06
494.387	9003.96
494.757	8946.56
495.126	9077.4
495.496	9091.41
495.866	9191.98
496.235	9172.99
496.605	9312.42
496.974	9320.33
497.344	9401.24
497.713	9410.73
498.082	9497.96
498.452	9570.27
498.821	9580.44
499.19	9579.76
499.559	9700.21
499.928	9758.06
500.298	9724.39
500.667	9824.5
501.036	9744.96
501.405	9855.24
501.774	9833.09
502.143	9893.2
502.512	9880.55
502.88	9961.9
503.249	9993.99
503.618	10090.71
503.987	10045.74
504.356	10139.07
504.724	10136.13
505.093	10154.21
505.462	10166.87
505.83	10245.73
506.199	10322.79
506.567	10392.4
506.936	10264.72
507.304	10391.94
507.672	10430.59
508.041	10433.98
508.409	10420.87
508.777	10524.37
509.145	10588.55
509.514	10506.52
509.882	10522.11
510.25	10587.65
510.618	10595.78
510.986	10634.65
511.354	10667.19
511.722	10727.3
512.09	10815.21
512.458	10733.63
512.826	10794.42
513.193	10697.02
513.561	10694.99
513.929	10835.55
514.297	10857.92
514.664	10820.41
515.032	10842.55
515.4	10946.51
515.767	10904.25
516.135	10941.76
516.502	10830.35
516.869	10977.01
517.237	10915.77
517.604	10923.23
517.972	11013.4
518.339	11017.01
518.706	10968.43
519.073	10970.91
519.44	10970.01
519.808	11120.96
520.175	11009.1
520.542	11083.9
520.909	11125.26
521.276	11051.14
521.643	11112.6
522.009	11090.23
522.376	11134.07
522.743	11097.69
523.11	11205.71
523.477	11174.75
523.843	11177.23
524.21	11342.65
524.577	11229.44
524.943	11303.56
525.31	11267.63
525.676	11336.33
526.043	11326.38
526.409	11284.12
526.776	11367.29
527.142	11356.44
527.508	11372.71
527.874	11292.94
528.241	11329.55
528.607	11199.15
528.973	11278.93
529.339	11195.99
529.705	11302.88
530.071	11381.52
530.437	11295.2
530.803	11329.77
531.169	11284.8
531.535	11171.13
531.901	11128.2
532.267	11186.05
532.632	11174.75
532.998	11213.84
533.364	11117.8
533.73	11113.06
534.095	11114.86
534.461	11067.41
534.826	11019.95
535.192	11083.68
535.557	11152.15
535.923	10925.94
536.288	10957.13
536.653	10941.08
537.019	10913.96
537.384	10832.84
537.749	10861.76
538.114	10842.55
538.479	10873.97
538.845	10764.59
539.21	10676.68
539.575	10698.15
539.94	10599.4
540.305	10611.83
540.67	10582.67
541.034	10530.92
541.399	10474.65
541.764	10500.64
542.129	10445.73
542.494	10380.42
542.858	10405.96
543.223	10269.46
543.587	10280.99
543.952	10267.2
544.316	10203.47
544.681	10140.65
545.045	10162.12
545.41	10112.18
545.774	10051.39
546.138	10052.97
546.503	9950.83
546.867	9887.55
547.231	9930.49
547.595	9850.94
547.959	9819.98
548.324	9724.62
548.688	9720.55
549.052	9727.33
549.416	9707.89
549.779	9658.63
550.143	9666.31
550.507	9545.19
550.871	9528.46
551.235	9529.14
551.599	9554.9
551.962	9500.67
552.326	9511.52
552.689	9445.75
553.053	9343.16
553.417	9354.23
553.78	9404.63
554.143	9282.59
554.507	9269.26
554.87	9285.31
555.234	9290.05
555.597	9148.59
555.96	9116.72
556.323	9177.29
556.686	9128.47
557.05	9121.47
557.413	9109.72
557.776	9033.79
558.139	9062.71
558.502	8992.66
558.865	9042.83
559.228	9049.38
559.59	9020
559.953	8972.55
560.316	8990.85
560.679	8942.72
561.041	9020.91
561.404	9008.93
561.767	8996.27
562.129	8961.93
562.492	8977.74
562.854	8942.94
563.217	8928.25
563.579	8934.81
563.941	8939.33
564.304	8935.03
564.666	8968.48
565.028	8954.02
565.39	9034.47
565.753	8936.39
566.115	9046.44
566.477	8957.86
566.839	8884.19
567.201	8956.28
567.563	8897.52
567.925	8931.42
568.287	8950.4
568.648	8985.43
569.01	8948.37
569.372	8967.35
569.734	8889.38
570.095	8977.52
570.457	9027.01
570.819	8989.95
571.18	8959.89
571.542	8987.69
571.903	8940.68
572.265	9009.83
572.626	9072.43
572.987	9079.21
573.349	9062.71
573.71	9045.09
574.071	9052.54
574.432	9019.55
574.794	9056.61
575.155	9051.19
575.516	8982.49
575.877	9012.32
576.238	9029.27
576.599	9099.1
576.96	9053.9
577.32	9053
577.681	9070.62
578.042	9071.53
578.403	9104.75
578.763	9135.71
579.124	9074.92
579.485	9088.48
579.845	9115.14
580.206	9052.09
580.566	9095.93
580.927	9100.45
581.287	9115.14
581.648	9048.02
582.008	9097.52
582.368	9094.13
582.728	9131.19
583.089	9024.3
583.449	8993.11
583.809	9043.73
584.169	9045.31
584.529	9043.73
584.889	9074.46
585.249	9024.52
585.609	8947.46
585.969	9022.49
586.329	8962.15
586.688	8991.3
587.048	8987.46
587.408	8977.29
587.768	8993.34
588.127	8971.64
588.487	8976.61
588.846	9023.62
589.206	8975.26
589.565	8959.67
589.925	9075.59
590.284	8904.75
590.643	8982.72
591.003	8996.73
591.362	8997.86
591.721	8952.66
592.08	8933.23
592.44	8988.14
592.799	8925.77
593.158	8897.75
593.517	8897.29
593.876	8933.45
594.235	8883.28
594.593	8876.96
594.952	8952.21
595.311	8840.57
595.67	8928.71
596.029	8973.22
596.387	8927.35
596.746	8859.33
597.104	8941.13
597.463	8830.18
597.822	8908.14
598.18	8870.63
598.538	8846.67
598.897	8874.02
599.255	8853
599.613	8940.46
599.972	8896.16
600.33	8830.63
600.688	8873.11
601.046	8896.62
601.404	8857.52
601.762	8861.14
602.12	8858.43
602.478	8869.72
602.836	8910.63
603.194	8854.58
603.552	8882.61
603.91	8860.46
604.268	8858.43
604.625	8762.83
604.983	8872.89
605.341	8805.55
605.698	8870.18
606.056	8861.14
606.413	8852.78
606.771	8927.35
607.128	8914.02
607.485	8857.3
607.843	8858.88
608.2	8897.52
608.557	8891.87
608.914	8842.15
609.272	8890.29
609.629	8916.5
609.986	8924.19
610.343	8898.2
610.7	8973.9
611.057	8952.66
611.414	8906.11
611.771	8933.45
612.127	8973
612.484	8983.62
612.841	9061.13
613.198	8908.14
613.554	9015.94
613.911	8993.56
614.267	8933.68
614.624	8962.6
614.98	8956.95
615.337	9015.71
615.693	9019.1
616.05	8973.45
616.406	9069.27
616.762	8998.53
617.118	8942.94
617.475	8997.4
617.831	9044.86
618.187	9031.75
618.543	9084.41
618.899	9119.21
619.255	9121.24
619.611	9081.47
619.967	9108.36
620.323	9068.82
620.678	9057.06
621.034	9093.67
621.39	8996.05
621.746	9056.16
622.101	9153.78
622.457	9043.28
622.812	9097.97
623.168	9078.31
623.523	9078.53
623.879	9041.25
624.234	9065.2
624.589	9064.3
624.945	9052.54
625.3	9044.64
625.655	9062.49
626.01	9006.44
626.365	9059.32
626.72	9026.33
627.075	9057.74
627.43	9029.04
627.785	8978.2
628.14	9029.27
628.495	9032.43
628.85	9018.65
629.205	8981.36
629.559	9050.06
629.914	8967.35
630.269	9037.63
630.623	8968.48
630.978	8933.9
631.332	9027.01
631.687	8945.88
632.041	8959.67
632.396	8976.61
632.75	8904.53
633.104	8910.63
633.459	8849.39
633.813	8852.55
634.167	8813
634.521	8891.42
634.875	8900.23
635.229	8840.8
635.583	8775.49
635.937	8805.55
636.291	8808.03
636.645	8775.04
636.999	8838.09
637.352	8760.8
637.706	8773.68
638.06	8764.19
638.413	8798.99
638.767	8717.86
639.121	8813.45
639.474	8758.99
639.828	8727.81
640.181	8714.02
640.534	8703.18
640.888	8702.72
641.241	8660.69
641.594	8739.11
641.947	8718.77
642.301	8732.33
642.654	8669.28
643.007	8679.67
643.36	8681.48
643.713	8643.97
644.066	8626.79
644.419	8583.18
644.771	8570.98
645.124	8465.44
645.477	8486.91
645.83	8378.21
646.182	8383.18
646.535	8339.34
646.888	8371.21
647.24	8397.65
647.593	8333.24
647.945	8363.97
648.298	8295.95
648.65	8292.79
649.002	8315.16
649.355	8267.93
649.707	8336.18
650.059	8353.81
650.411	8442.39
650.763	8466.8
651.115	8542.73
651.467	8548.83
651.819	8489.62
652.171	8517.42
652.523	8477.19
652.875	8455.27
653.227	8459.79
653.578	8479
653.93	8555.61
654.282	8419.79
654.633	8446.91
654.985	8453.92
655.337	8503.41
655.688	8470.64
656.039	8530.75
656.391	8440.13
656.742	8442.62
657.094	8469.28
657.445	8500.47
657.796	8481.26
658.147	8519
658.498	8476.06
658.849	8501.82
659.2	8483.97
659.551	8494.37
659.902	8528.49
660.253	8548.6
660.604	8514.93
660.955	8456.85
661.306	8584.53
661.656	8527.59
662.007	8555.83
662.358	8468.83
662.708	8535.72
663.059	8548.38
663.409	8487.59
663.76	8583.63
664.11	8548.83
664.461	8595.38
664.811	8508.15
665.161	8547.25
665.511	8476.74
665.862	8545.21
666.212	8564.2
666.562	8524.2
666.912	8557.19
667.262	8554.03
667.612	8550.64
667.962	8551.99
668.312	8566.68
668.662	8568.49
669.011	8563.07
669.361	8479.68
669.711	8556.51
670.06	8495.04
670.41	8486.46
670.76	8483.97
671.109	8489.85
671.459	8487.36
671.808	8446.68
672.157	8503.41
672.507	8433.58
672.856	8469.96
673.205	8467.25
673.554	8478.77
673.904	8518.32
674.253	8520.36
674.602	8440.58
674.951	8360.59
675.3	8299.57
675.649	8437.87
675.998	8394.26
676.346	8377.31
676.695	8416.18
677.044	8391.32
677.393	8355.61
677.741	8446.46
678.09	8335.05
678.438	8332.11
678.787	8337.54
679.135	8322.85
679.484	8294.6
679.832	8290.3
680.181	8272.23
680.529	8265.67
680.877	8232.9
681.225	8198.1
681.573	8295.28
681.922	8201.95
682.27	8128.73
682.618	8124.89
682.966	8177.99
683.314	8195.39
683.661	8178.44
684.009	8104.09
684.357	8083.3
684.705	8034.72
685.053	8061.16
685.4	8090.54
685.748	7982.74
686.095	8005.11
686.443	8028.16
686.79	8064.32
687.138	7941.39
687.485	7991.78
687.832	7917.43
688.18	7908.39
688.527	7866.81
688.874	7816.64
689.221	7805.57
689.568	7791.56
689.915	7789.3
690.262	7813.48
690.609	7711.34
690.956	7737.78
691.303	7733.26
691.65	7657.78
691.997	7719.02
692.344	7580.27
692.69	7605.12
693.037	7618.68
693.383	7490.78
693.73	7562.19
694.077	7487.61
694.423	7500.95
694.769	7453.26
695.116	7429.99
695.462	7407.62
695.808	7338.92
696.155	7353.15
696.501	7360.61
696.847	7307.05
697.193	7300.27
697.539	7280.84
697.885	7203.1
698.231	7175.98
698.577	7152.71
698.923	7148.87
699.269	7110
699.614	7074.74
699.96	7051.24
700.306	7051.69
700.651	7103.9
700.997	7040.17
701.342	7000.85
701.688	6957.01
702.033	6917.91
702.379	6943.45
702.724	6913.39
703.069	6845.6
703.415	6849.44
703.76	6793.39
704.105	6812.83
704.45	6776.45
704.795	6731.48
705.14	6744.81
705.485	6689.44
705.83	6680.4
706.175	6714.98
706.52	6655.09
706.865	6628.43
707.209	6573.51
707.554	6620.29
707.899	6583.68
708.243	6554.53
708.588	6528.77
708.932	6509.33
709.277	6474.31
709.621	6494.87
709.966	6458.04
710.31	6468.66
710.654	6456.23
710.998	6413.74
711.342	6408.55
711.687	6386.4
712.031	6391.82
712.375	6299.85
712.719	6424.82
713.063	6336.23
713.407	6340.07
713.75	6312.05
714.094	6312.05
714.438	6248.78
714.782	6283.58
715.125	6268.66
715.469	6294.88
715.812	6228.44
716.156	6192.96
716.499	6199.74
716.843	6207.87
717.186	6169.23
717.53	6213.75
717.873	6173.07
718.216	6152.28
718.559	6154.32
718.902	6111.83
719.246	6148.21
719.589	6121.1
719.932	6136.46
720.275	6102.34
720.617	6121.32
720.96	6060.31
721.303	6008.1
721.646	6099.4
721.989	6102.34
722.331	6074.77
722.674	6038.16
723.016	6012.85
723.359	6046.75
723.701	6093.53
724.044	6034.32
724.386	6015.34
724.729	5992.29
725.071	5941.44
725.413	6011.95
725.755	6070.48
726.097	5975.56
726.439	5955.68
726.782	5980.76
727.124	5979.63
727.465	5959.74
727.807	5971.04
728.149	5916.36
728.491	5966.07
728.833	5949.8
729.175	5956.13
729.516	5925.62
729.858	5900.99
730.199	5973.3
730.541	5938.73
730.882	5903.93
731.224	5937.6
731.565	5948.9
731.906	5969.24
732.248	6003.81
732.589	5896.47
732.93	5933.08
733.271	5933.3
733.612	5931.72
733.953	5942.12
734.294	5916.81
734.635	5938.28
734.976	5959.52
735.317	5926.3
735.658	5895.34
735.999	5946.86
736.339	5944.6
736.68	5967.2
737.021	5962.91
737.361	5952.29
737.702	5954.55
738.042	5952.74
738.383	5976.92
738.723	6022.34
739.063	6017.14
739.404	6027.99
739.744	6053.75
740.084	6007.43
740.424	6035.9
740.764	6037.71
741.104	6067.99
741.444	6035.9
741.784	6045.17
742.124	6088.55
742.464	6086.75
742.804	6075.22
743.143	6142.11
743.483	6180.53
743.823	6133.75
744.162	6153.86
744.502	6256.23
744.841	6177.37
745.181	6255.56
745.52	6279.74
745.86	6334.88
746.199	6382.56
746.538	6340.75
746.877	6416
747.216	6459.62
747.556	6455.1
747.895	6538.26
748.234	6555.89
748.573	6601.31
748.911	6675.88
749.25	6700.97
749.589	6694.19
749.928	6858.7
750.267	6863.68
750.605	6942.32
750.944	7026.38
751.283	7101.86
751.621	7173.95
751.96	7171.01
752.298	7303.89
752.636	7438.8
752.975	7469.99
753.313	7506.37
753.651	7597.44
753.989	7758.79
754.327	7879.24
754.666	7906.81
755.004	8042.18
755.342	8227.26
755.679	8373.01
756.017	8462.28
756.355	8591.99
756.693	8693.01
757.031	8784.08
757.368	8921.02
757.706	9041.92
758.044	9229.49
758.381	9375.93
758.719	9474.45
759.056	9697.95
759.394	9793.99
759.731	9998.28
760.068	10016.36
760.405	10276.92
760.743	10352.62
761.08	10591.26
761.417	10701.99
761.754	10881.87
762.091	11120.74
762.428	11253.39
762.765	11413.39
763.102	11596.21
763.438	11731.8
763.775	11966.59
764.112	12064.22
764.449	12328.62
764.785	12358.9
765.122	12641.83
765.458	12694.48
765.795	12932.22
766.131	13119.1
766.467	13209.27
766.804	13363.62
767.14	13520.45
767.476	13723.16
767.812	13807.67
768.148	13899.65
768.485	14070.04
768.821	14127.67
769.157	14350.26
769.492	14563.36
769.828	14578.95
770.164	14591.61
770.5	14822.56
770.836	14958.38
771.171	15004.7
771.507	15150.92
771.842	15196.56
772.178	15323.34
772.513	15495.99
772.849	15612.37
773.184	15606.04
773.519	15792.03
773.855	15811.46
774.19	15914.28
774.525	15889.2
774.86	15994.06
775.195	16217.55
775.53	16250.32
775.865	16234.28
776.2	16236.31
776.535	16173.49
776.87	16321.05
777.205	16351.79
777.539	16428.85
777.874	16645.57
778.209	16470.65
778.543	16545
778.878	16594.49
779.212	16577.54
779.547	16598.33
779.881	16791.1
780.215	16734.83
780.55	16793.81
780.884	16787.26
781.218	16787.93
781.552	16937.76
781.886	16815.28
782.22	16804.88
782.554	16884.88
782.888	16692.34
783.222	16815.96
783.556	16717.43
783.889	16779.57
784.223	16774.15
784.557	16744.09
784.89	16761.95
785.224	16699.58
785.557	16718.11
785.891	16725.34
786.224	16665.23
786.558	16812.79
786.891	16615.96
787.224	16643.08
787.557	16718.11
787.891	16737.31
788.224	16679.01
788.557	16762.17
788.89	16749.52
789.223	16653.47
789.556	16608.5
789.888	16632.23
790.221	16612.35
790.554	16512.24
790.887	16616.19
791.219	16516.53
791.552	16448.06
791.884	16510.65
792.217	16426.59
792.549	16490.31
792.882	16298.91
793.214	16309.98
793.546	16333.93
793.879	16239.7
794.211	16200.61
794.543	16248.06
794.875	16192.7
795.207	16232.02
795.539	16154.73
795.871	16171.91
796.203	16117.9
796.535	15964
796.867	16027.05
797.198	15987.96
797.53	15979.14
797.862	15938.47
798.193	15917
798.525	15882.42
798.856	15872.03
799.188	15664.8
799.519	15691.69
799.85	15663.44
800.182	15624.12
800.513	15661.86
800.844	15553.84
801.175	15686.27
801.506	15661.41
801.837	15614.86
802.168	15415.99
802.499	15431.13
802.83	15471.81
803.161	15468.87
803.491	15395.88
803.822	15364.02
804.153	15418.93
804.483	15231.37
804.814	15236.34
805.145	15260.06
805.475	15280.86
805.805	15117.7
806.136	15141.2
806.466	15109.11
806.796	15017.81
807.126	14974.65
807.457	15003.8
807.787	15003.8
808.117	14887.42
808.447	14822.79
808.777	14903.01
809.107	14859.62
809.436	14789.57
809.766	14800.19
810.096	14720.19
810.426	14713.64
810.755	14720.87
811.085	14690.81
811.414	14660.08
811.744	14552.29
812.073	14538.5
812.403	14537.15
812.732	14432.74
813.061	14453.53
813.39	14448.33
813.719	14394.1
814.049	14472.29
814.378	14469.35
814.707	14444.72
815.036	14387.77
815.365	14306.87
815.693	14197.27
816.022	14237.72
816.351	14188.68
816.68	14053.09
817.008	14187.78
817.337	13946.88
817.665	13943.49
817.994	14111.85
818.322	14062.81
818.651	13943.72
818.979	13995.47
819.307	13945.75
819.636	13969.7
819.964	13828.92
820.292	13968.35
820.62	13839.76
820.948	13803.15
821.276	13909.37
821.604	13850.61
821.932	13957.95
822.259	13900.1
822.587	13908.46
822.915	13801.35
823.243	13862.14
823.57	13790.05
823.898	13879.76
824.225	13861.01
824.553	13723.83
824.88	13826.2
825.207	13947.56
825.535	13847.9
825.862	13886.77
826.189	13828.01
826.516	13946.2
826.843	13888.58
827.17	13961.34
827.497	13943.49
827.824	13950.04
828.151	13886.99
828.478	13945.52
828.805	13946.65
829.131	13967.67
829.458	13920.67
829.785	13859.88
830.111	13880.89
830.438	13891.06
830.764	13929.48
831.09	13980.32
831.417	13838.86
831.743	13903.04
832.069	13923.83
832.395	13790.95
832.722	13807.22
833.048	13846.32
833.374	13887.22
833.7	13752.53
834.026	13769.93
834.351	13774
834.677	13834.11
835.003	13862.59
835.329	13835.7
835.654	13756.6
835.98	13690.16
836.306	13720.44
836.631	13721.57
836.956	13767.67
837.282	13714.79
837.607	13649.49
837.932	13631.63
838.258	13618.98
838.583	13676.15
838.908	13574.91
839.233	13619.88
839.558	13614.91
839.883	13541.69
840.208	13484.07
840.533	13442.26
840.858	13490.17
841.182	13470.73
841.507	13521.58
841.832	13371.07
842.156	13355.48
842.481	13420.79
842.805	13243.17
843.13	13342.6
843.454	13287.24
843.778	13227.35
844.103	13190.29
844.427	13164.53
844.751	13166.33
845.075	13124.08
845.399	13078.43
845.723	12986.23
846.047	13029.39
846.371	12904.87
846.695	12912.78
847.019	12811.09
847.343	12758.66
847.666	12763.41
847.99	12659
848.313	12622.17
848.637	12632.56
848.96	12609.51
849.284	12513.47
849.607	12457.43
849.931	12425.79
850.254	12258.79
850.577	12297.66
850.9	12137.89
851.223	12137.44
851.546	12080.26
851.869	11977.44
852.192	12080.71
852.515	11926.14
852.838	11927.5
853.161	11986.25
853.483	11880.72
853.806	11768.41
854.129	11793.49
854.451	11744
854.774	11670.33
855.096	11624.68
855.419	11699.93
855.741	11623.78
856.063	11522.08
856.385	11460.62
856.708	11452.48
857.03	11388.3
857.352	11414.97
857.674	11364.8
857.996	11340.17
858.318	11269.44
858.64	11298.14
858.961	11359.15
859.283	11171.36
859.605	11184.24
859.926	11226.95
860.248	11088.42
860.57	11083.23
860.891	11134.07
861.212	11000.06
861.534	11015.43
861.855	10945.15
862.176	11028.09
862.498	11016.79
862.819	10964.13
863.14	10923
863.461	10911.03
863.782	10887.3
864.103	10915.77
864.424	10816.79
864.745	10878.26
865.065	10792.16
865.386	10706.06
865.707	10703.57
866.027	10742.22
866.348	10691.6
866.668	10698.38
866.989	10741.09
867.309	10593.75
867.63	10689.11
867.95	10691.37
868.27	10563.01
868.59	10603.46
868.91	10561.43
869.23	10618.83
869.55	10478.27
869.87	10499.96
870.19	10551.71
870.51	10461.09
870.83	10554.2
871.15	10386.07
871.469	10489.79
871.789	10526.63
872.109	10408.89
872.428	10289.8
872.748	10363.24
873.067	10426.52
873.386	10370.7
873.706	10342.45
874.025	10216.36
874.344	10323.47
874.663	10355.11
874.982	10240.54
875.301	10283.02
875.62	10231.72
875.939	10169.35
876.258	10206.41
876.577	10217.94
876.896	10188.11
877.214	10158.05
877.533	10179.52
877.852	10136.13
878.17	10091.16
878.489	10131.84
878.807	10122.57
879.125	10077.15
879.444	10125.96
879.762	10002.58
880.08	10033.99
880.398	9954.89
880.716	10000.99
881.034	9950.37
881.352	9928.91
881.67	9958.96
881.988	9916.25
882.306	9861.11
882.624	9801.68
882.941	9824.5
883.259	9746.31
883.577	9771.62
883.894	9753.99
884.212	9635.81
884.529	9680.55
884.846	9704.05
885.164	9655.24
885.481	9602.13
885.798	9615.02
886.115	9568.92
886.432	9568.01
886.75	9490.95
887.067	9516.26
887.383	9519.42
887.7	9558.75
888.017	9484.85
888.334	9518.07
888.651	9394
888.967	9398.75
889.284	9345.19
889.6	9387.68
889.917	9291.86
890.233	9262.03
890.55	9281.69
890.866	9228.13
891.182	9218.87
891.498	9200.79
891.815	9129.83
892.131	9102.03
892.447	9095.03
892.763	9048.7
893.079	9036.5
893.395	8984.3
893.71	8929.16
894.026	8993.79
894.342	8895.71
894.657	8887.35
894.973	8816.17
895.289	8840.8
895.604	8800.35
895.92	8742.5
896.235	8749.28
896.55	8756.28
896.865	8694.14
897.181	8679.45
897.496	8686
897.811	8635.61
898.126	8537.3
898.441	8561.48
898.756	8533.69
899.071	8477.19
899.386	8438.55
899.7	8365.56
900.015	8325.11
900.33	8334.6
900.644	8246.69
900.959	8313.13
901.273	8291.66
901.588	8224.09
901.902	8202.17
902.216	8173.02
902.531	8127.82
902.845	8135.28
903.159	8041.95
903.473	8063.19
903.787	7993.36
904.101	7947.49
904.415	7944.33
904.729	7943.87
905.042	7872.46
905.356	7839.47
905.67	7833.14
905.984	7849.64
906.297	7794.05
906.611	7739.81
906.924	7713.37
907.237	7732.13
907.551	7632.24
907.864	7632.47
908.177	7606.93
908.491	7591.57
908.804	7500.04
909.117	7481.51
909.43	7375.07
909.743	7394.51
910.056	7392.25
910.368	7389.99
910.681	7303.66
910.994	7331.23
911.307	7253.5
911.619	7256.89
911.932	7241.29
912.244	7141.86
912.557	7205.59
912.869	7130.79
913.181	7031.35
913.494	7047.17
913.806	7003.33
914.118	7012.6
914.43	6968.76
914.742	6943.45
915.054	6926.72
915.366	6913.17
915.678	6909.55
915.99	6816.22
916.302	6805.15
916.613	6767.41
916.925	6783.23
917.236	6704.36
917.548	6660.06
917.859	6719.27
918.171	6618.48
918.482	6604.25
918.794	6592.27
919.105	6607.19
919.416	6558.15
919.727	6500.3
920.038	6519.73
920.349	6499.84
920.66	6417.81
920.971	6466.4
921.282	6415.33
921.593	6369.23
921.903	6335.1
922.214	6289.45
922.525	6261.43
922.835	6272.05
923.146	6238.83
923.456	6221.43
923.767	6192.28
924.077	6217.14
924.387	6102.11
924.697	6082.68
925.008	6072.06
925.318	6101.21
925.628	6064.83
925.938	6039.52
926.248	5952.74
926.558	5947.09
926.867	5981.89
927.177	5908.45
927.487	5880.2
927.796	5856.47
928.106	5902.12
928.416	5791.61
928.725	5810.14
929.034	5787.55
929.344	5767.21
929.653	5748.68
929.962	5691.05
930.271	5672.29
930.581	5661.9
930.89	5649.92
931.199	5620.54
931.508	5575.57
931.817	5599.75
932.125	5554.56
932.434	5566.99
932.743	5499.42
933.051	5466.2
933.36	5468.01
933.669	5466.2
933.977	5397.27
934.286	5422.13
934.594	5388.91
934.902	5323.15
935.21	5304.17
935.519	5306.2
935.827	5300.78
936.135	5241.8
936.443	5216.04
936.751	5221.68
937.059	5188.92
937.367	5094
937.674	5145.98
937.982	5120.44
938.29	5087.22
938.597	5099.43
938.905	5080.9
939.213	5028.92
939.52	5051.97
939.827	5032.31
940.135	4992.31
940.442	4943.73
940.749	4894.91
941.056	4961.35
941.363	4913.22
941.67	4846.78
941.977	4866.21
942.284	4786.22
942.591	4820.34
942.898	4814.69
943.205	4740.34
943.511	4740.12
943.818	4730.62
944.125	4672.32
944.431	4668.48
944.738	4682.94
945.044	4682.26
945.35	4630.74
945.657	4597.07
945.963	4557.97
946.269	4565.66
946.575	4557.75
946.881	4516.39
947.187	4553.68
947.493	4468.03
947.799	4475.49
948.105	4467.81
948.41	4454.25
948.716	4419.45
949.022	4413.8
949.327	4395.49
949.633	4344.65
949.938	4344.87
950.244	4345.32
950.549	4301.26
950.854	4299.22
951.16	4266.68
951.465	4220.13
951.77	4204.54
952.075	4211.54
952.38	4214.03
952.685	4185.55
952.99	4146.68
953.294	4165.22
953.599	4168.83
953.904	4103.97
954.209	4028.04
954.513	4064.2
954.818	4095.16
955.122	4076.86
955.426	4056.74
955.731	3990.53
956.035	3984.43
956.339	4004.99
956.643	3994.6
956.948	3896.75
957.252	3915.73
957.556	3907.14
957.86	3876.86
958.163	3885.67
958.467	3831.89
958.771	3821.72
959.075	3845.45
959.378	3796.86
959.682	3788.5
959.985	3790.54
960.289	3754.38
960.592	3770.42
960.896	3710.31
961.199	3722.52
961.502	3731.55
961.805	3663.99
962.108	3638.45
962.411	3660.14
962.714	3640.71
963.017	3619.02
963.32	3608.39
963.623	3567.72
963.926	3581.95
964.228	3558
964.531	3525.23
964.833	3497.44
965.136	3522.75
965.438	3492.24
965.741	3487.27
966.043	3469.87
966.345	3421.05
966.648	3455.4
966.95	3433.48
967.252	3380.15
967.554	3385.8
967.856	3375.86
968.158	3376.99
968.46	3316.65
968.761	3313.26
969.063	3325.92
969.365	3309.42
969.666	3263.54
969.968	3274.62
970.269	3268.74
970.571	3254.96
970.872	3212.7
971.174	3218.35
971.475	3219.25
971.776	3201.17
972.077	3174.96
972.378	3133.6
972.679	3154.17
972.98	3121.85
973.281	3157.11
973.582	3103.32
973.883	3079.82
974.183	3094.96
974.484	3056.77
974.785	3038.01
975.085	3012.7
975.386	3051.35
975.686	3000.05
975.986	3011.35
976.287	2986.94
976.587	2963.21
976.887	2951.69
977.187	2920.95
977.487	2965.25
977.787	2913.95
978.087	2914.63
978.387	2908.07
978.687	2867.62
978.987	2848.87
979.286	2851.8
979.586	2848.41
979.885	2823.33
980.185	2828.08
980.484	2828.3
980.784	2780.17
981.083	2787.62
981.382	2785.14
981.682	2769.09
981.981	2751.02
982.28	2765.48
982.579	2740.17
982.878	2728.64
983.177	2687.97
983.475	2677.8
983.774	2661.53
984.073	2659.04
984.372	2645.03
984.67	2626.27
984.969	2653.62
985.267	2620.62
985.566	2584.47
985.864	2598.48
986.162	2568.2
986.461	2561.42
986.759	2566.39
987.057	2521.64
987.355	2468.31
987.653	2509.89
987.951	2556.9
988.249	2535.65
988.547	2488.88
988.844	2491.36
989.142	2473.06
989.44	2436.22
989.737	2487.75
990.035	2439.16
990.332	2419.95
990.63	2418.82
990.927	2389.22
991.224	2404.81
991.521	2392.61
991.819	2375.88
992.116	2369.33
992.413	2345.15
992.71	2376.79
993.006	2287.75
993.303	2319.84
993.6	2301.76
993.897	2302.21
994.193	2288.2
994.49	2263.34
994.787	2265.15
995.083	2289.33
995.379	2230.35
995.676	2221.54
995.972	2225.15
996.268	2205.04
996.565	2190.58
996.861	2155.78
997.157	2193.97
997.453	2154.19
997.749	2149.68
998.044	2081.2
998.34	2126.62
998.636	2107.64
998.932	2104.7
999.227	2110.58
999.523	2091.82
999.818	2044.14
1000.114	2074.42
1000.409	2057.7
1000.704	2056.8
1001	2001.66
1001.295	2030.13
1001.59	2007.31
1001.885	2006.63
1002.18	1993.3
1002.475	1966.86
1002.77	1945.16
1003.065	1936.35
1003.359	1936.8
1003.654	1901.09
1003.949	1923.24
1004.243	1937.25
1004.538	1907.87
1004.832	1869.68
1005.127	1843.47
1005.421	1886.41
1005.715	1842.34
1006.009	1827.65
1006.304	1831.27
1006.598	1823.58
1006.892	1798.5
1007.186	1809.12
1007.48	1835.79
1007.773	1806.41
1008.067	1748.33
1008.361	1741.78
1008.655	1731.61
1008.948	1738.84
1009.242	1768.44
1009.535	1736.35
1009.829	1686.86
1010.122	1712.17
1010.415	1715.11
1010.708	1694.77
1011.001	1678.95
1011.295	1668.78
1011.588	1674.66
1011.881	1649.35
1012.173	1603.7
1012.466	1617.49
1012.759	1625.62
1013.052	1600.99
1013.344	1619.07
1013.637	1591.27
1013.93	1571.84
1014.222	1554.44
1014.514	1573.42
1014.807	1582.23
1015.099	1579.75
1015.391	1541.1
1015.683	1528.45
1015.976	1513.31
1016.268	1513.08
1016.56	1492.52
1016.851	1495
1017.143	1486.64
1017.435	1454.1
1017.727	1480.31
1018.018	1464.95
1018.31	1463.59
1018.602	1468.79
1018.893	1439.64
1019.185	1406.19
1019.476	1416.81
1019.767	1398.96
1020.058	1374.33
1020.35	1388.11
1020.641	1366.19
1020.932	1376.36
1021.223	1342.69
1021.514	1328.23
1021.804	1329.36
1022.095	1311.05
1022.386	1328.68
1022.677	1297.95
1022.967	1313.09
1023.258	1301.79
1023.548	1301.34
1023.839	1291.17
1024.129	1288.23
1024.419	1273.09
1024.709	1255.91
1025	1258.4
1025.29	1255.46
1025.58	1248.68
1025.87	1248.68
1026.16	1229.25
1026.449	1199.64
1026.739	1217.72
1027.029	1197.84
1027.319	1173.88
1027.608	1209.13
1027.898	1152.87
1028.187	1175.92
1028.477	1175.01
1028.766	1156.48
1029.055	1166.65
1029.344	1145.41
1029.634	1106.99
1029.923	1136.37
1030.212	1137.72
1030.501	1113.54
1030.79	1100.21
1031.078	1100.89
1031.367	1058.4
1031.656	1066.99
1031.945	1088.69
1032.233	1045.52
1032.522	1045.3
1032.81	1054.11
1033.099	1065.41
1033.387	1037.84
1033.675	1034.45
1033.963	1013.21
1034.251	1026.99
1034.54	1008.01
1034.828	1029.25
1035.116	984.28
1035.403	979.99
1035.691	970.95
1035.979	992.64
1036.267	980.21
1036.554	980.21
1036.842	954.68
1037.129	952.19
1037.417	952.87
1037.704	966.2
1037.992	914.91
1038.279	928.24
1038.566	932.08
1038.853	932.08
1039.14	932.08
