Data from hue_50_FLMS001491_74.txt Node
Date: Mon Feb 06 15:10:57 GMT 2017
User: dcchb
Spectrometer: FLMS00149
Trigger mode: 0
Integration Time (sec): 2.000000E-2
Scans to average: 10
Electric dark correction enabled: true
Nonlinearity correction enabled: false
Boxcar width: 0
XAxis mode: Wavelengths
Number of Pixels in Spectrum: 2048
>>>>>Begin Spectral Data<<<<<
341.393	-24.43
341.776	-24.43
342.16	-24.43
342.543	-30.08
342.927	-52.68
343.31	-73.7
343.693	-68.5
344.077	-56.75
344.46	-66.24
344.843	-36.19
345.226	-53.81
345.61	-48.16
345.993	-25.56
346.376	-6.13
346.759	3.81
347.142	41.1
347.525	42.46
347.908	60.54
348.291	79.52
348.674	86.98
349.057	120.65
349.44	127.88
349.823	140.98
350.206	180.53
350.588	199.97
350.971	227.54
351.354	233.19
351.737	247.87
352.119	266.18
352.502	268.44
352.884	309.34
353.267	281.77
353.65	279.96
354.032	317.7
354.414	323.81
354.797	316.12
355.179	324.48
355.562	336.46
355.944	333.75
356.326	339.17
356.709	347.99
357.091	353.18
357.473	344.82
357.855	334.43
358.238	358.15
358.62	364.48
359.002	355.44
359.384	344.6
359.766	346.86
360.148	354.31
360.53	337.82
360.912	334.43
361.294	343.92
361.676	338.27
362.057	366.29
362.439	351.83
362.821	336.69
363.203	338.49
363.584	334.43
363.966	327.19
364.348	322.22
364.729	348.21
365.111	340.98
365.493	326.29
365.874	329.23
366.256	316.35
366.637	321.77
367.019	340.08
367.4	334.2
367.781	347.53
368.163	336.23
368.544	350.92
368.925	325.39
369.306	340.08
369.688	316.8
370.069	321.77
370.45	317.93
370.831	328.32
371.212	341.88
371.593	314.31
371.974	323.81
372.355	323.58
372.736	317.25
373.117	338.72
373.498	320.19
373.879	312.28
374.26	329
374.641	339.62
375.021	333.07
375.402	344.82
375.783	340.53
376.163	330.36
376.544	350.92
376.925	328.55
377.305	318.16
377.686	317.93
378.066	326.97
378.447	350.25
378.827	343.92
379.208	339.17
379.588	322.45
379.968	330.81
380.349	333.52
380.729	347.76
381.109	331.04
381.489	329
381.87	333.75
382.25	346.18
382.63	352.73
383.01	324.03
383.39	350.7
383.77	353.41
384.15	333.07
384.53	342.11
384.91	350.47
385.29	352.73
385.67	364.26
386.049	368.32
386.429	337.82
386.809	360.64
387.189	356.8
387.568	344.82
387.948	341.88
388.328	371.49
388.707	362.22
389.087	364.71
389.466	366.74
389.846	376.01
390.225	372.84
390.605	354.99
390.984	368.1
391.363	366.29
391.743	357.02
392.122	369
392.501	388.66
392.881	366.97
393.26	368.55
393.639	376.23
394.018	368.78
394.397	361.77
394.776	353.41
395.155	373.3
395.534	381.2
395.913	391.6
396.292	368.1
396.671	404.25
397.05	371.26
397.429	387.53
397.808	391.15
398.186	388.44
398.565	374.2
398.944	396.8
399.323	397.02
399.701	384.37
400.08	393.86
400.458	404.48
400.837	400.64
401.215	411.26
401.594	398.61
401.972	411.94
402.351	388.66
402.729	403.58
403.107	392.05
403.486	404.48
403.864	436.12
404.242	424.14
404.62	387.08
404.999	407.64
405.377	425.72
405.755	406.29
406.133	432.5
406.511	433.41
406.889	434.08
407.267	426.85
407.645	434.31
408.023	412.39
408.401	414.65
408.779	422.79
409.156	426.18
409.534	444.03
409.912	457.81
410.29	421.2
410.667	431.6
411.045	432.05
411.422	456.46
411.8	451.49
412.178	442.45
412.555	445.16
412.933	442.67
413.31	474.99
413.687	454.88
414.065	471.15
414.442	457.81
414.819	473.18
415.197	477.47
415.574	476.12
415.951	480.41
416.328	478.15
416.705	487.19
417.082	478.38
417.46	482.44
417.837	474.54
418.214	489.68
418.591	496.23
418.967	507.76
419.344	493.97
419.721	521.09
420.098	514.76
420.475	518.83
420.852	524.25
421.228	508.66
421.605	512.05
421.982	524.03
422.358	531.03
422.735	542.78
423.111	524.03
423.488	521.09
423.864	513.18
424.241	535.1
424.617	539.39
424.994	529.45
425.37	534.87
425.746	523.57
426.123	553.18
426.499	540.97
426.875	561.54
427.251	567.87
427.627	533.97
428.003	567.19
428.379	566.06
428.756	583.01
429.132	569.9
429.507	580.97
429.883	572.16
430.259	595.89
430.635	597.7
431.011	599.73
431.387	581.2
431.763	612.39
432.138	613.97
432.514	606.74
432.89	630.24
433.265	620.07
433.641	615.77
434.016	624.14
434.392	640.18
434.767	643.8
435.143	639.05
435.518	659.62
435.894	639.73
436.269	666.85
436.644	642.67
437.02	688.09
437.395	684.7
437.77	661.2
438.145	691.03
438.52	698.03
438.895	685.6
439.271	729.44
439.646	730.57
440.021	728.31
440.395	729.22
440.77	719.73
441.145	723.34
441.52	724.25
441.895	712.27
442.27	726.05
442.645	745.94
443.019	738.48
443.394	725.38
443.769	733.96
444.143	739.84
444.518	740.97
444.892	768.99
445.267	761.53
445.641	739.16
446.016	742.1
446.39	782.1
446.764	772.61
447.139	770.12
447.513	773.28
447.887	772.83
448.262	775.77
448.636	808.76
449.01	794.98
449.384	796.33
449.758	779.61
450.132	806.5
450.506	815.32
450.88	822.1
451.254	827.97
451.628	819.16
452.002	844.02
452.376	827.07
452.75	811.02
453.123	858.03
453.497	849.67
453.871	850.12
454.244	895.54
454.618	897.35
454.992	912.94
455.365	878.59
455.739	891.02
456.112	916.78
456.486	908.65
456.859	926.28
457.232	941.42
457.606	933.05
457.979	957.91
458.352	968.31
458.725	973.96
459.099	982.09
459.472	965.14
459.845	1022.54
460.218	990.91
460.591	1021.41
460.964	1015.09
461.337	1034.97
461.71	1053.5
462.083	1056.89
462.456	1082.43
462.829	1113.39
463.201	1097.8
463.574	1112.48
463.947	1108.19
464.32	1166.72
464.692	1182.09
465.065	1129.43
465.438	1211.47
465.81	1214.86
466.183	1222.99
466.555	1265.25
466.928	1270.67
467.3	1280.16
467.672	1293.05
468.045	1310.45
468.417	1331.24
468.789	1330.33
469.161	1351.12
469.534	1379.6
469.906	1411.46
470.278	1424.34
470.65	1451.23
471.022	1486.26
471.394	1521.06
471.766	1551.8
472.138	1580.27
472.51	1579.82
472.882	1638.8
473.253	1625.24
473.625	1702.53
473.997	1733.94
474.369	1746.82
474.74	1808.29
475.112	1789.53
475.484	1896.65
475.855	1930.99
476.227	1940.26
476.598	2042.4
476.97	2050.77
477.341	2136.41
477.713	2159.46
478.084	2217.99
478.455	2259.8
478.827	2328.72
479.198	2412.34
479.569	2448.27
479.94	2525.33
480.311	2605.1
480.682	2692.33
481.053	2743.18
481.424	2874.7
481.795	2882.38
482.166	2995.83
482.537	3053
482.908	3165.99
483.279	3215.71
483.65	3327.12
484.021	3419.32
484.391	3534.12
484.762	3578.86
485.133	3633.32
485.503	3826.31
485.874	3941.11
486.244	4006.19
486.615	4122.35
486.985	4240.99
487.356	4382.68
487.726	4499.29
488.097	4625.39
488.467	4652.28
488.837	4838.71
489.207	4946.73
489.578	5081.19
489.948	5212.26
490.318	5365.71
490.688	5419.72
491.058	5579.26
491.428	5747.39
491.798	5831.46
492.168	6035.75
492.538	6135.18
492.908	6209.53
493.278	6413.59
493.648	6487.26
494.017	6670.3
494.387	6815.61
494.757	6980.13
495.126	7077.53
495.496	7149.61
495.866	7283.85
496.235	7529.49
496.605	7582.37
496.974	7694.23
497.344	7805.87
497.713	7961.8
498.082	8107.1
498.452	8326.08
498.821	8328.34
499.19	8490.6
499.559	8607.88
499.928	8731.95
500.298	8848.55
500.667	8962
501.036	9011.94
501.405	9174.42
501.774	9246.28
502.143	9372.61
502.512	9508.2
502.88	9710.68
503.249	9771.47
503.618	9859.15
503.987	9988.86
504.356	10140.72
504.724	10237.67
505.093	10296.65
505.462	10443.31
505.83	10568.06
506.199	10699.13
506.567	10855.28
506.936	10876.52
507.304	11081.04
507.672	11166.91
508.041	11180.69
508.409	11336.17
508.777	11447.13
509.145	11602.15
509.514	11674.24
509.882	11790.85
510.25	11883.05
510.618	12058.64
510.986	12087.11
511.354	12235.36
511.722	12325.3
512.09	12483.49
512.458	12556.48
512.826	12657.04
513.193	12769.81
513.561	12877.15
513.929	12956.02
514.297	13096.35
514.664	13240.08
515.032	13318.27
515.4	13379.96
515.767	13520.75
516.135	13646.62
516.502	13656.79
516.869	13897.46
517.237	13925.26
517.604	13835.99
517.972	14058.59
518.339	14201.41
518.706	14216.77
519.073	14341.52
519.44	14415.19
519.808	14543.32
520.175	14583.54
520.542	14835.06
520.909	14899.92
521.276	14979.69
521.643	15140.59
522.009	15237.76
522.376	15359.34
522.743	15442.73
523.11	15547.81
523.477	15722.27
523.843	15852.21
524.21	15939.21
524.577	16127.23
524.943	16242.03
525.31	16361.35
525.676	16464.4
526.043	16597.28
526.409	16559.54
526.776	16873.88
527.142	16888.57
527.508	16981.22
527.874	17129.24
528.241	17173.08
528.607	17215.79
528.973	17410.14
529.339	17370.14
529.705	17699.39
530.071	17783.23
530.437	17924.02
530.803	18100.06
531.169	18089.89
531.535	18075.88
531.901	18181.64
532.267	18376.89
532.632	18398.58
532.998	18527.62
533.364	18635.87
533.73	18663.89
534.095	18808.97
534.461	18793.83
534.826	18985.69
535.192	19069.53
535.557	19172.8
535.923	19193.14
536.288	19338.9
536.653	19410.08
537.019	19332.57
537.384	19420.48
537.749	19540.25
538.114	19620.02
538.479	19647.14
538.845	19803.97
539.21	19709.06
539.575	19877.42
539.94	19936.4
540.305	19957.87
540.67	20095.26
541.034	20109.95
541.399	20202.83
541.764	20308.14
542.129	20364.41
542.494	20345.43
542.858	20497.06
543.223	20600.33
543.587	20714.23
543.952	20602.37
544.316	20800.78
544.681	20821.12
545.045	20876.03
545.41	21018.85
545.774	21193.99
546.138	21001.45
546.503	21165.29
546.867	21212.3
547.231	21368.9
547.595	21355.57
547.959	21427.2
548.324	21699.51
548.688	21500.42
549.052	21635.11
549.416	21695.22
549.779	21761.66
550.143	21779.29
550.507	21929.56
550.871	22095.21
551.235	22055.89
551.599	22230.35
551.962	22321.19
552.326	22453.39
552.689	22560.96
553.053	22447.97
553.417	22444.81
553.78	22819.26
554.143	22693.39
554.507	22755.98
554.87	22879.6
555.234	23195.75
555.597	23081.4
555.96	23082.53
556.323	23189.64
556.686	23302.64
557.05	23479.58
557.413	23491.11
557.776	23505.34
558.139	23667.6
558.502	23837.76
558.865	23815.84
559.228	23909.85
559.59	24071.43
559.953	24137.64
560.316	24360.69
560.679	24277.98
561.041	24689.27
561.404	24642.04
561.767	24719.55
562.129	24590.96
562.492	24864.18
562.854	24875.02
563.217	24970.84
563.579	24952.99
563.941	25197.05
564.304	25434.56
564.666	25564.72
565.028	25571.95
565.39	25499.87
565.753	25831.38
566.115	25767.88
566.477	26013.3
566.839	25940.53
567.201	26187.76
567.563	26161.09
567.925	26409.22
568.287	26357.02
568.648	26507.75
569.01	26666.62
569.372	26823.9
569.734	26849.44
570.095	26869.1
570.457	27136.66
570.819	27210.1
571.18	27163.78
571.542	27307.95
571.903	27173.27
572.265	27355.18
572.626	27542.52
572.987	27660.49
573.349	27684.89
573.71	27855.06
574.071	27989.07
574.432	27964.43
574.794	28352.45
575.155	28322.84
575.516	28232
575.877	28299.79
576.238	28499.34
576.599	28655.04
576.96	28696.84
577.32	28674.02
577.681	28875.14
578.042	28956.5
578.403	28940.68
578.763	29099.77
579.124	29216.38
579.485	29483.49
579.845	29439.42
580.206	29402.36
580.566	29499.31
580.927	29676.48
581.287	29921.67
581.648	29876.47
582.008	30001.89
582.368	29966.87
582.728	30207.31
583.089	30243.47
583.449	30245.05
583.809	30491.6
584.169	30415.67
584.529	30564.59
584.889	30844.58
585.249	30756.9
585.609	30810.91
585.969	31137.46
586.329	31087.06
586.688	31232.14
587.048	31294.52
587.408	31192.82
587.768	31381.07
588.127	31483.21
588.487	31635.3
588.846	31752.58
589.206	31741.96
589.565	31862.41
589.925	32029.41
590.284	32076.87
590.643	32183.53
591.003	32349.18
591.362	32442.73
591.721	32495.84
592.08	32536.07
592.44	32822.61
592.799	32742.16
593.158	32814.02
593.517	32936.51
593.876	33058.09
594.235	33133.34
594.593	33324.29
594.952	33319.55
595.311	33344.18
595.67	33423.95
596.029	33742.14
596.387	33759.99
596.746	33932.64
597.104	33870.49
597.463	33789.14
597.822	34006.08
598.18	33872.08
598.538	34114.55
598.897	34389.8
599.255	34083.82
599.613	34757.02
599.972	34580.98
600.33	34727.42
600.688	34535.56
601.046	34757.93
601.404	34994.76
601.762	35051.25
602.12	35165.83
602.478	35149.33
602.836	35191.14
603.194	35201.53
603.552	35301.42
603.91	35371.25
604.268	35499.15
604.625	35446.5
604.983	35670.45
605.341	35495.31
605.698	35831.12
606.056	35837
606.413	35914.06
606.771	36063.66
607.128	36009.65
607.485	35995.64
607.843	36137.78
608.2	36394.5
608.557	36456.41
608.914	36432.69
609.272	36612.12
609.629	36615.05
609.986	36786.12
610.343	36755.62
610.7	36904.09
611.057	36870.41
611.414	36928.04
611.771	37097.98
612.127	37172.1
612.484	37192.21
612.841	37350.85
613.198	37210.52
613.554	37456.16
613.911	37581.58
614.267	37690.05
614.624	37638.98
614.98	37791.07
615.337	37880.78
615.693	37908.58
616.05	37924.62
616.406	38151.96
616.762	38098.63
617.118	38018.18
617.475	38073.55
617.831	38226.31
618.187	38234.67
618.543	38250.04
618.899	38605.74
619.255	38539.75
619.611	38447.77
619.967	38770.25
620.323	38782.91
620.678	38583.14
621.034	38567.09
621.39	38536.36
621.746	38671.72
622.101	39071.03
622.457	38810.02
622.812	38910.36
623.168	39017.7
623.523	39062.67
623.879	39141.77
624.234	38934.99
624.589	39055.44
624.945	39119.4
625.3	39134.54
625.655	39105.61
626.01	39110.81
626.365	39328.43
626.72	39180.64
627.075	39207.98
627.43	39291.82
627.785	39156.46
628.14	39152.39
628.495	39299.5
628.85	39247.98
629.205	39060.41
629.559	39344.02
629.914	39227.41
630.269	39197.81
630.623	39118.04
630.978	39192.16
631.332	39290.69
631.687	39379.73
632.041	39222.44
632.396	39227.41
632.75	39240.75
633.104	39280.97
633.459	39063.8
633.813	39173.63
634.167	39106.29
634.521	39118.49
634.875	39175.89
635.229	39094.99
635.583	38954.2
635.937	39029.45
636.291	39034.88
636.645	39085.27
636.999	38829.01
637.352	38923.47
637.706	38759.4
638.06	38934.54
638.413	39008.21
638.767	38715.34
639.121	38731.38
639.474	38746.07
639.828	38683.25
640.181	38692.29
640.534	38764.38
640.888	38622.91
641.241	38538.62
641.594	38558.28
641.947	38694.32
642.301	38589.69
642.654	38665.17
643.007	38585.17
643.36	38586.3
643.713	38441.45
644.066	38657.94
644.419	38438.74
644.771	38145.18
645.124	37784.97
645.477	37800.56
645.83	37579.77
646.182	37333.91
646.535	37300.46
646.888	37350.63
647.24	37181.82
647.593	37423.17
647.945	37209.16
648.298	37110.63
648.65	37048.26
649.002	37197.64
649.355	37073.35
649.707	37167.36
650.059	37236.96
650.411	37692.77
650.763	37645.31
651.115	38127.1
651.467	37822.71
651.819	37976.37
652.171	37843.27
652.523	37752.88
652.875	37766.89
653.227	37748.58
653.578	37950.16
653.93	37869.71
654.282	37649.38
654.633	37518.99
654.985	37685.53
655.337	37580.68
655.688	37744.52
656.039	37695.03
656.391	37395.37
656.742	37510.62
657.094	37539.55
657.445	37695.48
657.796	37621.13
658.147	37530.51
658.498	37422.49
658.849	37488.03
659.2	37502.49
659.551	37474.01
659.902	37493.68
660.253	37369.61
660.604	37524.63
660.955	37393.11
661.306	37441.02
661.656	37419.33
662.007	37331.65
662.358	37269.05
662.708	37347.92
663.059	37393.34
663.409	37115.83
663.76	37334.58
664.11	37435.82
664.461	37372.77
664.811	37432.21
665.161	37320.57
665.511	37241.7
665.862	37174.59
666.212	37415.49
666.562	37429.27
666.912	37383.85
667.262	37259.11
667.612	37215.49
667.962	37243.29
668.312	37187.69
668.662	37405.77
669.011	37192.21
669.361	37232.89
669.711	37196.28
670.06	37121.93
670.41	37112.22
670.76	37088.94
671.109	37142.5
671.459	37185.21
671.808	37073.35
672.157	37201.03
672.507	36954.03
672.856	36997.42
673.205	37083.29
673.554	37076.06
673.904	36907.93
674.253	37048.49
674.602	37032.22
674.951	36459.13
675.3	36274.72
675.649	36963.52
675.998	36925.55
676.346	36846.91
676.695	36821.15
677.044	36657.99
677.393	36761.72
677.741	36769.4
678.09	36693.7
678.438	36595.85
678.787	36787.93
679.135	36626.13
679.484	36552.46
679.832	36622.06
680.181	36513.59
680.529	36608.27
680.877	36432.23
681.225	36355.63
681.573	36615.05
681.922	36335.29
682.27	36194.27
682.618	36263.88
682.966	36121.06
683.314	36236.76
683.661	36046.93
684.009	35918.12
684.357	36018.46
684.705	35856.66
685.053	35865.47
685.4	35886.26
685.748	35607.62
686.095	35682.2
686.443	35619.83
686.79	35492.15
687.138	35575.53
687.485	35523.11
687.832	35378.02
688.18	35367.4
688.527	35214.87
688.874	35192.49
689.221	35199.5
689.568	35045.15
689.915	34843.8
690.262	34890.35
690.609	34798.6
690.956	34667.53
691.303	34691.49
691.65	34550.02
691.997	34594.77
692.344	34371.95
692.69	34442.68
693.037	34350.48
693.383	34132.41
693.73	34309.8
694.077	34078.85
694.423	33912.53
694.769	33916.37
695.116	33844.96
695.462	33812.64
695.808	33679.76
696.155	33671.4
696.501	33475.48
696.847	33474.12
697.193	33276.61
697.539	33268.02
697.885	33223.05
698.231	33003.17
698.577	33108.71
698.923	32969.5
699.269	32836.17
699.614	32730.41
699.96	32708.26
700.306	32722.5
700.651	32506.46
700.997	32442.51
701.342	32415.39
701.688	32377.43
702.033	32263.3
702.379	32268.28
702.724	32158
703.069	32264.43
703.415	31775.63
703.76	31793.03
704.105	31871.22
704.45	31848.17
704.795	31658.57
705.14	31441.4
705.485	31461.97
705.83	31377.23
706.175	31513.49
706.52	31294.97
706.865	31238.7
707.209	31176.55
707.554	31003.45
707.899	31108.53
708.243	30948.99
708.588	30959.16
708.932	30558.04
709.277	30561.65
709.621	30788.54
709.966	30402.56
710.31	30533.18
710.654	30275.11
710.998	30342.22
711.342	30346.97
711.687	30267.65
712.031	30258.39
712.375	30046.87
712.719	30074.66
713.063	30020.2
713.407	30050.93
713.75	29861.56
714.094	29830.37
714.438	29687.55
714.782	29765.29
715.125	29689.13
715.469	29689.13
715.812	29533.88
716.156	29326.66
716.499	29384.96
716.843	29406.66
717.186	29211.18
717.53	29477.61
717.873	29434.68
718.216	29242.59
718.559	29114.01
718.902	28948.82
719.246	29038.08
719.589	28982.03
719.932	28871.08
720.275	28803.73
720.617	28794.69
720.96	28758.99
721.303	28687.35
721.646	28593.57
721.989	28626.11
722.331	28614.81
722.674	28514.25
723.016	28614.59
723.359	28457.98
723.701	28467.47
724.044	28318.78
724.386	28212.34
724.729	28346.12
725.071	28242.39
725.413	28248.27
725.755	28097.09
726.097	28014.83
726.439	27935.51
726.782	27911.33
727.124	27952.23
727.465	27887.15
727.807	27854.83
728.149	27760.82
728.491	27577.55
728.833	27793.37
729.175	27695.06
729.516	27620.94
729.858	27440.38
730.199	27637.89
730.541	27509.98
730.882	27446.03
731.224	27536.65
731.565	27337.78
731.906	27313.38
732.248	27373.04
732.589	27285.13
732.93	27256.88
733.271	27190.67
733.612	27149.77
733.953	27279.25
734.294	26999.94
734.635	26948.64
734.976	27062.31
735.317	26921.75
735.658	26950
735.999	26888.3
736.339	26703.45
736.68	26971.69
737.021	26767.63
737.361	26720.63
737.702	26822.54
738.042	26744.35
738.383	26681.08
738.723	26734.64
739.063	26463
739.404	26540.06
739.744	26478.37
740.084	26308.66
740.424	26467.98
740.764	26339.39
741.104	26443.8
741.444	26157.7
741.784	26309.79
742.124	26215.78
742.464	26263.69
742.804	26048.55
743.143	26120.41
743.483	25992.51
743.823	25950.48
744.162	25930.14
744.502	25904.38
744.841	25835.68
745.181	25869.57
745.52	25697.6
745.86	25780.31
746.199	25708.45
746.538	25651.05
746.877	25616.02
747.216	25799.52
747.556	25598.62
747.895	25654.21
748.234	25482.01
748.573	25384.16
748.911	25442.24
749.25	25361.79
749.589	25302.13
749.928	25323.83
750.267	25329.48
750.605	25182.13
750.944	25107.56
751.283	25070.5
751.621	25168.58
751.96	25042.93
752.298	25103.94
752.636	24929.03
752.975	24927.45
753.313	24754.8
753.651	24938.75
753.989	24729.72
754.327	24744.86
754.666	24517.97
755.004	24618.99
755.342	24604.3
755.679	24453.79
756.017	24412.66
756.355	24500.12
756.693	24312.1
757.031	24354.36
757.368	24152.56
757.706	24135.16
758.044	24015.39
758.381	24062.84
758.719	23964.54
759.056	24008.38
759.394	23887.25
759.731	23820.36
760.068	23667.6
760.405	23632.57
760.743	23634.83
761.08	23505.12
761.417	23390.77
761.754	23353.48
762.091	23311
762.428	23304.22
762.765	23234.16
763.102	23244.11
763.438	23107.84
763.775	23055.41
764.112	23036.88
764.449	23023.55
764.785	22967.5
765.122	22715.98
765.458	22581.98
765.795	22556.89
766.131	22552.83
766.467	22573.62
766.804	22422.66
767.14	22454.52
767.476	22320.29
767.812	22105.38
768.148	22134.76
768.485	22010.47
768.821	22066.74
769.157	21883.01
769.492	21793.07
769.828	21777.25
770.164	21708.33
770.5	21701.55
770.836	21553.08
771.171	21531.38
771.507	21362.8
771.842	21315.8
772.178	21290.94
772.513	21169.13
772.849	21120.77
773.184	20951.96
773.519	21118.96
773.855	20918.07
774.19	20891.17
774.525	20683.95
774.86	20716.94
775.195	20694.57
775.53	20580.45
775.865	20495.03
776.2	20307.01
776.535	20278.76
776.87	20191.53
777.205	20124.87
777.539	20015.49
777.874	20058.88
778.209	19862.95
778.543	19927.36
778.878	19823.86
779.212	19747.25
779.547	19550.19
779.881	19613.24
780.215	19438.33
780.55	19442.62
780.884	19377.09
781.218	19396.75
781.552	19300.93
781.886	19182.52
782.22	19230.65
782.554	19011.45
782.888	18785.92
783.222	18899.81
783.556	18729.2
783.889	18743.66
784.223	18576.88
784.557	18527.39
784.89	18611.23
785.224	18548.41
785.557	18320.17
785.891	18401.75
786.224	18322.2
786.558	18308.19
786.891	18100.96
787.224	17905.49
787.557	17990.69
787.891	17957.92
788.224	17914.75
788.557	17782.56
788.89	17854.64
789.223	17729.9
789.556	17613.75
789.888	17606.97
790.221	17558.15
790.554	17402
790.887	17446.07
791.219	17351.15
791.552	17266.18
791.884	17211.95
792.217	17234.77
792.549	17087.88
792.882	17029.35
793.214	16933.09
793.546	16882.01
793.879	16804.28
794.211	16745.52
794.543	16849.7
794.875	16745.07
795.207	16823.26
795.539	16621.23
795.871	16560.21
796.203	16575.13
796.535	16404.51
796.867	16367.68
797.198	16284.74
797.53	16363.84
797.862	16195.93
798.193	16225.53
798.525	16070.96
798.856	16156.16
799.188	15904.19
799.519	15947.35
799.85	15823.51
800.182	15857.18
800.513	15841.59
800.844	15697.41
801.175	15795.71
801.506	15735.6
801.837	15630.07
802.168	15552.56
802.499	15627.13
802.83	15433.92
803.161	15403.41
803.491	15430.07
803.822	15447.48
804.153	15319.34
804.483	15201.61
804.814	15167.48
805.145	15149.86
805.475	15106.92
805.805	15070.76
806.136	15035.51
806.466	15005.23
806.796	15026.7
807.126	14827.6
807.457	14855.17
807.787	14771.11
808.117	14726.36
808.447	14772.92
808.777	14727.95
809.107	14606.14
809.436	14585.8
809.766	14584.45
810.096	14506.26
810.426	14511.68
810.755	14491.34
811.085	14410.44
811.414	14398.69
811.744	14278.69
812.073	14281.4
812.403	14292.03
812.732	14153.5
813.061	14136.55
813.39	14094.97
813.719	14102.65
814.049	14154.85
814.378	14099.49
814.707	13984.69
815.036	13921.64
815.365	13870.79
815.693	13807.07
816.022	13800.06
816.351	13798.48
816.68	13712.15
817.008	13750.34
817.337	13584.25
817.665	13601.87
817.994	13546.28
818.322	13577.92
818.651	13587.86
818.979	13474.19
819.307	13557.81
819.636	13509.67
819.964	13344.25
820.292	13446.62
820.62	13435.55
820.948	13330.47
821.276	13360.3
821.604	13367.76
821.932	13364.59
822.259	13460.41
822.587	13304.93
822.915	13310.81
823.243	13349.23
823.57	13303.12
823.898	13337.02
824.225	13264.26
824.553	13292.73
824.88	13283.24
825.207	13271.71
825.535	13318.04
825.862	13294.99
826.189	13284.37
826.516	13344.93
826.843	13412.95
827.17	13292.05
827.497	13260.19
827.824	13317.14
828.151	13349.9
828.478	13229.45
828.805	13290.47
829.131	13324.59
829.458	13178.61
829.785	13205.95
830.111	13304.93
830.438	13274.2
830.764	13210.02
831.09	13266.06
831.417	13247.98
831.743	13273.75
832.069	13195.56
832.395	13171.83
832.722	13182.45
833.048	13154.43
833.374	13200.53
833.7	13069.23
834.026	13096.12
834.351	13159.85
834.677	13143.35
835.003	13058.61
835.329	13137.71
835.654	12970.48
835.98	12983.59
836.306	13021.1
836.631	12986.52
836.956	13009.8
837.282	12994.21
837.607	12964.83
837.932	12899.52
838.258	12963.7
838.583	12891.38
838.908	12881.89
839.233	12821.33
839.558	12787.66
839.883	12763.03
840.208	12724.61
840.533	12704.95
840.858	12723.03
841.182	12720.09
841.507	12645.51
841.832	12645.51
842.156	12561
842.481	12610.26
842.805	12547.21
843.13	12487.33
843.454	12481.9
843.778	12496.14
844.103	12496.82
844.427	12418.85
844.751	12421.79
845.075	12352.19
845.399	12323.04
845.723	12242.59
846.047	12275.36
846.371	12126.21
846.695	12178.41
847.019	12023.16
847.343	12017.73
847.666	11911.52
847.99	11921.69
848.313	11961.24
848.637	11784.29
848.96	11743.17
849.284	11778.65
849.607	11629.5
849.931	11745.88
850.254	11603.73
850.577	11478.09
850.9	11471.31
851.223	11458.2
851.546	11310.63
851.869	11398.77
852.192	11435.15
852.515	11261.14
852.838	11221.15
853.161	11203.74
853.483	11183.18
853.806	11124.65
854.129	11171.2
854.451	11090.75
854.774	11021.38
855.096	10954.94
855.419	10949.74
855.741	10930.98
856.063	10843.98
856.385	10886.47
856.708	10817.99
857.03	10726.02
857.352	10781.61
857.674	10693.48
857.996	10593.82
858.318	10719.24
858.64	10634.49
858.961	10633.14
859.283	10519.92
859.605	10530.54
859.926	10525.8
860.248	10513.14
860.57	10401.73
860.891	10533.25
861.212	10375.74
861.534	10401.73
861.855	10265.69
862.176	10302.75
862.498	10277.67
862.819	10283.09
863.14	10234.5
863.461	10222.98
863.782	10212.58
864.103	10274.96
864.424	10134.85
864.745	10200.61
865.065	10141.85
865.386	10128.52
865.707	10073.15
866.027	10066.15
866.348	10007.39
866.668	10140.27
866.989	9989.09
867.309	9932.37
867.63	9965.36
867.95	9941.63
868.27	9906.6
868.59	9935.98
868.91	9914.74
869.23	9874.74
869.55	9856.21
869.87	9936.66
870.19	9891.24
870.51	9800.39
870.83	9796.78
871.15	9778.92
871.469	9790
871.789	9831.35
872.109	9759.04
872.428	9723.11
872.748	9740.73
873.067	9748.64
873.386	9757
873.706	9658.7
874.025	9676.33
874.344	9631.81
874.663	9639.49
874.982	9608.76
875.301	9568.99
875.62	9590.23
875.939	9514.98
876.258	9539.38
876.577	9533.05
876.896	9539.38
877.214	9440.4
877.533	9457.58
877.852	9468.88
878.17	9461.64
878.489	9467.29
878.807	9423.68
879.125	9491.25
879.444	9377.35
879.762	9405.15
880.08	9391.82
880.398	9323.12
880.716	9326.05
881.034	9294.64
881.352	9376
881.67	9260.97
881.988	9246.51
882.306	9258.94
882.624	9194.31
882.941	9141.65
883.259	9110.47
883.577	9143.46
883.894	9103.91
884.212	9144.14
884.529	9074.08
884.846	9020.75
885.164	9005.38
885.481	9001.99
885.798	9043.8
886.115	8984.82
886.432	8900.08
886.75	8905.5
887.067	8949.79
887.383	8911.38
887.7	8915.44
888.017	8873.41
888.334	8880.19
888.651	8723.81
888.967	8804.94
889.284	8731.49
889.6	8748.89
889.917	8702.12
890.233	8694.66
890.55	8621.89
890.866	8665.28
891.182	8622.8
891.498	8641.78
891.815	8552.06
892.131	8530.37
892.447	8477.71
892.763	8471.16
893.079	8395.01
893.395	8416.25
893.71	8425.06
894.026	8382.35
894.342	8413.31
894.657	8305.74
894.973	8272.3
895.289	8268.23
895.604	8241.56
895.92	8255.8
896.235	8126.31
896.55	8151.85
896.865	8095.35
897.181	8125.63
897.496	8144.39
897.811	8089.02
898.126	8021.46
898.441	8059.87
898.756	7972.87
899.071	7977.84
899.386	7972.19
899.7	7883.15
900.015	7976.49
900.33	7805.42
900.644	7782.37
900.959	7801.8
901.273	7778.98
901.588	7682.03
901.902	7696.72
902.216	7675.25
902.531	7648.58
902.845	7585.54
903.159	7583.95
903.473	7552.99
903.787	7556.84
904.101	7501.47
904.415	7451.75
904.729	7442.94
905.042	7405.2
905.356	7416.27
905.67	7388.25
905.984	7263.74
906.297	7249.5
906.611	7289.05
906.924	7220.12
907.237	7273.45
907.551	7176.28
907.864	7204.53
908.177	7143.06
908.491	7125.21
908.804	7106.9
909.117	7051.76
909.43	7045.66
909.743	7015.38
910.056	6977.42
910.368	6933.35
910.681	6884.54
910.994	6910.75
911.307	6928.15
911.619	6842.73
911.932	6834.59
912.244	6693.81
912.557	6793.01
912.869	6708.04
913.181	6707.59
913.494	6723.18
913.806	6642.28
914.118	6594.15
914.43	6569.97
914.742	6611.1
915.054	6583.53
915.366	6527.71
915.678	6516.41
915.99	6485.22
916.302	6404.32
916.613	6396.41
916.925	6353.48
917.236	6400.03
917.548	6301.5
917.859	6308.73
918.171	6254.95
918.482	6294.27
918.794	6217.89
919.105	6179.02
919.416	6131.34
919.727	6167.04
920.038	6122.52
920.349	6059.25
920.66	6067.83
920.971	6022.41
921.282	5999.81
921.593	5960.49
921.903	5938.57
922.214	5918.69
922.525	5923.66
922.835	5869.42
923.146	5838.46
923.456	5802.98
923.767	5822.42
924.077	5801.63
924.387	5755.75
924.697	5735.41
925.008	5721.4
925.318	5703.78
925.628	5688.41
925.938	5692.03
926.248	5670.56
926.558	5606.83
926.867	5556.44
927.177	5587.4
927.487	5533.61
927.796	5497.91
928.106	5489.32
928.416	5440.96
928.725	5445.48
929.034	5401.64
929.344	5390.79
929.653	5368.42
929.962	5331.13
930.271	5314.18
930.581	5281.19
930.89	5310.34
931.199	5298.59
931.508	5204.58
931.817	5284.58
932.125	5226.95
932.434	5167.29
932.743	5118.48
933.051	5132.72
933.36	5082.55
933.669	5033.96
933.977	5046.62
934.286	5069.22
934.594	5006.62
934.902	4977.02
935.21	5014.98
935.519	4964.36
935.827	4941.31
936.135	4913.29
936.443	4895.89
936.751	4873.06
937.059	4831.71
937.367	4832.39
937.674	4814.31
937.982	4734.08
938.29	4767.98
938.597	4765.5
938.905	4700.19
939.213	4700.19
939.52	4704.71
939.827	4686.63
940.135	4679.85
940.442	4681.43
940.749	4610.7
941.056	4637.36
941.363	4540.64
941.67	4566.63
941.977	4515.56
942.284	4540.64
942.591	4548.1
942.898	4499.29
943.205	4458.39
943.511	4451.83
943.818	4419.06
944.125	4405.96
944.431	4391.72
944.738	4364.15
945.044	4363.47
945.35	4284.15
945.657	4291.38
945.963	4304.94
946.269	4221.1
946.575	4294.1
946.881	4264.72
947.187	4182.69
947.493	4244.83
947.799	4158.05
948.105	4140.65
948.41	4120.77
948.716	4109.92
949.022	4084.38
949.327	4085.74
949.633	4008.91
949.938	4087.55
950.244	4045.97
950.549	4044.84
950.854	4014.78
951.16	3965.07
951.465	3966.2
951.77	3931.17
952.075	3938.4
952.38	3937.04
952.685	3907.44
952.99	3878.97
953.294	3875.12
953.599	3866.08
953.904	3834.45
954.209	3799.19
954.513	3852.07
954.818	3746.31
955.122	3815.69
955.426	3797.16
955.731	3761
956.035	3707.67
956.339	3723.04
956.643	3673.55
956.948	3664.96
957.252	3637.62
957.556	3650.5
957.86	3636.94
958.163	3641.46
958.467	3636.94
958.771	3583.61
959.075	3584.74
959.378	3558.52
959.682	3541.35
959.985	3506.32
960.289	3514.23
960.592	3510.16
960.896	3452.99
961.199	3461.58
961.502	3523.49
961.805	3449.6
962.108	3405.76
962.411	3347.45
962.714	3341.8
963.017	3358.08
963.32	3347.91
963.623	3348.36
963.926	3341.35
964.228	3316.49
964.531	3309.72
964.833	3285.08
965.136	3274.91
965.438	3230.62
965.741	3258.87
966.043	3217.29
966.345	3219.55
966.648	3215.03
966.95	3184.97
967.252	3165.99
967.554	3178.19
967.856	3141.36
968.158	3121.92
968.46	3104.3
968.761	3112.43
969.063	3113.79
969.365	3055.94
969.666	3074.47
969.968	3025.88
970.269	3058.65
970.571	2977.52
970.872	3025.2
971.174	2983.17
971.475	2994.02
971.776	2990.63
972.077	2956.73
972.378	2946.79
972.679	2967.8
972.98	2962.38
973.281	2891.2
973.582	2918.54
973.883	2910.4
974.183	2862.04
974.484	2852.1
974.785	2883.29
975.085	2850.74
975.386	2825.66
975.686	2824.76
975.986	2825.21
976.287	2814.81
976.587	2771.65
976.887	2779.11
977.187	2786.11
977.487	2746.34
977.787	2726.23
978.087	2701.6
978.387	2718.77
978.687	2686.23
978.987	2673.12
979.286	2665.44
979.586	2660.92
979.885	2651.2
980.185	2654.82
980.484	2621.37
980.784	2593.12
981.083	2587.93
981.382	2645.78
981.682	2593.8
981.981	2571.88
982.28	2573.69
982.579	2536.63
982.878	2529.62
983.177	2547.93
983.475	2505.67
983.774	2487.82
984.073	2509.28
984.372	2465.9
984.67	2495.73
984.969	2458.66
985.267	2481.94
985.566	2461.38
985.864	2417.08
986.162	2376.41
986.461	2386.12
986.759	2383.41
987.057	2407.82
987.355	2369.4
987.653	2338.89
987.951	2326.69
988.249	2329.63
988.547	2312.45
988.844	2309.29
989.142	2327.37
989.44	2294.37
989.737	2270.19
990.035	2274.49
990.332	2271.78
990.63	2236.98
990.927	2267.93
991.224	2223.87
991.521	2223.64
991.819	2220.25
992.116	2221.38
992.413	2178.45
992.71	2187.26
993.006	2156.07
993.303	2175.51
993.6	2167.82
993.897	2120.14
994.193	2152.46
994.49	2132.12
994.787	2120.59
995.083	2101.39
995.379	2095.96
995.676	2081.72
995.972	2102.06
996.268	2060.26
996.565	2058.22
996.861	2067.26
997.157	2063.42
997.453	2005.12
997.749	2010.77
998.044	2033.59
998.34	1967.6
998.636	1997.89
998.932	1989.98
999.227	1957.89
999.523	1952.24
999.818	1915.18
1000.114	1928.51
1000.409	1921.05
1000.704	1906.81
1001	1895.97
1001.295	1909.07
1001.59	1901.39
1001.885	1872.01
1002.18	1893.26
1002.475	1851.45
1002.77	1863.88
1003.065	1847.15
1003.359	1834.95
1003.654	1807.38
1003.949	1817.1
1004.243	1833.6
1004.538	1775.74
1004.832	1815.07
1005.127	1760.15
1005.421	1786.37
1005.715	1752.92
1006.009	1754.5
1006.304	1719.47
1006.598	1736.42
1006.892	1712.02
1007.186	1674.73
1007.48	1699.81
1007.773	1712.7
1008.067	1674.96
1008.361	1701.17
1008.655	1668.63
1008.948	1641.74
1009.242	1661.4
1009.535	1664.56
1009.829	1613.26
1010.122	1608.52
1010.415	1604.68
1010.708	1605.35
1011.001	1593.6
1011.295	1578.91
1011.588	1578.91
1011.881	1555.41
1012.173	1581.63
1012.466	1550.44
1012.759	1523.55
1013.052	1543.66
1013.344	1516.77
1013.637	1516.32
1013.93	1511.8
1014.222	1516.09
1014.514	1484.9
1014.807	1483.32
1015.099	1487.62
1015.391	1465.47
1015.683	1478.35
1015.976	1444.91
1016.268	1461.63
1016.56	1440.84
1016.851	1427.05
1017.143	1418.47
1017.435	1387.05
1017.727	1428.63
1018.018	1388.18
1018.31	1393.16
1018.602	1393.38
1018.893	1374.4
1019.185	1368.75
1019.476	1362.65
1019.767	1321.29
1020.058	1359.94
1020.35	1305.02
1020.641	1287.4
1020.932	1299.6
1021.223	1312.48
1021.514	1284.01
1021.804	1280.39
1022.095	1289.43
1022.386	1265.7
1022.677	1263.44
1022.967	1232.03
1023.258	1258.92
1023.548	1250.79
1023.839	1236.55
1024.129	1232.71
1024.419	1206.72
1024.709	1216.44
1025	1203.56
1025.29	1216.89
1025.58	1201.75
1025.87	1180.51
1026.16	1148.64
1026.449	1173.05
1026.739	1179.38
1027.029	1190.45
1027.319	1132.82
1027.608	1158.13
1027.898	1119.72
1028.187	1139.15
1028.477	1115.87
1028.766	1117
1029.055	1106.61
1029.344	1105.03
1029.634	1072.03
1029.923	1114.52
1030.212	1088.76
1030.501	1098.7
1030.79	1046.95
1031.078	1055.54
1031.367	1052.37
1031.656	1032.04
1031.945	1074.52
1032.233	1020.06
1032.522	994.3
1032.81	997.23
1033.099	1017.12
1033.387	1020.74
1033.675	984.35
1033.963	995.2
1034.251	999.95
1034.54	965.82
1034.828	943
1035.116	948.65
1035.403	976.22
1035.691	969.89
1035.979	954.75
1036.267	954.3
1036.554	930.57
1036.842	939.61
1037.129	923.11
1037.417	910
1037.704	917.24
1037.992	916.56
1038.279	901.19
1038.566	889.67
1038.853	889.67
1039.14	889.67
