Data from hue_210_FLMS001491_00066.txt Node
Date: Tue Feb 07 16:41:33 GMT 2017
User: dcchb
Spectrometer: FLMS00149
Trigger mode: 0
Integration Time (sec): 2.000000E-2
Scans to average: 10
Electric dark correction enabled: true
Nonlinearity correction enabled: false
Boxcar width: 0
XAxis mode: Wavelengths
Number of Pixels in Spectrum: 2048
>>>>>Begin Spectral Data<<<<<
341.393	-27.41
341.776	-27.41
342.16	-27.41
342.543	-64.48
342.927	-81.2
343.31	-78.71
343.693	-70.58
344.077	-77.36
344.46	-53.85
344.843	-49.79
345.226	-49.33
345.61	-25.61
345.993	-12.5
346.376	3.32
346.759	22.08
347.142	13.71
347.525	36.09
347.908	60.27
348.291	74.28
348.674	102.75
349.057	105.24
349.44	110.21
349.823	133.03
350.206	154.73
350.588	175.07
350.971	205.12
351.354	208.96
351.737	234.95
352.119	235.63
352.502	278.11
352.884	258.45
353.267	277.44
353.65	273.37
354.032	287.15
354.414	295.29
354.797	310.2
355.179	324.21
355.562	310.43
355.944	339.58
356.326	330.99
356.709	326.7
357.091	339.13
357.473	347.72
357.855	331.9
358.238	345.23
358.62	325.12
359.002	347.26
359.384	349.98
359.766	324.89
360.148	336.42
360.53	342.29
360.912	325.8
361.294	338
361.676	347.72
362.057	340.49
362.439	334.61
362.821	314.27
363.203	333.71
363.584	329.86
363.966	315.18
364.348	320.37
364.729	331.67
365.111	317.66
365.493	298.68
365.874	301.84
366.256	319.69
366.637	312.92
367.019	335.74
367.4	306.81
367.781	296.64
368.163	305.68
368.544	313.59
368.925	319.02
369.306	311.33
369.688	298.9
370.069	308.17
370.45	314.72
370.831	309.75
371.212	331.67
371.593	304.1
371.974	305.23
372.355	301.84
372.736	312.46
373.117	305.46
373.498	320.6
373.879	299.13
374.26	313.14
374.641	293.03
375.021	326.02
375.402	322.18
375.783	299.81
376.163	309.07
376.544	325.12
376.925	340.26
377.305	323.76
377.686	308.4
378.066	307.49
378.447	299.13
378.827	348.17
379.208	333.48
379.588	343.42
379.968	323.31
380.349	338.45
380.729	306.81
381.109	305.68
381.489	329.64
381.87	334.16
382.25	307.49
382.63	333.48
383.01	338
383.39	344.1
383.77	328.51
384.15	333.03
384.53	339.58
384.91	349.98
385.29	351.78
385.67	347.72
386.049	340.71
386.429	338.23
386.809	345.01
387.189	352.91
387.568	349.52
387.948	350.65
388.328	352.46
388.707	352.91
389.087	355.63
389.466	337.55
389.846	371.22
390.225	362.63
390.605	382.29
390.984	355.85
391.363	367.15
391.743	382.74
392.122	375.96
392.501	374.16
392.881	378.22
393.26	363.99
393.639	369.41
394.018	376.42
394.397	401.05
394.776	389.07
395.155	367.38
395.534	370.54
395.913	367.83
396.292	396.08
396.671	400.37
397.05	400.14
397.429	391.78
397.808	394.04
398.186	412.8
398.565	408.28
398.944	399.01
399.323	397.66
399.701	418.45
400.08	440.14
400.458	404.21
400.837	411.9
401.215	412.57
401.594	408.28
401.972	430.43
402.351	421.61
402.729	428.39
403.107	418.22
403.486	455.06
403.864	456.64
404.242	434.27
404.62	444.89
404.999	449.18
405.377	451.67
405.755	472.01
406.133	455.51
406.511	462.74
406.889	457.54
407.267	467.71
407.645	478.79
408.023	482.85
408.401	500.26
408.779	495.51
409.156	483.31
409.534	508.39
409.912	509.29
410.29	532.8
410.667	536.41
411.045	562.85
411.422	547.26
411.8	539.58
412.178	544.32
412.555	559.69
412.933	572.34
413.31	595.85
413.687	601.27
414.065	591.1
414.442	606.92
414.819	622.06
415.197	639.01
415.574	631.78
415.951	647.37
416.328	647.6
416.705	682.4
417.082	664.77
417.46	674.71
417.837	690.53
418.214	692.11
418.591	699.35
418.967	708.61
419.344	713.36
419.721	737.99
420.098	724.88
420.475	750.64
420.852	748.16
421.228	775.73
421.605	810.76
421.982	798.55
422.358	807.82
422.735	817.76
423.111	832
423.488	875.39
423.864	871.77
424.241	903.86
424.617	904.76
424.994	889.85
425.37	931.66
425.746	948.15
426.123	960.81
426.499	947.93
426.875	974.14
427.251	993.8
427.627	1021.37
428.003	1003.07
428.379	1043.07
428.756	1041.03
429.132	1073.57
429.507	1053.69
429.883	1048.49
430.259	1084.42
430.635	1078.32
431.011	1110.63
431.387	1170.97
431.763	1164.42
432.138	1167.13
432.514	1203.51
432.89	1209.84
433.265	1244.19
433.641	1238.54
434.016	1264.53
434.392	1278.99
434.767	1327.35
435.143	1304.08
435.518	1340.01
435.894	1379.55
436.269	1385.66
436.644	1422.72
437.02	1467.69
437.395	1444.41
437.77	1474.01
438.145	1534.58
438.52	1523.96
438.895	1559.44
439.271	1577.97
439.646	1586.1
440.021	1621.81
440.395	1651.41
440.77	1657.29
441.145	1687.34
441.52	1709.94
441.895	1747
442.27	1751.3
442.645	1755.82
443.019	1792.2
443.394	1790.39
443.769	1815.93
444.143	1831.52
444.518	1855.02
444.892	1884.17
445.267	1867.9
445.641	1876.94
446.016	1899.77
446.39	1906.77
446.764	1958.75
447.139	1899.54
447.513	1944.29
447.887	1979.76
448.262	1988.13
448.636	2011.4
449.01	2031.29
449.384	2028.35
449.758	2061.57
450.132	2124.39
450.506	2115.35
450.88	2087.33
451.254	2100.67
451.628	2191.28
452.002	2175.69
452.376	2168.46
452.75	2184.28
453.123	2239.87
453.497	2258.63
453.871	2242.81
454.244	2298.4
454.618	2336.14
454.992	2392.18
455.365	2398.28
455.739	2411.62
456.112	2412.75
456.486	2469.47
456.859	2465.63
457.232	2578.39
457.606	2535.91
457.979	2572.97
458.352	2634.44
458.725	2642.8
459.099	2638.5
459.472	2698.84
459.845	2737.94
460.218	2737.26
460.591	2805.28
460.964	2797.37
461.337	2845.96
461.71	2894.99
462.083	2893.64
462.456	2943.35
462.829	2956.46
463.201	2968.21
463.574	3034.43
463.947	3059.28
464.32	3113.29
464.692	3112.84
465.065	3164.37
465.438	3184.25
465.81	3197.59
466.183	3230.35
466.555	3345.83
466.928	3342.89
467.3	3310.12
467.672	3401.2
468.045	3505.6
468.417	3473.96
468.789	3525.94
469.161	3555.77
469.534	3604.58
469.906	3633.05
470.278	3715.54
470.65	3704.46
471.022	3758.47
471.394	3861.97
471.766	3868.08
472.138	3925.48
472.51	3998.47
472.882	4108.07
473.253	4035.76
473.625	4131.8
473.997	4251.79
474.369	4247.95
474.74	4269.87
475.112	4320.95
475.484	4432.58
475.855	4486.82
476.227	4488.85
476.598	4639.58
476.97	4634.84
477.341	4779.46
477.713	4855.85
478.084	4835.51
478.455	4950.99
478.827	5009.52
479.198	5082.51
479.569	5115.28
479.94	5259.45
480.311	5319.79
480.682	5382.84
481.053	5495.38
481.424	5525.21
481.795	5590.74
482.166	5687.01
482.537	5764.07
482.908	5870.28
483.279	5907.12
483.65	6001.81
484.021	6079.77
484.391	6188.47
484.762	6204.06
485.133	6214.23
485.503	6317.96
485.874	6432.53
486.244	6482.92
486.615	6554.56
486.985	6627.1
487.356	6729.02
487.726	6773.31
488.097	6924.95
488.467	6929.01
488.837	7079.97
489.207	7119.74
489.578	7225.73
489.948	7300.08
490.318	7347.98
490.688	7380.3
491.058	7465.27
491.428	7547.75
491.798	7569.45
492.168	7728.77
492.538	7765.37
492.908	7829.1
493.278	7933.05
493.648	7906.84
494.017	8008.98
494.387	8109.32
494.757	8130.56
495.126	8158.58
495.496	8240.84
495.866	8261.41
496.235	8305.25
496.605	8350.67
496.974	8381.4
497.344	8503.66
497.713	8480.84
498.082	8533.04
498.452	8580.04
498.821	8653.26
499.19	8621.85
499.559	8681.28
499.928	8793.14
500.298	8785.24
500.667	8827.95
501.036	8802.18
501.405	8893.25
501.774	8906.81
502.143	8968.28
502.512	8940.26
502.88	9029.3
503.249	8991.33
503.618	9038.79
503.987	9123.53
504.356	9114.94
504.724	9172.12
505.093	9154.26
505.462	9206.92
505.83	9192.46
506.199	9256.86
506.567	9344.32
506.936	9280.82
507.304	9367.14
507.672	9361.94
508.041	9425.44
508.409	9468.38
508.777	9517.19
509.145	9501.6
509.514	9518.32
509.882	9606.23
510.25	9544.76
510.618	9559
510.986	9602.39
511.354	9691.43
511.722	9754.25
512.09	9752.67
512.458	9739.56
512.826	9748.83
513.193	9791.76
513.561	9794.25
513.929	9784.98
514.297	9860.01
514.664	9894.81
515.032	9880.12
515.4	9861.37
515.767	9918.31
516.135	9943.17
516.502	9884.42
516.869	9994.02
517.237	9930.74
517.604	9943.4
517.972	9985.2
518.339	10042.38
518.706	9995.15
519.073	10042.38
519.44	9989.95
519.808	10028.14
520.175	10016.62
520.542	10204.63
520.909	10135.71
521.276	10097.07
521.643	10071.08
522.009	10174.58
522.376	10185.88
522.743	10184.75
523.11	10270.62
523.477	10342.26
523.843	10245.99
524.21	10336.15
524.577	10383.39
524.943	10328.92
525.31	10406.21
525.676	10393.1
526.043	10399.43
526.409	10355.36
526.776	10493.44
527.142	10463.16
527.508	10391.07
527.874	10471.52
528.241	10476.04
528.607	10487.34
528.973	10471.52
529.339	10417.28
529.705	10545.41
530.071	10582.25
530.437	10496.15
530.803	10522.36
531.169	10478.52
531.535	10491.4
531.901	10422.93
532.267	10421.8
532.632	10428.13
532.998	10421.58
533.364	10411.41
533.73	10413.44
534.095	10408.7
534.461	10383.16
534.826	10435.36
535.192	10407.34
535.557	10438.07
535.923	10304.07
536.288	10298.64
536.653	10264.97
537.019	10281.69
537.384	10252.77
537.749	10230.39
538.114	10255.93
538.479	10172.09
538.845	10253.22
539.21	10154.01
539.575	10107.01
539.94	10180
540.305	10116.05
540.67	10083.28
541.034	10049.38
541.399	9996.95
541.764	10018.87
542.129	10006.67
542.494	9978.65
542.858	9992.21
543.223	9902.95
543.587	9883.29
543.952	9869.73
544.316	9850.29
544.681	9727.13
545.045	9790.18
545.41	9813.68
545.774	9780.24
546.138	9726.68
546.503	9742.72
546.867	9606.68
547.231	9682.16
547.595	9684.19
547.959	9636.74
548.324	9566.23
548.688	9613.91
549.052	9564.88
549.416	9526.68
549.779	9536.63
550.143	9463.41
550.507	9465.22
550.871	9499.34
551.235	9429.96
551.599	9409.85
551.962	9291.44
552.326	9352.68
552.689	9354.03
553.053	9263.87
553.417	9265.22
553.78	9335.5
554.143	9293.02
554.507	9289.18
554.87	9230.87
555.234	9222.96
555.597	9126.24
555.96	9189.97
556.323	9196.3
556.686	9121.72
557.05	9159.91
557.413	9171.89
557.776	9162.63
558.139	9167.82
558.502	9158.11
558.865	9089.63
559.228	9172.57
559.59	9158.33
559.953	9060.93
560.316	9180.7
560.679	9125.79
561.041	9132.8
561.404	9204.43
561.767	9123.76
562.129	9066.58
562.492	9121.5
562.854	9106.36
563.217	9139.12
563.579	9132.57
563.941	9119.92
564.304	9155.85
564.666	9099.35
565.028	9126.7
565.39	9163.98
565.753	9219.35
566.115	9137.99
566.477	9186.81
566.839	9239.69
567.201	9222.06
567.563	9246.01
567.925	9245.56
568.287	9210.08
568.648	9197.43
569.01	9272.91
569.372	9297.54
569.734	9307.93
570.095	9340.47
570.457	9319.68
570.819	9316.52
571.18	9294.37
571.542	9319.68
571.903	9421.15
572.265	9426.12
572.626	9416.4
572.987	9364.2
573.349	9395.84
573.71	9434.03
574.071	9489.85
574.432	9428.16
574.794	9471.32
575.155	9533.69
575.516	9432.9
575.877	9511.54
576.238	9515.39
576.599	9487.82
576.96	9543.86
577.32	9527.14
577.681	9512.22
578.042	9568.72
578.403	9520.13
578.763	9554.48
579.124	9580.69
579.485	9628.15
579.845	9711.54
580.206	9614.82
580.566	9580.24
580.927	9602.39
581.287	9681.48
581.648	9584.76
582.008	9627.7
582.368	9685.78
582.728	9722.39
583.089	9682.39
583.449	9656.85
583.809	9665.21
584.169	9726.91
584.529	9755.83
584.889	9727.36
585.249	9676.51
585.609	9674.7
585.969	9756.96
586.329	9771.2
586.688	9775.72
587.048	9700.24
587.408	9713.12
587.768	9689.84
588.127	9740.01
588.487	9724.42
588.846	9761.25
589.206	9746.34
589.565	9760.58
589.925	9798.99
590.284	9753.12
590.643	9771.2
591.003	9801.71
591.362	9830.18
591.721	9754.48
592.08	9832.21
592.44	9829.73
592.799	9810.52
593.158	9759.9
593.517	9863.4
593.876	9842.16
594.235	9835.38
594.593	9824.53
594.952	9885.55
595.311	9806.9
595.67	9762.38
596.029	9855.04
596.387	9863.62
596.746	9898.43
597.104	9839.22
597.463	9808.94
597.822	9884.64
598.18	9805.77
598.538	9856.17
598.897	9841.93
599.255	9804.64
599.613	9879.9
599.972	9838.99
600.33	9801.25
600.688	9831.99
601.046	9869.5
601.404	9869.27
601.762	9797.64
602.12	9928.71
602.478	9826.11
602.836	9924.19
603.194	9883.06
603.552	9875.15
603.91	9837.64
604.268	9937.52
604.625	9817.07
604.983	9818.43
605.341	9859.56
605.698	9908.14
606.056	9937.75
606.413	9937.52
606.771	9897.3
607.128	10003.96
607.485	9880.12
607.843	9929.39
608.2	9821.82
608.557	9946.33
608.914	9873.79
609.272	9957.41
609.629	9985.66
609.986	10001.93
610.343	9986.33
610.7	10013.68
611.057	10027.24
611.414	10093.9
611.771	10040.57
612.127	10077.63
612.484	10088.03
612.841	10014.36
613.198	10117.86
613.554	10073.56
613.911	10114.01
614.267	10102.94
614.624	10102.71
614.98	10077.18
615.337	10189.04
615.693	10129.38
616.05	10106.78
616.406	10126.89
616.762	10105.43
617.118	10127.12
617.475	10198.98
617.831	10132.77
618.187	10138.42
618.543	10162.83
618.899	10177.74
619.255	10227.01
619.611	10185.2
619.967	10211.41
620.323	10221.58
620.678	10218.42
621.034	10202.6
621.39	10091.42
621.746	10158.08
622.101	10213.45
622.457	10212.32
622.812	10220
623.168	10217.29
623.523	10186.33
623.879	10203.73
624.234	10136.39
624.589	10161.47
624.945	10192.2
625.3	10259.77
625.655	10168.48
626.01	10183.62
626.365	10156.95
626.72	10126.44
627.075	10180.9
627.43	10157.63
627.785	10166.67
628.14	10232.88
628.495	10248.47
628.85	10152.2
629.205	10112.21
629.559	10208.7
629.914	10117.63
630.269	10132.32
630.623	10111.75
630.978	10110.17
631.332	10151.75
631.687	10112.21
632.041	10059.78
632.396	10042.6
632.75	10062.72
633.104	10052.09
633.459	10008.03
633.813	10008.71
634.167	10054.58
634.521	9997.41
634.875	10040.34
635.229	9972.77
635.583	9960.35
635.937	9909.27
636.291	9914.24
636.645	9913.34
636.999	9862.27
637.352	9861.37
637.706	9821.82
638.06	9865.66
638.413	9859.33
638.767	9875.15
639.121	9868.14
639.474	9811.65
639.828	9823.63
640.181	9752.22
640.534	9810.07
640.888	9808.94
641.241	9785.66
641.594	9803.74
641.947	9804.19
642.301	9780.69
642.654	9756.96
643.007	9704.08
643.36	9762.38
643.713	9728.49
644.066	9721.03
644.419	9733.91
644.771	9651.2
645.124	9532.33
645.477	9506.8
645.83	9467.03
646.182	9422.28
646.535	9416.18
646.888	9455.73
647.24	9359.01
647.593	9441.04
647.945	9392
648.298	9350.42
648.65	9328.27
649.002	9325.79
649.355	9417.99
649.707	9405.56
650.059	9391.77
650.411	9604.42
650.763	9551.09
651.115	9705.66
651.467	9673.8
651.819	9588.6
652.171	9591.09
652.523	9599.23
652.875	9654.14
653.227	9630.18
653.578	9630.64
653.93	9595.84
654.282	9548.38
654.633	9518.78
654.985	9587.47
655.337	9671.54
655.688	9564.88
656.039	9629.05
656.391	9533.46
656.742	9474.26
657.094	9480.58
657.445	9578.43
657.796	9610.98
658.147	9608.94
658.498	9587.93
658.849	9614.37
659.2	9625.21
659.551	9606
659.902	9601.71
660.253	9647.13
660.604	9583.86
660.955	9599
661.306	9604.87
661.656	9641.71
662.007	9587.02
662.358	9686.23
662.708	9607.13
663.059	9578.66
663.409	9522.84
663.76	9685.1
664.11	9578.21
664.461	9639.22
664.811	9644.2
665.161	9591.32
665.511	9635.61
665.862	9660.69
666.212	9656.62
666.562	9652.78
666.912	9651.65
667.262	9647.13
667.612	9578.43
667.962	9669.05
668.312	9612.78
668.662	9638.55
669.011	9643.74
669.361	9625.44
669.711	9627.02
670.06	9608.72
670.41	9544.31
670.76	9505.44
671.109	9602.16
671.459	9595.84
671.808	9560.81
672.157	9585.89
672.507	9570.53
672.856	9553.58
673.205	9549.06
673.554	9597.64
673.904	9564.2
674.253	9668.83
674.602	9557.64
674.951	9471.32
675.3	9394.26
675.649	9466.57
675.998	9481.71
676.346	9475.84
676.695	9516.97
677.044	9448.27
677.393	9455.27
677.741	9444.88
678.09	9424.09
678.438	9384.54
678.787	9373.02
679.135	9375.05
679.484	9340.02
679.832	9364.2
680.181	9313.58
680.529	9257.54
680.877	9345.45
681.225	9266.58
681.573	9330.08
681.922	9303.19
682.27	9264.54
682.618	9210.76
682.966	9270.42
683.314	9309.29
683.661	9246.24
684.009	9062.52
684.357	9170.54
684.705	9119.24
685.053	9102.74
685.4	9156.07
685.748	9097.77
686.095	9027.71
686.443	8983.2
686.79	8968.51
687.138	8967.15
687.485	8982.52
687.832	8915.85
688.18	8922.86
688.527	8884.89
688.874	8875.63
689.221	8907.04
689.568	8855.97
689.915	8823.88
690.262	8785.69
690.609	8749.76
690.956	8721.51
691.303	8708.17
691.65	8648.29
691.997	8646.03
692.344	8590.44
692.69	8598.12
693.037	8567.84
693.383	8494.85
693.73	8575.07
694.077	8576.65
694.423	8481.97
694.769	8475.19
695.116	8444.23
695.462	8430.67
695.808	8404.23
696.155	8411.91
696.501	8338.24
696.847	8324.23
697.193	8201.75
697.539	8231.8
697.885	8262.09
698.231	8188.64
698.577	8112.94
698.923	8121.98
699.269	8111.58
699.614	8023.67
699.96	8018.93
700.306	7965.82
700.651	7987.06
700.997	7962.43
701.342	7915.2
701.688	7884.24
702.033	7848.54
702.379	7807.63
702.724	7781.87
703.069	7805.15
703.415	7696.45
703.76	7739.16
704.105	7712.49
704.45	7705.49
704.795	7640.86
705.14	7623.01
705.485	7661.42
705.83	7550.92
706.175	7578.94
706.52	7557.7
706.865	7501.43
707.209	7375.33
707.554	7458.26
707.899	7449
708.243	7391.83
708.588	7357.93
708.932	7299.62
709.277	7396.12
709.621	7331.26
709.966	7317.7
710.31	7303.92
710.654	7227.76
710.998	7243.13
711.342	7224.82
711.687	7276.12
712.031	7197.93
712.375	7168.33
712.719	7218.27
713.063	7171.94
713.407	7150.48
713.75	7103.25
714.094	7157.93
714.438	7083.81
714.782	7100.99
715.125	7060.08
715.469	7125.17
715.812	7024.6
716.156	6966.98
716.499	7033.64
716.843	7063.92
717.186	6929.01
717.53	7010.82
717.873	6995.45
718.216	6997.26
718.559	6918.17
718.902	6921.78
719.246	6930.82
719.589	6902.8
719.932	6913.19
720.275	6885.17
720.617	6938.73
720.96	6873.65
721.303	6902.57
721.646	6881.1
721.989	6817.6
722.331	6917.71
722.674	6809.92
723.016	6856.02
723.359	6794.33
723.701	6822.35
724.044	6804.04
724.386	6781.67
724.729	6827.77
725.071	6771.05
725.413	6808.56
725.755	6787.1
726.097	6778.06
726.439	6801.56
726.782	6687.21
727.124	6847.21
727.465	6731.5
727.807	6760.88
728.149	6690.6
728.491	6665.74
728.833	6791.84
729.175	6669.81
729.516	6750.03
729.858	6682.92
730.199	6667.55
730.541	6697.61
730.882	6675.01
731.224	6742.58
731.565	6659.64
731.906	6701.67
732.248	6692.18
732.589	6680.43
732.93	6669.81
733.271	6693.54
733.612	6674.78
733.953	6717.72
734.294	6736.93
734.635	6702.13
734.976	6710.26
735.317	6704.39
735.658	6696.93
735.999	6684.73
736.339	6754.33
736.68	6735.12
737.021	6693.31
737.361	6682.24
737.702	6726.53
738.042	6750.49
738.383	6741.67
738.723	6722.01
739.063	6741.9
739.404	6779.86
739.744	6738.51
740.084	6765.85
740.424	6798.17
740.764	6774.44
741.104	6800.88
741.444	6805.63
741.784	6783.93
742.124	6827.09
742.464	6859.18
742.804	6869.35
743.143	6888.11
743.483	6870.94
743.823	6870.94
744.162	6926.53
744.502	6886.53
744.841	6891.73
745.181	7039.74
745.52	7050.82
745.86	7033.19
746.199	7078.16
746.538	7061.89
746.877	7172.85
747.216	7179.63
747.556	7226.86
747.895	7286.74
748.234	7303.92
748.573	7334.65
748.911	7404.25
749.25	7471.37
749.589	7483.57
749.928	7517.7
750.267	7603.8
750.605	7634.08
750.944	7761.53
751.283	7793.4
751.621	7910.23
751.96	7959.27
752.298	8023.67
752.636	8145.03
752.975	8203.33
753.313	8277.23
753.651	8408.3
753.989	8475.86
754.327	8561.06
754.666	8659.36
755.004	8773.48
755.342	8975.96
755.679	9044.21
756.017	9131.67
756.355	9365.56
756.693	9427.25
757.031	9568.72
757.368	9649.85
757.706	9840.12
758.044	9931.42
758.381	10184.75
758.719	10248.02
759.056	10438.07
759.394	10508.35
759.731	10675.13
760.068	10838.29
760.405	10954.67
760.743	11135
761.08	11366.64
761.417	11450.93
761.754	11660.64
762.091	11880.07
762.428	11941.54
762.765	12150.12
763.102	12295.88
763.438	12433.27
763.775	12612.48
764.112	12825.13
764.449	13054.95
764.785	13179.7
765.122	13248.17
765.458	13348.05
765.795	13612.45
766.131	13723.18
766.467	13883.86
766.804	14072.33
767.14	14176.28
767.476	14358.2
767.812	14387.12
768.148	14704.4
768.485	14718.19
768.821	14746.21
769.157	14952.3
769.492	15092.41
769.828	15316.36
770.164	15289.47
770.5	15457.15
770.836	15609.01
771.171	15626.64
771.507	15741.89
771.842	15738.5
772.178	15938.04
772.513	16131.03
772.849	16159.73
773.184	16207.19
773.519	16331.7
773.855	16345.04
774.19	16387.52
774.525	16542.55
774.86	16628.42
775.195	16636.55
775.53	16722.43
775.865	16787.06
776.2	16827.74
776.535	16839.03
776.87	16928.3
777.205	16983.21
777.539	16945.92
777.874	17048.97
778.209	17017.11
778.543	17081.51
778.878	17074.28
779.212	17093.04
779.547	17181.85
779.881	17268.63
780.215	17168.74
780.55	17295.52
780.884	17339.13
781.218	17320.15
781.552	17428.17
781.886	17376.87
782.22	17299.36
782.554	17324.22
782.888	17278.12
783.222	17331.9
783.556	17339.13
783.889	17237.89
784.223	17174.39
784.557	17258.23
784.89	17290.55
785.224	17307.95
785.557	17220.27
785.891	17273.15
786.224	17238.35
786.558	17333.26
786.891	17161.51
787.224	17173.26
787.557	17237.22
787.891	17074.96
788.224	17208.52
788.557	17231.57
788.89	17187.05
789.223	17272.92
789.556	17098.69
789.888	17119.93
790.221	17084.9
790.554	17035.87
790.887	16906.15
791.219	16945.02
791.552	17032.93
791.884	16914.74
792.217	16851.24
792.549	16892.37
792.882	16781.41
793.214	16734.18
793.546	16821.63
793.879	16596.1
794.211	16667.06
794.543	16694.18
794.875	16653.73
795.207	16733.73
795.539	16564.47
795.871	16655.54
796.203	16539.61
796.535	16521.3
796.867	16510.23
797.198	16449.89
797.53	16455.99
797.862	16331.25
798.193	16358.37
798.525	16278.15
798.856	16376.67
799.188	16154.98
799.519	16153.85
799.85	16061.43
800.182	16136.91
800.513	16153.18
800.844	15985.72
801.175	16053.29
801.506	15930.13
801.837	15955.67
802.168	15925.61
802.499	15958.61
802.83	15815.11
803.161	15738.72
803.491	15862.34
803.822	15818.95
804.153	15715
804.483	15642.23
804.814	15553.19
805.145	15558.84
805.475	15570.82
805.805	15593.87
806.136	15502.12
806.466	15460.31
806.796	15536.24
807.126	15387.77
807.457	15365.85
807.787	15352.97
808.117	15349.36
808.447	15215.35
808.777	15309.58
809.107	15202.02
809.436	15224.61
809.766	15138.97
810.096	15071.17
810.426	15099.42
810.755	15022.81
811.085	15066.88
811.414	15069.59
811.744	14910.27
812.073	14897.16
812.403	14883.38
812.732	14884.51
813.061	14865.08
813.39	14806.55
813.719	14788.02
814.049	14859.88
814.378	14765.19
814.707	14671.63
815.036	14730.16
815.365	14652.65
815.693	14539.66
816.022	14563.16
816.351	14535.14
816.68	14458.08
817.008	14495.59
817.337	14324.3
817.665	14410.85
817.994	14367.91
818.322	14324.3
818.651	14282.49
818.979	14277.97
819.307	14360.91
819.636	14281.14
819.964	14267.12
820.292	14277.07
820.62	14350.29
820.948	14184.64
821.276	14244.3
821.604	14213.11
821.932	14259.67
822.259	14334.92
822.587	14274.81
822.915	14211.53
823.243	14279.1
823.57	14164.08
823.898	14283.17
824.225	14108.71
824.553	14163.4
824.88	14146.68
825.207	14233
825.535	14176.73
825.862	14202.49
826.189	14233.68
826.516	14248.14
826.843	14282.94
827.17	14230.97
827.497	14308.93
827.824	14222.83
828.151	14249.27
828.478	14220.35
828.805	14279.1
829.131	14236.39
829.458	14244.75
829.785	14185.55
830.111	14187.8
830.438	14329.72
830.764	14206.11
831.09	14168.37
831.417	14167.69
831.743	14180.57
832.069	14218.31
832.395	14181.7
832.722	14148.48
833.048	14139.9
833.374	14160.69
833.7	14101.25
834.026	14088.15
834.351	14143.29
834.677	14073.91
835.003	14219.67
835.329	14052.67
835.654	14135.6
835.98	14030.97
836.306	14092.44
836.631	13979.22
836.956	14104.87
837.282	14059.9
837.607	14008.15
837.932	13913.91
838.258	13882.5
838.583	13952.78
838.908	13768.38
839.233	13847.93
839.558	13901.94
839.883	13770.41
840.208	13734.03
840.533	13744.43
840.858	13818.1
841.182	13785.1
841.507	13686.58
841.832	13665.78
842.156	13651.55
842.481	13624.2
842.805	13639.57
843.13	13600.7
843.454	13519.12
843.778	13529.07
844.103	13532.45
844.427	13493.81
844.751	13516.86
845.075	13484.55
845.399	13392.8
845.723	13282.97
846.047	13234.38
846.371	13228.28
846.695	13234.16
847.019	13098.57
847.343	13033.71
847.666	13057.89
847.99	12915.07
848.313	12931.11
848.637	12885.47
848.96	12767.96
849.284	12830.55
849.607	12747.16
849.931	12661.29
850.254	12597.79
850.577	12593.72
850.9	12499.71
851.223	12513.95
851.546	12543.33
851.869	12371.13
852.192	12394.63
852.515	12238.03
852.838	12177.01
853.161	12208.2
853.483	12137.92
853.806	12077.8
854.129	12076.22
854.451	12026.05
854.774	12009.56
855.096	11901.54
855.419	12011.82
855.741	11819.05
856.063	11733.18
856.385	11800.52
856.708	11724.37
857.03	11733.86
857.352	11699.96
857.674	11686.18
857.996	11589
858.318	11598.49
858.64	11504.94
858.961	11459.29
859.283	11451.83
859.605	11488.21
859.926	11403.7
860.248	11396.01
860.57	11346.3
860.891	11370.25
861.212	11293.19
861.534	11273.08
861.855	11276.02
862.176	11212.97
862.498	11144.72
862.819	11244.15
863.14	11188.11
863.461	11200.31
863.782	11122.12
864.103	11099.52
864.424	11086.42
864.745	11118.06
865.065	10986.08
865.386	10981.56
865.707	11003.48
866.027	10994.89
866.348	10930.94
866.668	10942.47
866.989	10944.27
867.309	10855.92
867.63	10890.94
867.95	10834.9
868.27	10808.91
868.59	10848.91
868.91	10841.45
869.23	10802.13
869.55	10731.4
869.87	10845.52
870.19	10841.23
870.51	10759.87
870.83	10807.33
871.15	10767.1
871.469	10697.05
871.789	10674
872.109	10677.16
872.428	10604.85
872.748	10669.71
873.067	10604.17
873.386	10621.57
873.706	10516.26
874.025	10571.4
874.344	10567.34
874.663	10515.81
874.982	10471.97
875.301	10488.24
875.62	10510.84
875.939	10411.63
876.258	10379.32
876.577	10387.45
876.896	10402.82
877.214	10379.09
877.533	10322.37
877.852	10328.02
878.17	10385.65
878.489	10352.2
878.807	10389.26
879.125	10257.74
879.444	10268.13
879.762	10236.27
880.08	10244.86
880.398	10194.92
880.716	10182.49
881.034	10222.71
881.352	10181.36
881.67	10149.27
881.988	10119.44
882.306	10047.12
882.624	10064.3
882.941	10074.92
883.259	9977.97
883.577	9989.27
883.894	9960.12
884.212	9889.16
884.529	9918.76
884.846	9892.32
885.164	9871.53
885.481	9861.37
885.798	9826.79
886.115	9787.69
886.432	9809.84
886.75	9730.52
887.067	9775.72
887.383	9714.48
887.7	9675.16
888.017	9662.5
888.334	9705.89
888.651	9611.2
888.967	9615.27
889.284	9510.19
889.6	9607.81
889.917	9464.77
890.233	9521.94
890.55	9421.6
890.866	9486.69
891.182	9381.15
891.498	9437.42
891.815	9347.03
892.131	9271.55
892.447	9282.85
892.763	9295.5
893.079	9247.82
893.395	9195.62
893.71	9271.55
894.026	9209.4
894.342	9145.9
894.657	9039.92
894.973	9050.76
895.289	9015.29
895.604	9048.96
895.92	8926.93
896.235	8946.59
896.55	8936.42
896.865	8889.64
897.181	8811.9
897.496	8856.65
897.811	8761.05
898.126	8775.97
898.441	8788.85
898.756	8735.07
899.071	8662.98
899.386	8660.04
899.7	8557.44
900.015	8466.37
900.33	8471.12
900.644	8467.5
900.959	8499.14
901.273	8434.51
901.588	8374.62
901.902	8364
902.216	8373.95
902.531	8325.13
902.845	8277.68
903.159	8232.48
903.473	8267.73
903.787	8163.56
904.101	8152.48
904.415	8118.81
904.729	8130.11
905.042	8068.64
905.356	8057.12
905.67	8002.66
905.984	7957.69
906.297	7974.86
906.611	7938.7
906.924	7884.02
907.237	7913.39
907.551	7812.15
907.864	7843.56
908.177	7799.05
908.491	7746.84
908.804	7751.14
909.117	7671.14
909.43	7571.93
909.743	7540.52
910.056	7598.37
910.368	7452.39
910.681	7481.09
910.994	7501.65
911.307	7453.07
911.619	7389.57
911.932	7350.47
912.244	7333.75
912.557	7323.13
912.869	7322.9
913.181	7216.46
913.494	7275.9
913.806	7233.19
914.118	7163.58
914.43	7137.82
914.742	7119.06
915.054	7147.76
915.366	7091.49
915.678	7014.66
915.99	6994.1
916.302	6943.48
916.613	6919.52
916.925	6929.46
917.236	6909.8
917.548	6915.23
917.859	6911.39
918.171	6767.89
918.482	6772.41
918.794	6725.85
919.105	6740.09
919.416	6708
919.727	6665.52
920.038	6649.47
920.349	6623.71
920.66	6628.23
920.971	6571.06
921.282	6561.34
921.593	6573.99
921.903	6500.55
922.214	6428.91
922.525	6422.36
922.835	6400.21
923.146	6386.88
923.456	6329.48
923.767	6323.38
924.077	6322.7
924.387	6234.12
924.697	6259.2
925.008	6145.76
925.318	6209.03
925.628	6184.85
925.938	6166.32
926.248	6144.17
926.558	6120.67
926.867	6042.48
927.177	6028.47
927.487	6010.39
927.796	5994.12
928.106	5967.23
928.416	5911.64
928.725	5909.38
929.034	5934.69
929.344	5895.14
929.653	5910.28
929.962	5848.36
930.271	5785.31
930.581	5756.16
930.89	5761.59
931.199	5702.38
931.508	5717.29
931.817	5722.04
932.125	5713.45
932.434	5666.45
932.743	5551.65
933.051	5606.34
933.36	5558.65
933.669	5540.57
933.977	5512.55
934.286	5501.71
934.594	5503.51
934.902	5513.68
935.21	5487.92
935.519	5411.99
935.827	5427.58
936.135	5347.36
936.443	5347.13
936.751	5339
937.059	5329.51
937.367	5291.54
937.674	5239.11
937.982	5254.71
938.29	5291.54
938.597	5269.17
938.905	5170.64
939.213	5156.18
939.52	5113.92
939.827	5096.29
940.135	5082.96
940.442	5067.14
940.749	5084.32
941.056	5046.12
941.363	5019.01
941.67	5049.97
941.977	4952.79
942.284	4881.38
942.591	4923.42
942.898	4892.46
943.205	4887.26
943.511	4868.5
943.818	4831.67
944.125	4785.79
944.431	4778.56
944.738	4804.1
945.044	4791.67
945.35	4725.45
945.657	4713.03
945.963	4674.38
946.269	4620.15
946.575	4678
946.881	4665.12
947.187	4619.24
947.493	4618.79
947.799	4551.45
948.105	4531.11
948.41	4503.31
948.716	4507.16
949.022	4522.52
949.327	4457.21
949.633	4439.81
949.938	4439.59
950.244	4426.25
950.549	4422.64
950.854	4385.12
951.16	4345.13
951.465	4379.02
951.77	4352.36
952.075	4306.48
952.38	4302.42
952.685	4285.69
952.99	4215.86
953.294	4294.73
953.599	4241.85
953.904	4200.04
954.209	4162.08
954.513	4146.04
954.818	4128.63
955.122	4097.67
955.426	4124.57
955.731	4097.9
956.035	4051.35
956.339	4072.59
956.643	4042.08
956.948	4016.32
957.252	4017
957.556	4031.24
957.86	4020.39
958.163	3999.15
958.467	3937.23
958.771	3935.87
959.075	3884.35
959.378	3888.87
959.682	3850.45
959.985	3881.86
960.289	3833.5
960.592	3873.73
960.896	3865.36
961.199	3800.06
961.502	3762.09
961.805	3772.26
962.108	3715.76
962.411	3699.72
962.714	3680.51
963.017	3696.56
963.32	3692.26
963.623	3668.76
963.926	3655.88
964.228	3662.66
964.531	3588.99
964.833	3609.55
965.136	3564.58
965.438	3585.37
965.741	3551.02
966.043	3546.5
966.345	3520.74
966.648	3518.71
966.95	3505.6
967.252	3480.29
967.554	3441.42
967.856	3449.33
968.158	3405.04
968.46	3408.65
968.761	3403
969.063	3411.82
969.365	3402.78
969.666	3331.59
969.968	3296.79
970.269	3322.78
970.571	3301.54
970.872	3313.51
971.174	3270.13
971.475	3265.15
971.776	3265.83
972.077	3243.23
972.378	3254.76
972.679	3228.32
972.98	3228.32
973.281	3186.96
973.582	3197.36
973.883	3146.74
974.183	3111.71
974.484	3126.4
974.785	3134.99
975.085	3142.67
975.386	3087.08
975.686	3094.99
975.986	3038.04
976.287	3067.42
976.587	3034.65
976.887	3049.34
977.187	3035.56
977.487	2986.52
977.787	2980.87
978.087	2988.1
978.387	2939.29
978.687	2942.45
978.987	2972.51
979.286	2906.07
979.586	2916.01
979.885	2899.29
980.185	2901.77
980.484	2897.25
980.784	2838.95
981.083	2848.22
981.382	2813.87
981.682	2816.35
981.981	2760.08
982.28	2794.21
982.579	2753.98
982.878	2802.34
983.177	2746.75
983.475	2726.64
983.774	2742.23
984.073	2678.05
984.372	2683.47
984.67	2690.03
984.969	2665.85
985.267	2648
985.566	2634.66
985.864	2620.65
986.162	2635.57
986.461	2613.65
986.759	2627.88
987.057	2574.55
987.355	2559.64
987.653	2584.04
987.951	2554.21
988.249	2562.12
988.547	2556.25
988.844	2518.96
989.142	2513.31
989.44	2487.77
989.737	2494.33
990.035	2460.66
990.332	2457.27
990.63	2421.11
990.927	2445.29
991.224	2453.88
991.521	2406.65
991.819	2411.84
992.116	2424.95
992.413	2416.14
992.71	2371.62
993.006	2340.88
993.303	2320.77
993.6	2362.81
993.897	2344.05
994.193	2338.4
994.49	2332.52
994.787	2295.24
995.083	2259.98
995.379	2312.64
995.676	2267.44
995.972	2293.88
996.268	2259.08
996.565	2236.03
996.861	2199.42
997.157	2254.33
997.453	2206.88
997.749	2194.9
998.044	2193.77
998.34	2174.34
998.636	2136.82
998.932	2139.08
999.227	2088.91
999.523	2123.72
999.818	2133.66
1000.114	2115.35
1000.409	2088.01
1000.704	2087.56
1001	2064.06
1001.295	2067.67
1001.59	2073.32
1001.885	2047.79
1002.18	2003.27
1002.475	2032.42
1002.77	2027.22
1003.065	1955.36
1003.359	1997.17
1003.654	1981.12
1003.949	1936.38
1004.243	1965.53
1004.538	1930.27
1004.832	1948.8
1005.127	1907
1005.421	1900.44
1005.715	1869.71
1006.009	1904.06
1006.304	1879.65
1006.598	1859.54
1006.892	1876.94
1007.186	1803.72
1007.48	1845.98
1007.773	1803.72
1008.067	1810.28
1008.361	1805.53
1008.655	1790.39
1008.948	1768.24
1009.242	1748.36
1009.535	1752.2
1009.829	1779.32
1010.122	1729.15
1010.415	1692.09
1010.708	1712.88
1011.001	1732.09
1011.295	1700
1011.588	1679.21
1011.881	1710.62
1012.173	1649.6
1012.466	1671.52
1012.759	1656.83
1013.052	1656.16
1013.344	1629.27
1013.637	1608.02
1013.93	1599.44
1014.222	1589.94
1014.514	1589.72
1014.807	1581.58
1015.099	1595.59
1015.391	1577.74
1015.683	1549.49
1015.976	1550.4
1016.268	1555.37
1016.56	1543.62
1016.851	1553.33
1017.143	1519.89
1017.435	1504.3
1017.727	1472.21
1018.018	1498.42
1018.31	1473.56
1018.602	1480.79
1018.893	1455.71
1019.185	1444.86
1019.476	1454.58
1019.767	1423.39
1020.058	1432.21
1020.35	1409.84
1020.641	1396.5
1020.932	1375.49
1021.223	1394.92
1021.514	1361.93
1021.804	1367.8
1022.095	1349.05
1022.386	1362.15
1022.677	1340.23
1022.967	1327.8
1023.258	1333
1023.548	1334.81
1023.839	1326.45
1024.129	1300.91
1024.419	1296.84
1024.709	1304.3
1025	1291.19
1025.29	1285.55
1025.58	1281.03
1025.87	1238.31
1026.16	1249.84
1026.449	1233.34
1026.739	1230.18
1027.029	1221.82
1027.319	1218.2
1027.608	1201.25
1027.898	1192.44
1028.187	1197.19
1028.477	1200.12
1028.766	1175.72
1029.055	1170.52
1029.344	1178.66
1029.634	1149.96
1029.923	1154.7
1030.212	1137.07
1030.501	1128.94
1030.79	1124.42
1031.078	1106.79
1031.367	1100.69
1031.656	1107.7
1031.945	1081.26
1032.233	1100.01
1032.522	1077.42
1032.81	1068.6
1033.099	1049.39
1033.387	1052.56
1033.675	1072.67
1033.963	1043.52
1034.251	1043.97
1034.54	1026.12
1034.828	1022.5
1035.116	996.97
1035.403	1010.52
1035.691	994.93
1035.979	1007.81
1036.267	1015.95
1036.554	981.15
1036.842	995.84
1037.129	985.21
1037.417	960.36
1037.704	970.98
1037.992	957.19
1038.279	946.12
1038.566	965.55
1038.853	965.55
1039.14	965.55
