Data from hue_140_FLMS001491_00068.txt Node
Date: Tue Feb 07 16:56:16 GMT 2017
User: dcchb
Spectrometer: FLMS00149
Trigger mode: 0
Integration Time (sec): 2.000000E-2
Scans to average: 10
Electric dark correction enabled: true
Nonlinearity correction enabled: false
Boxcar width: 0
XAxis mode: Wavelengths
Number of Pixels in Spectrum: 2048
>>>>>Begin Spectral Data<<<<<
341.393	-10.37
341.776	-10.37
342.16	-10.37
342.543	-52.17
342.927	-62.57
343.31	-79.97
343.693	-64.83
344.077	-69.35
344.46	-49.01
344.843	-45.85
345.226	-27.99
345.61	-50.82
345.993	-20.54
346.376	-3.14
346.759	-8.56
347.142	34.38
347.525	66.24
347.908	40.48
348.291	82.74
348.674	87.48
349.057	108.73
349.44	137.88
349.823	164.09
350.206	155.73
350.588	199.8
350.971	190.98
351.354	229.17
351.737	241.83
352.119	267.59
352.502	259.46
352.884	281.83
353.267	279.79
353.65	286.35
354.032	303.75
354.414	299.68
354.797	335.39
355.179	324.31
355.562	328.38
355.944	341.49
356.326	373.58
356.709	340.36
357.091	349.4
357.473	356.63
357.855	342.62
358.238	345.56
358.62	330.87
359.002	369.74
359.384	346.91
359.766	327.93
360.148	334.93
360.53	322.05
360.912	345.78
361.294	337.42
361.676	338.1
362.057	329.29
362.439	339.68
362.821	316.4
363.203	336.97
363.584	330.19
363.966	303.52
364.348	350.08
364.729	318.66
365.111	303.98
365.493	309.85
365.874	317.08
366.256	343.07
366.637	313.92
367.019	309.17
367.4	315.95
367.781	317.31
368.163	306.69
368.544	316.4
368.925	314.6
369.306	317.53
369.688	306.23
370.069	299.91
370.45	322.05
370.831	310.98
371.212	327.25
371.593	320.47
371.974	336.74
372.355	317.08
372.736	316.86
373.117	317.08
373.498	329.51
373.879	330.42
374.26	313.92
374.641	322.51
375.021	336.74
375.402	310.3
375.783	309.17
376.163	347.36
376.544	340.13
376.925	324.09
377.305	346.23
377.686	341.71
378.066	327.48
378.447	343.3
378.827	326.8
379.208	320.25
379.588	334.71
379.968	321.15
380.349	362.5
380.729	330.19
381.109	341.26
381.489	342.84
381.87	329.74
382.25	328.16
382.63	340.81
383.01	332.9
383.39	331.32
383.77	339.45
384.15	364.54
384.53	348.72
384.91	349.4
385.29	349.85
385.67	334.71
386.049	347.36
386.429	365.89
386.809	361.83
387.189	345.78
387.568	335.84
387.948	352.11
388.328	351.43
388.707	353.69
389.087	357.98
389.466	354.14
389.846	375.39
390.225	372
390.605	365.67
390.984	382.17
391.363	383.3
391.743	377.42
392.122	375.16
392.501	389.62
392.881	381.71
393.26	372.9
393.639	375.39
394.018	382.84
394.397	383.07
394.776	366.35
395.155	375.61
395.534	389.4
395.913	394.37
396.292	388.94
396.671	380.81
397.05	400.7
397.429	406.35
397.808	373.8
398.186	395.5
398.565	405.89
398.944	395.27
399.323	390.07
399.701	389.17
400.08	402.28
400.458	383.97
400.837	387.36
401.215	405.22
401.594	408.15
401.972	434.59
402.351	389.4
402.729	412.9
403.107	419.45
403.486	421.26
403.864	408.15
404.242	412.67
404.62	435.95
404.999	419.9
405.377	407.7
405.755	421.49
406.133	413.8
406.511	441.37
406.889	442.05
407.267	454.93
407.645	443.86
408.023	444.76
408.401	441.82
408.779	444.99
409.156	437.53
409.534	436.4
409.912	456.74
410.29	463.07
410.667	469.17
411.045	432.79
411.422	461.26
411.8	464.87
412.178	466.68
412.555	494.48
412.933	473.46
413.31	471.88
413.687	472.33
414.065	494.03
414.442	483.86
414.819	493.8
415.197	482.05
415.574	488.15
415.951	489.73
416.328	487.25
416.705	503.97
417.082	502.84
417.46	491.31
417.837	512.56
418.214	532.44
418.591	524.08
418.967	518.66
419.344	507.59
419.721	525.21
420.098	521.37
420.475	537.87
420.852	555.72
421.228	548.26
421.605	548.04
421.982	548.26
422.358	556.17
422.735	569.28
423.111	551.2
423.488	563.86
423.864	555.72
424.241	552.78
424.617	534.03
424.994	570.86
425.37	574.93
425.746	561.37
426.123	577.19
426.499	571.54
426.875	590.07
427.251	593.68
427.627	592.1
428.003	603.18
428.379	603.85
428.756	590.3
429.132	603.63
429.507	641.14
429.883	623.97
430.259	637.07
430.635	628.94
431.011	653.57
431.387	638.88
431.763	643.18
432.138	663.06
432.514	678.65
432.89	685.66
433.265	663.74
433.641	667.58
434.016	699.9
434.392	691.08
434.767	710.74
435.143	691.76
435.518	699.44
435.894	690.86
436.269	723.63
436.644	727.01
437.02	752.55
437.395	730.86
437.77	727.92
438.145	752.78
438.52	766.11
438.895	764.75
439.271	768.6
439.646	783.74
440.021	790.29
440.395	777.86
440.77	754.81
441.145	776.51
441.52	802.94
441.895	787.13
442.27	823.74
442.645	801.59
443.019	810.18
443.394	822.61
443.769	812.89
444.143	800.46
444.518	816.05
444.892	818.54
445.267	833.68
445.641	862.38
446.016	845.2
446.39	854.92
446.764	860.12
447.139	852.66
447.513	863.73
447.887	878.2
448.262	885.2
448.636	902.83
449.01	891.3
449.384	899.21
449.758	891.98
450.132	926.78
450.506	915.03
450.88	928.82
451.254	931.53
451.628	915.03
452.002	940.57
452.376	945.77
452.75	948.03
453.123	976.5
453.497	1002.26
453.871	977.86
454.244	980.34
454.618	1003.39
454.992	1009.27
455.365	1002.26
455.739	1056.05
456.112	1058.08
456.486	1045.88
456.859	1055.14
457.232	1055.82
457.606	1099.21
457.979	1121.35
458.352	1121.13
458.725	1120.45
459.099	1138.3
459.472	1153.67
459.845	1194.57
460.218	1162.03
460.591	1183.5
460.964	1200.45
461.337	1228.24
461.71	1254.68
462.083	1278.19
462.456	1263.95
462.829	1288.36
463.201	1295.14
463.574	1295.14
463.947	1348.47
464.32	1356.83
464.692	1360.67
465.065	1362.25
465.438	1395.25
465.81	1414.23
466.183	1431.63
466.555	1460.1
466.928	1476.15
467.3	1454.68
467.672	1516.37
468.045	1549.37
468.417	1555.92
468.789	1570.61
469.161	1582.81
469.534	1643.15
469.906	1713.2
470.278	1686.31
470.65	1707.1
471.022	1731.28
471.394	1791.39
471.766	1831.39
472.138	1853.54
472.51	1911.62
472.882	1938.96
473.253	1982.57
473.625	2012.18
473.997	2053.53
474.369	2063.48
474.74	2132.63
475.112	2167.2
475.484	2228.22
475.855	2284.04
476.227	2310.48
476.598	2386.86
476.97	2489.91
477.341	2519.74
477.713	2538.72
478.084	2617.13
478.455	2677.47
478.827	2747.3
479.198	2823.91
479.569	2848.99
479.94	3006.95
480.311	3050.12
480.682	3119.49
481.053	3213.96
481.424	3307.74
481.795	3432.93
482.166	3483.55
482.537	3574.62
482.908	3637.22
483.279	3726.26
483.65	3837.44
484.021	3991.34
484.391	4093.48
484.762	4133.25
485.133	4233.36
485.503	4305
485.874	4468.16
486.244	4585.44
486.615	4645.78
486.985	4757.19
487.356	4953.8
487.726	5057.3
488.097	5164.41
488.467	5216.84
488.837	5433.78
489.207	5522.14
489.578	5655.92
489.948	5779.99
490.318	5924.17
490.688	6060.66
491.058	6173.43
491.428	6262.91
491.798	6426.75
492.168	6572.74
492.538	6696.12
492.908	6817.7
493.278	6940.18
493.648	7088.66
494.017	7195.32
494.387	7317.35
494.757	7471.92
495.126	7599.6
495.496	7645.93
495.866	7770.45
496.235	7905.81
496.605	8051.79
496.974	8144.9
497.344	8258.12
497.713	8410.88
498.082	8502.4
498.452	8605.68
498.821	8659.46
499.19	8783.3
499.559	8957.31
499.928	8996.85
500.298	9183.74
500.667	9223.97
501.036	9242.27
501.405	9458.76
501.774	9464.41
502.143	9592.32
502.512	9697.17
502.88	9795.48
503.249	9830.96
503.618	9856.04
503.987	9964.29
504.356	10035.7
504.724	10085.64
505.093	10189.36
505.462	10252.19
505.83	10286.54
506.199	10447.66
506.567	10545.29
506.936	10496.02
507.304	10702.35
507.672	10730.14
508.041	10832.51
508.409	10908.22
508.777	11008.1
509.145	10996.8
509.514	10971.72
509.882	11171.71
510.25	11147.08
510.618	11236.12
510.986	11250.13
511.354	11376.9
511.722	11451.7
512.09	11552.49
512.458	11472.72
512.826	11566.28
513.193	11635.43
513.561	11548.2
513.929	11733.28
514.297	11736.89
514.664	11814.18
515.032	11871.58
515.4	11869.32
515.767	12007.85
516.135	12041.52
516.502	11891.02
516.869	12136.21
517.237	12171.23
517.604	12100.73
517.972	12165.58
518.339	12256.66
518.706	12211.68
519.073	12247.16
519.44	12308.18
519.808	12402.41
520.175	12371.68
520.542	12464.33
520.909	12474.95
521.276	12421.17
521.643	12548.4
522.009	12583.43
522.376	12623.2
522.743	12636.31
523.11	12739.13
523.477	12745
523.843	12802.18
524.21	12918.56
524.577	12849.41
524.943	12903.19
525.31	12890.54
525.676	12967.82
526.043	13009.4
526.409	13018.89
526.776	13090.98
527.142	13049.4
527.508	13117.88
527.874	13163.52
528.241	13100.93
528.607	13090.08
528.973	13191.32
529.339	13138.89
529.705	13214.14
530.071	13233.58
530.437	13190.64
530.803	13271.77
531.169	13207.14
531.535	13163.75
531.901	13164.88
532.267	13127.37
532.632	13148.16
532.998	13204.88
533.364	13206.46
533.73	13171.21
534.095	13235.39
534.461	13159.91
534.826	13160.59
535.192	13201.26
535.557	13268.38
535.923	13164.2
536.288	13085.79
536.653	13142.51
537.019	12986.13
537.384	13051.44
537.749	13006.01
538.114	13013.25
538.479	12999.69
538.845	13032.68
539.21	12891.21
539.575	12863.19
539.94	12827.49
540.305	12890.76
540.67	12816.64
541.034	12785.45
541.399	12804.21
541.764	12732.35
542.129	12752.01
542.494	12692.12
542.858	12605.12
543.223	12631.33
543.587	12635.63
543.952	12560.15
544.316	12596.08
544.681	12456.88
545.045	12582.75
545.41	12553.37
545.774	12476.99
546.138	12483.77
546.503	12416.65
546.867	12293.04
547.231	12491.45
547.595	12346.37
547.959	12398.35
548.324	12345.47
548.688	12269.54
549.052	12237.45
549.416	12218.24
549.779	12204.68
550.143	12161.06
550.507	12168.3
550.871	12178.92
551.235	12109.09
551.599	12083.33
551.962	12075.42
552.326	12030.45
552.689	12027.51
553.053	11954.97
553.417	11987.74
553.78	12092.14
554.143	11894.86
554.507	11932.14
554.87	11835.65
555.234	12037.68
555.597	11861.64
555.96	11904.35
556.323	11877.23
556.686	11832.49
557.05	11913.39
557.413	11852.15
557.776	11874.29
558.139	11929.66
558.502	11849.43
558.865	11788.19
559.228	11832.03
559.59	11800.85
559.953	11911.58
560.316	11928.3
560.679	11816.44
561.041	11895.53
561.404	11856.21
561.767	11837.01
562.129	11789.1
562.492	11949.09
562.854	11961.97
563.217	11802.2
563.579	11880.85
563.941	11898.02
564.304	11946.38
564.666	11986.38
565.028	11888.08
565.39	11974.63
565.753	12000.84
566.115	12080.61
566.477	12040.39
566.839	11980.96
567.201	12063.44
567.563	11991.35
567.925	12074.74
568.287	12032.71
568.648	12067.28
569.01	12150.44
569.372	12204.23
569.734	12062.76
570.095	12173.95
570.457	12162.65
570.819	12159.48
571.18	12159.71
571.542	12159.26
571.903	12223.66
572.265	12214.85
572.626	12227.73
572.987	12220.72
573.349	12167.62
573.71	12219.37
574.071	12285.81
574.432	12280.61
574.794	12377.1
575.155	12375.3
575.516	12289.65
575.877	12368.29
576.238	12340.04
576.599	12378.46
576.96	12422.98
577.32	12313.6
577.681	12410.55
578.042	12434.5
578.403	12307.95
578.763	12339.59
579.124	12340.27
579.485	12351.57
579.845	12437.22
580.206	12348.18
580.566	12332.13
580.927	12435.18
581.287	12378.69
581.648	12302.76
582.008	12456.65
582.368	12421.85
582.728	12354.05
583.089	12392.92
583.449	12365.8
583.809	12325.35
584.169	12387.95
584.529	12323.09
584.889	12437.22
585.249	12348.4
585.609	12235.64
585.969	12296.88
586.329	12281.51
586.688	12308.41
587.048	12243.1
587.408	12318.12
587.768	12288.52
588.127	12220.5
588.487	12268.18
588.846	12298.69
589.206	12178.92
589.565	12214.85
589.925	12240.84
590.284	12121.07
590.643	12224.57
591.003	12272.7
591.362	12266.82
591.721	12206.94
592.08	12204
592.44	12234.96
592.799	12210.1
593.158	12173.04
593.517	12164.45
593.876	12170.78
594.235	12118.58
594.593	12103.66
594.952	12221.63
595.311	12092.37
595.67	12139.82
596.029	12215.3
596.387	12234.06
596.746	12228.18
597.104	12122.65
597.463	12164.68
597.822	12170.56
598.18	12077
598.538	12127.39
598.897	12215.07
599.255	12082.65
599.613	12204.91
599.972	12058.02
600.33	12152.25
600.688	12056.21
601.046	12091.24
601.404	12164.23
601.762	12089.2
602.12	12219.14
602.478	12212.81
602.836	12156.32
603.194	12076.09
603.552	12109.54
603.91	12095.08
604.268	12136.43
604.625	12104.79
604.983	12186.83
605.341	12051.01
605.698	12159.48
606.056	12212.14
606.413	12086.72
606.771	12246.26
607.128	12201.97
607.485	12187.5
607.843	12222.76
608.2	12261.85
608.557	12274.06
608.914	12158.58
609.272	12247.62
609.629	12251.46
609.986	12247.84
610.343	12253.04
610.7	12340.72
611.057	12280.16
611.414	12297.78
611.771	12281.06
612.127	12267.05
612.484	12327.61
612.841	12376.65
613.198	12363.54
613.554	12371.68
613.911	12321.06
614.267	12345.47
614.624	12333.26
614.98	12349.76
615.337	12439.93
615.693	12437.22
616.05	12325.35
616.406	12549.53
616.762	12412.36
617.118	12366.48
617.475	12477.44
617.831	12501.17
618.187	12485.58
618.543	12444.67
618.899	12549.53
619.255	12567.38
619.611	12487.38
619.967	12560.6
620.323	12554.73
620.678	12567.61
621.034	12596.08
621.39	12482.19
621.746	12511.34
622.101	12607.15
622.457	12543.88
622.812	12597.44
623.168	12584.1
623.523	12547.95
623.879	12605.8
624.234	12483.54
624.589	12556.53
624.945	12574.61
625.3	12521.51
625.655	12601.5
626.01	12475.41
626.365	12561.73
626.72	12496.42
627.075	12548.4
627.43	12504.78
627.785	12545.91
628.14	12529.87
628.495	12554.05
628.85	12475.41
629.205	12465.01
629.559	12495.29
629.914	12471.34
630.269	12531.9
630.623	12499.81
630.978	12399.7
631.332	12433.15
631.687	12484.45
632.041	12375.52
632.396	12378.91
632.75	12397.89
633.104	12358.12
633.459	12365.13
633.813	12279.25
634.167	12331
634.521	12304.11
634.875	12305.92
635.229	12258.24
635.583	12272.47
635.937	12289.87
636.291	12143.89
636.645	12204.45
636.999	12205.58
637.352	12196.77
637.706	12197.22
638.06	12165.58
638.413	12119.94
638.767	12057.34
639.121	12168.97
639.474	12072.93
639.828	12101.18
640.181	12064.8
640.534	12092.14
640.888	12012.14
641.241	12077.22
641.594	12035.64
641.947	12067.96
642.301	12012.82
642.654	12023.67
643.007	12160.61
643.36	12032.25
643.713	12018.47
644.066	12101.86
644.419	11967.4
644.771	11937.57
645.124	11799.49
645.477	11810.34
645.83	11700.29
646.182	11702.77
646.535	11692.15
646.888	11602.21
647.24	11591.14
647.593	11593.4
647.945	11695.77
648.298	11568.76
648.65	11491.7
649.002	11528.99
649.355	11644.02
649.707	11570.57
650.059	11638.82
650.411	11813.28
650.763	11808.98
651.115	11930.11
651.467	11888.3
651.819	11806.72
652.171	11858.47
652.523	11838.36
652.875	11862.32
653.227	11815.08
653.578	11912.94
653.93	11822.54
654.282	11850.34
654.633	11835.2
654.985	11834.75
655.337	11845.82
655.688	11828.87
656.039	11903.67
656.391	11795.42
656.742	11808.08
657.094	11827.29
657.445	11822.77
657.796	11841.98
658.147	11846.72
658.498	11842.65
658.849	11805.59
659.2	11841.52
659.551	11827.06
659.902	11852.15
660.253	11830.9
660.604	11922.88
660.955	11871.35
661.306	11837.91
661.656	11862.77
662.007	11870.9
662.358	11843.33
662.708	11894.86
663.059	11809.89
663.409	11794.07
663.76	11929.43
664.11	11881.52
664.461	11879.49
664.811	11875.42
665.161	11930.34
665.511	11837.46
665.862	11834.29
666.212	11838.36
666.562	11929.43
666.912	11916.33
667.262	11852.6
667.612	11871.35
667.962	11981.41
668.312	11840.62
668.662	11827.29
669.011	11791.58
669.361	11811.7
669.711	11816.67
670.06	11766.05
670.41	11824.8
670.76	11802.2
671.109	11870.45
671.459	11793.39
671.808	11785.71
672.157	11761.07
672.507	11762.2
672.856	11756.1
673.205	11732.6
673.554	11827.51
673.904	11723.79
674.253	11812.82
674.602	11771.7
674.951	11572.83
675.3	11519.05
675.649	11745.26
675.998	11759.04
676.346	11700.74
676.695	11664.81
677.044	11601.08
677.393	11688.99
677.741	11677.24
678.09	11591.14
678.438	11611.93
678.787	11587.97
679.135	11573.28
679.484	11447.64
679.832	11569.44
680.181	11487.64
680.529	11501.87
680.877	11524.7
681.225	11465.72
681.573	11580.06
681.922	11421.87
682.27	11441.76
682.618	11428.88
682.966	11411.71
683.314	11428.65
683.661	11380.97
684.009	11368.32
684.357	11349.79
684.705	11253.74
685.053	11337.13
685.4	11316.57
685.748	11191.6
686.095	11196.34
686.443	11243.35
686.79	11186.4
687.138	11168.32
687.485	11132.84
687.832	11092.39
688.18	11051.94
688.527	11074.99
688.874	11077.48
689.221	10952.51
689.568	10952.73
689.915	10956.12
690.262	10893.08
690.609	10889.01
690.956	10848.1
691.303	10732.85
691.65	10737.83
691.997	10729.92
692.344	10726.3
692.69	10689.01
693.037	10626.87
693.383	10545.97
693.73	10521.56
694.077	10515.91
694.423	10480.43
694.769	10520.88
695.116	10446.08
695.462	10421.9
695.808	10351.17
696.155	10374.44
696.501	10323.37
696.847	10245.63
697.193	10279.76
697.539	10197.05
697.885	10141.91
698.231	10138.07
698.577	10112.3
698.923	10063.72
699.269	9983.27
699.614	9976.04
699.96	10002.25
700.306	9909.37
700.651	9886.32
700.997	9863.27
701.342	9797.96
701.688	9831.86
702.033	9767.91
702.379	9682.71
702.724	9755.03
703.069	9784.4
703.415	9692.65
703.76	9571.08
704.105	9654.46
704.45	9593.22
704.795	9606.78
705.14	9441.81
705.485	9500.12
705.83	9442.27
706.175	9481.13
706.52	9464.64
706.865	9372.21
707.209	9403.85
707.554	9314.13
707.899	9346.9
708.243	9243.85
708.588	9274.13
708.932	9170.18
709.277	9172.89
709.621	9228.71
709.966	9096.29
710.31	9077.3
710.654	9136.74
710.998	9042.05
711.342	9005.44
711.687	9071.65
712.031	9045.67
712.375	8940.36
712.719	8928.38
713.063	8919.12
713.407	9011.32
713.75	8929.51
714.094	8917.53
714.438	8850.42
714.782	8825.11
715.125	8863.98
715.469	8805.22
715.812	8821.49
716.156	8717.31
716.499	8756.86
716.843	8756.86
717.186	8677.54
717.53	8763.41
717.873	8765.22
718.216	8718.22
718.559	8698.1
718.902	8601.84
719.246	8662.4
719.589	8634.38
719.932	8601.84
720.275	8589.18
720.617	8531.78
720.96	8585.57
721.303	8567.26
721.646	8570.42
721.989	8549.86
722.331	8592.8
722.674	8548.73
723.016	8494.72
723.359	8494.72
723.701	8537.88
724.044	8473.03
724.386	8468.05
724.729	8468.51
725.071	8427.6
725.413	8471.9
725.755	8454.04
726.097	8412.24
726.439	8390.99
726.782	8447.49
727.124	8459.92
727.465	8436.42
727.807	8426.02
728.149	8375.85
728.491	8375.4
728.833	8392.8
729.175	8392.35
729.516	8382.63
729.858	8356.19
730.199	8342.86
730.541	8303.54
730.882	8303.54
731.224	8422.86
731.565	8286.82
731.906	8280.49
732.248	8334.05
732.589	8295.63
732.93	8294.27
733.271	8294.05
733.612	8309.41
733.953	8349.19
734.294	8303.31
734.635	8334.95
734.976	8270.77
735.317	8313.71
735.658	8206.82
735.999	8318.45
736.339	8350.32
736.68	8346.7
737.021	8296.76
737.361	8359.13
737.702	8331.79
738.042	8280.94
738.383	8376.98
738.723	8321.62
739.063	8319.81
739.404	8311.22
739.744	8342.63
740.084	8378.34
740.424	8381.95
740.764	8380.15
741.104	8400.49
741.444	8367.04
741.784	8354.84
742.124	8409.07
742.464	8420.37
742.804	8454.5
743.143	8442.97
743.483	8502.63
743.823	8449.98
744.162	8543.31
744.502	8512.8
744.841	8611.55
745.181	8637.99
745.52	8588.28
745.86	8656.3
746.199	8637.32
746.538	8725.22
746.877	8796.86
747.216	8834.82
747.556	8880.02
747.895	8871.89
748.234	8909.62
748.573	8979.68
748.911	9004.09
749.25	9092.67
749.589	9131.09
749.928	9259.45
750.267	9290.41
750.605	9279.78
750.944	9353.91
751.283	9459.21
751.621	9528.37
751.96	9540.79
752.298	9684.52
752.636	9752.77
752.975	9811.75
753.313	9898.98
753.651	10100.78
753.989	10014.68
754.327	10187.33
754.666	10249.7
755.004	10468.23
755.342	10510.03
755.679	10540.54
756.017	10696.02
756.355	10850.14
756.693	10976.01
757.031	11133.29
757.368	11195.21
757.706	11285.83
758.044	11442.44
758.381	11681.53
758.719	11682.66
759.056	11957.23
759.394	11997.23
759.731	12124.23
760.068	12270.21
760.405	12416.2
760.743	12511.11
761.08	12748.17
761.417	12883.31
761.754	13049.63
762.091	13154.26
762.428	13353.12
762.765	13460.92
763.102	13693.91
763.438	13828.37
763.775	13934.35
764.112	14106.55
764.449	14299.99
764.785	14455.92
765.122	14498.86
765.458	14654.11
765.795	14873.76
766.131	15002.12
766.467	15094.32
766.804	15235.11
767.14	15307.2
767.476	15518.49
767.812	15542.67
768.148	15762.78
768.485	15803.68
768.821	15862.89
769.157	16016.56
769.492	16129.55
769.828	16314.85
770.164	16232.37
770.5	16433.04
770.836	16604.11
771.171	16698.57
771.507	16676.2
771.842	16732.02
772.178	16929.75
772.513	16992.12
772.849	17085.45
773.184	17099.92
773.519	17246.81
773.855	17258.78
774.19	17269.86
774.525	17374.03
774.86	17511.66
775.195	17564.54
775.53	17532.22
775.865	17618.55
776.2	17550.53
776.535	17578.1
776.87	17637.53
777.205	17694.48
777.539	17670.75
777.874	17801.82
778.209	17780.35
778.543	17836.62
778.878	17723.4
779.212	17784.42
779.547	17707.81
779.881	17901.03
780.215	17911.42
780.55	17988.03
780.884	17953.23
781.218	17989.84
781.552	17953.91
781.886	18058.99
782.22	17984.41
782.554	17984.64
782.888	17897.86
783.222	17786
783.556	17880.69
783.889	17748.49
784.223	17787.13
784.557	17806.34
784.89	17829.62
785.224	17792.78
785.557	17749.62
785.891	17754.59
786.224	17801.37
786.558	17816.06
786.891	17586.91
787.224	17530.41
787.557	17610.86
787.891	17587.36
788.224	17648.15
788.557	17702.39
788.89	17770.63
789.223	17719.34
789.556	17543.97
789.888	17549.4
790.221	17506.23
790.554	17366.8
790.887	17396.63
791.219	17365.22
791.552	17350.31
791.884	17366.58
792.217	17332.68
792.549	17306.01
792.882	17145.11
793.214	17130.43
793.546	17254.26
793.879	17082.97
794.211	17041.84
794.543	17042.52
794.875	17015.63
795.207	17080.71
795.539	17038
795.871	16974.27
796.203	16847.27
796.535	16807.04
796.867	16770.43
797.198	16678.23
797.53	16753.71
797.862	16710.55
798.193	16687.05
798.525	16648.63
798.856	16609.08
799.188	16424.68
799.519	16412.25
799.85	16325.47
800.182	16387.39
800.513	16310.79
800.844	16280.96
801.175	16317.11
801.506	16317.79
801.837	16245.25
802.168	16255.87
802.499	16158.25
802.83	16116.21
803.161	16095.65
803.491	16080.74
803.822	16143.78
804.153	16029.89
804.483	15915.99
804.814	15801.65
805.145	15819.95
805.475	15868.31
805.805	15785.15
806.136	15838.48
806.466	15784.25
806.796	15703.12
807.126	15616.57
807.457	15490.47
807.787	15657.7
808.117	15548.32
808.447	15442.56
808.777	15457.47
809.107	15504.71
809.436	15379.28
809.766	15409.79
810.096	15277.14
810.426	15319.17
810.755	15314.65
811.085	15279.63
811.414	15279.85
811.744	15136.13
812.073	15130.48
812.403	15147.43
812.732	14991.5
813.061	15053.42
813.39	14871.95
813.719	14942.01
814.049	14990.59
814.378	14948.79
814.707	14868.79
815.036	14921.44
815.365	14908.56
815.693	14711.96
816.022	14762.13
816.351	14718.51
816.68	14642.81
817.008	14713.54
817.337	14567.55
817.665	14508.12
817.994	14659.76
818.322	14537.73
818.651	14474.22
818.979	14441.23
819.307	14591.28
819.636	14495.92
819.964	14369.82
820.292	14483.04
820.62	14483.94
820.948	14401.68
821.276	14469.7
821.604	14330.05
821.932	14513.09
822.259	14401.01
822.587	14392.87
822.915	14384.73
823.243	14341.12
823.57	14335.7
823.898	14373.89
824.225	14262.48
824.553	14322.82
824.88	14387.45
825.207	14403.72
825.535	14350.84
825.862	14441.23
826.189	14368.69
826.516	14399.88
826.843	14458.86
827.17	14514.9
827.497	14416.6
827.824	14435.58
828.151	14483.94
828.478	14385.86
828.805	14509.25
829.131	14416.6
829.458	14395.13
829.785	14361.68
830.111	14362.59
830.438	14383.6
830.764	14337.96
831.09	14462.02
831.417	14307
831.743	14453.66
832.069	14382.02
832.395	14361.01
832.722	14438.07
833.048	14249.15
833.374	14334.34
833.7	14291.4
834.026	14243.27
834.351	14305.41
834.677	14245.53
835.003	14314
835.329	14263.83
835.654	14269.94
835.98	14233.78
836.306	14342.25
836.631	14189.71
836.956	14229.48
837.282	14233.1
837.607	14210.95
837.932	14044.18
838.258	14043.5
838.583	14091.64
838.908	13885.76
839.233	14040.79
839.558	14002.6
839.883	13945.2
840.208	13904.75
840.533	13919.66
840.858	13859.78
841.182	13881.25
841.507	13909.72
841.832	13879.21
842.156	13773.9
842.481	13835.6
842.805	13705.88
843.13	13757.63
843.454	13698.43
843.778	13692.1
844.103	13610.74
844.427	13528.03
844.751	13616.39
845.075	13502.95
845.399	13482.84
845.723	13389.51
846.047	13413.69
846.371	13317.64
846.695	13303.18
847.019	13237.42
847.343	13164.43
847.666	13078.33
847.99	13174.37
848.313	13047.82
848.637	12968.27
848.96	12914.94
849.284	12940.03
849.607	12771.22
849.931	12741.16
850.254	12714.27
850.577	12719.92
850.9	12617.32
851.223	12603.99
851.546	12462.07
851.869	12402.19
852.192	12497.1
852.515	12337.33
852.838	12293.49
853.161	12399.48
853.483	12231.35
853.806	12220.27
854.129	12187.28
854.451	12036.77
854.774	12076.32
855.096	12041.52
855.419	12000.16
855.741	11984.57
856.063	11858.7
856.385	11839.94
856.708	11839.26
857.03	11789.32
857.352	11777.12
857.674	11746.84
857.996	11681.53
858.318	11598.82
858.64	11601.76
858.961	11605.15
859.283	11523.57
859.605	11516.11
859.926	11538.93
860.248	11460.52
860.57	11378.03
860.891	11436.56
861.212	11409.22
861.534	11359.5
861.855	11338.26
862.176	11341.42
862.498	11306.85
862.819	11325.83
863.14	11248.77
863.461	11263.69
863.782	11121.32
864.103	11256.46
864.424	11187.53
864.745	11241.54
865.065	11206.29
865.386	11088.78
865.707	11022.56
866.027	11063.69
866.348	11045.84
866.668	11099.62
866.989	11044.48
867.309	10983.92
867.63	11021.89
867.95	10944.15
868.27	10912.51
868.59	10919.06
868.91	10914.77
869.23	10909.12
869.55	10856.47
869.87	10926.52
870.19	10954.32
870.51	10851.04
870.83	10883.13
871.15	10802.91
871.469	10755.23
871.789	10804.72
872.109	10802
872.428	10715
872.748	10777.82
873.067	10744.83
873.386	10676.36
873.706	10640.88
874.025	10536.93
874.344	10598.62
874.663	10662.8
874.982	10564.72
875.301	10573.76
875.62	10581.22
875.939	10571.95
876.258	10598.85
876.577	10462.35
876.896	10535.8
877.214	10479.3
877.533	10411.51
877.852	10445.86
878.17	10383.48
878.489	10423.71
878.807	10408.57
879.125	10361.79
879.444	10370.83
879.762	10320.43
880.08	10333.99
880.398	10256.71
880.716	10308.01
881.034	10270.04
881.352	10241.11
881.67	10197.95
881.988	10188.91
882.306	10093.32
882.624	10150.95
882.941	10079.76
883.259	10132.42
883.577	10093.77
883.894	10051.74
884.212	10071.4
884.529	10056.94
884.846	9949.6
885.164	9914.8
885.481	9919.32
885.798	9920.9
886.115	9803.16
886.432	9908.47
886.75	9823.95
887.067	9853.55
887.383	9820.56
887.7	9786.21
888.017	9743.73
888.334	9729.26
888.651	9680.9
888.967	9667.8
889.284	9582.15
889.6	9621.92
889.917	9538.53
890.233	9543.96
890.55	9493.34
890.866	9526.11
891.182	9474.58
891.498	9470.29
891.815	9446.56
892.131	9397.97
892.447	9334.7
892.763	9323.4
893.079	9279.78
893.395	9259.45
893.71	9291.31
894.026	9249.28
894.342	9158.88
894.657	9205.44
894.973	9150.52
895.289	9093.12
895.604	9114.82
895.92	8987.36
896.235	8894.48
896.55	8955.95
896.865	8970.19
897.181	8917.08
897.496	8914.37
897.811	8863.75
898.126	8843.86
898.441	8836.41
898.756	8777.2
899.071	8706.92
899.386	8734.26
899.7	8662.17
900.015	8599.35
900.33	8540.14
900.644	8506.47
900.959	8586.24
901.273	8543.31
901.588	8461.27
901.902	8433.48
902.216	8362.52
902.531	8396.87
902.845	8337.89
903.159	8323.65
903.473	8287.49
903.787	8219.47
904.101	8219.02
904.415	8222.18
904.729	8208.4
905.042	8090.66
905.356	8105.8
905.67	8136.09
905.984	8096.54
906.297	8062.64
906.611	7995.98
906.924	7994.39
907.237	7929.09
907.551	7923.66
907.864	7873.27
908.177	7887.73
908.491	7742.2
908.804	7791.91
909.117	7695.65
909.43	7738.81
909.743	7657.45
910.056	7652.71
910.368	7648.19
910.681	7645.02
910.994	7509.21
911.307	7539.49
911.619	7445.48
911.932	7530.68
912.244	7356.44
912.557	7402.77
912.869	7344.02
913.181	7339.27
913.494	7321.42
913.806	7273.51
914.118	7307.63
914.43	7188.54
914.742	7176.34
915.054	7124.59
915.366	7127.75
915.678	7082.78
915.99	7042.1
916.302	7033.29
916.613	7008.43
916.925	6979.73
917.236	7001.65
917.548	6959.62
917.859	6904.93
918.171	6809.11
918.482	6840.3
918.794	6752.17
919.105	6795.78
919.416	6759.85
919.727	6748.78
920.038	6733.86
920.349	6679.63
920.66	6631.27
920.971	6608.22
921.282	6666.52
921.593	6582
921.903	6518.73
922.214	6538.84
922.525	6473.53
922.835	6479.63
923.146	6418.84
923.456	6466.52
923.767	6417.03
924.077	6392.18
924.387	6324.38
924.697	6301.11
925.008	6281.45
925.318	6215.91
925.628	6269.69
925.938	6208.45
926.248	6101.56
926.558	6137.49
926.867	6126.87
927.177	6080.55
927.487	6122.35
927.796	6034.67
928.106	6050.94
928.416	5997.61
928.725	6004.84
929.034	5958.97
929.344	5953.77
929.653	5887.11
929.962	5880.33
930.271	5835.58
930.581	5815.69
930.89	5791.06
931.199	5776.37
931.508	5739.76
931.817	5767.56
932.125	5726.43
932.434	5694.12
932.743	5625.42
933.051	5623.38
933.36	5647.56
933.669	5571.63
933.977	5640.33
934.286	5540
934.594	5546.55
934.902	5493.44
935.21	5476.49
935.519	5450.28
935.827	5449.15
936.135	5454.8
936.443	5382.26
936.751	5376.16
937.059	5385.42
937.367	5293.9
937.674	5303.17
937.982	5287.12
938.29	5321.92
938.597	5217.97
938.905	5224.07
939.213	5190.85
939.52	5167.58
939.827	5145.2
940.135	5173.68
940.442	5099.56
940.749	5125.09
941.056	5096.84
941.363	5003.06
941.67	5068.37
941.977	4972.33
942.284	4945.43
942.591	4994.25
942.898	4930.52
943.205	4942.95
943.511	4951.99
943.818	4882.84
944.125	4806.46
944.431	4820.92
944.738	4807.36
945.044	4831.09
945.35	4792.44
945.657	4712.45
945.963	4724.42
946.269	4716.06
946.575	4674.03
946.881	4697.76
947.187	4679.91
947.493	4641.49
947.799	4637.65
948.105	4565.11
948.41	4547.03
948.716	4554.71
949.022	4537.99
949.327	4541.38
949.633	4473.81
949.938	4475.16
950.244	4421.38
950.549	4446.69
950.854	4406.24
951.16	4385.9
951.465	4395.39
951.77	4327.37
952.075	4362.85
952.38	4305.45
952.685	4319.01
952.99	4282.4
953.294	4253.93
953.599	4215.96
953.904	4202.86
954.209	4215.96
954.513	4210.54
954.818	4191.1
955.122	4195.17
955.426	4157.89
955.731	4116.98
956.035	4081.05
956.339	4096.64
956.643	4102.97
956.948	4067.94
957.252	4014.39
957.556	4032.24
957.86	3985.69
958.163	3989.75
958.467	3981.62
958.771	3925.8
959.075	3974.61
959.378	3966.7
959.682	3889.64
959.985	3929.42
960.289	3869.31
960.592	3862.53
960.896	3812.81
961.199	3851.23
961.502	3816.43
961.805	3800.15
962.108	3770.1
962.411	3738.24
962.714	3706.37
963.017	3716.77
963.32	3717.44
963.623	3705.69
963.926	3662.76
964.228	3667.95
964.531	3667.28
964.833	3650.33
965.136	3590.44
965.438	3566.26
965.741	3575.3
966.043	3588.18
966.345	3542.08
966.648	3544.79
966.95	3526.94
967.252	3512.7
967.554	3491.91
967.856	3467.51
968.158	3432.25
968.46	3465.7
968.761	3432.03
969.063	3395.19
969.365	3393.61
969.666	3387.96
969.968	3363.1
970.269	3369.66
970.571	3326.27
970.872	3357
971.174	3331.92
971.475	3312.26
971.776	3284.24
972.077	3305.48
972.378	3258.25
972.679	3284.01
972.98	3192.49
973.281	3248.98
973.582	3210.11
973.883	3183.22
974.183	3161.08
974.484	3179.38
974.785	3157.01
975.085	3144.35
975.386	3127.86
975.686	3103.68
975.986	3115.2
976.287	3103.45
976.587	3024.58
976.887	3072.04
977.187	3080.85
977.487	3050.12
977.787	3030.23
978.087	2978.03
978.387	2941.42
978.687	2976
978.987	2966.05
979.286	2973.74
979.586	2945.04
979.885	2877.47
980.185	2874.3
980.484	2922.66
980.784	2861.2
981.083	2830.24
981.382	2848.31
981.682	2844.7
981.981	2827.07
982.28	2830.69
982.579	2778.49
982.878	2818.49
983.177	2775.55
983.475	2818.26
983.774	2766.96
984.073	2752.27
984.372	2712.95
984.67	2749.56
984.969	2733.29
985.267	2703.23
985.566	2668.66
985.864	2689
986.162	2651.03
986.461	2635.44
986.759	2639.05
987.057	2595.44
987.355	2583.01
987.653	2601.32
987.951	2604.93
988.249	2572.39
988.547	2543.69
988.844	2577.14
989.142	2566.97
989.44	2556.35
989.737	2521.54
990.035	2510.24
990.332	2486.29
990.63	2470.7
990.927	2480.42
991.224	2453.98
991.521	2435.22
991.819	2468.44
992.116	2415.33
992.413	2455.56
992.71	2376.69
993.006	2382.11
993.303	2387.99
993.6	2366.97
993.897	2386.86
994.193	2356.8
994.49	2315.45
994.787	2345.96
995.083	2326.97
995.379	2279.06
995.676	2311.38
995.972	2317.71
996.268	2260.31
996.565	2270.48
996.861	2260.31
997.157	2246.97
997.453	2235
997.749	2223.92
998.044	2193.19
998.34	2231.61
998.636	2191.38
998.932	2213.3
999.227	2165.85
999.523	2178.28
999.818	2126.75
1000.114	2160.2
1000.409	2115.9
1000.704	2135.11
1001	2099.41
1001.295	2105.51
1001.59	2101.22
1001.885	2085.62
1002.18	2062.57
1002.475	2035.91
1002.77	2039.97
1003.065	2033.65
1003.359	1980.99
1003.654	2002.46
1003.949	1980.77
1004.243	1974.44
1004.538	1966.53
1004.832	1959.52
1005.127	1949.36
1005.421	1927.89
1005.715	1893.54
1006.009	1904.61
1006.304	1895.35
1006.598	1900.77
1006.892	1875.23
1007.186	1865.52
1007.48	1876.36
1007.773	1831.84
1008.067	1833.65
1008.361	1844.73
1008.655	1820.09
1008.948	1800.88
1009.242	1801.11
1009.535	1767.21
1009.829	1797.72
1010.122	1759.98
1010.415	1757.72
1010.708	1733.99
1011.001	1752.98
1011.295	1726.54
1011.588	1732.19
1011.881	1689.25
1012.173	1706.2
1012.466	1687.67
1012.759	1671.85
1013.052	1683.15
1013.344	1694
1013.637	1655.13
1013.93	1637.5
1014.222	1600.44
1014.514	1636.37
1014.807	1595.01
1015.099	1599.08
1015.391	1591.17
1015.683	1581.68
1015.976	1584.62
1016.268	1571.51
1016.56	1550.72
1016.851	1538.97
1017.143	1514.56
1017.435	1537.84
1017.727	1504.17
1018.018	1515.92
1018.31	1502.81
1018.602	1476.6
1018.893	1475.92
1019.185	1490.84
1019.476	1470.27
1019.767	1483.38
1020.058	1448.13
1020.35	1430.05
1020.641	1401.57
1020.932	1401.35
1021.223	1392.08
1021.514	1391.63
1021.804	1409.26
1022.095	1373.33
1022.386	1372.65
1022.677	1373.78
1022.967	1365.64
1023.258	1361.35
1023.548	1366.32
1023.839	1324.06
1024.129	1320.22
1024.419	1309.37
1024.709	1291.07
1025	1295.81
1025.29	1294.23
1025.58	1269.83
1025.87	1290.84
1026.16	1261.24
1026.449	1252.65
1026.739	1204.06
1027.029	1230.28
1027.319	1236.83
1027.608	1232.09
1027.898	1192.31
1028.187	1199.32
1028.477	1177.17
1028.766	1180.56
1029.055	1186.66
1029.344	1185.08
1029.634	1179.21
1029.923	1161.35
1030.212	1172.88
1030.501	1147.57
1030.79	1101.02
1031.078	1116.84
1031.367	1100.56
1031.656	1106.21
1031.945	1103.28
1032.233	1095.14
1032.522	1107.8
1032.81	1087.01
1033.099	1091.98
1033.387	1055.59
1033.675	1056.72
1033.963	1072.09
1034.251	1088.36
1034.54	1056.27
1034.828	1064.18
1035.116	1055.37
1035.403	1039.55
1035.691	1013.11
1035.979	1031.87
1036.267	990.74
1036.554	1002.49
1036.842	998.42
1037.129	994.58
1037.417	987.57
1037.704	990.28
1037.992	987.8
1038.279	947.8
1038.566	939.66
1038.853	939.66
1039.14	939.66
