Data from hue_50_FLMS001491_39.txt Node
Date: Mon Feb 06 15:10:03 GMT 2017
User: dcchb
Spectrometer: FLMS00149
Trigger mode: 0
Integration Time (sec): 2.000000E-2
Scans to average: 10
Electric dark correction enabled: true
Nonlinearity correction enabled: false
Boxcar width: 0
XAxis mode: Wavelengths
Number of Pixels in Spectrum: 2048
>>>>>Begin Spectral Data<<<<<
341.393	-25.42
341.776	-25.42
342.16	-25.42
342.543	-44.41
342.927	-64.07
343.31	-88.25
343.693	-49.6
344.077	-82.14
344.46	-44.41
344.843	-66.55
345.226	-32.88
345.61	-25.42
345.993	-18.87
346.376	-2.37
346.759	0.56
347.142	43.95
347.525	33.78
347.908	50.06
348.291	88.02
348.674	71.75
349.057	122.37
349.44	128.7
349.823	128.02
350.206	175.48
350.588	186.32
350.971	235.14
351.354	209.6
351.737	235.59
352.119	257.06
352.502	269.94
352.884	273.1
353.267	284.17
353.65	276.72
354.032	295.7
354.414	319.88
354.797	316.26
355.179	327.11
355.562	313.33
355.944	321.46
356.326	338.86
356.709	326.66
357.091	339.09
357.473	332.31
357.855	349.03
358.238	361.91
358.62	343.83
359.002	339.77
359.384	335.92
359.766	335.25
360.148	322.82
360.53	343.38
360.912	343.83
361.294	329.14
361.676	331.86
362.057	321.01
362.439	322.36
362.821	351.74
363.203	324.85
363.584	314
363.966	321.23
364.348	304.96
364.729	340.89
365.111	315.81
365.493	322.36
365.874	304.06
366.256	314.91
366.637	322.59
367.019	281.46
367.4	320.78
367.781	320.33
368.163	325.98
368.544	326.66
368.925	302.25
369.306	316.49
369.688	335.02
370.069	302.7
370.45	318.07
370.831	334.57
371.212	324.62
371.593	304.96
371.974	306.32
372.355	274.23
372.736	335.02
373.117	316.71
373.498	311.97
373.879	333.44
374.26	311.29
374.641	302.48
375.021	331.18
375.402	327.34
375.783	318.75
376.163	326.88
376.544	308.58
376.925	334.12
377.305	325.08
377.686	327.34
378.066	343.83
378.447	329.6
378.827	351.97
379.208	338.64
379.588	323.04
379.968	322.36
380.349	352.42
380.729	334.34
381.109	330.73
381.489	332.31
381.87	326.66
382.25	331.63
382.63	340.44
383.01	329.14
383.39	341.35
383.77	328.47
384.15	325.98
384.53	337.05
384.91	345.64
385.29	354.91
385.67	343.61
386.049	339.77
386.429	344.74
386.809	331.86
387.189	330.73
387.568	349.71
387.948	334.79
388.328	321.23
388.707	342.93
389.087	364.4
389.466	356.94
389.846	353.78
390.225	355.36
390.605	370.72
390.984	350.84
391.363	364.17
391.743	349.71
392.122	367.79
392.501	359.88
392.881	367.33
393.26	339.09
393.639	363.49
394.018	372.76
394.397	371.63
394.776	350.61
395.155	372.98
395.534	363.49
395.913	364.4
396.292	356.49
396.671	354
397.05	367.56
397.429	381.8
397.808	399.65
398.186	371.63
398.565	371.18
398.944	389.03
399.323	365.98
399.701	363.72
400.08	384.06
400.458	395.36
400.837	388.13
401.215	401.46
401.594	376.83
401.972	369.37
402.351	379.76
402.729	401.46
403.107	394.45
403.486	412.98
403.864	388.8
404.242	370.05
404.62	386.77
404.999	392.42
405.377	404.17
405.755	410.5
406.133	377.05
406.511	398.75
406.889	416.6
407.267	416.15
407.645	396.26
408.023	409.37
408.401	398.75
408.779	413.21
409.156	403.72
409.534	417.96
409.912	413.21
410.29	429.25
410.667	424.96
411.045	431.97
411.422	432.87
411.8	441.01
412.178	428.12
412.555	432.64
412.933	417.73
413.31	434
413.687	446.43
414.065	460.44
414.442	449.82
414.819	484.62
415.197	461.34
415.574	455.92
415.951	444.17
416.328	457.05
416.705	466.77
417.082	458.63
417.46	477.16
417.837	483.49
418.214	451.17
418.591	458.63
418.967	469.93
419.344	476.26
419.721	498.18
420.098	481.23
420.475	485.75
420.852	484.39
421.228	490.27
421.605	485.07
421.982	463.15
422.358	477.16
422.735	509.03
423.111	490.72
423.488	499.99
423.864	501.57
424.241	510.61
424.617	514.22
424.994	502.7
425.37	504.96
425.746	517.39
426.123	516.71
426.499	492.08
426.875	521.68
427.251	533.43
427.627	522.81
428.003	518.74
428.379	529.82
428.756	544.73
429.132	554.45
429.507	554.67
429.883	551.74
430.259	562.36
430.635	558.29
431.011	542.47
431.387	584.05
431.763	578.4
432.138	555.35
432.514	600.78
432.89	596.03
433.265	585.63
433.641	588.8
434.016	596.71
434.392	583.6
434.767	617.27
435.143	623.6
435.518	606.2
435.894	602.58
436.269	596.48
436.644	628.8
437.02	633.99
437.395	648.68
437.77	647.33
438.145	646.2
438.52	656.59
438.895	651.85
439.271	649.36
439.646	667.21
440.021	673.32
440.395	668.34
440.77	673.99
441.145	637.84
441.52	646.42
441.895	667.89
442.27	685.97
442.645	675.58
443.019	700.66
443.394	678.74
443.769	710.6
444.143	701.79
444.518	695.24
444.892	696.59
445.267	708.12
445.641	722.58
446.016	729.59
446.39	721.9
446.764	740.21
447.139	735.01
447.513	725.07
447.887	724.84
448.262	717.16
448.636	735.91
449.01	760.32
449.384	736.59
449.758	733.88
450.132	793.99
450.506	750.15
450.88	782.24
451.254	756.48
451.628	770.26
452.002	759.19
452.376	796.7
452.75	780.43
453.123	793.31
453.497	795.12
453.871	800.77
454.244	811.84
454.618	817.04
454.992	811.39
455.365	806.42
455.739	816.36
456.112	858.4
456.486	844.16
456.859	861.56
457.232	887.1
457.606	866.08
457.979	868.56
458.352	885.74
458.725	881.9
459.099	907.21
459.472	919.86
459.845	937.72
460.218	965.51
460.591	965.51
460.964	956.25
461.337	986.98
461.71	979.3
462.083	997.6
462.456	994.89
462.829	1002.35
463.201	1032.63
463.574	1022.46
463.947	1042.12
464.32	1048.22
464.692	1062.91
465.065	1069.46
465.438	1081.89
465.81	1104.49
466.183	1104.04
466.555	1106.98
466.928	1171.61
467.3	1138.84
467.672	1162.34
468.045	1214.77
468.417	1194.21
468.789	1228.56
469.161	1266.07
469.534	1269.46
469.906	1316.46
470.278	1300.19
470.65	1325.95
471.022	1336.58
471.394	1371.6
471.766	1384.03
472.138	1406.18
472.51	1465.61
472.882	1489.57
473.253	1522.56
473.625	1557.81
473.997	1605.95
474.369	1602.56
474.74	1609.34
475.112	1669.45
475.484	1701.31
475.855	1781.54
476.227	1801.87
476.598	1855.66
476.97	1889.55
477.341	1922.55
477.713	2003.9
478.084	1993.96
478.455	2096.1
478.827	2109.44
479.198	2234.4
479.569	2254.52
479.94	2342.88
480.311	2401.86
480.682	2496.32
481.053	2561.63
481.424	2632.13
481.795	2673.04
482.166	2728.4
482.537	2807.27
482.908	2927.49
483.279	2989.64
483.65	3081.39
484.021	3147.6
484.391	3244.77
484.762	3329.97
485.133	3434.15
485.503	3537.2
485.874	3639.79
486.244	3714.37
486.615	3854.47
486.985	3983.06
487.356	4103.96
487.726	4162.04
488.097	4297.63
488.467	4361.81
488.837	4517.51
489.207	4624.62
489.578	4762.7
489.948	4844.73
490.318	4976.71
490.688	5117.04
491.058	5261.9
491.428	5371.72
491.798	5519.29
492.168	5629.8
492.538	5724.48
492.908	5840.41
493.278	6026.17
493.648	6088.54
494.017	6250.57
494.387	6354.3
494.757	6454.63
495.126	6620.73
495.496	6700.95
495.866	6829.54
496.235	6994.73
496.605	7087.61
496.974	7262.52
497.344	7370.99
497.713	7480.14
498.082	7641.95
498.452	7733.24
498.821	7830.87
499.19	7980.47
499.559	8135.49
499.928	8234.92
500.298	8279.67
500.667	8423.17
501.036	8511.3
501.405	8677.4
501.774	8730.05
502.143	8901.35
502.512	8978.86
502.88	9129.82
503.249	9168.69
503.618	9311.51
503.987	9450.49
504.356	9571.16
504.724	9632.18
505.093	9690.71
505.462	9760.08
505.83	9973.41
506.199	10042.11
506.567	10237.81
506.936	10302.21
507.304	10444.13
507.672	10497.46
508.041	10599.61
508.409	10678.25
508.777	10815.42
509.145	10956.89
509.514	11026.26
509.882	11146.03
510.25	11206.6
510.618	11324.11
510.986	11349.19
511.354	11550.77
511.722	11640.94
512.09	11784.89
512.458	11823.76
512.826	11950.76
513.193	12032.11
513.561	12060.81
513.929	12256.97
514.297	12300.58
514.664	12435.49
515.032	12561.36
515.4	12690.17
515.767	12693.34
516.135	12845.42
516.502	12813.79
516.869	13078.87
517.237	13123.16
517.604	13090.39
517.972	13269.59
518.339	13445.86
518.706	13462.36
519.073	13498.74
519.44	13692.63
519.808	13772.41
520.175	13836.59
520.542	13931.05
520.909	14069.57
521.276	14104.15
521.643	14234.99
522.009	14390.47
522.376	14464.37
522.743	14530.35
523.11	14640.86
523.477	14847.63
523.843	14925.14
524.21	15115.87
524.577	15168.75
524.943	15342.08
525.31	15339.14
525.676	15493.94
526.043	15603.77
526.409	15681.51
526.776	15869.53
527.142	15940.48
527.508	16060.26
527.874	16102.74
528.241	16234.49
528.607	16290.08
528.973	16439.23
529.339	16447.14
529.705	16725.77
530.071	16809.61
530.437	16840.8
530.803	16897.97
531.169	17088.93
531.535	17090.29
531.901	17121.7
532.267	17300.45
532.632	17361.24
532.998	17460.67
533.364	17507.45
533.73	17678.52
534.095	17684.62
534.461	17789.7
534.826	17876.25
535.192	17921.9
535.557	18118.51
535.923	18083.25
536.288	18174.32
536.653	18254.77
537.019	18226.75
537.384	18436.46
537.749	18480.98
538.114	18478.05
538.479	18512.17
538.845	18692.95
539.21	18652.28
539.575	18696.12
539.94	18888.2
540.305	18927.52
540.67	18898.83
541.034	18988.54
541.399	19135.43
541.764	19094.3
542.129	19372.48
542.494	19408.64
542.858	19417.68
543.223	19479.83
543.587	19569.99
543.952	19616.32
544.316	19560.95
544.681	19682.53
545.045	19783.32
545.41	19786.26
545.774	19909.87
546.138	19994.62
546.503	20005.69
546.867	20009.98
547.231	20221.73
547.595	20170.43
547.959	20339.47
548.324	20286.13
548.688	20414.72
549.052	20480.03
549.416	20590.76
549.779	20633.47
550.143	20608.61
550.507	20769.06
550.871	20857.64
551.235	20873.46
551.599	21016.51
551.962	21012.67
552.326	21080.46
552.689	21189.16
553.053	21187.58
553.417	21172.21
553.78	21647.91
554.143	21344.41
554.507	21577.17
554.87	21569.04
555.234	21883.61
555.597	21726.32
555.96	21838.18
556.323	21908.92
556.686	21934.68
557.05	22093.09
557.413	22088.12
557.776	22192.07
558.139	22416.92
558.502	22445.4
558.865	22496.24
559.228	22568.11
559.59	22764.03
559.953	22688.33
560.316	22992.05
560.679	22927.87
561.041	23061.65
561.404	23172.84
561.767	23262.78
562.129	23189.56
562.492	23474.75
562.854	23490.34
563.217	23527.63
563.579	23599.49
563.941	23771.47
564.304	23856.21
564.666	23877.45
565.028	24086.71
565.39	24098.69
565.753	24293.03
566.115	24356.31
566.477	24490.09
566.839	24515.63
567.201	24696.64
567.563	24739.8
567.925	24990.64
568.287	24803.08
568.648	25069.96
569.01	25172.78
569.372	25321.48
569.734	25225.21
570.095	25377.52
570.457	25535.26
570.819	25589.72
571.18	25660.46
571.542	25881.47
571.903	25843.95
572.265	25898.19
572.626	26017.06
572.987	26082.37
573.349	26187.67
573.71	26281.23
574.071	26355.8
574.432	26512.41
574.794	26647.77
575.155	26609.58
575.516	26624.72
575.877	26859.52
576.238	26925.73
576.599	26934.32
576.96	27040.76
577.32	27029.01
577.681	27228.55
578.042	27352.61
578.403	27421.76
578.763	27429.22
579.124	27578.6
579.485	27737.24
579.845	27840.96
580.206	27846.16
580.566	27969.1
580.927	28072.82
581.287	28268.52
581.648	28172.71
582.008	28417.9
582.368	28315.07
582.728	28448.63
583.089	28490.44
583.449	28613.37
583.809	28750.77
584.169	28855.17
584.529	28779.02
584.889	29267.59
585.249	29050.42
585.609	29050.65
585.969	29425.33
586.329	29320.02
586.688	29559.56
587.048	29724.53
587.408	29678.43
587.768	29783.28
588.127	29838.42
588.487	29936.95
588.846	30139.89
589.206	30021.7
589.565	30185.76
589.925	30387.79
590.284	30452.19
590.643	30613.77
591.003	30662.13
591.362	30833.2
591.721	30936.02
592.08	31032.97
592.44	31183.7
592.799	31138.96
593.158	31260.76
593.517	31392.28
593.876	31413.07
594.235	31505.05
594.593	31544.59
594.952	31778.26
595.311	31625.95
595.67	31883.12
596.029	32120.85
596.387	32166.5
596.746	32294.41
597.104	32197.91
597.463	32327.62
597.822	32522.87
598.18	32395.87
598.538	32531.69
598.897	32778.46
599.255	32543.89
599.613	33189.3
599.972	32938.23
600.33	33057.1
600.688	33049.19
601.046	33258.45
601.404	33350.87
601.762	33422.29
602.12	33600.81
602.478	33705.44
602.836	33762.39
603.194	33602.62
603.552	33727.14
603.91	33718.1
604.268	33979.78
604.625	33973.91
604.983	34075.38
605.341	34142.72
605.698	34245.31
606.056	34393.33
606.413	34394.91
606.771	34651.63
607.128	34632.2
607.485	34528.02
607.843	34554.46
608.2	34804.85
608.557	34925.3
608.914	34888.91
609.272	35035.58
609.629	35184.5
609.986	35171.39
610.343	35222.92
610.7	35387.43
611.057	35375.45
611.414	35473.08
611.771	35508.78
612.127	35771.15
612.484	35772.73
612.841	36013.4
613.198	35765.27
613.554	35891.82
613.911	36011.6
614.267	36150.57
614.624	36079.16
614.98	36222.21
615.337	36376.78
615.693	36311.93
616.05	36316.9
616.406	36654.06
616.762	36440.74
617.118	36475.76
617.475	36581.98
617.831	36681.18
618.187	36651.13
618.543	36766.6
618.899	37051.12
619.255	36935.41
619.611	36993.26
619.967	37112.13
620.323	37205.46
620.678	37198
621.034	37031.46
621.39	37107.61
621.746	37167.5
622.101	37533.36
622.457	37242.75
622.812	37310.77
623.168	37519.8
623.523	37479.81
623.879	37602.06
624.234	37414.95
624.589	37460.82
624.945	37601.16
625.3	37647.71
625.655	37597.32
626.01	37702.62
626.365	37720.93
626.72	37630.08
627.075	37644.32
627.43	37514.38
627.785	37530.88
628.14	37752.11
628.495	37838.67
628.85	37696.52
629.205	37478.22
629.559	37889.06
629.914	37616.07
630.269	37830.98
630.623	37744.21
630.978	37530.43
631.332	37838.89
631.687	37784.2
632.041	37730.19
632.396	37800.25
632.75	37727.93
633.104	37725.67
633.459	37680.03
633.813	37649.07
634.167	37653.81
634.521	37660.37
634.875	37620.37
635.229	37652
635.583	37452.91
635.937	37583.53
636.291	37489.07
636.645	37505.34
636.999	37295.86
637.352	37617.88
637.706	37416.53
638.06	37469.18
638.413	37352.13
638.767	37369.75
639.121	37486.81
639.474	37164.11
639.828	37254.27
640.181	37173.15
640.534	37476.87
640.888	37261.05
641.241	37154.84
641.594	37155.07
641.947	37253.37
642.301	37164.11
642.654	37092.25
643.007	37096.99
643.36	37077.56
643.713	37062.87
644.066	37169.98
644.419	36893.15
644.771	36685.93
645.124	36418.59
645.477	36310.8
645.83	36126.39
646.182	35911.03
646.535	35846.63
646.888	35944.03
647.24	35824.71
647.593	35940.18
647.945	35868.55
648.298	35805.73
648.65	35796.23
649.002	35546.07
649.355	35754.65
649.707	35670.59
650.059	35861.09
650.411	36207.07
650.763	36246.39
651.115	36626.27
651.467	36509.89
651.819	36487.52
652.171	36394.18
652.523	36372.49
652.875	36444.13
653.227	36091.59
653.578	36587.17
653.93	36405.94
654.282	36344.92
654.633	36278.26
654.985	36152.83
655.337	36195.32
655.688	36171.37
656.039	36284.36
656.391	35947.87
656.742	36167.07
657.094	36032.61
657.445	36266.73
657.796	36267.18
658.147	36106.28
658.498	35990.58
658.849	36043.91
659.2	36196.22
659.551	36017.92
659.902	36006.17
660.253	36128.88
660.604	36084.14
660.955	35816.8
661.306	36022.67
661.656	35927.98
662.007	35919.39
662.358	35854.76
662.708	35931.37
663.059	35930.47
663.409	35744.48
663.76	35997.36
664.11	35897.25
664.461	36009.79
664.811	35896.12
665.161	35977.7
665.511	35869.68
665.862	35790.81
666.212	36024.93
666.562	35928.66
666.912	35953.97
667.262	35806.86
667.612	35858.38
667.962	35805.73
668.312	35798.72
668.662	36006.4
669.011	35893.86
669.361	35765.73
669.711	35835.55
670.06	35756.23
670.41	35637.82
670.76	35677.14
671.109	35881.2
671.459	35788.55
671.808	35656.8
672.157	35778.16
672.507	35588.78
672.856	35600.08
673.205	35652.06
673.554	35565.28
673.904	35570.48
674.253	35767.99
674.602	35665.16
674.951	35161.45
675.3	34940.89
675.649	35442.34
675.998	35439.63
676.346	35427.2
676.695	35554.43
677.044	35210.94
677.393	35305.85
677.741	35504.94
678.09	35255.68
678.438	35260.43
678.787	35191.73
679.135	35212.07
679.484	35100.66
679.832	35190.15
680.181	34983.6
680.529	35193.99
680.877	35055.91
681.225	34932.53
681.573	35197.61
681.922	34836.03
682.27	34815.47
682.618	34819.08
682.966	34768.01
683.314	34813.66
683.661	34658.41
684.009	34597.62
684.357	34591.75
684.705	34391.07
685.053	34630.39
685.4	34551.29
685.748	34329.15
686.095	34276.05
686.443	34157.86
686.79	34250.29
687.138	34167.12
687.485	34154.47
687.832	34085.32
688.18	34126.45
688.527	33978.43
688.874	34086.9
689.221	33814.82
689.568	33809.62
689.915	33620.92
690.262	33634.26
690.609	33605.78
690.956	33419.35
691.303	33495.96
691.65	33253.02
691.997	33248.96
692.344	33001.51
692.69	33106.36
693.037	33099.13
693.383	32840.83
693.73	32900.04
694.077	32678.35
694.423	32857.78
694.769	32583.66
695.116	32533.27
695.462	32625.24
695.808	32480.61
696.155	32502.54
696.501	32205.59
696.847	32217.34
697.193	32009.44
697.539	32144.8
697.885	32042.43
698.231	31761.09
698.577	31840.18
698.923	31876.79
699.269	31634.76
699.614	31500.75
699.96	31353.86
700.306	31500.08
700.651	31222.57
700.997	31210.82
701.342	31279.06
701.688	31113.87
702.033	31082.46
702.379	31050.14
702.724	30955.68
703.069	31039.52
703.415	30657.39
703.76	30584.62
704.105	30568.12
704.45	30627.33
704.795	30279.54
705.14	30222.82
705.485	30235.7
705.83	30212.88
706.175	30224.85
706.52	30058.31
706.865	30014.47
707.209	29952.77
707.554	29800.01
707.899	29863.73
708.243	29801.14
708.588	29747.35
708.932	29682.04
709.277	29511.43
709.621	29457.42
709.966	29388.04
710.31	29423.97
710.654	29231.89
710.998	29284.77
711.342	29263.07
711.687	29191.21
712.031	29035.51
712.375	28909.18
712.719	28997.32
713.063	28963.65
713.407	28880.94
713.75	28775.63
714.094	28744.89
714.438	28602.75
714.782	28601.85
715.125	28527.05
715.469	28580.83
715.812	28385.13
716.156	28315.98
716.499	28330.22
716.843	28360.05
717.186	28135.64
717.53	28375.64
717.873	28266.71
718.216	28171.12
718.559	27964.35
718.902	27784.69
719.246	27935.65
719.589	27812.49
719.932	27684.81
720.275	27665.83
720.617	27659.95
720.96	27538.6
721.303	27729.78
721.646	27603.45
721.989	27409.79
722.331	27560.29
722.674	27420.41
723.016	27438.71
723.359	27417.47
723.701	27413.63
724.044	27147.65
724.386	27020.19
724.729	27262.67
725.071	27109.23
725.413	27103.36
725.755	27092.51
726.097	26914.21
726.439	26756.7
726.782	26794.89
727.124	26976.13
727.465	26781.33
727.807	26805.74
728.149	26787.43
728.491	26681.22
728.833	26611.16
729.175	26447.78
729.516	26505.18
729.858	26455.01
730.199	26433.32
730.541	26493.88
730.882	26398.97
731.224	26566.19
731.565	26325.75
731.906	26221.34
732.248	26243.04
732.589	26164.85
732.93	26003.5
733.271	26090.5
733.612	26154.23
733.953	26096.6
734.294	26011.86
734.635	25963.27
734.976	26037.62
735.317	25867.91
735.658	25774.12
735.999	25813.9
736.339	25678.76
736.68	25860
737.021	25580.68
737.361	25577.52
737.702	25826.78
738.042	25658.2
738.383	25596.28
738.723	25625.65
739.063	25544.75
739.404	25398.77
739.744	25475.6
740.084	25399.22
740.424	25369.84
740.764	25380.91
741.104	25347.92
741.444	25311.09
741.784	25186.34
742.124	25254.82
742.464	25196.96
742.804	25222.27
743.143	25050.98
743.483	25075.16
743.823	24912.23
744.162	24936.41
744.502	24945.45
744.841	24855.05
745.181	24802.85
745.52	24794.72
745.86	24781.61
746.199	24759.69
746.538	24781.83
746.877	24808.5
747.216	24712.23
747.556	24730.31
747.895	24700.03
748.234	24503.2
748.573	24480.15
748.911	24507.49
749.25	24327.83
749.589	24323.54
749.928	24410.54
750.267	24367.61
750.605	24346.59
750.944	24249.64
751.283	24127.39
751.621	24252.36
751.96	24068.63
752.298	24011.01
752.636	24009.2
752.975	23937.34
753.313	23823.44
753.651	23951.8
753.989	23817.57
754.327	23792.26
754.666	23638.36
755.004	23610.34
755.342	23658.25
755.679	23651.24
756.017	23430.68
756.355	23535.31
756.693	23315.21
757.031	23525.14
757.368	23328.99
757.706	23313.85
758.044	23068.43
758.381	23250.12
758.719	23091.26
759.056	23010.81
759.394	22870.25
759.731	22831.38
760.068	22799.51
760.405	22855.33
760.743	22631.38
761.08	22784.15
761.417	22508.9
761.754	22468.22
762.091	22496.47
762.428	22438.17
762.765	22224.39
763.102	22379.41
763.438	22168.34
763.775	22024.84
764.112	22091.96
764.449	22073.66
764.785	22014.68
765.122	21804.29
765.458	21820.33
765.795	21668.92
766.131	21730.39
766.467	21530.62
766.804	21440.68
767.14	21355.94
767.476	21454.24
767.812	21424.63
768.148	21384.18
768.485	21237.52
768.821	21061.48
769.157	21091.08
769.492	21021.26
769.828	20952.1
770.164	20794.37
770.5	20763.86
770.836	20735.84
771.171	20628.5
771.507	20522.96
771.842	20428.73
772.178	20393.48
772.513	20354.15
772.849	20239.81
773.184	20211.11
773.519	20166.14
773.855	20016.31
774.19	20023.54
774.525	19933.83
774.86	19868.97
775.195	19849.31
775.53	19755.75
775.865	19652.25
776.2	19532.93
776.535	19461.52
776.87	19474.18
777.205	19339.72
777.539	19352.6
777.874	19299.27
778.209	19148.31
778.543	19050.91
778.878	18959.16
779.212	18888.43
779.547	18793.74
779.881	18989.22
780.215	18732.73
780.55	18745.61
780.884	18660.87
781.218	18643.92
781.552	18594.88
781.886	18506.29
782.22	18464.26
782.554	18319.86
782.888	18148.79
783.222	18169.35
783.556	18011.39
783.889	18016.81
784.223	17846.42
784.557	17875.58
784.89	17855.01
785.224	17695.01
785.557	17669.93
785.891	17616.6
786.224	17501.35
786.558	17553.55
786.891	17384.51
787.224	17310.17
787.557	17341.8
787.891	17332.76
788.224	17175.03
788.557	17301.58
788.89	17127.12
789.223	17105.2
789.556	16958.09
789.888	16861.36
790.221	16850.74
790.554	16689.17
790.887	16706.79
791.219	16702.5
791.552	16571.65
791.884	16490.75
792.217	16510.41
792.549	16503.63
792.882	16333.24
793.214	16314.03
793.546	16239.91
793.879	16212.34
794.211	16094.83
794.543	16082.85
794.875	16091.67
795.207	16041.05
795.539	16033.14
795.871	15939.13
796.203	15860.94
796.535	15766.7
796.867	15791.34
797.198	15752.47
797.53	15665.24
797.862	15528.74
798.193	15526.94
798.525	15476.77
798.856	15466.82
799.188	15369.65
799.519	15309.99
799.85	15255.98
800.182	15228.41
800.513	15220.73
800.844	15120.39
801.175	15137.12
801.506	15033.84
801.837	14984.35
802.168	15021.64
802.499	14858.93
802.83	14772.15
803.161	14727.18
803.491	14806.28
803.822	14878.59
804.153	14739.61
804.483	14585.04
804.814	14522.44
805.145	14491.94
805.475	14492.39
805.805	14496.91
806.136	14429.11
806.466	14410.13
806.796	14423.24
807.126	14283.35
807.457	14215.56
807.787	14261.66
808.117	14160.64
808.447	14085.62
808.777	14162.23
809.107	14054.88
809.436	14022.12
809.766	14070.7
810.096	13902.35
810.426	13915.91
810.755	13907.77
811.085	13847.66
811.414	13851.73
811.744	13731.5
812.073	13700.09
812.403	13649.02
812.732	13599.76
813.061	13656.93
813.39	13571.73
813.719	13511.17
814.049	13633.2
814.378	13547.55
814.707	13408.8
815.036	13450.83
815.365	13430.04
815.693	13233.89
816.022	13237.73
816.351	13221.01
816.68	13136.26
817.008	13221.69
817.337	13120.9
817.665	13076.83
817.994	13113.21
818.322	13104.4
818.651	13008.58
818.979	12986.89
819.307	13126.32
819.636	12966.33
819.964	12865.54
820.292	12844.75
820.62	12930.85
820.948	12874.35
821.276	12814.47
821.604	12833.45
821.932	12861.02
822.259	12848.81
822.587	12852.66
822.915	12791.19
823.243	12888.59
823.57	12743.51
823.898	12821.02
824.225	12709.16
824.553	12804.07
824.88	12817.18
825.207	12739.21
825.535	12764.75
825.862	12757.29
826.189	12736.73
826.516	12802.26
826.843	12708.71
827.17	12842.94
827.497	12817.4
827.824	12715.03
828.151	12768.82
828.478	12768.59
828.805	12755.26
829.131	12670.74
829.458	12741.47
829.785	12638.2
830.111	12682.49
830.438	12791.64
830.764	12710.06
831.09	12784.86
831.417	12673.23
831.743	12734.69
832.069	12707.8
832.395	12659.89
832.722	12777.18
833.048	12606.11
833.374	12590.74
833.7	12577.41
834.026	12599.78
834.351	12586.9
834.677	12598.88
835.003	12581.03
835.329	12550.74
835.654	12574.25
835.98	12459.9
836.306	12453.12
836.631	12393.01
836.956	12484.76
837.282	12457.19
837.607	12440.46
837.932	12367.7
838.258	12373.35
838.583	12300.35
838.908	12230.07
839.233	12299.68
839.558	12296.51
839.883	12179.23
840.208	12330.64
840.533	12220.36
840.858	12330.18
841.182	12285.89
841.507	12150.08
841.832	12099.46
842.156	12066.46
842.481	12084.32
842.805	12127.03
843.13	12034.6
843.454	12021.04
843.778	11843.87
844.103	11937.88
844.427	11886.35
844.751	11914.38
845.075	11933.36
845.399	11896.52
845.723	11792.8
846.047	11727.04
846.371	11700.14
846.695	11694.49
847.019	11575.63
847.343	11523.2
847.666	11511.45
847.99	11417.21
848.313	11508.51
848.637	11348.74
848.96	11388.51
849.284	11299.02
849.607	11199.14
849.931	11199.82
850.254	11078.47
850.577	11054.29
850.9	11000.28
851.223	10902.43
851.546	10886.15
851.869	10842.31
852.192	10936.77
852.515	10753.95
852.838	10754.18
853.161	10757.57
853.483	10721.86
853.806	10715.99
854.129	10708.08
854.451	10626.5
854.774	10605.03
855.096	10491.81
855.419	10547.86
855.741	10450.01
856.063	10406.85
856.385	10370.24
856.708	10329.33
857.03	10367.07
857.352	10417.47
857.674	10301.99
857.996	10263.12
858.318	10221.99
858.64	10172.5
858.961	10200.3
859.283	10180.64
859.605	10070.58
859.926	10100.19
860.248	10079.62
860.57	9940.19
860.891	10028.1
861.212	9971.6
861.534	9918.04
861.855	9914.2
862.176	9972.05
862.498	9926.63
862.819	9891.38
863.14	9871.04
863.461	9830.36
863.782	9758.05
864.103	9791.95
864.424	9743.81
864.745	9879.4
865.065	9773.42
865.386	9673.3
865.707	9710.37
866.027	9724.6
866.348	9697.71
866.668	9626.3
866.989	9674.21
867.309	9599.18
867.63	9637.15
867.95	9627.2
868.27	9515.34
868.59	9563.25
868.91	9534.78
869.23	9547.43
869.55	9466.08
869.87	9452.29
870.19	9494.78
870.51	9515.34
870.83	9439.86
871.15	9369.36
871.469	9346.08
871.789	9439.19
872.109	9323.71
872.428	9326.87
872.748	9365.29
873.067	9341.79
873.386	9404.61
873.706	9253.2
874.025	9253.43
874.344	9199.42
874.663	9225.63
874.982	9253.65
875.301	9237.61
875.62	9194.67
875.939	9149.93
876.258	9200.78
876.577	9123.04
876.896	9165.75
877.214	9133.66
877.533	9025.86
877.852	9083.94
878.17	9044.17
878.489	9129.14
878.807	9018.41
879.125	9086.43
879.444	9050.95
879.762	8941.57
880.08	8996.03
880.398	8933.21
880.716	8915.58
881.034	8943.38
881.352	8874.91
881.67	8867.22
881.988	8935.25
882.306	8889.6
882.624	8845.76
882.941	8843.5
883.259	8800.11
883.577	8798.75
883.894	8751.52
884.212	8655.93
884.529	8746.55
884.846	8675.14
885.164	8697.29
885.481	8663.16
885.798	8690.05
886.115	8584.52
886.432	8558.53
886.75	8557.63
887.067	8573.45
887.383	8528.93
887.7	8528.48
888.017	8433.11
888.334	8497.06
888.651	8469.95
888.967	8441.47
889.284	8389.27
889.6	8353.11
889.917	8314.92
890.233	8376.84
890.55	8337.52
890.866	8303.4
891.182	8237.64
891.498	8247.35
891.815	8168.03
892.131	8204.87
892.447	8148.83
892.763	8150.86
893.079	8137.98
893.395	8166
893.71	8130.07
894.026	8083.74
894.342	8033.12
894.657	8016.85
894.973	7952.22
895.289	7963.52
895.604	7955.38
895.92	7904.31
896.235	7880.36
896.55	7860.92
896.865	7866.57
897.181	7803.07
897.496	7758.78
897.811	7782.28
898.126	7747.71
898.441	7681.94
898.756	7706.35
899.071	7581.16
899.386	7664.54
899.7	7622.06
900.015	7583.19
900.33	7533.47
900.644	7514.04
900.959	7472.46
901.273	7474.27
901.588	7415.74
901.902	7421.39
902.216	7380.71
902.531	7343.65
902.845	7330.09
903.159	7210.77
903.473	7264.55
903.787	7288.28
904.101	7168.74
904.415	7181.85
904.729	7190.66
905.042	7087.61
905.356	7070.21
905.67	7097.33
905.984	7062.75
906.297	7040.15
906.611	6952.02
906.924	6976.43
907.237	6923.77
907.551	6961.74
907.864	6939.14
908.177	6872.7
908.491	6843.55
908.804	6838.35
909.117	6775.98
909.43	6783.44
909.743	6708.64
910.056	6705.93
910.368	6682.88
910.681	6591.35
910.994	6664.8
911.307	6575.76
911.619	6511.58
911.932	6532.14
912.244	6523.33
912.557	6498.7
912.869	6480.39
913.181	6407.85
913.494	6458.93
913.806	6347.06
914.118	6404.69
914.43	6329.66
914.742	6357.69
915.054	6287.41
915.366	6249.67
915.678	6230.91
915.99	6216.9
916.302	6162.21
916.613	6123.34
916.925	6137.8
917.236	6105.04
917.548	6068.43
917.859	6084.02
918.171	5969.22
918.482	6040.86
918.794	6004.7
919.105	5996.34
919.416	5926.06
919.727	5915.66
920.038	5901.65
920.349	5806.51
920.66	5805.61
920.971	5860.3
921.282	5771.71
921.593	5736.23
921.903	5713.18
922.214	5715.22
922.525	5689.68
922.835	5637.48
923.146	5674.31
923.456	5611.72
923.767	5622.11
924.077	5549.12
924.387	5583.02
924.697	5499.18
925.008	5545.96
925.318	5513.19
925.628	5464.6
925.938	5434.09
926.248	5417.82
926.558	5405.17
926.867	5386.41
927.177	5362.01
927.487	5331.72
927.796	5235
928.106	5296.24
928.416	5250.82
928.725	5263.48
929.034	5184.16
929.344	5226.64
929.653	5211.95
929.962	5172.63
930.271	5153.65
930.581	5121.79
930.89	5138.96
931.199	5088.57
931.508	5063.93
931.817	4993.43
932.125	5003.15
932.434	4976.03
932.743	4954.33
933.051	4917.05
933.36	4901
933.669	4849.03
933.977	4839.53
934.286	4845.86
934.594	4816.26
934.902	4799.31
935.21	4762.02
935.519	4762.47
935.827	4712.76
936.135	4716.6
936.443	4662.59
936.751	4663.27
937.059	4632.08
937.367	4629.82
937.674	4657.84
937.982	4592.99
938.29	4631.86
938.597	4583.5
938.905	4489.49
939.213	4519.09
939.52	4516.38
939.827	4506.44
940.135	4508.47
940.442	4459.66
940.749	4473.89
941.056	4434.35
941.363	4424.18
941.67	4369.72
941.977	4336.95
942.284	4367.46
942.591	4354.12
942.898	4285.42
943.205	4312.77
943.511	4261.02
943.818	4251.3
944.125	4237.06
944.431	4198.87
944.738	4136.28
945.044	4206.33
945.35	4156.16
945.657	4135.15
945.963	4126.33
946.269	4112.77
946.575	4104.19
946.881	4045.43
947.187	4069.38
947.493	4035.26
947.799	4014.92
948.105	4008.37
948.41	3951.42
948.716	3996.62
949.022	3961.36
949.327	3962.27
949.633	3891.08
949.938	3878.43
950.244	3920.91
950.549	3889.95
950.854	3867.81
951.16	3821.71
951.465	3788.26
951.77	3804.76
952.075	3748.04
952.38	3759.79
952.685	3734.25
952.99	3770.41
953.294	3706.91
953.599	3698.55
953.904	3673.69
954.209	3667.59
954.513	3635.5
954.818	3641.15
955.122	3645.44
955.426	3621.94
955.731	3621.26
956.035	3551.21
956.339	3592.11
956.643	3590.3
956.948	3566.8
957.252	3520.7
957.556	3527.93
957.86	3485.9
958.163	3491.09
958.467	3444.32
958.771	3452.68
959.075	3453.58
959.378	3413.36
959.682	3452.45
959.985	3393.92
960.289	3384.88
960.592	3337.88
960.896	3351.44
961.199	3348.05
961.502	3355.5
961.805	3322.96
962.108	3317.99
962.411	3291.33
962.714	3232.8
963.017	3230.31
963.32	3213.81
963.623	3213.81
963.926	3207.71
964.228	3148.5
964.531	3169.3
964.833	3177.2
965.136	3142.63
965.438	3118.45
965.741	3143.08
966.043	3080.48
966.345	3112.12
966.648	3086.13
966.95	3091.11
967.252	3042.52
967.554	3043.65
967.856	3062.41
968.158	3017.43
968.46	2992.12
968.761	2976.98
969.063	2974.05
969.365	2973.37
969.666	2916.19
969.968	2963.88
970.269	2918.45
970.571	2946.48
970.872	2900.6
971.174	2859.47
971.475	2896.08
971.776	2831.22
972.077	2858.12
972.378	2815.63
972.679	2831.45
972.98	2795.97
973.281	2823.99
973.582	2798.01
973.883	2793.71
974.183	2762.07
974.484	2770.89
974.785	2755.52
975.085	2724.56
975.386	2690.21
975.686	2719.59
975.986	2717.1
976.287	2695.86
976.587	2659.25
976.887	2647.05
977.187	2621.06
977.487	2631.91
977.787	2633.94
978.087	2605.47
978.387	2627.61
978.687	2561.85
978.987	2548.75
979.286	2571.57
979.586	2561.18
979.885	2532.25
980.185	2564.57
980.484	2518.92
980.784	2498.58
981.083	2532.93
981.382	2515.08
981.682	2539.26
981.981	2486.6
982.28	2515.98
982.579	2457.22
982.878	2451.8
983.177	2415.64
983.475	2448.86
983.774	2407.96
984.073	2417.45
984.372	2375.19
984.67	2383.1
984.969	2358.7
985.267	2394.4
985.566	2358.7
985.864	2367.96
986.162	2338.36
986.461	2332.93
986.759	2327.96
987.057	2308.53
987.355	2269.21
987.653	2259.94
987.951	2254.74
988.249	2245.93
988.547	2229.43
988.844	2260.84
989.142	2222.65
989.44	2217.91
989.737	2200.28
990.035	2215.42
990.332	2198.02
990.63	2188.98
990.927	2147.4
991.224	2184.91
991.521	2166.38
991.819	2156.21
992.116	2146.05
992.413	2143.11
992.71	2117.12
993.006	2111.7
993.303	2105.59
993.6	2080.06
993.897	2065.6
994.193	2074.41
994.49	2066.05
994.787	2063.11
995.083	2041.87
995.379	2016.56
995.676	2015.2
995.972	1979.5
996.268	1986.95
996.565	1958.48
996.861	1975.2
997.157	1966.61
997.453	1950.12
997.749	1937.69
998.044	1910.57
998.34	1918.03
998.636	1902.89
998.932	1911.7
999.227	1889.55
999.523	1877.13
999.818	1896.56
1000.114	1862.66
1000.409	1862.21
1000.704	1862.66
1001	1847.3
1001.295	1840.74
1001.59	1832.83
1001.885	1832.61
1002.18	1799.84
1002.475	1789.44
1002.77	1794.64
1003.065	1787.41
1003.359	1768.43
1003.654	1772.72
1003.949	1740.41
1004.243	1724.36
1004.538	1752.38
1004.832	1715.32
1005.127	1681.88
1005.421	1713.29
1005.715	1698.15
1006.009	1721.2
1006.304	1692.95
1006.598	1638.71
1006.892	1654.31
1007.186	1655.66
1007.48	1616.34
1007.773	1640.52
1008.067	1624.48
1008.361	1617.02
1008.655	1589.45
1008.948	1606.4
1009.242	1569.34
1009.535	1568.66
1009.829	1546.96
1010.122	1554.65
1010.415	1537.25
1010.708	1538.38
1011.001	1523.24
1011.295	1544.71
1011.588	1507.87
1011.881	1519.4
1012.173	1487.98
1012.466	1482.11
1012.759	1501.09
1013.052	1471.49
1013.344	1467.19
1013.637	1463.35
1013.93	1449.79
1014.222	1425.84
1014.514	1445.5
1014.807	1429.91
1015.099	1373.18
1015.391	1391.71
1015.683	1409.57
1015.976	1422.45
1016.268	1400.08
1016.56	1360.3
1016.851	1361.21
1017.143	1337.03
1017.435	1356.24
1017.727	1360.3
1018.018	1333.19
1018.31	1300.64
1018.602	1314.65
1018.893	1327.99
1019.185	1312.39
1019.476	1276.69
1019.767	1278.72
1020.058	1300.64
1020.35	1266.52
1020.641	1259.51
1020.932	1247.31
1021.223	1253.41
1021.514	1222.91
1021.804	1224.94
1022.095	1245.73
1022.386	1233.53
1022.677	1209.35
1022.967	1207.76
1023.258	1179.07
1023.548	1183.13
1023.839	1189.23
1024.129	1177.94
1024.419	1187.65
1024.709	1186.07
1025	1152.17
1025.29	1159.18
1025.58	1131.83
1025.87	1131.38
1026.16	1125.96
1026.449	1137.26
1026.739	1125.73
1027.029	1106.75
1027.319	1119.63
1027.608	1102.91
1027.898	1075.79
1028.187	1080.99
1028.477	1076.69
1028.766	1069.69
1029.055	1087.77
1029.344	1062.23
1029.634	1030.37
1029.923	1037.83
1030.212	1049.58
1030.501	1028.11
1030.79	1027.88
1031.078	1016.58
1031.367	1012.52
1031.656	998.96
1031.945	1013.87
1032.233	1004.38
1032.522	987.88
1032.81	949.69
1033.099	965.74
1033.387	973.87
1033.675	955.57
1033.963	956.25
1034.251	947.66
1034.54	916.47
1034.828	925.29
1035.116	928.22
1035.403	927.09
1035.691	915.34
1035.979	939.75
1036.267	902.01
1036.554	877.83
1036.842	892.74
1037.129	899.52
1037.417	892.29
1037.704	898.85
1037.992	876.47
1038.279	864.72
1038.566	862.92
1038.853	862.92
1039.14	862.92
