Data from hue_20_FLMS001491_63.txt Node
Date: Mon Feb 06 15:34:27 GMT 2017
User: dcchb
Spectrometer: FLMS00149
Trigger mode: 0
Integration Time (sec): 2.000000E-2
Scans to average: 10
Electric dark correction enabled: true
Nonlinearity correction enabled: false
Boxcar width: 0
XAxis mode: Wavelengths
Number of Pixels in Spectrum: 2048
>>>>>Begin Spectral Data<<<<<
341.393	-23.4
341.776	-23.4
342.16	-23.4
342.543	-40.13
342.927	-70.41
343.31	-67.92
343.693	-63.4
344.077	-84.64
344.46	-70.18
344.843	-45.78
345.226	-38.32
345.61	-29.05
345.993	-14.82
346.376	-14.36
346.759	8.23
347.142	36.48
347.525	30.15
347.908	77.38
348.291	68.8
348.674	85.07
349.057	122.36
349.44	109.93
349.823	137.04
350.206	156.03
350.588	194.9
350.971	210.71
351.354	244.16
351.737	242.58
352.119	239.41
352.502	255.23
352.884	259.98
353.267	277.15
353.65	298.62
354.032	303.37
354.414	295.91
354.797	317.83
355.179	340.2
355.562	343.37
355.944	327.55
356.326	328.68
356.709	343.82
357.091	333.42
357.473	349.24
357.855	352.63
358.238	325.06
358.62	336.59
359.002	324.16
359.384	343.59
359.766	344.04
360.148	340.2
360.53	337.04
360.912	344.27
361.294	332.07
361.676	323.48
362.057	336.36
362.439	308.79
362.821	316.25
363.203	369.58
363.584	343.82
363.966	329.13
364.348	331.16
364.729	315.8
365.111	312.41
365.493	322.35
365.874	309.02
366.256	300.43
366.637	310.37
367.019	301.56
367.4	314.67
367.781	324.61
368.163	299.98
368.544	323.03
368.925	319.41
369.306	300.43
369.688	298.85
370.069	324.61
370.45	331.16
370.831	325.74
371.212	310.15
371.593	329.36
371.974	318.51
372.355	312.63
372.736	314.67
373.117	315.57
373.498	316.47
373.879	324.84
374.26	314.67
374.641	305.85
375.021	311.28
375.402	313.54
375.783	316.7
376.163	328
376.544	323.48
376.925	329.36
377.305	338.85
377.686	318.28
378.066	328.45
378.447	340.2
378.827	332.75
379.208	346.53
379.588	327.77
379.968	335.46
380.349	332.75
380.729	339.3
381.109	336.14
381.489	343.37
381.87	336.14
382.25	346.98
382.63	343.14
383.01	331.16
383.39	335.01
383.77	350.6
384.15	333.65
384.53	335.91
384.91	332.29
385.29	343.14
385.67	356.25
386.049	350.6
386.429	360.32
386.809	346.76
387.189	363.48
387.568	353.08
387.948	349.69
388.328	354.89
388.707	373.2
389.087	365.06
389.466	370.03
389.846	362.8
390.225	350.82
390.605	339.52
390.984	371.84
391.363	367.55
391.743	376.36
392.122	357.83
392.501	365.06
392.881	349.47
393.26	356.02
393.639	376.59
394.018	367.55
394.397	364.16
394.776	368.9
395.155	387.43
395.534	384.04
395.913	379.75
396.292	375.91
396.671	372.07
397.05	372.29
397.429	371.16
397.808	381.78
398.186	384.27
398.565	380.43
398.944	375.46
399.323	389.69
399.701	392.4
400.08	403.03
400.458	376.59
400.837	394.44
401.215	408.9
401.594	393.31
401.972	364.16
402.351	401.44
402.729	397.38
403.107	382.46
403.486	402.8
403.864	393.76
404.242	397.83
404.62	412.07
404.999	412.97
405.377	389.47
405.755	410.71
406.133	393.08
406.511	423.36
406.889	425.62
407.267	400.09
407.645	418.17
408.023	420.2
408.401	448.9
408.779	446.64
409.156	421.56
409.534	435.79
409.912	445.28
410.29	422.23
410.667	437.38
411.045	437.6
411.422	450.93
411.8	429.01
412.178	457.04
412.555	465.62
412.933	463.14
413.31	445.51
413.687	475.34
414.065	461.1
414.442	465.17
414.819	472.4
415.197	451.16
415.574	486.19
415.951	483.02
416.328	471.05
416.705	481.44
417.082	470.14
417.46	487.32
417.837	489.13
418.214	495.45
418.591	466.3
418.967	492.97
419.344	486.87
419.721	484.38
420.098	488
420.475	519.41
420.852	513.31
421.228	496.13
421.605	519.18
421.982	504.27
422.358	504.27
422.735	533.64
423.111	513.76
423.488	527.99
423.864	521.89
424.241	533.19
424.617	533.42
424.994	527.32
425.37	525.96
425.746	538.39
426.123	548.79
426.499	543.81
426.875	541.78
427.251	552.63
427.627	526.19
428.003	542.46
428.379	565.96
428.756	541.1
429.132	571.38
429.507	583.13
429.883	549.91
430.259	596.24
430.635	572.74
431.011	570.03
431.387	598.95
431.763	588.33
432.138	582.23
432.514	605.73
432.89	608.44
433.265	614.77
433.641	596.69
434.016	618.39
434.392	611.83
434.767	620.87
435.143	647.54
435.518	633.53
435.894	649.57
436.269	633.53
436.644	674.66
437.02	655.45
437.395	632.4
437.77	677.6
438.145	682.34
438.52	661.32
438.895	674.88
439.271	673.75
439.646	674.43
440.021	706.75
440.395	705.62
440.77	692.51
441.145	684.15
441.52	711.04
441.895	707.42
442.27	702
442.645	752.85
443.019	719.4
443.394	709.91
443.769	735.9
444.143	720.76
444.518	734.09
444.892	746.75
445.267	752.17
445.641	749.23
446.016	758.72
446.39	740.19
446.764	769.34
447.139	767.99
447.513	778.38
447.887	757.59
448.262	777.25
448.636	786.29
449.01	791.49
449.384	789.23
449.758	804.6
450.132	787.87
450.506	800.3
450.88	815.22
451.254	794.43
451.628	817.93
452.002	811.15
452.376	810.47
452.75	821.55
453.123	825.39
453.497	841.43
453.871	820.19
454.244	859.51
454.618	859.96
454.992	867.65
455.365	878.49
455.739	882.11
456.112	902.67
456.486	883.47
456.859	916.46
457.232	940.64
457.606	897.93
457.979	920.98
458.352	942.9
458.725	934.99
459.099	932.73
459.472	936.8
459.845	992.16
460.218	983.12
460.591	975.21
460.964	1005.27
461.337	1019.06
461.71	1013.18
462.083	1041.43
462.456	1042.11
462.829	1037.81
463.201	1058.15
463.574	1075.32
463.947	1073.07
464.32	1090.01
464.692	1110.58
465.065	1111.03
465.438	1127.75
465.81	1143.57
466.183	1140.86
466.555	1183.8
466.928	1175.66
467.3	1154.42
467.672	1189.9
468.045	1211.59
468.417	1212.04
468.789	1244.36
469.161	1224.47
469.534	1227.86
469.906	1277.81
470.278	1285.49
470.65	1317.13
471.022	1325.94
471.394	1355.09
471.766	1337.24
472.138	1365.03
472.51	1384.7
472.882	1426.95
473.253	1414.3
473.625	1428.08
473.997	1477.57
474.369	1500.62
474.74	1525.03
475.112	1535.43
475.484	1574.75
475.855	1588.08
476.227	1577.68
476.598	1660.39
476.97	1637.8
477.341	1680.28
477.713	1715.31
478.084	1732.48
478.455	1777.68
478.827	1810.45
479.198	1845.7
479.569	1841.86
479.94	1946.49
480.311	1924.34
480.682	1996.2
481.053	2012.02
481.424	2050.21
481.795	2096.31
482.166	2106.26
482.537	2120.72
482.908	2235.75
483.279	2227.84
483.65	2219.7
484.021	2285.91
484.391	2324.78
484.762	2336.08
485.133	2376.99
485.503	2434.39
485.874	2432.35
486.244	2478.9
486.615	2533.14
486.985	2612.69
487.356	2615.85
487.726	2646.36
488.097	2689.75
488.467	2761.16
488.837	2780.36
489.207	2831.66
489.578	2868.5
489.948	2895.62
490.318	2944.88
490.688	2969.06
491.058	3025.33
491.428	3048.61
491.798	3127.7
492.168	3171.09
492.538	3188.04
492.908	3240.01
493.278	3269.39
493.648	3209.28
494.017	3301.71
494.387	3355.72
494.757	3383.29
495.126	3424.64
495.496	3457.18
495.866	3437.97
496.235	3513
496.605	3546.9
496.974	3576.73
497.344	3618.53
497.713	3647.69
498.082	3670.96
498.452	3710.96
498.821	3737.18
499.19	3732.88
499.559	3755.71
499.928	3795.71
500.298	3828.02
500.667	3847
501.036	3853.78
501.405	3893.1
501.774	3910.5
502.143	3955.02
502.512	3978.75
502.88	3998.19
503.249	4031.63
503.618	4009.71
503.987	4047.9
504.356	4128.58
504.724	4073.89
505.093	4107.11
505.462	4106.88
505.83	4150.5
506.199	4211.74
506.567	4269.59
506.936	4221.46
507.304	4266.65
507.672	4321.79
508.041	4309.82
508.409	4325.18
508.777	4368.35
509.145	4418.74
509.514	4391.4
509.882	4408.8
510.25	4434.33
510.618	4468
510.986	4537.83
511.354	4531.28
511.722	4549.36
512.09	4581.67
512.458	4597.27
512.826	4597.04
513.193	4602.92
513.561	4608.79
513.929	4668.68
514.297	4718.84
514.664	4707.32
515.032	4694.21
515.4	4759.97
515.767	4773.98
516.135	4805.62
516.502	4780.76
516.869	4849.24
517.237	4856.02
517.604	4862.12
517.972	4894.21
518.339	4880.2
518.706	4952.96
519.073	4932.17
519.44	4960.65
519.808	4977.14
520.175	4985.73
520.542	5051.27
520.909	5083.58
521.276	5079.29
521.643	5137.36
522.009	5135.56
522.376	5149.12
522.743	5213.07
523.11	5217.81
523.477	5279.51
523.843	5308.21
524.21	5327.64
524.577	5357.25
524.943	5391.37
525.31	5459.16
525.676	5458.03
526.043	5465.04
526.409	5499.39
526.776	5545.72
527.142	5532.61
527.508	5569.67
527.874	5617.8
528.241	5667.07
528.607	5656.67
528.973	5719.95
529.339	5716.56
529.705	5759.27
530.071	5808.31
530.437	5790.91
530.803	5816.22
531.169	5857.57
531.535	5871.36
531.901	5895.76
532.267	5993.16
532.632	5979.6
532.998	5976.89
533.364	5993.16
533.73	6032.03
534.095	6086.72
534.461	6126.94
534.826	6079.94
535.192	6116.77
535.557	6178.69
535.923	6171.91
536.288	6207.17
536.653	6250.56
537.019	6242.65
537.384	6269.09
537.749	6342.53
538.114	6305.7
538.479	6351.34
538.845	6354.28
539.21	6423.88
539.575	6417.56
539.94	6431.57
540.305	6468.63
540.67	6484.67
541.034	6482.41
541.399	6611.9
541.764	6542.3
542.129	6654.39
542.494	6644.44
542.858	6635.86
543.223	6638.34
543.587	6700.26
543.952	6729.19
544.316	6662.52
544.681	6767.38
545.045	6770.32
545.41	6789.52
545.774	6899.58
546.138	6839.02
546.503	6875.85
546.867	6912.46
547.231	6913.59
547.595	6941.16
547.959	7007.82
548.324	7026.35
548.688	7010.31
549.052	7055.51
549.416	7090.99
549.779	7135.96
550.143	7108.39
550.507	7168.72
550.871	7189.06
551.235	7139.12
551.599	7205.56
551.962	7285.11
552.326	7272.45
552.689	7342.05
553.053	7257.31
553.417	7332.79
553.78	7429.73
554.143	7358.55
554.507	7471.09
554.87	7419.34
555.234	7493.24
555.597	7488.94
555.96	7533.91
556.323	7511.09
556.686	7542.05
557.05	7621.37
557.413	7663.17
557.776	7632.44
558.139	7664.53
558.502	7732.78
558.865	7741.14
559.228	7765.32
559.59	7786.33
559.953	7841.47
560.316	7886.9
560.679	7901.36
561.041	7903.85
561.404	7968.48
561.767	7902.26
562.129	7973.67
562.492	8007.57
562.854	8085.76
563.217	8024.75
563.579	8111.3
563.941	8153.78
564.304	8191.75
564.666	8192.65
565.028	8170.05
565.39	8242.37
565.753	8267.9
566.115	8285.76
566.477	8344.29
566.839	8384.74
567.201	8458.18
567.563	8392.87
567.925	8475.81
568.287	8461.8
568.648	8490.95
569.01	8494.79
569.372	8615.24
569.734	8603.26
570.095	8663.15
570.457	8698.85
570.819	8737.04
571.18	8729.36
571.542	8764.84
571.903	8807.78
572.265	8883.26
572.626	8947.21
572.987	8948.11
573.349	8962.12
573.71	9085.28
574.071	9070.59
574.432	9107.43
574.794	9244.83
575.155	9287.76
575.516	9237.14
575.877	9258.39
576.238	9373.86
576.599	9418.16
576.96	9523.01
577.32	9492.5
577.681	9694.53
578.042	9696.79
578.403	9766.62
578.763	9843.91
579.124	9866.28
579.485	9966.39
579.845	10138.36
580.206	10196.21
580.566	10264.46
580.927	10365.25
581.287	10511.23
581.648	10459.71
582.008	10650.21
582.368	10781.51
582.728	10904.67
583.089	11021.5
583.449	11187.6
583.809	11315.06
584.169	11473.47
584.529	11530.87
584.889	11839.11
585.249	11893.35
585.609	12040.23
585.969	12285.65
586.329	12507.57
586.688	12667.56
587.048	12804.73
587.408	12985.97
587.768	13212.18
588.127	13390.03
588.487	13586.41
588.846	13950.01
589.206	13990.24
589.565	14272.72
589.925	14555.87
590.284	14641.97
590.643	15000.16
591.003	15197.67
591.362	15440.82
591.721	15737.99
592.08	15973.46
592.44	16149.96
592.799	16557.63
593.158	16622.94
593.517	16885.98
593.876	17228.12
594.235	17610.03
594.593	17791.27
594.952	18156.68
595.311	18361.88
595.67	18655.88
596.029	18965.48
596.387	19289.31
596.746	19600.26
597.104	19725.68
597.463	20130.42
597.822	20358.66
598.18	20599.33
598.538	20839.55
598.897	21325.64
599.255	21432.53
599.613	21926.08
599.972	22072.06
600.33	22482.67
600.688	22671.82
601.046	23034.52
601.404	23292.82
601.762	23499.37
602.12	23955.18
602.478	24174.38
602.836	24508.61
603.194	24596.29
603.552	24916.05
603.91	25166.67
604.268	25472.88
604.625	25704.51
604.983	25932.52
605.341	26202.35
605.698	26460.42
606.056	26865.38
606.413	26925.94
606.771	27172.04
607.128	27461.3
607.485	27693.38
607.843	27835.53
608.2	28210.2
608.557	28470.76
608.914	28587.14
609.272	28825.33
609.629	29073.23
609.986	29399.1
610.343	29567.46
610.7	30003.83
611.057	30200.66
611.414	30406.98
611.771	30469.35
612.127	30733.53
612.484	30860.53
612.841	31313.4
613.198	31269.79
613.554	31482.89
613.911	31719.49
614.267	31890.79
614.624	31929.88
614.98	32161.29
615.337	32478.34
615.693	32502.75
616.05	32689.41
616.406	33055.05
616.762	33081.71
617.118	33166.23
617.475	33392.22
617.831	33551.99
618.187	33712.21
618.543	33856.84
618.899	34196.94
619.255	34177.05
619.611	34346.77
619.967	34471.96
620.323	34644.84
620.678	34784.95
621.034	34748.79
621.39	34921.21
621.746	34957.15
622.101	35220.87
622.457	35181.09
622.812	35262.22
623.168	35609.56
623.523	35597.58
623.879	35810
624.234	35670.57
624.589	35819.72
624.945	36063.78
625.3	36105.36
625.655	36061.75
626.01	36138.81
626.365	36377
626.72	36271.24
627.075	36537.22
627.43	36325.47
627.785	36502.42
628.14	36618.8
628.495	36578.35
628.85	36585.13
629.205	36628.97
629.559	36866.47
629.914	36666.48
630.269	36842.52
630.623	36875.97
630.978	36732.24
631.332	36984.66
631.687	36994.38
632.041	36926.13
632.396	37021.72
632.75	36819.24
633.104	37098.78
633.459	36920.48
633.813	37038.22
634.167	37167.48
634.521	37025.34
634.875	37177.2
635.229	37137.2
635.583	37005
635.937	37137.88
636.291	37085.9
636.645	37154.83
636.999	37063.31
637.352	37248.16
637.706	37062.63
638.06	37262.62
638.413	37192.34
638.767	37052.01
639.121	37013.14
639.474	36919.81
639.828	36974.04
640.181	37111.44
640.534	37101.27
640.888	37076.64
641.241	36859.24
641.594	36956.19
641.947	37223.98
642.301	37083.87
642.654	37014.49
643.007	37110.08
643.36	37165.68
643.713	36909.86
644.066	37112.12
644.419	36983.31
644.771	36631
645.124	36407.73
645.477	36292.03
645.83	36243.67
646.182	36022.88
646.535	35897.69
646.888	36129.32
647.24	35874.41
647.593	36003.9
647.945	36015.65
648.298	35875.54
648.65	35682.78
649.002	35662.44
649.355	35873.05
649.707	35769.1
650.059	35858.14
650.411	36392.81
650.763	36360.72
651.115	36668.51
651.467	36686.37
651.819	36644.33
652.171	36642.53
652.523	36530.21
652.875	36384.45
653.227	36368.63
653.578	36578.57
653.93	36501.06
654.282	36397.56
654.633	36316.88
654.985	36437.78
655.337	36481.4
655.688	36455.86
656.039	36540.83
656.391	36349.2
656.742	36244.8
657.094	36369.99
657.445	36472.81
657.796	36330.44
658.147	36364.34
658.498	36333.15
658.849	36378.35
659.2	36295.87
659.551	36393.94
659.902	36506.48
660.253	36267.85
660.604	36233.27
660.955	36132.93
661.306	36188.98
661.656	36314.17
662.007	36196.21
662.358	36153.72
662.708	36150.56
663.059	36197.34
663.409	36074.4
663.76	36319.14
664.11	36283.66
664.461	36184.01
664.811	36221.07
665.161	36351.46
665.511	36102.88
665.862	36267.85
666.212	36282.99
666.562	36318.69
666.912	36219.94
667.262	36062.2
667.612	36084.35
667.962	36225.59
668.312	36130.9
668.662	36353.27
669.011	36147.17
669.361	36147.85
669.711	36024.46
670.06	36110.34
670.41	36039.38
670.76	35894.52
671.109	36115.99
671.459	36118.47
671.808	35904.24
672.157	36087.06
672.507	35830.12
672.856	35798.48
673.205	36034.18
673.554	36012.94
673.904	35915.76
674.253	36042.32
674.602	35934.07
674.951	35398.72
675.3	35228.33
675.649	35883.68
675.998	35751.93
676.346	35782.66
676.695	35838.48
677.044	35700.63
677.393	35790.57
677.741	35731.36
678.09	35610.46
678.438	35538.83
678.787	35728.65
679.135	35766.84
679.484	35356.23
679.832	35505.15
680.181	35359.62
680.529	35471.71
680.877	35469.45
681.225	35212.51
681.573	35548.77
681.922	35280.53
682.27	35174.99
682.618	35186.07
682.966	35097.03
683.314	35062
683.661	35024.94
684.009	34947.2
684.357	34906.75
684.705	34831.05
685.053	34875.79
685.4	34819.07
685.748	34560.77
686.095	34670.83
686.443	34352.64
686.79	34386.99
687.138	34448.91
687.485	34500.66
687.832	34393.32
688.18	34343.38
688.527	34183.15
688.874	34162.59
689.221	34176.15
689.568	34116.26
689.915	34040.33
690.262	34030.62
690.609	33823.84
690.956	33810.74
691.303	33680.8
691.65	33596.28
691.997	33588.14
692.344	33339.79
692.69	33489.84
693.037	33454.13
693.383	33072.22
693.73	33183.63
694.077	33071.32
694.423	32929.18
694.769	32893.7
695.116	32846.47
695.462	32746.81
695.808	32680.6
696.155	32718.11
696.501	32430.21
696.847	32485.57
697.193	32271.79
697.539	32341.17
697.885	32152.02
698.231	32003.78
698.577	32166.94
698.923	32000.61
699.269	31982.31
699.614	31708.87
699.96	31765.82
700.306	31758.13
700.651	31614.41
700.997	31487.63
701.342	31512.72
701.688	31509.78
702.033	31366.28
702.379	31373.51
702.724	31153.86
703.069	31368.09
703.415	30950.47
703.76	30968.78
704.105	30922.45
704.45	30961.32
704.795	30640.42
705.14	30620.31
705.485	30573.76
705.83	30489.24
706.175	30508.9
706.52	30370.83
706.865	30242.24
707.209	30123.83
707.554	30110.72
707.899	30189.14
708.243	29988.91
708.588	29925.87
708.932	29714.12
709.277	29635.7
709.621	29611.75
709.966	29459.21
710.31	29689.94
710.654	29324.53
710.998	29440.68
711.342	29349.61
711.687	29366.11
712.031	29220.57
712.375	29071.65
712.719	29248.82
713.063	29121.82
713.407	29267.35
713.75	29052.67
714.094	28978.77
714.438	28877.76
714.782	28851.77
715.125	28800.92
715.469	28838.44
715.812	28760.25
716.156	28536.75
716.499	28566.58
716.843	28569.97
717.186	28410.65
717.53	28614.49
717.873	28510.99
718.216	28429.41
718.559	28203.65
718.902	28128.17
719.246	28268.28
719.589	27950.55
719.932	27961.4
720.275	27988.74
720.617	27851.34
720.96	27917.56
721.303	27734.51
721.646	27784.91
721.989	27633.27
722.331	27770.89
722.674	27619.94
723.016	27726.38
723.359	27553.5
723.701	27770.44
724.044	27454.52
724.386	27414.97
724.729	27535.65
725.071	27411.81
725.413	27494.29
725.755	27338.36
726.097	27253.17
726.439	27145.6
726.782	27182.43
727.124	27233.73
727.465	27099.05
727.807	27080.29
728.149	27002.1
728.491	26914.65
728.833	26974.53
729.175	26768.21
729.516	26898.37
729.858	26789.22
730.199	26793.97
730.541	26668.78
730.882	26645.73
731.224	26750.13
731.565	26566.86
731.906	26546.52
732.248	26620.64
732.589	26416.35
732.93	26343.14
733.271	26350.82
733.612	26518.27
733.953	26470.14
734.294	26303.14
734.635	26154.89
734.976	26304.49
735.317	26141.33
735.658	26223.82
735.999	26102.46
736.339	26074.44
736.68	26136.59
737.021	25956.03
737.361	25911.73
737.702	26041.9
738.042	25998.06
738.383	25924.16
738.723	25899.53
739.063	25945.86
739.404	25864.05
739.744	25725.75
740.084	25627.9
740.424	25782.47
740.764	25543.83
741.104	25724.85
741.444	25523.04
741.784	25394.46
742.124	25570.05
742.464	25458.19
742.804	25358.53
743.143	25403.95
743.483	25440.79
743.823	25288.93
744.162	25381.58
744.502	25387.91
744.841	25184.97
745.181	25272.43
745.52	25148.82
745.86	25220.45
746.199	25122.15
746.538	25023.85
746.877	25119.89
747.216	25122.38
747.556	25074.02
747.895	25116.5
748.234	24942.04
748.573	24820.92
748.911	24786.79
749.25	24857.07
749.589	24667.7
749.928	24683.52
750.267	24813.68
750.605	24624.76
750.944	24631.99
751.283	24512.9
751.621	24611.66
751.96	24443.75
752.298	24434.26
752.636	24388.84
752.975	24341.15
753.313	24276.3
753.651	24411.89
753.989	24194.04
754.327	24218.9
754.666	24169.63
755.004	24231.78
755.342	24150.65
755.679	24101.61
756.017	23923.09
756.355	23982.52
756.693	23955.63
757.031	23938
757.368	23757.89
757.706	23715.63
758.044	23741.85
758.381	23826.82
758.719	23686.48
759.056	23607.16
759.394	23516.09
759.731	23364.46
760.068	23409.65
760.405	23296.21
760.743	23173.5
761.08	23328.3
761.417	23208.3
761.754	23044.01
762.091	22934.64
762.428	22947.52
762.765	22780.52
763.102	22801.08
763.438	22711.82
763.775	22600.18
764.112	22650.8
764.449	22767.86
764.785	22559.05
765.122	22344.82
765.458	22298.72
765.795	22223.92
766.131	22303.92
766.467	22185.73
766.804	22177.37
767.14	22043.59
767.476	22007.2
767.812	21912.52
768.148	21917.04
768.485	21801.56
768.821	21663.48
769.157	21639.53
769.492	21673.65
769.828	21607.21
770.164	21383.94
770.5	21394.56
770.836	21290.16
771.171	21136.72
771.507	21163.16
771.842	20963.16
772.178	20973.11
772.513	20974.91
772.849	20819.89
773.184	20705.77
773.519	20705.32
773.855	20654.47
774.19	20578.54
774.525	20443.4
774.86	20456.96
775.195	20497.19
775.53	20441.6
775.865	20286.57
776.2	20061.04
776.535	20038.89
776.87	20052
777.205	19924.77
777.539	19818.56
777.874	19854.27
778.209	19591.67
778.543	19649.3
778.878	19511.9
779.212	19467.38
779.547	19468.06
779.881	19454.28
780.215	19249.76
780.55	19347.16
780.884	19167.73
781.218	19146.26
781.552	19108.07
781.886	19042.54
782.22	18996.21
782.554	18881.86
782.888	18759.38
783.222	18640.06
783.556	18598.48
783.889	18572.72
784.223	18462.89
784.557	18388.99
784.89	18353.74
785.224	18223.57
785.557	18191.26
785.891	18142.67
786.224	18073.52
786.558	18099.96
786.891	17948.55
787.224	17840.31
787.557	17758.95
787.891	17795.56
788.224	17705.85
788.557	17775.9
788.89	17563.03
789.223	17640.76
789.556	17437.38
789.888	17488.23
790.221	17301.11
790.554	17192.87
790.887	17220.44
791.219	17214.56
791.552	17189.25
791.884	17127.11
792.217	17011.85
792.549	16950.84
792.882	16798.08
793.214	16774.35
793.546	16805.08
793.879	16675.37
794.211	16675.14
794.543	16662.26
794.875	16490.29
795.207	16630.4
795.539	16471.3
795.871	16508.37
796.203	16387.69
796.535	16208.49
796.867	16228.82
797.198	16230.86
797.53	16101.6
797.862	16059.34
798.193	16025.67
798.525	15986.35
798.856	15876.74
799.188	15840.36
799.519	15687.6
799.85	15658.67
800.182	15616.86
800.513	15675.84
800.844	15515.85
801.175	15650.53
801.506	15540.26
801.837	15453.25
802.168	15485.12
802.499	15351.56
802.83	15332.35
803.161	15332.13
803.491	15208.74
803.822	15191.79
804.153	15140.72
804.483	14983.21
804.814	14967.61
805.145	14937.11
805.475	15012.59
805.805	14881.06
806.136	14922.19
806.466	14843.1
806.796	14834.51
807.126	14689.2
807.457	14662.09
807.787	14746.38
808.117	14591.81
808.447	14582.99
808.777	14613.5
809.107	14478.14
809.436	14519.49
809.766	14420.28
810.096	14441.08
810.426	14432.49
810.755	14351.36
811.085	14386.61
811.414	14291.47
811.744	14190.01
812.073	14171.93
812.403	14200.18
812.732	13962.22
813.061	13971.48
813.39	13900.75
813.719	14031.82
814.049	14000.18
814.378	13911.37
814.707	13833.63
815.036	13878.15
815.365	13706.18
815.693	13636.35
816.022	13632.73
816.351	13569.69
816.68	13574.21
817.008	13574.21
817.337	13538.27
817.665	13439.52
817.994	13373.53
818.322	13487.88
818.651	13400.88
818.979	13369.69
819.307	13459.63
819.636	13328.56
819.964	13269.35
820.292	13330.6
820.62	13278.62
820.948	13235.46
821.276	13285.4
821.604	13225.74
821.932	13199.98
822.259	13263.93
822.587	13249.47
822.915	13193.65
823.243	13249.47
823.57	13146.42
823.898	13191.84
824.225	13191.84
824.553	13194.1
824.88	13190.26
825.207	13222.8
825.535	13112.75
825.862	13115.01
826.189	13080.66
826.516	13197.72
826.843	13220.09
827.17	13257.6
827.497	13207.66
827.824	13204.5
828.151	13134.22
828.478	13190.26
828.805	13206.08
829.131	13082.01
829.458	13099.64
829.785	13012.86
830.111	13048.34
830.438	13195.23
830.764	13117.49
831.09	13139.64
831.417	13100.09
831.743	13064.39
832.069	13086.99
832.395	13057.61
832.722	13126.08
833.048	13050.83
833.374	13063.94
833.7	13016.71
834.026	12992.98
834.351	13084.27
834.677	13030.26
835.003	13025.97
835.329	13004.05
835.654	12995.24
835.98	12881.79
836.306	12860.55
836.631	12855.58
836.956	12947.78
837.282	12883.15
837.607	12826.2
837.932	12770.16
838.258	12820.55
838.583	12847.44
838.908	12745.3
839.233	12728.58
839.558	12725.64
839.883	12758.41
840.208	12576.04
840.533	12611.74
840.858	12648.81
841.182	12632.08
841.507	12567.45
841.832	12529.03
842.156	12527.68
842.481	12601.12
842.805	12492.65
843.13	12484.74
843.454	12366.55
843.778	12417.85
844.103	12312.09
844.427	12331.07
844.751	12228.03
845.075	12234.35
845.399	12233.68
845.723	12198.2
846.047	12124.98
846.371	12046.11
846.695	12064.19
847.019	11966.79
847.343	11913.68
847.666	11845.66
847.99	11792.56
848.313	11856.06
848.637	11701.49
848.96	11708.72
849.284	11701.03
849.607	11640.24
849.931	11529.97
850.254	11486.8
850.577	11466.46
850.9	11336.98
851.223	11315.51
851.546	11271.44
851.869	11224.21
852.192	11214.72
852.515	11106.93
852.838	11133.82
853.161	11088.17
853.483	11028.51
853.806	11022.86
854.129	10934.95
854.451	11000.49
854.774	10828.06
855.096	10899.02
855.419	10875.97
855.741	10842.75
856.063	10745.81
856.385	10763.21
856.708	10642.3
857.03	10675.75
857.352	10698.57
857.674	10570.89
857.996	10613.15
858.318	10652.47
858.64	10526.6
858.961	10474.17
859.283	10472.59
859.605	10406.15
859.926	10467.17
860.248	10395.76
860.57	10388.75
860.891	10322.77
861.212	10313.5
861.534	10261.07
861.855	10268.76
862.176	10250
862.498	10304.69
862.819	10214.75
863.14	10163
863.461	10160.96
863.782	10134.3
864.103	10107.4
864.424	10048.2
864.745	10128.65
865.065	10032.6
865.386	10087.52
865.707	9964.13
866.027	10094.52
866.348	9896.79
866.668	10005.94
866.989	9954.87
867.309	9835.77
867.63	9901.99
867.95	9919.16
868.27	9831.25
868.59	9850.46
868.91	9820.18
869.23	9789.9
869.55	9810.69
869.87	9825.6
870.19	9798.03
870.51	9793.29
870.83	9783.34
871.15	9746.28
871.469	9786.73
871.789	9733.85
872.109	9700.41
872.428	9631.48
872.748	9666.29
873.067	9654.08
873.386	9694.76
873.706	9619.96
874.025	9591.26
874.344	9558.72
874.663	9585.38
874.982	9577.7
875.301	9581.32
875.62	9492.28
875.939	9481.88
876.258	9464.93
876.577	9456.12
876.896	9490.92
877.214	9449.34
877.533	9485.27
877.852	9436.46
878.17	9395.33
878.489	9336.58
878.807	9354.2
879.125	9333.86
879.444	9299.52
879.762	9283.7
880.08	9232.62
880.398	9266.75
880.716	9209.12
881.034	9208.44
881.352	9218.84
881.67	9201.44
881.988	9162.34
882.306	9145.17
882.624	9141.1
882.941	9086.41
883.259	9061.33
883.577	9012.29
883.894	9005.51
884.212	9012.97
884.529	8970.94
884.846	9001.67
885.164	8937.94
885.481	8952.63
885.798	8953.54
886.115	8880.32
886.432	8817.04
886.75	8858.62
887.067	8783.6
887.383	8851.17
887.7	8790.38
888.017	8795.12
888.334	8734.78
888.651	8745.18
888.967	8718.51
889.284	8659.76
889.6	8649.14
889.917	8615.47
890.233	8614.34
890.55	8494.34
890.866	8601.45
891.182	8525.52
891.498	8527.11
891.815	8544.28
892.131	8487.11
892.447	8467.45
892.763	8455.7
893.079	8435.36
893.395	8329.37
893.71	8385.42
894.026	8353.78
894.342	8271.29
894.657	8284.17
894.973	8254.12
895.289	8190.84
895.604	8245.31
895.92	8161.01
896.235	8122.82
896.55	8150.62
896.865	8065.42
897.181	8052.09
897.496	8038.08
897.811	7958.31
898.126	8019.1
898.441	7957.18
898.756	7923.73
899.071	7883.73
899.386	7927.57
899.7	7789.72
900.015	7757.86
900.33	7730.74
900.644	7713.12
900.959	7747.01
901.273	7692.33
901.588	7670.86
901.902	7614.59
902.216	7624.76
902.531	7575.04
902.845	7596.28
903.159	7498.43
903.473	7488.04
903.787	7516.51
904.101	7436.97
904.415	7455.72
904.729	7329.62
905.042	7312.9
905.356	7376.63
905.67	7323.97
905.984	7333.92
906.297	7267.48
906.611	7240.36
906.924	7206.01
907.237	7210.08
907.551	7183.41
907.864	7176.86
908.177	7133.47
908.491	7083.98
908.804	6992.01
909.117	7008.5
909.43	7035.85
909.743	6933.93
910.056	6956.98
910.368	6958.79
910.681	6820.94
910.994	6833.37
911.307	6806.93
911.619	6769.86
911.932	6812.8
912.244	6730.32
912.557	6735.06
912.869	6688.06
913.181	6681.28
913.494	6663.88
913.806	6590.21
914.118	6550.89
914.43	6567.61
914.742	6578.23
915.054	6501.85
915.366	6526.48
915.678	6471.34
915.99	6420.5
916.302	6358.58
916.613	6405.13
916.925	6336.66
917.236	6300.27
917.548	6261.18
917.859	6308.86
918.171	6245.36
918.482	6240.84
918.794	6168.3
919.105	6146.15
919.416	6117.45
919.727	6135.08
920.038	6119.94
920.349	6038.58
920.66	6006.04
920.971	6024.57
921.282	5919.49
921.593	5945.03
921.903	5914.29
922.214	5881.07
922.525	5861.41
922.835	5848.98
923.146	5792.71
923.456	5780.06
923.767	5698.71
924.077	5765.37
924.387	5728.08
924.697	5718.14
925.008	5655.77
925.318	5686.73
925.628	5679.95
925.938	5620.97
926.248	5562.89
926.558	5590.69
926.867	5540.29
927.177	5514.3
927.487	5566.73
927.796	5445.38
928.106	5519.73
928.416	5401.09
928.725	5390.69
929.034	5392.05
929.344	5369
929.653	5341.65
929.962	5274.31
930.271	5298.04
930.581	5291.03
930.89	5230.47
931.199	5210.81
931.508	5213.97
931.817	5217.36
932.125	5221.88
932.434	5147.31
932.743	5093.75
933.051	5075.22
933.36	5072.28
933.669	5034.32
933.977	5018.5
934.286	4976.24
934.594	5035.45
934.902	4955.9
935.21	4923.13
935.519	4917.03
935.827	4902.34
936.135	4902.57
936.443	4860.76
936.751	4852.63
937.059	4821.22
937.367	4789.58
937.674	4807.66
937.982	4782.35
938.29	4723.82
938.597	4757.49
938.905	4680.43
939.213	4655.12
939.52	4660.54
939.827	4654.67
940.135	4606.98
940.442	4614.44
940.749	4594.55
941.056	4565.18
941.363	4533.09
941.67	4535.8
941.977	4501.9
942.284	4479.98
942.591	4504.61
942.898	4450.38
943.205	4434.56
943.511	4395.46
943.818	4414.45
944.125	4323.83
944.431	4382.13
944.738	4346.65
945.044	4341
945.35	4325.41
945.657	4248.35
945.963	4272.98
946.269	4238.41
946.575	4259.87
946.881	4196.37
947.187	4195.24
947.493	4184.85
947.799	4162.93
948.105	4123.38
948.41	4177.62
948.716	4089.03
949.022	4097.84
949.327	4094
949.633	4049.26
949.938	4064.4
950.244	4069.82
950.549	3968.13
950.854	3952.09
951.16	3958.64
951.465	3923.16
951.77	3929.49
952.075	3912.54
952.38	3883.61
952.685	3876.83
952.99	3843.84
953.294	3823.5
953.599	3836.61
953.904	3851.07
954.209	3797.06
954.513	3770.85
954.818	3781.24
955.122	3757.74
955.426	3762.49
955.731	3710.51
956.035	3746.89
956.339	3688.59
956.643	3711.19
956.948	3684.3
957.252	3652.21
957.556	3651.75
957.86	3586.45
958.163	3596.61
958.467	3555.71
958.771	3566.56
959.075	3540.57
959.378	3511.64
959.682	3548.03
959.985	3486.56
960.289	3485.66
960.592	3474.36
960.896	3461.48
961.199	3442.49
961.502	3437.07
961.805	3408.37
962.108	3404.98
962.411	3381.48
962.714	3379.9
963.017	3351.65
963.32	3359.33
963.623	3312.33
963.926	3304.64
964.228	3281.59
964.531	3304.19
964.833	3286.34
965.136	3274.82
965.438	3226.68
965.741	3231.65
966.043	3234.14
966.345	3149.85
966.648	3179.45
966.95	3226
967.252	3150.3
967.554	3155.95
967.856	3141.49
968.158	3106.23
968.46	3050.64
968.761	3088.83
969.063	3071.66
969.365	3074.37
969.666	3077.98
969.968	3047.7
970.269	3047.48
970.571	3002.96
970.872	3013.8
971.174	2997.08
971.475	2997.76
971.776	2945.11
972.077	2951.66
972.378	2909.4
972.679	2952.79
972.98	2926.12
973.281	2887.03
973.582	2886.35
973.883	2869.63
974.183	2884.99
974.484	2868.72
974.785	2846.35
975.085	2854.71
975.386	2829.63
975.686	2821.04
975.986	2794.83
976.287	2774.26
976.587	2781.95
976.887	2766.81
977.187	2780.59
977.487	2737.2
977.787	2708.95
978.087	2699.01
978.387	2667.15
978.687	2687.26
978.987	2664.66
979.286	2627.83
979.586	2596.41
979.885	2609.07
980.185	2608.84
980.484	2650.42
980.784	2592.8
981.083	2559.58
981.382	2580.14
981.682	2552.8
981.981	2578.79
982.28	2534.27
982.579	2521.84
982.878	2492.91
983.177	2470.77
983.475	2501.73
983.774	2495.4
984.073	2466.47
984.372	2474.61
984.67	2470.77
984.969	2463.76
985.267	2465.57
985.566	2419.92
985.864	2405.91
986.162	2380.15
986.461	2385.12
986.759	2381.96
987.057	2376.76
987.355	2356.65
987.653	2336.76
987.951	2338.79
988.249	2322.52
988.547	2329.3
988.844	2280.94
989.142	2332.92
989.44	2248.63
989.737	2260.6
990.035	2255.63
990.332	2260.6
990.63	2253.82
990.927	2256.76
991.224	2267.84
991.521	2220.61
991.819	2205.69
992.116	2155.3
992.413	2191.23
992.71	2180.38
993.006	2170.89
993.303	2136.54
993.6	2134.05
993.897	2136.09
994.193	2142.87
994.49	2114.39
994.787	2082.53
995.083	2058.58
995.379	2087.73
995.676	2087.73
995.972	2084.34
996.268	2042.98
996.565	2066.49
996.861	2032.36
997.157	2041.18
997.453	2026.49
997.749	2016.77
998.044	2006.6
998.34	1944.45
998.636	1984.68
998.932	1965.24
999.227	1948.97
999.523	1974.06
999.818	1939.03
1000.114	1953.72
1000.409	1917.34
1000.704	1893.38
1001	1903.1
1001.295	1871.01
1001.59	1878.24
1001.885	1862.65
1002.18	1862.87
1002.475	1870.33
1002.77	1859.03
1003.065	1815.19
1003.359	1835.08
1003.654	1795.76
1003.949	1798.7
1004.243	1777.45
1004.538	1775.65
1004.832	1754.85
1005.127	1788.07
1005.421	1775.19
1005.715	1756.89
1006.009	1725.03
1006.304	1700.39
1006.598	1703.78
1006.892	1696.55
1007.186	1703.56
1007.48	1685.93
1007.773	1688.42
1008.067	1678.47
1008.361	1671.24
1008.655	1625.37
1008.948	1664.91
1009.242	1633.5
1009.535	1624.69
1009.829	1627.17
1010.122	1611.81
1010.415	1616.1
1010.708	1579.49
1011.001	1595.76
1011.295	1568.42
1011.588	1566.39
1011.881	1537.23
1012.173	1551.92
1012.466	1543.34
1012.759	1514.86
1013.052	1504.47
1013.344	1529.55
1013.637	1485.71
1013.93	1515.77
1014.222	1493.39
1014.514	1474.18
1014.807	1471.92
1015.099	1471.02
1015.391	1455.43
1015.683	1444.81
1015.976	1461.08
1016.268	1433.51
1016.56	1418.37
1016.851	1421.08
1017.143	1395.54
1017.435	1405.03
1017.727	1397.35
1018.018	1388.54
1018.31	1390.12
1018.602	1382.89
1018.893	1345.15
1019.185	1334.08
1019.476	1372.27
1019.767	1350.8
1020.058	1334.53
1020.35	1294.53
1020.641	1289.1
1020.932	1290.23
1021.223	1288.65
1021.514	1293.4
1021.804	1283.91
1022.095	1273.74
1022.386	1264.25
1022.677	1283.45
1022.967	1250.46
1023.258	1217.47
1023.548	1235.77
1023.839	1224.25
1024.129	1199.84
1024.419	1187.64
1024.709	1186.51
1025	1183.34
1025.29	1202.33
1025.58	1178.37
1025.87	1176.79
1026.16	1167.3
1026.449	1161.65
1026.739	1114.65
1027.029	1155.55
1027.319	1119.62
1027.608	1122.33
1027.898	1137.47
1028.187	1120.97
1028.477	1128.66
1028.766	1094.08
1029.055	1092.5
1029.344	1083.69
1029.634	1090.01
1029.923	1064.7
1030.212	1064.03
1030.501	1041.88
1030.79	1062.44
1031.078	1022.22
1031.367	1037.59
1031.656	1038.04
1031.945	1024.7
1032.233	1013.18
1032.522	1009.56
1032.81	988.1
1033.099	992.84
1033.387	994.87
1033.675	983.12
1033.963	969.11
1034.251	974.99
1034.54	984.48
1034.828	974.54
1035.116	953.29
1035.403	953.29
1035.691	927.31
1035.979	913.97
1036.267	917.36
1036.554	940.41
1036.842	899.28
1037.129	894.54
1037.417	889.34
1037.704	904.26
1037.992	891.37
1038.279	889.34
1038.566	912.17
1038.853	912.17
1039.14	912.17
