Data from hue_24_FLMS001491_00028.txt Node
Date: Tue Feb 07 17:12:02 GMT 2017
User: dcchb
Spectrometer: FLMS00149
Trigger mode: 0
Integration Time (sec): 2.000000E-2
Scans to average: 10
Electric dark correction enabled: true
Nonlinearity correction enabled: false
Boxcar width: 0
XAxis mode: Wavelengths
Number of Pixels in Spectrum: 2048
>>>>>Begin Spectral Data<<<<<
341.393	-16.82
341.776	-16.82
342.16	-16.82
342.543	-69.02
342.927	-73.32
343.31	-47.56
343.693	-82.58
344.077	-62.02
344.46	-59.76
344.843	-68.35
345.226	-48.01
345.61	-20.44
345.993	-22.47
346.376	1.93
346.759	-3.04
347.142	29.73
347.525	52.1
347.908	64.53
348.291	62.05
348.674	84.19
349.057	119.67
349.44	131.65
349.823	131.88
350.206	169.61
350.588	202.83
350.971	211.87
351.354	229.05
351.737	244.87
352.119	262.27
352.502	256.84
352.884	259.56
353.267	278.76
353.65	273.57
354.032	293
354.414	326.67
354.797	307.69
355.179	332.1
355.562	333.45
355.944	321.93
356.326	341.14
356.709	332.55
357.091	330.97
357.473	333.23
357.855	349.95
358.238	346.56
358.62	340.23
359.002	339.78
359.384	334.58
359.766	328.03
360.148	345.43
360.53	353.34
360.912	346.11
361.294	351.53
361.676	348.82
362.057	311.08
362.439	329.61
362.821	325.54
363.203	332.55
363.584	323.06
363.966	341.81
364.348	321.25
364.729	307.01
365.111	319.67
365.493	309.72
365.874	302.27
366.256	307.24
366.637	314.47
367.019	314.47
367.4	337.07
367.781	321.25
368.163	291.19
368.544	328.93
368.925	323.51
369.306	333.23
369.688	316.28
370.069	328.25
370.45	327.12
370.831	309.05
371.212	302.72
371.593	305.43
371.974	305.88
372.355	318.31
372.736	326.9
373.117	314.92
373.498	307.46
373.879	302.72
374.26	321.25
374.641	327.58
375.021	317.18
375.402	321.02
375.783	320.57
376.163	323.73
376.544	317.63
376.925	322.83
377.305	318.31
377.686	325.09
378.066	339.55
378.447	336.16
378.827	338.88
379.208	335.03
379.588	337.52
379.968	325.54
380.349	311.53
380.729	329.84
381.109	344.75
381.489	342.27
381.87	328.71
382.25	335.71
382.63	336.84
383.01	361.02
383.39	354.47
383.77	343.39
384.15	353.34
384.53	347.91
384.91	356.05
385.29	321.93
385.67	349.04
386.049	376.39
386.429	354.47
386.809	333.9
387.189	354.24
387.568	358.08
387.948	369.38
388.328	353.34
388.707	361.25
389.087	372.55
389.466	369.16
389.846	368.48
390.225	389.5
390.605	387.91
390.984	377.52
391.363	369.61
391.743	368.25
392.122	382.26
392.501	381.59
392.881	362.83
393.26	377.52
393.639	362.83
394.018	404.41
394.397	386.56
394.776	387.91
395.155	401.25
395.534	371.64
395.913	380.68
396.292	380.91
396.671	403.73
397.05	416.84
397.429	404.18
397.808	415.48
398.186	393.79
398.565	379.55
398.944	389.95
399.323	394.69
399.701	383.85
400.08	373.68
400.458	403.51
400.837	398.53
401.215	405.54
401.594	403.96
401.972	403.05
402.351	412.32
402.729	405.99
403.107	420.23
403.486	420.46
403.864	420
404.242	440.34
404.62	427.69
404.999	419.55
405.377	443.96
405.755	430.17
406.133	438.99
406.511	425.88
406.889	443.28
407.267	436.05
407.645	447.57
408.023	435.14
408.401	455.71
408.779	427.01
409.156	426.56
409.534	452.77
409.912	462.49
410.29	460.68
410.667	467.46
411.045	455.03
411.422	475.14
411.8	471.08
412.178	457.52
412.555	474.01
412.933	488.7
413.31	470.17
413.687	495.03
414.065	493.45
414.442	495.93
414.819	486.89
415.197	485.99
415.574	501.13
415.951	506.33
416.328	515.82
416.705	492.54
417.082	480.34
417.46	495.03
417.837	533.22
418.214	512.43
418.591	517.4
418.967	526.89
419.344	533.67
419.721	520.79
420.098	494.58
420.475	541.81
420.852	539.55
421.228	557.4
421.605	521.7
421.982	536.84
422.358	571.19
422.735	556.5
423.111	564.18
423.488	543.62
423.864	577.97
424.241	569.6
424.617	577.29
424.994	589.04
425.37	561.69
425.746	582.71
426.123	593.56
426.499	574.12
426.875	585.65
427.251	603.05
427.627	613.9
428.003	595.14
428.379	598.3
428.756	631.97
429.132	616.83
429.507	608.92
429.883	638.53
430.259	629.72
430.635	619.55
431.011	632.43
431.387	646.21
431.763	666.78
432.138	667.91
432.514	648.25
432.89	655.7
433.265	689.15
433.641	687.79
434.016	678.08
434.392	670.39
434.767	705.87
435.143	696.38
435.518	691.18
435.894	707.45
436.269	712.88
436.644	724.4
437.02	740.45
437.395	718.3
437.77	723.95
438.145	735.7
438.52	730.28
438.895	747.45
439.271	771.86
439.646	777.28
440.021	775.47
440.395	762.82
440.77	773.67
441.145	798.52
441.52	802.37
441.895	781.8
442.27	793.55
442.645	796.26
443.019	791.07
443.394	795.36
443.769	805.08
444.143	799.88
444.518	809.37
444.892	830.16
445.267	827.68
445.641	821.35
446.016	829.48
446.39	838.75
446.764	867.22
447.139	842.14
447.513	858.86
447.887	863.83
448.262	865.64
448.636	894.11
449.01	893.66
449.384	881.46
449.758	856.38
450.132	891.4
450.506	882.82
450.88	895.7
451.254	908.8
451.628	909.48
452.002	930.05
452.376	919.65
452.75	920.33
453.123	945.86
453.497	960.33
453.871	961.23
454.244	963.04
454.618	991.06
454.992	985.19
455.365	997.16
455.739	1004.62
456.112	1016.37
456.486	995.36
456.859	1026.54
457.232	1058.18
457.606	1055.92
457.979	1030.38
458.352	1084.39
458.725	1079.87
459.099	1093.88
459.472	1073.77
459.845	1111.96
460.218	1124.17
460.591	1169.36
460.964	1151.28
461.337	1163.49
461.71	1166.2
462.083	1187.21
462.456	1193.77
462.829	1198.74
463.201	1225.86
463.574	1230.6
463.947	1228.57
464.32	1277.38
464.692	1270.15
465.065	1260.43
465.438	1304.27
465.81	1330.71
466.183	1338.17
466.555	1363.71
466.928	1371.84
467.3	1365.74
467.672	1375.68
468.045	1413.42
468.417	1411.16
468.789	1434.44
469.161	1422.91
469.534	1488.45
469.906	1495.23
470.278	1516.25
470.65	1524.61
471.022	1561.22
471.394	1588.11
471.766	1606.19
472.138	1634.89
472.51	1661.55
472.882	1663.59
473.253	1706.52
473.625	1713.3
473.997	1738.39
474.369	1771.38
474.74	1804.6
475.112	1828.33
475.484	1875.33
475.855	1839.4
476.227	1903.81
476.598	1956.46
476.97	1984.71
477.341	2046.63
477.713	2055.67
478.084	2087.98
478.455	2111.48
478.827	2168.21
479.198	2207.07
479.569	2235.1
479.94	2327.98
480.311	2323.68
480.682	2360.52
481.053	2448.42
481.424	2481.19
481.795	2500.63
482.166	2558.93
482.537	2588.31
482.908	2616.1
483.279	2672.6
483.65	2705.59
484.021	2761.18
484.391	2824.46
484.762	2866.72
485.133	2909.2
485.503	2946.49
485.874	3008.64
486.244	3080.05
486.615	3127.5
486.985	3151.68
487.356	3241.4
487.726	3257.22
488.097	3364.33
488.467	3367.72
488.837	3506.7
489.207	3458.34
489.578	3512.13
489.948	3581.05
490.318	3607.04
490.688	3652.46
491.058	3761.61
491.428	3776.98
491.798	3808.61
492.168	3861.27
492.538	3930.87
492.908	3956.86
493.278	4038.66
493.648	4041.6
494.017	4156.85
494.387	4154.59
494.757	4204.99
495.126	4251.54
495.496	4276.62
495.866	4313.23
496.235	4389.84
496.605	4407.02
496.974	4427.58
497.344	4470.52
497.713	4564.3
498.082	4547.58
498.452	4616.95
498.821	4634.36
499.19	4631.19
499.559	4703.28
499.928	4718.42
500.298	4743.73
500.667	4825.99
501.036	4841.58
501.405	4846.78
501.774	4853.33
502.143	4905.53
502.512	4907.79
502.88	4963.39
503.249	4920.45
503.618	5003.84
503.987	5065.08
504.356	5095.13
504.724	5112.08
505.093	5149.37
505.462	5172.65
505.83	5177.84
506.199	5213.78
506.567	5309.37
506.936	5238.41
507.304	5317.95
507.672	5362.25
508.041	5387.56
508.409	5478.4
508.777	5465.97
509.145	5482.69
509.514	5524.5
509.882	5534.22
510.25	5602.47
510.618	5568.34
510.986	5652.18
511.354	5627.55
511.722	5695.12
512.09	5696.25
512.458	5739.41
512.826	5724.5
513.193	5783.7
513.561	5804.49
513.929	5843.82
514.297	5911.16
514.664	5917.03
515.032	5876.13
515.4	5973.53
515.767	5982.79
516.135	6004.49
516.502	5996.81
516.869	6078.84
517.237	6122.23
517.604	6045.62
517.972	6090.81
518.339	6128.78
518.706	6136.46
519.073	6155.9
519.44	6227.08
519.808	6301.2
520.175	6224.37
520.542	6298.94
520.909	6320.86
521.276	6351.37
521.643	6441.09
522.009	6454.65
522.376	6479.5
522.743	6533.29
523.11	6544.81
523.477	6594.76
523.843	6629.33
524.21	6697.35
524.577	6702.1
524.943	6762.21
525.31	6783.45
525.676	6837.01
526.043	6820.96
526.409	6853.96
526.776	7017.34
527.142	7007.85
527.508	7051.92
527.874	7100.73
528.241	7126.49
528.607	7173.27
528.973	7226.38
529.339	7163.78
529.705	7271.12
530.071	7315.19
530.437	7328.52
530.803	7326.94
531.169	7408.52
531.535	7394.73
531.901	7415.75
532.267	7443.77
532.632	7542.3
532.998	7531.23
533.364	7633.15
533.73	7690.09
534.095	7702.52
534.461	7742.75
534.826	7729.19
535.192	7810.77
535.557	7882.41
535.923	7836.98
536.288	7803.99
536.653	7940.03
537.019	7839.02
537.384	7957.21
537.749	7990.2
538.114	7975.74
538.479	7973.02
538.845	8036.75
539.21	8010.99
539.575	8073.81
539.94	8135.28
540.305	8191.1
540.67	8242.4
541.034	8225.67
541.399	8253.92
541.764	8325.78
542.129	8295.5
542.494	8444.42
542.858	8392
543.223	8418.21
543.587	8452.33
543.952	8544.76
544.316	8526.46
544.681	8505.89
545.045	8587.7
545.41	8661.14
545.774	8629.96
546.138	8696.62
546.503	8709.95
546.867	8711.31
547.231	8750.63
547.595	8856.39
547.959	8855.94
548.324	8867.01
548.688	8897.97
549.052	8968.93
549.416	8963.06
549.779	8972.77
550.143	9019.78
550.507	9076.72
550.871	9086.22
551.235	9057.29
551.599	9139.1
551.962	9132.54
552.326	9168.93
552.689	9211.86
553.053	9239.66
553.417	9248.7
553.78	9427.9
554.143	9248.25
554.507	9343.61
554.87	9392.87
555.234	9496.6
555.597	9399.2
555.96	9479.2
556.323	9509.26
556.686	9526.66
557.05	9614.79
557.413	9647.56
557.776	9643.04
558.139	9662.92
558.502	9698.18
558.865	9755.35
559.228	9831.28
559.59	9924.39
559.953	9893.88
560.316	9978.17
560.679	9919.87
561.041	10023.37
561.404	10095
561.767	10116.92
562.129	10090.71
562.492	10144.49
562.854	10151.95
563.217	10159.63
563.579	10251.16
563.941	10237.15
564.304	10275.11
564.666	10351.49
565.028	10304.94
565.39	10355.11
565.753	10454.32
566.115	10524.37
566.477	10554.43
566.839	10553.3
567.201	10622.45
567.563	10591.26
567.925	10758.04
568.287	10734.76
568.648	10745.61
569.01	10838.03
569.372	10860.63
569.734	10902.89
570.095	10928.2
570.457	11042.32
570.819	11013.4
571.18	11022.44
571.542	11089.55
571.903	11117.35
572.265	11227.63
572.626	11251.36
572.987	11297.46
573.349	11331.35
573.71	11421.07
574.071	11401.64
574.432	11541.97
574.794	11638.24
575.155	11675.3
575.516	11648.86
575.877	11795.07
576.238	11754.17
576.599	11944.9
576.96	11982.18
577.32	12066.48
577.681	12116.42
578.042	12271.22
578.403	12270.99
578.763	12460.59
579.124	12508.05
579.485	12637.76
579.845	12736.97
580.206	12785.33
580.566	12995.94
580.927	13052.67
581.287	13297.63
581.648	13278.2
582.008	13524.97
582.368	13597.96
582.728	13707.56
583.089	13823.27
583.449	14014.9
583.809	14241.56
584.169	14386.87
584.529	14499.63
584.889	14842.22
585.249	14833.18
585.609	15028.21
585.969	15284.47
586.329	15498.7
586.688	15722.43
587.048	15895.75
587.408	16184.79
587.768	16250.77
588.127	16486.25
588.487	16840.59
588.846	17260.92
589.206	17319.22
589.565	17549.27
589.925	17763.28
590.284	18002.14
590.643	18362.58
591.003	18592.18
591.362	19018.61
591.721	19139.28
592.08	19424.7
592.44	19766.61
592.799	20117.11
593.158	20329.76
593.517	20566.14
593.876	21030.76
594.235	21198.89
594.593	21520.47
594.952	21830.29
595.311	22160.9
595.67	22434.34
596.029	22766.31
596.387	23121.78
596.746	23444.93
597.104	23754.53
597.463	23918.59
597.822	24382.08
598.18	24470.44
598.538	24918.12
598.897	25442.17
599.255	25494.6
599.613	26091.87
599.972	26150.85
600.33	26511.97
600.688	26779.76
601.046	27116.93
601.404	27542.91
601.762	27756.91
602.12	28178.82
602.478	28403.22
602.836	28783.1
603.194	28931.57
603.552	29122.07
603.91	29381.95
604.268	29783.3
604.625	29937.87
604.983	30381.48
605.341	30490.62
605.698	30909.82
606.056	31121.57
606.413	31402.01
606.771	31754.55
607.128	32048.1
607.485	32217.59
607.843	32382.1
608.2	32737.8
608.557	33077.22
608.914	33083.33
609.272	33498
609.629	33750.2
609.986	34229.51
610.343	34229.06
610.7	34598.31
611.057	34702.72
611.414	34949.04
611.771	35210.5
612.127	35540.21
612.484	35602.35
612.841	35990.82
613.198	35976.58
613.554	36146.75
613.911	36499.73
614.267	36837.35
614.624	36764.36
614.98	37033.28
615.337	37398.24
615.693	37453.38
616.05	37693.15
616.406	37925.01
616.762	37841.62
617.118	37961.61
617.475	38155.96
617.831	38416.29
618.187	38611.32
618.543	38805.66
618.899	38996.16
619.255	39069.83
619.611	39122.49
619.967	39378.98
620.323	39695.13
620.678	39493.55
621.034	39609.26
621.39	39736.26
621.746	39849.02
622.101	40326.07
622.457	40123.59
622.812	40247.88
623.168	40557.7
623.523	40570.59
623.879	40775.1
624.234	40655.1
624.589	40832.05
624.945	41032.27
625.3	41134.86
625.655	41003.12
626.01	41158.59
626.365	41371.47
626.72	41213.05
627.075	41406.27
627.43	41475.65
627.785	41356.33
628.14	41566.27
628.495	41731.46
628.85	41780.95
629.205	41547.96
629.559	42015.52
629.914	41782.98
630.269	41812.36
630.623	41719.93
630.978	41773.72
631.332	41947.05
631.687	42175.52
632.041	41976.65
632.396	42150.66
632.75	41968.74
633.104	42198.11
633.459	41952.24
633.813	42007.84
634.167	42115.86
634.521	42055.29
634.875	42211.9
635.229	42205.8
635.583	42183.42
635.937	42110.21
636.291	42097.55
636.645	42006.93
636.999	42123.54
637.352	42192.69
637.706	41866.82
638.06	42286.02
638.413	42070.89
638.767	41982.53
639.121	42242.18
639.474	41920.38
639.828	42022.53
640.181	42136.65
640.534	41985.24
640.888	41999.47
641.241	41846.71
641.594	41886.71
641.947	42240.82
642.301	41986.82
642.654	41983.43
643.007	42029.3
643.36	41994.73
643.713	41915.41
644.066	42091.45
644.419	41888.97
644.771	41726.71
645.124	41323.11
645.477	41241.98
645.83	40971.03
646.182	40892.39
646.535	40919.73
646.888	40844.7
647.24	40679.74
647.593	40868.43
647.945	40853.06
648.298	40597.7
648.65	40647.65
649.002	40566.97
649.355	40738.04
649.707	40616.46
650.059	40820.3
650.411	41356.33
650.763	41317.46
651.115	41798.12
651.467	41613.72
651.819	41566.72
652.171	41511.8
652.523	41510.67
652.875	41467.06
653.227	41291.47
653.578	41664.57
653.93	41549.32
654.282	41410.56
654.633	41236.78
654.985	41403.56
655.337	41321.75
655.688	41407.17
656.039	41606.04
656.391	41201.08
656.742	41206.28
657.094	41375.08
657.445	41392.94
657.796	41384.12
658.147	41277.69
658.498	41230.68
658.849	41234.52
659.2	41173.96
659.551	41201.53
659.902	41411.69
660.253	41207.63
660.604	41186.16
660.955	41193.39
661.306	41265.26
661.656	41241.53
662.007	41174.86
662.358	41269.78
662.708	41233.17
663.059	41172.6
663.409	40962.67
663.76	41296.67
664.11	41272.26
664.461	41295.09
664.811	41298.02
665.161	40985.04
665.511	41261.64
665.862	41094.87
666.212	41288.53
666.562	41304.35
666.912	41048.31
667.262	41038.37
667.612	41138.93
667.962	41168.99
668.312	41077.47
668.662	41259.16
669.011	41162.66
669.361	41045.6
669.711	41106.84
670.06	41045.83
670.41	40987.75
670.76	41050.8
671.109	41153.62
671.459	40885.15
671.808	40890.13
672.157	40938.49
672.507	40794.99
672.856	40827.3
673.205	40874.53
673.554	41053.74
673.904	40860.3
674.253	40982.33
674.602	40842.44
674.951	40306.19
675.3	40144.16
675.649	40876.34
675.998	40613.97
676.346	40783.24
676.695	40774.65
677.044	40488.78
677.393	40628.66
677.741	40748.66
678.09	40641.32
678.438	40530.13
678.787	40503.24
679.135	40675.22
679.484	40373.53
679.832	40437.48
680.181	40302.12
680.529	40362.46
680.877	40309.35
681.225	40246.07
681.573	40383.7
681.922	40211.73
682.27	40170.6
682.618	40230.03
682.966	40049.92
683.314	40019.87
683.661	40008.57
684.009	39797.05
684.357	39795.69
684.705	39788.01
685.053	39596.37
685.4	39647.67
685.748	39456.49
686.095	39517.73
686.443	39420.11
686.79	39343.73
687.138	39385.08
687.485	39410.84
687.832	39136.05
688.18	39221.47
688.527	39007.69
688.874	39102.38
689.221	38880.46
689.568	38908.48
689.915	38730.86
690.262	38784.19
690.609	38637.3
690.956	38473.92
691.303	38414.48
691.65	38299.46
691.997	38297.43
692.344	38110.31
692.69	38036.19
693.037	38145.79
693.383	37824.44
693.73	37889.75
694.077	37738.12
694.423	37664
694.769	37680.72
695.116	37505.36
695.462	37442.98
695.808	37345.59
696.155	37330.22
696.501	37055.65
696.847	37229.2
697.193	36869.44
697.539	37142.2
697.885	36861.98
698.231	36588.09
698.577	36585.15
698.923	36749.9
699.269	36536.79
699.614	36351.04
699.96	36165.96
700.306	36232.62
700.651	36179.74
700.997	35886.87
701.342	36076.92
701.688	35886.19
702.033	35815.23
702.379	35747.66
702.724	35576.14
703.069	35668.79
703.415	35282.14
703.76	35332.31
704.105	35320.33
704.45	35131.63
704.795	35023.61
705.14	34850.51
705.485	35064.74
705.83	34787.69
706.175	34925.08
706.52	34715.6
706.865	34662.04
707.209	34604.87
707.554	34480.12
707.899	34512.21
708.243	34324.2
708.588	34210.98
708.932	34069.51
709.277	34055.5
709.621	34002.17
709.966	33882.4
710.31	33939.57
710.654	33621.39
710.998	33788.62
711.342	33642.41
711.687	33461.39
712.031	33619.13
712.375	33427.5
712.719	33407.38
713.063	33338.46
713.407	33500.72
713.75	33258.46
714.094	33194.96
714.438	33138.24
714.782	33096.88
715.125	33001.29
715.469	33091.46
715.812	32867.51
716.156	32635.88
716.499	32693.73
716.843	32728.08
717.186	32537.58
717.53	32684.92
717.873	32700.51
718.216	32541.42
718.559	32412.16
718.902	32151.37
719.246	32296.23
719.589	32102.33
719.932	32075.44
720.275	32095.78
720.617	32077.48
720.96	31907.08
721.303	31905.5
721.646	31830.48
721.989	31736.69
722.331	31914.09
722.674	31764.94
723.016	31815.11
723.359	31655.11
723.701	31733.76
724.044	31561.33
724.386	31450.37
724.729	31466.64
725.071	31406.08
725.413	31377.83
725.755	31347.33
726.097	31133.55
726.439	31037.5
726.782	31074.34
727.124	31200.44
727.465	30776.72
727.807	30848.36
728.149	30791.63
728.491	30821.69
728.833	30796.61
729.175	30792.76
729.516	30669.15
729.858	30677.29
730.199	30648.81
730.541	30660.79
730.882	30672.77
731.224	30765.87
731.565	30383.28
731.906	30452.66
732.248	30444.07
732.589	30269.39
732.93	30246.34
733.271	30223.97
733.612	30296.73
733.953	30345.09
734.294	30066.68
734.635	30063.07
734.976	30084.76
735.317	30003.41
735.658	29871.66
735.999	29906.91
736.339	29792.56
736.68	30044.31
737.021	29907.36
737.361	29746.69
737.702	29936.29
738.042	29773.13
738.383	29632.34
738.723	29800.47
739.063	29636.86
739.404	29561.38
739.744	29565
740.084	29452.91
740.424	29530.42
740.764	29363.42
741.104	29595.51
741.444	29435.06
741.784	29394.16
742.124	29316.87
742.464	29317.77
742.804	29158.23
743.143	29102.41
743.483	29148.06
743.823	29049.08
744.162	29003.21
744.502	29100.83
744.841	28916.2
745.181	29082.3
745.52	28926.37
745.86	28841.4
746.199	28792.36
746.538	28826.71
746.877	28892.93
747.216	28956.65
747.556	28798.92
747.895	28745.36
748.234	28613.16
748.573	28537.46
748.911	28528.64
749.25	28547.17
749.589	28365.71
749.928	28414.97
750.267	28446.84
750.605	28336.33
750.944	28320.51
751.283	28242.77
751.621	28181.76
751.96	27970.69
752.298	28081.65
752.636	28158.03
752.975	27924.36
753.313	27942.67
753.651	27960.75
753.989	27938.6
754.327	27849.79
754.666	27627.2
755.004	27693.64
755.342	27726.63
755.679	27706.07
756.017	27576.58
756.355	27655.67
756.693	27412.29
757.031	27538.84
757.368	27306.75
757.706	27273.53
758.044	27327.77
758.381	27204.38
758.719	27204.16
759.056	27240.54
759.394	26948.12
759.731	26839.42
760.068	26819.53
760.405	26733.66
760.743	26640.1
761.08	26638.3
761.417	26655.92
761.754	26575.02
762.091	26525.98
762.428	26399.88
762.765	26366.21
763.102	26417.74
763.438	26171.19
763.775	26050.97
764.112	26170.74
764.449	26099.1
764.785	25970.07
765.122	25785.66
765.458	25681.71
765.795	25696.4
766.131	25704.54
766.467	25598.55
766.804	25444.88
767.14	25275.85
767.476	25339.8
767.812	25161.27
768.148	25237.43
768.485	25026.36
768.821	24929.19
769.157	24890.77
769.492	24842.64
769.828	24840.38
770.164	24614.17
770.5	24563.32
770.836	24538.69
771.171	24439.48
771.507	24323.78
771.842	24312.48
772.178	24236.78
772.513	24068.65
772.849	24115.43
773.184	24050.79
773.519	23937.8
773.855	23796.56
774.19	23696.91
774.525	23672.05
774.86	23611.94
775.195	23600.18
775.53	23372.17
775.865	23346.18
776.2	23203.36
776.535	23007.88
776.87	22995.45
777.205	22923.14
777.539	22852.86
777.874	22918.85
778.209	22692.19
778.543	22667.33
778.878	22516.6
779.212	22564.73
779.547	22377.62
779.881	22386.21
780.215	22173.1
780.55	22255.14
780.884	22055.82
781.218	22063.95
781.552	22023.05
781.886	21893.34
782.22	21829.38
782.554	21720.23
782.888	21513.01
783.222	21516.4
783.556	21402.5
783.889	21335.61
784.223	21191.89
784.557	21157.99
784.89	21243.41
785.224	20990.99
785.557	21006.58
785.891	20978.78
786.224	20753.03
786.558	20805
786.891	20588.06
787.224	20576.99
787.557	20589.19
787.891	20458.35
788.224	20384.68
788.557	20393.49
788.89	20369.54
789.223	20285.02
789.556	20012.71
789.888	20153.72
790.221	20053.61
790.554	19922.09
790.887	19998.25
791.219	19850.68
791.552	19781.75
791.884	19703.11
792.217	19610.91
792.549	19556.45
792.882	19429.22
793.214	19346.29
793.546	19424.48
793.879	19321.65
794.211	19175.44
794.543	19278.04
794.875	19047.54
795.207	19191.94
795.539	19089.12
795.871	19017.93
796.203	18797.15
796.535	18752.4
796.867	18602.35
797.198	18666.98
797.53	18624.72
797.862	18439.64
798.193	18568.23
798.525	18393.32
798.856	18419.76
799.188	18122.59
799.519	18210.95
799.85	18053.21
800.182	18074.68
800.513	17967.34
800.844	17920.11
801.175	18049.82
801.506	17968.47
801.837	17925.98
802.168	17746.78
802.499	17689.38
802.83	17715.37
803.161	17495.94
803.491	17510.4
803.822	17651.64
804.153	17511.31
804.483	17325.77
804.814	17302.5
805.145	17289.62
805.475	17239.67
805.805	17165.78
806.136	17093.91
806.466	17202.39
806.796	17172.78
807.126	17068.6
807.457	16959.68
807.787	16948.83
808.117	16785
808.447	16815.5
808.777	16817.09
809.107	16745
809.436	16628.16
809.766	16688.28
810.096	16570.54
810.426	16509.98
810.755	16542.07
811.085	16523.99
811.414	16415.97
811.744	16348.4
812.073	16288.29
812.403	16368.28
812.732	16191.11
813.061	16192.92
813.39	16091
813.719	16074.51
814.049	16145.47
814.378	16099.14
814.707	15989.76
815.036	15906.38
815.365	15936.66
815.693	15654.86
816.022	15820.95
816.351	15688.53
816.68	15671.81
817.008	15712.26
817.337	15521.53
817.665	15504.13
817.994	15509.1
818.322	15573.05
818.651	15456.9
818.979	15484.69
819.307	15504.58
819.636	15452.6
819.964	15310.91
820.292	15420.29
820.62	15299.84
820.948	15294.64
821.276	15314.98
821.604	15221.87
821.932	15323.34
822.259	15303.68
822.587	15251.93
822.915	15180.74
823.243	15190.69
823.57	15276.56
823.898	15212.61
824.225	15191.82
824.553	15225.72
824.88	15309.1
825.207	15223
825.535	15085.38
825.862	15247.86
826.189	15131.03
826.516	15232.04
826.843	15297.58
827.17	15180.97
827.497	15240.63
827.824	15340.29
828.151	15251.7
828.478	15173.51
828.805	15235.21
829.131	15275.88
829.458	15194.3
829.785	15095.1
830.111	15105.94
830.438	15184.81
830.764	15170.12
831.09	15227.07
831.417	15163.8
831.743	15218.94
832.069	15130.35
832.395	15004.93
832.722	15057.13
833.048	14962.67
833.374	15002.9
833.7	14941.43
834.026	15046.51
834.351	14979.39
834.677	14992.28
835.003	14970.81
835.329	14945.5
835.654	14939.62
835.98	14808.1
836.306	14894.88
836.631	14831.38
836.956	14964.25
837.282	14885.16
837.607	14768.1
837.932	14772.62
838.258	14736.46
838.583	14754.77
838.908	14712.51
839.233	14733.3
839.558	14686.07
839.883	14594.09
840.208	14590.48
840.533	14577.14
840.858	14585.51
841.182	14571.27
841.507	14618.05
841.832	14371.5
842.156	14414.89
842.481	14405.17
842.805	14374.21
843.13	14315.68
843.454	14350.03
843.778	14274.78
844.103	14256.25
844.427	14122.92
844.751	14228.91
845.075	14159.3
845.399	14103.71
845.723	13973.32
846.047	14061.68
846.371	14002.47
846.695	13939.2
847.019	13888.12
847.343	13836.6
847.666	13680.67
847.99	13723.61
848.313	13635.25
848.637	13451.75
848.96	13522.71
849.284	13481.35
849.607	13381.02
849.931	13391.41
850.254	13344.63
850.577	13163.62
850.9	13150.06
851.223	13105.55
851.546	12953.68
851.869	12986.68
852.192	12972.67
852.515	12893.12
852.838	12828.94
853.161	12788.94
853.483	12815.61
853.806	12718.66
854.129	12670.53
854.451	12646.57
854.774	12469.86
855.096	12508.27
855.419	12476.86
855.741	12479.12
856.063	12471.44
856.385	12362.51
856.708	12375.62
857.03	12353.02
857.352	12274.38
857.674	12266.02
857.996	12199.58
858.318	12145.8
858.64	12151.45
858.961	12120.71
859.283	12049.53
859.605	11935.63
859.926	12059.92
860.248	11943.54
860.57	11867.16
860.891	12020.6
861.212	11881.4
861.534	11823.55
861.855	11842.3
862.176	11831.68
862.498	11797.56
862.819	11760.95
863.14	11752.81
863.461	11682.98
863.782	11647.73
864.103	11643.21
864.424	11664
864.745	11682.76
865.065	11544
865.386	11544
865.707	11546.72
866.027	11478.47
866.348	11567.28
866.668	11529.54
866.989	11424.69
867.309	11431.92
867.63	11405.25
867.95	11381.97
868.27	11374.07
868.59	11376.78
868.91	11402.09
869.23	11320.06
869.55	11255.65
869.87	11323.67
870.19	11285.93
870.51	11233.5
870.83	11229.44
871.15	11210.45
871.469	11233.28
871.789	11168.42
872.109	11169.32
872.428	11150.34
872.748	11163.22
873.067	11165.94
873.386	11070.8
873.706	11104.92
874.025	11016.79
874.344	10997.58
874.663	11028.54
874.982	10936.11
875.301	10958.48
875.62	10924.13
875.939	10941.99
876.258	10913.06
876.577	10856.34
876.896	10833.51
877.214	10848.88
877.533	10833.29
877.852	10841.2
878.17	10800.75
878.489	10775.66
878.807	10773.63
879.125	10689.56
879.444	10753.97
879.762	10649.56
880.08	10689.34
880.398	10711.26
880.716	10737.02
881.034	10624.93
881.352	10635.78
881.67	10569.34
881.988	10612.96
882.306	10550.58
882.624	10494.77
882.941	10468.55
883.259	10397.37
883.577	10426.52
883.894	10466.74
884.212	10456.35
884.529	10445.95
884.846	10378.61
885.164	10320.53
885.481	10317.37
885.798	10335
886.115	10231.27
886.432	10210.03
886.75	10193.08
887.067	10198.05
887.383	10207.99
887.7	10208.45
888.017	10184.49
888.334	10121.44
888.651	10110.14
888.967	10030.82
889.284	10015.01
889.6	10022.91
889.917	9939.53
890.233	9962.35
890.55	9831.28
890.866	9848.91
891.182	9873.54
891.498	9809.13
891.815	9806.87
892.131	9764.16
892.447	9728.01
892.763	9698.18
893.079	9685.97
893.395	9643.49
893.71	9562.36
894.026	9559.88
894.342	9566.66
894.657	9490.95
894.973	9486.88
895.289	9533.21
895.604	9475.36
895.92	9341.8
896.235	9345.19
896.55	9343.16
896.865	9357.62
897.181	9341.12
897.496	9285.76
897.811	9289.6
898.126	9190.17
898.441	9160.11
898.756	9137.97
899.071	9123.5
899.386	9122.37
899.7	8984.98
900.015	8911.08
900.33	8987.46
900.644	8963.28
900.959	8922.38
901.273	8886.67
901.588	8812.1
901.902	8773.46
902.216	8820.69
902.531	8764.87
902.845	8736.62
903.159	8690.52
903.473	8623.86
903.787	8571.65
904.101	8594.25
904.415	8560.81
904.729	8460.24
905.042	8472.67
905.356	8445.55
905.67	8482.39
905.984	8414.14
906.297	8377.08
906.611	8373.01
906.924	8324.88
907.237	8322.85
907.551	8240.81
907.864	8216.41
908.177	8197.88
908.491	8170.99
908.804	8080.59
909.117	8081.72
909.43	7999.24
909.743	8025.9
910.056	8018.45
910.368	7943.42
910.681	7904.1
910.994	7895.96
911.307	7881.73
911.619	7800.37
911.932	7886.02
912.244	7759.92
912.557	7751.79
912.869	7716.76
913.181	7666.59
913.494	7668.63
913.806	7610.55
914.118	7566.48
914.43	7503.88
914.742	7521.74
915.054	7469.99
915.366	7404
915.678	7366.04
915.99	7358.58
916.302	7277.22
916.613	7282.65
916.925	7290.78
917.236	7247.62
917.548	7200.62
917.859	7225.7
918.171	7226.83
918.482	7160.84
918.794	7100.05
919.105	7088.98
919.416	6999.04
919.727	6994.07
920.038	6971.02
920.349	6977.12
920.66	6894.41
920.971	6886.05
921.282	6910.45
921.593	6885.14
921.903	6783.45
922.214	6799.5
922.525	6743.23
922.835	6734.64
923.146	6644.7
923.456	6714.3
923.767	6651.25
924.077	6672.27
924.387	6605.83
924.697	6551.82
925.008	6557.69
925.318	6519.73
925.628	6488.09
925.938	6408.09
926.248	6479.05
926.558	6439.51
926.867	6371.49
927.177	6281.77
927.487	6293.97
927.796	6220.98
928.106	6254.2
928.416	6225.27
928.725	6214.2
929.034	6111.83
929.344	6197.48
929.653	6117.93
929.962	6044.94
930.271	6060.98
930.581	6002.91
930.89	6013.98
931.199	5926.3
931.508	5902.8
931.817	5957.71
932.125	5882.23
932.434	5853.53
932.743	5878.39
933.051	5830.48
933.36	5842.46
933.669	5750.94
933.977	5794.1
934.286	5743.25
934.594	5756.81
934.902	5700.32
935.21	5690.82
935.519	5643.82
935.827	5612.18
936.135	5607.44
936.443	5552.52
936.751	5518.17
937.059	5543.48
937.367	5546.87
937.674	5472.3
937.982	5485.63
938.29	5426.65
938.597	5399.53
938.905	5414
939.213	5326.54
939.52	5322.25
939.827	5348.91
940.135	5271.63
940.442	5285.86
940.749	5272.08
941.056	5265.3
941.363	5199.54
941.67	5178.52
941.977	5177.39
942.284	5140.33
942.591	5131.29
942.898	5077.28
943.205	5077.51
943.511	5049.49
943.818	5006.32
944.125	5018.98
944.431	4987.79
944.738	4986.21
945.044	4951.86
945.35	4910.73
945.657	4922.26
945.963	4903.73
946.269	4837.51
946.575	4795.93
946.881	4813.79
947.187	4801.13
947.493	4797.29
947.799	4776.5
948.105	4750.28
948.41	4752.09
948.716	4713
949.022	4644.07
949.327	4677.29
949.633	4612.21
949.938	4608.82
950.244	4609.72
950.549	4587.13
950.854	4578.76
951.16	4535.38
951.465	4495.15
951.77	4474.36
952.075	4453.12
952.38	4472.55
952.685	4455.83
952.99	4410.41
953.294	4383.51
953.599	4317.3
953.904	4336.51
954.209	4277.53
954.513	4316.17
954.818	4289.05
955.122	4253.12
955.426	4250.18
955.731	4240.47
956.035	4196.4
956.339	4202.95
956.643	4191.66
956.948	4188.72
957.252	4134.48
957.556	4158.89
957.86	4124.99
958.163	4107.36
958.467	4115.73
958.771	4049.29
959.075	4052
959.378	3972.45
959.682	4033.24
959.985	4042.51
960.289	3941.94
960.592	3974.49
960.896	3890.42
961.199	3904.88
961.502	3885.22
961.805	3877.09
962.108	3845.9
962.411	3872.79
962.714	3841.61
963.017	3801.84
963.32	3838.67
963.623	3764.1
963.926	3774.27
964.228	3732.68
964.531	3739.24
964.833	3708.05
965.136	3718.22
965.438	3641.39
965.741	3666.7
966.043	3653.36
966.345	3607.49
966.648	3624.89
966.95	3604.78
967.252	3571.56
967.554	3572.24
967.856	3574.72
968.158	3525.68
968.46	3516.64
968.761	3545.57
969.063	3494.5
969.365	3470.09
969.666	3486.82
969.968	3464.67
970.269	3464.22
970.571	3445.01
970.872	3433.48
971.174	3386.7
971.475	3373.37
971.776	3397.55
972.077	3343.99
972.378	3369.76
972.679	3309.19
972.98	3319.36
973.281	3323.66
973.582	3310.55
973.883	3292.47
974.183	3232.36
974.484	3237.78
974.785	3230.1
975.085	3179.25
975.386	3223.77
975.686	3211.79
975.986	3145.81
976.287	3176.99
976.587	3134.96
976.887	3095.19
977.187	3121.63
977.487	3128.18
977.787	3092.7
978.087	3056.54
978.387	3054.28
978.687	3053.83
978.987	3047.28
979.286	2975.19
979.586	3000.05
979.885	3006.6
980.185	2975.42
980.484	2967.51
980.784	2957.79
981.083	2982.2
981.382	2930.67
981.682	2918.69
981.981	2927.06
982.28	2907.85
982.579	2890.9
982.878	2892.93
983.177	2826.27
983.475	2857.91
983.774	2817.45
984.073	2800.05
984.372	2779.04
984.67	2774.74
984.969	2754.63
985.267	2801.41
985.566	2749.66
985.864	2722.77
986.162	2700.62
986.461	2730
986.759	2668.31
987.057	2665.37
987.355	2662.66
987.653	2647.29
987.951	2665.14
988.249	2644.35
988.547	2637.35
988.844	2611.36
989.142	2611.36
989.44	2581.98
989.737	2562.55
990.035	2571.81
990.332	2536.56
990.63	2553.73
990.927	2536.78
991.224	2524.58
991.521	2502.43
991.819	2471.25
992.116	2497.91
992.413	2462.66
992.71	2461.98
993.006	2449.55
993.303	2426.5
993.6	2435.32
993.897	2407.75
994.193	2395.77
994.49	2379.5
994.787	2389.44
995.083	2365.71
995.379	2379.73
995.676	2352.61
995.972	2353.29
996.268	2320.97
996.565	2348.31
996.861	2293.17
997.157	2285.04
997.453	2276.45
997.749	2266.51
998.044	2279.62
998.34	2238.71
998.636	2244.59
998.932	2249.56
999.227	2170.24
999.523	2207.07
999.818	2177.7
1000.114	2161.88
1000.409	2133.63
1000.704	2180.86
1001	2191.03
1001.295	2142.22
1001.59	2117.36
1001.885	2113.29
1002.18	2091.15
1002.475	2079.85
1002.77	2077.36
1003.065	2064.48
1003.359	2082.33
1003.654	2045.05
1003.949	2039.85
1004.243	2030.81
1004.538	1978.83
1004.832	1992.17
1005.127	2032.39
1005.421	1995.33
1005.715	1977.7
1006.009	1957.14
1006.304	1928.66
1006.598	1932.96
1006.892	1929.79
1007.186	1910.13
1007.48	1912.17
1007.773	1882.56
1008.067	1888.21
1008.361	1835.56
1008.655	1859.97
1008.948	1894.77
1009.242	1830.81
1009.535	1826.97
1009.829	1831.72
1010.122	1831.72
1010.415	1782.91
1010.708	1754.66
1011.001	1752.62
1011.295	1777.03
1011.588	1762.57
1011.881	1748.1
1012.173	1747.88
1012.466	1716.01
1012.759	1750.82
1013.052	1730.25
1013.344	1678.95
1013.637	1671.04
1013.93	1672.4
1014.222	1656.35
1014.514	1648.22
1014.807	1644.6
1015.099	1634.43
1015.391	1641.44
1015.683	1627.43
1015.976	1605.06
1016.268	1574.1
1016.56	1586.98
1016.851	1577.71
1017.143	1568.67
1017.435	1561.22
1017.727	1552.63
1018.018	1565.96
1018.31	1499.3
1018.602	1534.78
1018.893	1516.47
1019.185	1488.45
1019.476	1479.41
1019.767	1511.05
1020.058	1490.94
1020.35	1483.48
1020.641	1425.17
1020.932	1453.87
1021.223	1445.74
1021.514	1428.56
1021.804	1420.2
1022.095	1421.56
1022.386	1403.48
1022.677	1392.63
1022.967	1396.47
1023.258	1351.73
1023.548	1377.27
1023.839	1373.65
1024.129	1326.87
1024.419	1326.65
1024.709	1303.14
1025	1321.9
1025.29	1301.56
1025.58	1285.97
1025.87	1278.06
1026.16	1283.26
1026.449	1260.43
1026.739	1241.68
1027.029	1248
1027.319	1241.22
1027.608	1255.01
1027.898	1223.37
1028.187	1218.85
1028.477	1203.03
1028.766	1213.43
1029.055	1194.67
1029.344	1186.76
1029.634	1192.64
1029.923	1196.03
1030.212	1174.56
1030.501	1163.49
1030.79	1141.79
1031.078	1140.44
1031.367	1158.51
1031.656	1136.59
1031.945	1121.91
1032.233	1093.43
1032.522	1102.25
1032.81	1101.34
1033.099	1084.17
1033.387	1088.46
1033.675	1065.18
1033.963	1062.47
1034.251	1065.64
1034.54	1035.81
1034.828	1059.53
1035.116	1070.38
1035.403	1047.11
1035.691	1046.88
1035.979	1051.85
1036.267	1013.89
1036.554	996.26
1036.842	1022.7
1037.129	984.06
1037.417	991.97
1037.704	970.05
1037.992	994.68
1038.279	980.89
1038.566	979.54
1038.853	979.54
1039.14	979.54
