Data from hue_190_FLMS001491_00081.txt Node
Date: Tue Feb 07 16:45:53 GMT 2017
User: dcchb
Spectrometer: FLMS00149
Trigger mode: 0
Integration Time (sec): 2.000000E-2
Scans to average: 10
Electric dark correction enabled: true
Nonlinearity correction enabled: false
Boxcar width: 0
XAxis mode: Wavelengths
Number of Pixels in Spectrum: 2048
>>>>>Begin Spectral Data<<<<<
341.393	-17.19
341.776	-17.19
342.16	-17.19
342.543	-65.1
342.927	-85.89
343.31	-74.81
343.693	-64.65
344.077	-83.63
344.46	-77.53
344.843	-62.84
345.226	-41.82
345.61	-21.03
345.993	-0.01
346.376	0.21
346.759	28.69
347.142	23.49
347.525	63.26
347.908	57.39
348.291	68.23
348.674	90.6
349.057	94.45
349.44	104.16
349.823	147.55
350.206	153.88
350.588	199.53
350.971	202.47
351.354	229.13
351.737	232.07
352.119	232.3
352.502	248.11
352.884	252.63
353.267	281.11
353.65	276.36
354.032	290.6
354.414	321.33
354.797	310.03
355.179	312.29
355.562	317.27
355.944	342.35
356.326	337.38
356.709	335.34
357.091	337.38
357.473	328.11
357.855	317.04
358.238	355.68
358.62	340.09
359.002	334.44
359.384	339.64
359.766	337.38
360.148	326.76
360.53	332.63
360.912	338.51
361.294	321.56
361.676	338.96
362.057	337.83
362.439	317.72
362.821	310.49
363.203	324.27
363.584	308.68
363.966	310.49
364.348	299.86
364.729	317.49
365.111	308.23
365.493	305.97
365.874	314.33
366.256	312.52
366.637	323.37
367.019	303.48
367.4	314.78
367.781	325.63
368.163	313.65
368.544	313.65
368.925	308.9
369.306	300.77
369.688	302.58
370.069	311.84
370.45	331.95
370.831	323.82
371.212	309.13
371.593	312.29
371.974	310.94
372.355	294.67
372.736	302.35
373.117	304.38
373.498	317.27
373.879	322.46
374.26	301.45
374.641	308.9
375.021	273.65
375.402	321.33
375.783	325.85
376.163	319.07
376.544	318.4
376.925	303.93
377.305	334.89
377.686	322.01
378.066	333.76
378.447	315.23
378.827	308.23
379.208	334.89
379.588	309.13
379.968	317.04
380.349	319.3
380.729	323.14
381.109	339.86
381.489	331.5
381.87	361.11
382.25	340.09
382.63	320.2
383.01	330.6
383.39	327.66
383.77	338.96
384.15	321.11
384.53	329.24
384.91	354.1
385.29	351.84
385.67	351.16
386.049	343.03
386.429	335.34
386.809	337.83
387.189	350.94
387.568	363.14
387.948	340.99
388.328	351.84
388.707	358.62
389.087	361.11
389.466	335.57
389.846	361.11
390.225	341.22
390.605	338.73
390.984	371.05
391.363	380.31
391.743	337.83
392.122	355.46
392.501	381.9
392.881	369.92
393.26	387.55
393.639	359.75
394.018	352.29
394.397	390.71
394.776	385.74
395.155	375.34
395.534	387.55
395.913	363.59
396.292	379.64
396.671	397.26
397.05	404.5
397.429	381.67
397.808	398.17
398.186	373.99
398.565	384.61
398.944	366.98
399.323	408.11
399.701	395.23
400.08	402.69
400.458	402.01
400.837	402.91
401.215	407.21
401.594	419.86
401.972	421.22
402.351	414.89
402.729	425.29
403.107	415.57
403.486	430.71
403.864	432.97
404.242	431.61
404.62	445.85
404.999	446.3
405.377	445.4
405.755	427.77
406.133	462.8
406.511	461.22
406.889	458.05
407.267	461.44
407.645	458.5
408.023	469.8
408.401	475
408.779	475.68
409.156	485.85
409.534	502.12
409.912	519.97
410.29	524.49
410.667	515.68
411.045	533.76
411.422	539.41
411.8	549.12
412.178	553.64
412.555	553.87
412.933	574.21
413.31	556.58
413.687	583.7
414.065	587.09
414.442	613.08
414.819	597.94
415.197	607.88
415.574	624.15
415.951	634.55
416.328	630.93
416.705	613.3
417.082	639.07
417.46	664.15
417.837	670.7
418.214	691.04
418.591	687.65
418.967	678.39
419.344	705.28
419.721	682
420.098	713.64
420.475	737.14
420.852	742.57
421.228	725.16
421.605	727.88
421.982	744.83
422.358	780.76
422.735	787.31
423.111	794.77
423.488	824.37
423.864	837.7
424.241	850.58
424.617	847.42
424.994	854.65
425.37	893.97
425.746	873.86
426.123	898.04
426.499	912.96
426.875	950.02
427.251	926.97
427.627	955.21
428.003	958.83
428.379	987.08
428.756	983.24
429.132	968.1
429.507	1009.45
429.883	1018.04
430.259	1031.82
430.635	1030.02
431.011	1065.95
431.387	1078.6
431.763	1115.21
432.138	1107.53
432.514	1136.45
432.89	1134.42
433.265	1163.57
433.641	1171.48
434.016	1208.32
434.392	1216.68
434.767	1293.96
435.143	1255.77
435.518	1298.48
435.894	1328.54
436.269	1310.91
436.644	1350.01
437.02	1354.07
437.395	1366.96
437.77	1389.1
438.145	1431.36
438.52	1467.52
438.895	1441.53
439.271	1464.81
439.646	1523.79
440.021	1560.85
440.395	1544.35
440.77	1556.1
441.145	1567.63
441.52	1603.11
441.895	1628.19
442.27	1672.03
442.645	1654.41
443.019	1686.27
443.394	1687.63
443.769	1740.51
444.143	1721.75
444.518	1738.25
444.892	1781.63
445.267	1798.13
445.641	1790.67
446.016	1810.33
446.39	1824.12
446.764	1832.03
447.139	1808.75
447.513	1857.11
447.887	1878.58
448.262	1871.12
448.636	1904.12
449.01	1922.87
449.384	1971.91
449.758	1960.16
450.132	1978.46
450.506	2001.74
450.88	2019.14
451.254	2022.31
451.628	2050.78
452.002	2095.98
452.376	2076.99
452.75	2135.52
453.123	2137.78
453.497	2157.67
453.871	2198.8
454.244	2233.37
454.618	2255.52
454.992	2292.58
455.365	2303.43
455.739	2319.02
456.112	2336.65
456.486	2394.05
456.859	2380.04
457.232	2449.64
457.606	2475.85
457.979	2496.19
458.352	2539.58
458.725	2547.72
459.099	2591.33
459.472	2631.33
459.845	2674.04
460.218	2691.44
460.591	2722.63
460.964	2755.39
461.337	2800.59
461.71	2835.84
462.083	2900.25
462.456	2863.87
462.829	2924.88
463.201	2925.78
463.574	2981.6
463.947	3017.53
464.32	3078.1
464.692	3103.41
465.065	3127.59
465.438	3175.95
465.81	3244.19
466.183	3276.28
466.555	3317.86
466.928	3361.25
467.3	3393.57
467.672	3452.55
468.045	3511.98
468.417	3504.3
468.789	3565.09
469.161	3583.62
469.534	3702.26
469.906	3755.59
470.278	3764.63
470.65	3836.72
471.022	3902.26
471.394	3977.96
471.766	3979.32
472.138	4018.86
472.51	4125.53
472.882	4182.25
473.253	4278.97
473.625	4341.34
473.997	4405.97
474.369	4441.45
474.74	4490.72
475.112	4603.25
475.484	4681.67
475.855	4746.53
476.227	4802.35
476.598	4897.48
476.97	4972.51
477.341	5099.74
477.713	5182.67
478.084	5214.54
478.455	5382.22
478.827	5380.86
479.198	5591.93
479.569	5563.23
479.94	5714.41
480.311	5786.05
480.682	5910.11
481.053	6065.82
481.424	6143.78
481.795	6182.2
482.166	6297.67
482.537	6395.52
482.908	6501.74
483.279	6605.69
483.65	6769.75
484.021	6855.85
484.391	6881.39
484.762	6978.11
485.133	7055.17
485.503	7210.19
485.874	7304.2
486.244	7409.28
486.615	7535.15
486.985	7609.05
487.356	7758.88
487.726	7831.42
488.097	7998.87
488.467	8029.83
488.837	8197.51
489.207	8278.41
489.578	8393.66
489.948	8505.98
490.318	8562.92
490.688	8558.4
491.058	8736.03
491.428	8871.39
491.798	8917.27
492.168	9100.99
492.538	9111.16
492.908	9133.31
493.278	9231.38
493.648	9371.72
494.017	9490.13
494.387	9521.32
494.757	9639.51
495.126	9714.76
495.496	9719.28
495.866	9778.94
496.235	9868.88
496.605	9957.92
496.974	10043.56
497.344	10052.83
497.713	10102.77
498.082	10170.34
498.452	10255.31
498.821	10319.49
499.19	10330.56
499.559	10425.25
499.928	10457.11
500.298	10463.67
500.667	10580.27
501.036	10581.85
501.405	10717.67
501.774	10652.59
502.143	10671.57
502.512	10756.54
502.88	10813.94
503.249	10690.33
503.618	10865.24
503.987	10815.75
504.356	10979.58
504.724	10869.76
505.093	10970.32
505.462	10984.1
505.83	11009.64
506.199	11129.86
506.567	11205.57
506.936	11229.3
507.304	11280.37
507.672	11264.77
508.041	11289.86
508.409	11410.53
508.777	11434.71
509.145	11453.24
509.514	11476.75
509.882	11451.44
510.25	11503.64
510.618	11544.54
510.986	11515.62
511.354	11608.49
511.722	11778.43
512.09	11648.49
512.458	11692.33
512.826	11650.75
513.193	11768.72
513.561	11736.17
513.929	11780.24
514.297	11828.38
514.664	11889.39
515.032	11833.35
515.4	11869.05
515.767	11940.46
516.135	11886.68
516.502	11846.91
516.869	11960.8
517.237	11920.8
517.604	11951.08
517.972	11943.63
518.339	11975.94
518.706	11990.18
519.073	12045.32
519.44	12006
519.808	12045.09
520.175	11973
520.542	12096.62
520.909	12095.71
521.276	12025.43
521.643	12150.17
522.009	12103.4
522.376	12165.54
522.743	12211.19
523.11	12149.5
523.477	12261.36
523.843	12184.98
524.21	12277.63
524.577	12328.7
524.943	12329.15
525.31	12282.37
525.676	12323.5
526.043	12335.93
526.409	12290.28
526.776	12409.38
527.142	12330.96
527.508	12305.43
527.874	12355.59
528.241	12308.81
528.607	12300
528.973	12351.3
529.339	12345.42
529.705	12324.86
530.071	12446.66
530.437	12367.57
530.803	12299.32
531.169	12315.14
531.535	12242.38
531.901	12205.77
532.267	12257.52
532.632	12209.38
532.998	12151.98
533.364	12129.61
533.73	12173
534.095	12154.24
534.461	12090.29
534.826	12143.4
535.192	12062.04
535.557	12026.11
535.923	11970.29
536.288	11928.26
536.653	11930.97
537.019	11896.4
537.384	11833.35
537.749	11775.5
538.114	11725.33
538.479	11666.57
538.845	11754.03
539.21	11620.92
539.575	11624.54
539.94	11551.77
540.305	11540.7
540.67	11379.57
541.034	11444.66
541.399	11380.48
541.764	11315.17
542.129	11304.55
542.494	11239.01
542.858	11279.92
543.223	11172.57
543.587	11098.9
543.952	11111.56
544.316	11059.13
544.681	10953.6
545.045	10943.2
545.41	10923.54
545.774	10881.96
546.138	10869.98
546.503	10849.42
546.867	10791.79
547.231	10767.61
547.595	10736.43
547.959	10634.96
548.324	10535.08
548.688	10536.66
549.052	10479.71
549.416	10361.52
549.779	10376.89
550.143	10405.14
550.507	10366.27
550.871	10323.78
551.235	10258.25
551.599	10269.55
551.962	10149.1
552.326	10175.09
552.689	10242.2
553.053	10047.41
553.417	10055.77
553.78	10080.85
554.143	9953.17
554.507	9920.18
554.87	9947.97
555.234	9963.79
555.597	9834.76
555.96	9829.78
556.323	9820.97
556.686	9720.86
557.05	9794.3
557.413	9738.49
557.776	9690.35
558.139	9742.55
558.502	9735.1
558.865	9630.24
559.228	9583.46
559.59	9591.15
559.953	9590.47
560.316	9668.88
560.679	9587.76
561.041	9616.91
561.404	9646.29
561.767	9624.59
562.129	9542.56
562.492	9576.23
562.854	9537.36
563.217	9496.46
563.579	9502.56
563.941	9574.2
564.304	9517.93
564.666	9578.04
565.028	9533.07
565.39	9516.8
565.753	9540.75
566.115	9552.05
566.477	9542.11
566.839	9607.42
567.201	9561.77
567.563	9563.35
567.925	9548.21
568.287	9573.97
568.648	9517.25
569.01	9535.33
569.372	9584.82
569.734	9573.75
570.095	9571.94
570.457	9617.81
570.819	9578.04
571.18	9576.23
571.542	9559.96
571.903	9595.89
572.265	9569.68
572.626	9581.65
572.987	9597.02
573.349	9562.9
573.71	9603.12
574.071	9566.29
574.432	9599.28
574.794	9624.82
575.155	9610.35
575.516	9611.94
575.877	9612.84
576.238	9592.05
576.599	9655.33
576.96	9601.32
577.32	9668.43
577.681	9621.88
578.042	9582.11
578.403	9635.44
578.763	9612.16
579.124	9662.33
579.485	9572.16
579.845	9613.52
580.206	9601.32
580.566	9583.01
580.927	9629.34
581.287	9635.44
581.648	9587.76
582.008	9589.79
582.368	9560.19
582.728	9556.8
583.089	9592.28
583.449	9511.15
583.809	9530.81
584.169	9534.88
584.529	9464.6
584.889	9570.58
585.249	9505.27
585.609	9419.85
585.969	9520.41
586.329	9499.4
586.688	9498.27
587.048	9527.64
587.408	9416.24
587.768	9395.45
588.127	9378.72
588.487	9397.7
588.846	9492.62
589.206	9414.2
589.565	9380.3
589.925	9419.17
590.284	9384.37
590.643	9387.54
591.003	9434.09
591.362	9429.12
591.721	9399.74
592.08	9372.85
592.44	9400.42
592.799	9363.81
593.158	9321.1
593.517	9330.81
593.876	9322.68
594.235	9327.65
594.593	9309.35
594.952	9352.96
595.311	9308.67
595.67	9302.57
596.029	9343.24
596.387	9324.94
596.746	9332.62
597.104	9264.6
597.463	9300.31
597.822	9304.83
598.18	9229.12
598.538	9260.31
598.897	9232.29
599.255	9263.47
599.613	9362.9
599.972	9282.68
600.33	9249.69
600.688	9204.94
601.046	9260.08
601.404	9287.88
601.762	9255.79
602.12	9333.3
602.478	9348.21
602.836	9227.77
603.194	9278.39
603.552	9241.78
603.91	9213.98
604.268	9242.23
604.625	9236.58
604.983	9241.78
605.341	9189.12
605.698	9236.58
606.056	9232.06
606.413	9213.08
606.771	9265.5
607.128	9258.95
607.485	9209.69
607.843	9265.05
608.2	9265.5
608.557	9336.46
608.914	9274.77
609.272	9306.18
609.629	9259.18
609.986	9370.13
610.343	9356.8
610.7	9333.98
611.057	9391.6
611.414	9364.94
611.771	9360.87
612.127	9410.36
612.484	9333.3
612.841	9412.85
613.198	9420.98
613.554	9416.24
613.911	9387.54
614.267	9414.88
614.624	9428.44
614.98	9354.99
615.337	9413.3
615.693	9456.91
616.05	9372.17
616.406	9406.07
616.762	9428.66
617.118	9399.06
617.475	9387.31
617.831	9483.58
618.187	9427.53
618.543	9433.18
618.899	9472.05
619.255	9378.27
619.611	9422.79
619.967	9468.44
620.323	9518.38
620.678	9450.58
621.034	9451.71
621.39	9477.02
621.746	9462.34
622.101	9512.28
622.457	9431.15
622.812	9489.91
623.168	9450.81
623.523	9477.25
623.879	9463.24
624.234	9451.49
624.589	9453.07
624.945	9498.27
625.3	9529
625.655	9486.97
626.01	9445.61
626.365	9494.65
626.72	9417.37
627.075	9475.89
627.43	9327.2
627.785	9411.72
628.14	9420.3
628.495	9491.04
628.85	9445.16
629.205	9334.66
629.559	9444.71
629.914	9359.74
630.269	9442.68
630.623	9342.57
630.978	9323.13
631.332	9326.75
631.687	9404.03
632.041	9336.92
632.396	9384.82
632.75	9256.92
633.104	9325.16
633.459	9198.39
633.813	9294.88
634.167	9287.43
634.521	9277.48
634.875	9251.72
635.229	9255.56
635.583	9153.42
635.937	9198.84
636.291	9217.14
636.645	9197.03
636.999	9179.63
637.352	9256.01
637.706	9174.89
638.06	9186.19
638.413	9147.32
638.767	9189.35
639.121	9140.76
639.474	9023.93
639.828	9090.14
640.181	9106.87
640.534	9112.29
640.888	9051.95
641.241	9033.65
641.594	9072.29
641.947	9135.34
642.301	9020.31
642.654	9114.1
643.007	9051.73
643.36	9093.76
643.713	9052.86
644.066	9120.65
644.419	9011.95
644.771	8984.83
645.124	8815.12
645.477	8901.45
645.83	8839.75
646.182	8781
646.535	8737.84
646.888	8734.9
647.24	8741
647.593	8739.87
647.945	8706.2
648.298	8658.06
648.65	8680.66
649.002	8666.88
649.355	8734.9
649.707	8708.23
650.059	8757.04
650.411	8844.73
650.763	8860.32
651.115	8884.95
651.467	8937.38
651.819	8878.62
652.171	8933.08
652.523	8898.96
652.875	8886.98
653.227	8766.08
653.578	8906.42
653.93	8884.05
654.282	8835.46
654.633	8797.04
654.985	8856.48
655.337	8835.23
655.688	8870.94
656.039	8901.22
656.391	8824.16
656.742	8869.36
657.094	8807.44
657.445	8874.78
657.796	8875.46
658.147	8838.62
658.498	8836.59
658.849	8886.98
659.2	8876.59
659.551	8903.03
659.902	8914.33
660.253	8887.89
660.604	8919.3
660.955	8876.81
661.306	8925.17
661.656	8930.15
662.007	8851.5
662.358	8886.98
662.708	8971.95
663.059	8892.18
663.409	8826.19
663.76	8939.86
664.11	8965.85
664.461	8930.15
664.811	8878.62
665.161	8906.42
665.511	8902.12
665.862	8889.24
666.212	8891.28
666.562	8905.74
666.912	8938.06
667.262	8886.08
667.612	8945.51
667.962	8919.98
668.312	8925.85
668.662	8974.21
669.011	8937.83
669.361	8958.85
669.711	8922.24
670.06	8939.19
670.41	8878.17
670.76	8908.68
671.109	8883.14
671.459	8915.91
671.808	8811.96
672.157	8876.14
672.507	8812.64
672.856	8885.4
673.205	8766.31
673.554	8860.09
673.904	8812.18
674.253	8845.85
674.602	8823.26
674.951	8688.34
675.3	8681.34
675.649	8782.58
675.998	8746.87
676.346	8828.45
676.695	8809.02
677.044	8693.54
677.393	8759.08
677.741	8773.09
678.09	8744.39
678.438	8704.84
678.787	8719.76
679.135	8729.02
679.484	8650.15
679.832	8705.07
680.181	8608.8
680.529	8616.03
680.877	8611.74
681.225	8591.4
681.573	8687.22
681.922	8570.16
682.27	8598.86
682.618	8594.56
682.966	8585.97
683.314	8510.04
683.661	8463.72
684.009	8517.5
684.357	8426.66
684.705	8421.01
685.053	8432.53
685.4	8380.56
685.748	8343.95
686.095	8308.92
686.443	8297.62
686.79	8377.17
687.138	8342.37
687.485	8342.59
687.832	8366.32
688.18	8332.2
688.527	8224.63
688.874	8223.72
689.221	8244.06
689.568	8195.02
689.915	8134.69
690.262	8195.48
690.609	8158.87
690.956	8070.51
691.303	8112.99
691.65	8040.23
691.997	7989.61
692.344	7951.64
692.69	7939.21
693.037	7951.42
693.383	7855.82
693.73	7940.34
694.077	7851.3
694.423	7809.27
694.769	7793.23
695.116	7755.94
695.462	7685.21
695.808	7759.1
696.155	7751.65
696.501	7691.31
696.847	7659.9
697.193	7638.88
697.539	7610.18
697.885	7555.72
698.231	7509.39
698.577	7514.82
698.923	7487.92
699.269	7477.08
699.614	7390.07
699.96	7362.96
700.306	7415.61
700.651	7341.49
700.997	7333.58
701.342	7303.52
701.688	7287.25
702.033	7234.6
702.379	7245.67
702.724	7267.14
703.069	7213.13
703.415	7136.75
703.76	7146.24
704.105	7124.09
704.45	7166.58
704.795	7041.38
705.14	6998.9
705.485	7066.69
705.83	7040.48
706.175	7032.12
706.52	7000.48
706.865	6920.26
707.209	6953.93
707.554	6889.52
707.899	6933.59
708.243	6857.43
708.588	6821.05
708.932	6815.17
709.277	6833.25
709.621	6797.1
709.966	6791.67
710.31	6701.96
710.654	6648.62
710.998	6732.01
711.342	6694.73
711.687	6723.42
712.031	6613.6
712.375	6644.78
712.719	6690.43
713.063	6618.12
713.407	6679.13
713.75	6570.43
714.094	6655.4
714.438	6552.58
714.782	6564.79
715.125	6564.11
715.469	6548.29
715.812	6529.31
716.156	6468.29
716.499	6435.07
716.843	6485.01
717.186	6450.44
717.53	6492.47
717.873	6393.72
718.216	6409.99
718.559	6459.03
718.902	6384
719.246	6412.7
719.589	6369.54
719.932	6381.51
720.275	6375.41
720.617	6387.61
720.96	6332.47
721.303	6347.62
721.646	6329.08
721.989	6360.04
722.331	6375.19
722.674	6328.86
723.016	6317.79
723.359	6314.17
723.701	6403.43
724.044	6331.34
724.386	6266.94
724.729	6273.04
725.071	6325.24
725.413	6314.4
725.755	6227.84
726.097	6263.78
726.439	6209.31
726.782	6266.94
727.124	6329.76
727.465	6287.05
727.807	6247.73
728.149	6237.56
728.491	6223.78
728.833	6213.38
729.175	6244.57
729.516	6271.01
729.858	6245.7
730.199	6249.09
730.541	6259.48
730.882	6209.09
731.224	6236.21
731.565	6247.05
731.906	6234.17
732.248	6229.65
732.589	6168.19
732.93	6194.63
733.271	6222.2
733.612	6235.3
733.953	6224.23
734.294	6248.18
734.635	6184.23
734.976	6289.54
735.317	6190.78
735.658	6216.77
735.999	6219.48
736.339	6234.4
736.68	6298.35
737.021	6248.18
737.361	6205.25
737.702	6193.27
738.042	6289.31
738.383	6216.77
738.723	6301.52
739.063	6315.53
739.404	6257.67
739.744	6302.87
740.084	6255.87
740.424	6267.62
740.764	6303.77
741.104	6358.91
741.444	6291.57
741.784	6350.78
742.124	6373.15
742.464	6339.48
742.804	6421.06
743.143	6369.08
743.483	6363.66
743.823	6375.19
744.162	6422.19
744.502	6478.69
744.841	6447.5
745.181	6560.04
745.52	6529.08
745.86	6570.89
746.199	6598.91
746.538	6611.79
746.877	6680.26
747.216	6738.79
747.556	6763.2
747.895	6793.48
748.234	6870.31
748.573	6934.94
748.911	6893.36
749.25	6964.32
749.589	7004.77
749.928	7108.5
750.267	7180.14
750.605	7228.27
750.944	7288.61
751.283	7363.63
751.621	7418.32
751.96	7476.63
752.298	7597.53
752.636	7702.83
752.975	7772.21
753.313	7840.68
753.651	7974.92
753.989	8083.84
754.327	8177.85
754.666	8283.38
755.004	8398.86
755.342	8515.24
755.679	8655.13
756.017	8751.39
756.355	8941.22
756.693	9005.4
757.031	9108.67
757.368	9260.76
757.706	9449.45
758.044	9560.64
758.381	9660.97
758.719	9889.9
759.056	10051.47
759.394	10158.81
759.731	10342.09
760.068	10468.64
760.405	10649.65
760.743	10774.39
761.08	10978.23
761.417	11096.87
761.754	11276.07
762.091	11497.31
762.428	11625.89
762.765	11759.45
763.102	11986.34
763.438	12114.02
763.775	12351.53
764.112	12497.74
764.449	12662.93
764.785	12827.22
765.122	12906.99
765.458	13079.87
765.795	13244.16
766.131	13396.47
766.467	13590.59
766.804	13687.08
767.14	13827.64
767.476	14125.72
767.812	14225.15
768.148	14449.55
768.485	14463.11
768.821	14587.4
769.157	14767.96
769.492	14856.77
769.828	15015.86
770.164	15082.75
770.5	15205.46
770.836	15341.5
771.171	15445.46
771.507	15583.98
771.842	15639.12
772.178	15728.16
772.513	15955.05
772.849	15954.59
773.184	16024.65
773.519	16197.07
773.855	16235.94
774.19	16285.21
774.525	16428.48
774.86	16507.12
775.195	16566.56
775.53	16680.23
775.865	16658.76
776.2	16722.48
776.535	16704.86
776.87	16747.57
777.205	16790.96
777.539	16863.05
777.874	16919.54
778.209	16888.81
778.543	17023.49
778.878	17051.97
779.212	17088.58
779.547	17064.62
779.881	17321.11
780.215	17262.36
780.55	17350.49
780.884	17184.39
781.218	17251.28
781.552	17366.53
781.886	17317.04
782.22	17421.45
782.554	17347.1
782.888	17345.07
783.222	17211.51
783.556	17284.05
783.889	17302.81
784.223	17258.52
784.557	17240.44
784.89	17341.9
785.224	17291.51
785.557	17230.95
785.891	17251.06
786.224	17305.29
786.558	17317.5
786.891	17083.83
787.224	17253.09
787.557	17278.85
787.891	17200.66
788.224	17283.83
788.557	17279.31
788.89	17158.63
789.223	17288.8
789.556	17131.96
789.888	17124.06
790.221	17176.03
790.554	16955.25
790.887	17061.91
791.219	16970.16
791.552	17077.5
791.884	17013.1
792.217	16935.36
792.549	16997.05
792.882	16778.75
793.214	16841.12
793.546	16907.79
793.879	16879.32
794.211	16650.85
794.543	16847.68
794.875	16849.03
795.207	16812.43
795.539	16737.62
795.871	16771.07
796.203	16602.94
796.535	16569.95
796.867	16490.85
797.198	16507.8
797.53	16574.69
797.862	16442.04
798.193	16537.63
798.525	16430.06
798.856	16450.4
799.188	16300.57
799.519	16157.3
799.85	16141.93
800.182	16227.58
800.513	16197.3
800.844	16032.78
801.175	16209.96
801.506	16144.19
801.837	16064.65
802.168	16115.72
802.499	15950.98
802.83	15973.58
803.161	15929.74
803.491	15956.4
803.822	15955.27
804.153	15818.33
804.483	15735.39
804.814	15665.34
805.145	15670.99
805.475	15652
805.805	15674.15
806.136	15659.46
806.466	15676.64
806.796	15475.96
807.126	15486.36
807.457	15452.46
807.787	15495.4
808.117	15344.44
808.447	15303.99
808.777	15370.66
809.107	15313.71
809.436	15325.01
809.766	15282.07
810.096	15231
810.426	15194.39
810.755	15248.85
811.085	15147.38
811.414	15128.4
811.744	15039.59
812.073	15073.26
812.403	15049.99
812.732	14904.68
813.061	14992.36
813.39	14879.82
813.719	14842.31
814.049	14917.79
814.378	14924.79
814.707	14806.83
815.036	14852.02
815.365	14790.56
815.693	14646.61
816.022	14636.44
816.351	14720.05
816.68	14586.95
817.008	14607.51
817.337	14523.9
817.665	14463.79
817.994	14595.53
818.322	14565.93
818.651	14472.37
818.979	14411.81
819.307	14463.79
819.636	14481.64
819.964	14410.23
820.292	14414.97
820.62	14408.42
820.948	14312.38
821.276	14428.08
821.604	14316.22
821.932	14396.67
822.259	14384.47
822.587	14296.11
822.915	14326.61
823.243	14330.46
823.57	14310.57
823.898	14368.42
824.225	14307.41
824.553	14293.4
824.88	14304.92
825.207	14388.53
825.535	14276.22
825.862	14411.36
826.189	14378.14
826.516	14412.26
826.843	14385.82
827.17	14421.53
827.497	14397.35
827.824	14407.29
828.151	14410.23
828.478	14418.59
828.805	14427.18
829.131	14357.35
829.458	14403
829.785	14330.68
830.111	14351.25
830.438	14453.62
830.764	14395.99
831.09	14440.06
831.417	14291.59
831.743	14333.17
832.069	14341.08
832.395	14270.12
832.722	14354.86
833.048	14239.39
833.374	14279.38
833.7	14263.57
834.026	14340.17
834.351	14360.74
834.677	14328.2
835.003	14352.38
835.329	14278.48
835.654	14247.29
835.98	14087.75
836.306	14197.58
836.631	14160.29
836.956	14221.76
837.282	14114.19
837.607	14171.36
837.932	14098.37
838.258	14130.91
838.583	14081.65
838.908	13984.25
839.233	14041.65
839.558	14007.53
839.883	13982.44
840.208	13907.42
840.533	13880.98
840.858	13894.76
841.182	13906.96
841.507	13917.36
841.832	13885.27
842.156	13766.86
842.481	13888.89
842.805	13801.2
843.13	13687.08
843.454	13703.58
843.778	13628.33
844.103	13610.7
844.427	13627.42
844.751	13514.88
845.075	13468.56
845.399	13456.81
845.723	13427.66
846.047	13369.35
846.371	13423.59
846.695	13353.31
847.019	13265.63
847.343	13132.75
847.666	13069.02
847.99	13066.76
848.313	13077.16
848.637	12892.53
848.96	12928.01
849.284	12998.97
849.607	12772.98
849.931	12855.69
850.254	12708.58
850.577	12653.66
850.9	12593.78
851.223	12567.34
851.546	12502.48
851.869	12463.84
852.192	12515.14
852.515	12362.82
852.838	12392.88
853.161	12314.92
853.483	12273.34
853.806	12151.3
854.129	12264.75
854.451	12104.75
854.774	12100.91
855.096	12105.43
855.419	12098.65
855.741	12061.82
856.063	11936.85
856.385	11970.74
856.708	11865.66
857.03	11864.08
857.352	11824.08
857.674	11839.22
857.996	11776.63
858.318	11766.68
858.64	11691.2
858.961	11658.21
859.283	11617.53
859.605	11476.75
859.926	11653.46
860.248	11502.96
860.57	11402.62
860.891	11461.61
861.212	11422.96
861.534	11378.67
861.855	11383.87
862.176	11409.63
862.498	11413.25
862.819	11317.43
863.14	11269.29
863.461	11250.76
863.782	11225.45
864.103	11239.46
864.424	11189.97
864.745	11213.48
865.065	11131.67
865.386	11103.42
865.707	11027.72
866.027	11101.16
866.348	11012.58
866.668	11071.56
866.989	11014.61
867.309	10975.29
867.63	11002.18
867.95	10962.18
868.27	10876.99
868.59	10933.03
868.91	10937.55
869.23	10973.93
869.55	10890.32
869.87	10887.84
870.19	10957.21
870.51	10843.32
870.83	10873.6
871.15	10805.13
871.469	10843.32
871.789	10869.08
872.109	10818.01
872.428	10718.57
872.748	10773.94
873.067	10680.16
873.386	10692.59
873.706	10744.11
874.025	10617.33
874.344	10580.27
874.663	10610.55
874.982	10636.54
875.301	10565.81
875.62	10602.64
875.939	10501.18
876.258	10573.95
876.577	10532.36
876.896	10505.02
877.214	10485.59
877.533	10449.43
877.852	10405.81
878.17	10451.91
878.489	10465.7
878.807	10383.44
879.125	10392.25
879.444	10403.78
879.762	10363.78
880.08	10351.35
880.398	10341.18
880.716	10382.54
881.034	10273.16
881.352	10214.18
881.67	10260.73
881.988	10220.51
882.306	10169.21
882.624	10159.94
882.941	10102.09
883.259	10039.5
883.577	10060.96
883.894	10067.74
884.212	10078.14
884.529	10019.38
884.846	10051.92
885.164	10010.8
885.481	9926.5
885.798	9980.97
886.115	9855.09
886.432	9919.27
886.75	9816
887.067	9915.88
887.383	9789.33
887.7	9879.73
888.017	9786.4
888.334	9808.54
888.651	9754.08
888.967	9720.63
889.284	9674.99
889.6	9596.12
889.917	9564.93
890.233	9492.62
890.55	9578.49
890.866	9580.3
891.182	9477.93
891.498	9493.07
891.815	9467.76
892.131	9412.62
892.447	9369.01
892.763	9357.48
893.079	9389.34
893.395	9324.49
893.71	9287.43
894.026	9258.27
894.342	9288.1
894.657	9211.95
894.973	9118.62
895.289	9176.92
895.604	9103.02
895.92	9059.41
896.235	9002.46
896.55	8987.55
896.865	8981.22
897.181	9012.86
897.496	8924.05
897.811	8892.86
898.126	8870.94
898.441	8828.23
898.756	8793.88
899.071	8746.2
899.386	8762.47
899.7	8723.37
900.015	8632.75
900.33	8597.05
900.644	8595.92
900.959	8555.69
901.273	8565.86
901.588	8487.9
901.902	8424.62
902.216	8440.44
902.531	8432.31
902.845	8389.37
903.159	8297.62
903.473	8287
903.787	8285.42
904.101	8200.9
904.415	8173.1
904.729	8187.12
905.042	8152.99
905.356	8072.09
905.67	8054.92
905.984	8102.37
906.297	8076.84
906.611	8031.41
906.924	7953.68
907.237	8003.39
907.551	7957.74
907.864	7873.9
908.177	7869.16
908.491	7824.86
908.804	7780.12
909.117	7791.19
909.43	7742.61
909.743	7620.58
910.056	7605.21
910.368	7590.52
910.681	7581.26
910.994	7578.09
911.307	7622.38
911.619	7512.33
911.932	7497.64
912.244	7452.67
912.557	7437.3
912.869	7350.75
913.181	7361.37
913.494	7333.13
913.806	7285.22
914.118	7255.61
914.43	7242.73
914.742	7257.42
915.054	7193.92
915.366	7141.04
915.678	7141.27
915.99	7092
916.302	7033.02
916.613	6995.51
916.925	7039.57
917.236	6947.83
917.548	6932.68
917.859	6920.48
918.171	6876.42
918.482	6868.28
918.794	6807.94
919.105	6822.18
919.416	6785.34
919.727	6749.64
920.038	6710.32
920.349	6647.72
920.66	6677.32
920.971	6640.26
921.282	6637.1
921.593	6602.98
921.903	6536.09
922.214	6556.2
922.525	6502.41
922.835	6467.39
923.146	6445.92
923.456	6454.28
923.767	6430.1
924.077	6394.17
924.387	6352.36
924.697	6318.69
925.008	6289.09
925.318	6251.8
925.628	6248.86
925.938	6245.25
926.248	6187.62
926.558	6177.9
926.867	6164.12
927.177	6146.49
927.487	6105.59
927.796	6023.78
928.106	6086.83
928.416	6023.56
928.725	6010.45
929.034	5952.82
929.344	5991.01
929.653	5961.41
929.962	5884.58
930.271	5891.13
930.581	5843.22
930.89	5849.1
931.199	5800.29
931.508	5802.55
931.817	5754.18
932.125	5783.11
932.434	5741.08
932.743	5680.29
933.051	5670.8
933.36	5676.67
933.669	5619.05
933.977	5585.38
934.286	5582.66
934.594	5555.32
934.902	5518.48
935.21	5480.29
935.519	5482.1
935.827	5498.37
936.135	5430.8
936.443	5367.3
936.751	5390.13
937.059	5344.93
937.367	5332.95
937.674	5272.84
937.982	5307.87
938.29	5276.23
938.597	5252.28
938.905	5167.31
939.213	5205.27
939.52	5183.35
939.827	5160.75
940.135	5125.05
940.442	5091.15
940.749	5128.89
941.056	5141.55
941.363	5047.99
941.67	5084.15
941.977	5011.15
942.284	5013.64
942.591	4969.57
942.898	4984.49
943.205	4910.59
943.511	4914.88
943.818	4873.53
944.125	4849.12
944.431	4855.23
944.738	4845.51
945.044	4833.08
945.35	4786.07
945.657	4802.57
945.963	4783.14
946.269	4678.05
946.575	4689.35
946.881	4668.56
947.187	4662.91
947.493	4674.44
947.799	4621.56
948.105	4590.37
948.41	4579.3
948.716	4590.83
949.022	4547.21
949.327	4518.96
949.633	4502.01
949.938	4531.84
950.244	4504.73
950.549	4444.84
950.854	4447.78
951.16	4421.56
951.465	4420.21
951.77	4375.24
952.075	4381.34
952.38	4350.61
952.685	4304.73
952.99	4307.22
953.294	4268.57
953.599	4289.82
953.904	4246.88
954.209	4230.38
954.513	4225.41
954.818	4201.68
955.122	4180.89
955.426	4189.71
955.731	4152.87
956.035	4181.34
956.339	4106.32
956.643	4108.35
956.948	4059.77
957.252	4025.42
957.556	4022.48
957.86	4039.2
958.163	3988.36
958.467	3983.38
958.771	3986.77
959.075	3982.25
959.378	3931.63
959.682	3962.82
959.985	3907.91
960.289	3864.74
960.592	3822.94
960.896	3874.01
961.199	3816.16
961.502	3811.86
961.805	3797.63
962.108	3763.95
962.411	3753.11
962.714	3746.33
963.017	3761.47
963.32	3706.33
963.623	3711.98
963.926	3683.5
964.228	3696.16
964.531	3645.77
964.833	3674.01
965.136	3636.27
965.438	3626.11
965.741	3648.93
966.043	3546.33
966.345	3562.83
966.648	3519.67
966.95	3560.12
967.252	3503.4
967.554	3494.13
967.856	3537.75
968.158	3483.51
968.46	3484.19
968.761	3457.3
969.063	3469.27
969.365	3446.9
969.666	3439.67
969.968	3406.22
970.269	3372.1
970.571	3371.87
970.872	3344.3
971.174	3314.93
971.475	3307.92
971.776	3307.24
972.077	3290.97
972.378	3263.4
972.679	3270.41
972.98	3279.9
973.281	3251.88
973.582	3202.39
973.883	3196.96
974.183	3206.91
974.484	3202.39
974.785	3182.28
975.085	3143.86
975.386	3171.43
975.686	3119.23
975.986	3074.93
976.287	3092.33
976.587	3056.85
976.887	3097.53
977.187	3041.71
977.487	3054.82
977.787	3020.7
978.087	2982.73
978.387	3002.39
978.687	3013.69
978.987	2968.27
979.286	2947.03
979.586	2923.07
979.885	2947.48
980.185	2923.98
980.484	2911.77
980.784	2909.97
981.083	2860.93
981.382	2854.37
981.682	2868.84
981.981	2833.13
982.28	2849.4
982.579	2847.59
982.878	2827.03
983.177	2793.58
983.475	2780.48
983.774	2752.91
984.073	2704.32
984.372	2726.69
984.67	2766.69
984.969	2729.86
985.267	2695.28
985.566	2694.6
985.864	2666.81
986.162	2678.11
986.461	2629.07
986.759	2602.86
987.057	2601.05
987.355	2647.6
987.653	2628.84
987.951	2596.08
988.249	2594.27
988.547	2538.9
988.844	2568.96
989.142	2582.97
989.44	2517.21
989.737	2532.57
990.035	2511.78
990.332	2505.68
990.63	2493.71
990.927	2491.22
991.224	2479.24
991.521	2458.45
991.819	2417.32
992.116	2435.4
992.413	2389.75
992.71	2409.41
993.006	2416.65
993.303	2396.53
993.6	2417.32
993.897	2346.59
994.193	2359.92
994.49	2347.95
994.787	2305.91
995.083	2285.12
995.379	2274.73
995.676	2302.3
995.972	2283.32
996.268	2279.02
996.565	2225.69
996.861	2252.81
997.157	2234.5
997.453	2236.99
997.749	2219.36
998.044	2203.77
998.34	2220.72
998.636	2203.32
998.932	2164.9
999.227	2172.81
999.523	2146.14
999.818	2131
1000.114	2111.79
1000.409	2154.05
1000.704	2080.38
1001	2082.42
1001.295	2087.16
1001.59	2065.24
1001.885	2064.11
1002.18	2061.85
1002.475	2039.71
1002.77	2015.53
1003.065	2005.13
1003.359	2007.84
1003.654	1994.74
1003.949	1989.54
1004.243	1972.36
1004.538	1981.4
1004.832	1950.67
1005.127	1942.76
1005.421	1943.89
1005.715	1943.44
1006.009	1919.26
1006.304	1909.54
1006.598	1873.38
1006.892	1877.68
1007.186	1872.48
1007.48	1874.74
1007.773	1818.7
1008.067	1836.1
1008.361	1820.28
1008.655	1829.54
1008.948	1782.76
1009.242	1814.4
1009.535	1784.12
1009.829	1781.41
1010.122	1775.76
1010.415	1760.17
1010.708	1738.02
1011.001	1759.26
1011.295	1711.58
1011.588	1719.49
1011.881	1719.71
1012.173	1680.39
1012.466	1674.97
1012.759	1646.95
1013.052	1668.64
1013.344	1664.12
1013.637	1635.2
1013.93	1609.89
1014.222	1655.76
1014.514	1638.13
1014.807	1587.06
1015.099	1566.95
1015.391	1581.87
1015.683	1573.73
1015.976	1575.31
1016.268	1547.06
1016.56	1538.7
1016.851	1546.16
1017.143	1539.38
1017.435	1504.35
1017.727	1523.79
1018.018	1488.31
1018.31	1468.2
1018.602	1485.14
1018.893	1491.7
1019.185	1466.61
1019.476	1427.74
1019.767	1449.89
1020.058	1430
1020.35	1454.41
1020.641	1418.93
1020.932	1415.32
1021.223	1390.46
1021.514	1407.18
1021.804	1372.38
1022.095	1379.61
1022.386	1357.92
1022.677	1371.25
1022.967	1345.71
1023.258	1336.22
1023.548	1323.79
1023.839	1312.49
1024.129	1338.93
1024.419	1326.5
1024.709	1296.67
1025	1305.94
1025.29	1285.15
1025.58	1279.27
1025.87	1278.14
1026.16	1281.08
1026.449	1250.57
1026.739	1222.1
1027.029	1235.89
1027.319	1233.17
1027.608	1210.12
1027.898	1219.84
1028.187	1192.27
1028.477	1197.24
1028.766	1179.62
1029.055	1174.42
1029.344	1177.36
1029.634	1162.89
1029.923	1148.43
1030.212	1146.4
1030.501	1159.73
1030.79	1137.13
1031.078	1129.9
1031.367	1143.01
1031.656	1112.5
1031.945	1088.54
1032.233	1080.41
1032.522	1076.57
1032.81	1086.28
1033.099	1077.47
1033.387	1081.09
1033.675	1068.21
1033.963	1032.05
1034.251	1053.74
1034.54	1037.92
1034.828	1005.84
1035.116	1028.21
1035.403	1023.91
1035.691	1012.39
1035.979	1026.85
1036.267	1013.97
1036.554	1017.59
1036.842	974.88
1037.129	1001.99
1037.417	968.32
1037.704	967.19
1037.992	959.28
1038.279	927.65
1038.566	937.14
1038.853	937.14
1039.14	937.14
