Data from hue_350_FLMS001491_32.txt Node
Date: Mon Feb 06 15:37:56 GMT 2017
User: dcchb
Spectrometer: FLMS00149
Trigger mode: 0
Integration Time (sec): 2.000000E-2
Scans to average: 10
Electric dark correction enabled: true
Nonlinearity correction enabled: false
Boxcar width: 0
XAxis mode: Wavelengths
Number of Pixels in Spectrum: 2048
>>>>>Begin Spectral Data<<<<<
341.393	-11.86
341.776	-11.86
342.16	-11.86
342.543	-64.29
342.927	-56.38
343.31	-55.48
343.693	-77.85
344.077	-61.35
344.46	-68.13
344.843	-57.51
345.226	-20.9
345.61	-40.56
345.993	-19.77
346.376	-2.6
346.759	-5.31
347.142	33.56
347.525	45.76
347.908	58.19
348.291	72.2
348.674	97.74
349.057	102.03
349.44	125.99
349.823	138.19
350.206	149.26
350.588	195.14
350.971	214.8
351.354	231.75
351.737	239.2
352.119	227.9
352.502	231.97
352.884	250.95
353.267	297.05
353.65	317.17
354.032	306.55
354.414	316.26
354.797	330.27
355.179	313.78
355.562	327.34
355.944	335.47
356.326	343.38
356.709	353.32
357.091	323.72
357.473	337.28
357.855	324.17
358.238	319.43
358.62	329.37
359.002	346.77
359.384	320.33
359.766	344.28
360.148	336.6
360.53	342.7
360.912	314.91
361.294	316.04
361.676	343.15
362.057	321.23
362.439	315.13
362.821	326.21
363.203	312.42
363.584	316.94
363.966	323.95
364.348	320.33
364.729	313.1
365.111	314
365.493	305.64
365.874	302.25
366.256	306.32
366.637	308.13
367.019	312.2
367.4	325.98
367.781	306.55
368.163	300.67
368.544	309.03
368.925	324.4
369.306	312.42
369.688	296.83
370.069	303.83
370.45	320.1
370.831	307.9
371.212	321.69
371.593	316.71
371.974	314.68
372.355	302.48
372.736	320.33
373.117	315.36
373.498	295.25
373.879	315.81
374.26	335.47
374.641	311.52
375.021	303.61
375.402	300.22
375.783	306.32
376.163	326.66
376.544	332.53
376.925	323.04
377.305	309.03
377.686	319.65
378.066	316.49
378.447	328.47
378.827	346.32
379.208	310.39
379.588	335.25
379.968	328.92
380.349	316.49
380.729	320.33
381.109	314.23
381.489	330.27
381.87	337.73
382.25	332.76
382.63	346.54
383.01	325.08
383.39	351.74
383.77	333.21
384.15	345.64
384.53	316.04
384.91	320.33
385.29	346.32
385.67	345.41
386.049	327.56
386.429	318.97
386.809	344.96
387.189	349.03
387.568	366.88
387.948	325.08
388.328	339.77
388.707	356.04
389.087	335.92
389.466	364.17
389.846	352.42
390.225	325.75
390.605	382.02
390.984	377.05
391.363	353.55
391.743	382.02
392.122	348.8
392.501	351.52
392.881	354
393.26	337.96
393.639	375.02
394.018	358.07
394.397	346.32
394.776	350.16
395.155	359.88
395.534	365.53
395.913	361.69
396.292	368.46
396.671	378.18
397.05	382.93
397.429	370.27
397.808	366.21
398.186	359.43
398.565	353.78
398.944	377.28
399.323	360.56
399.701	372.76
400.08	371.18
400.458	393.55
400.837	387.22
401.215	384.28
401.594	381.57
401.972	397.39
402.351	374.79
402.729	403.49
403.107	389.26
403.486	407.79
403.864	392.65
404.242	376.83
404.62	379.76
404.999	379.76
405.377	411.85
405.755	397.39
406.133	383.15
406.511	399.2
406.889	406.66
407.267	418.86
407.645	410.27
408.023	431.74
408.401	441.91
408.779	405.07
409.156	407.79
409.534	417.28
409.912	422.93
410.29	412.53
410.667	430.84
411.045	431.51
411.422	431.74
411.8	424.06
412.178	444.4
412.555	442.81
412.933	455.69
413.31	454.11
413.687	452.3
414.065	439.42
414.442	466.32
414.819	462.93
415.197	473.09
415.574	453.89
415.951	474
416.328	473.55
416.705	469.25
417.082	504.28
417.46	505.86
417.837	474.45
418.214	483.94
418.591	489.82
418.967	504.96
419.344	479.65
419.721	508.35
420.098	506.77
420.475	486.2
420.852	494.34
421.228	516.71
421.605	498.86
421.982	503.6
422.358	503.6
422.735	518.97
423.111	529.59
423.488	532.3
423.864	512.42
424.241	529.14
424.617	523.49
424.994	521.68
425.37	557.39
425.746	541.34
426.123	554.9
426.499	548.8
426.875	553.09
427.251	568.01
427.627	536.37
428.003	546.09
428.379	553.32
428.756	547.22
429.132	565.52
429.507	601.23
429.883	592.19
430.259	590.61
430.635	586.31
431.011	586.09
431.387	619.08
431.763	607.78
432.138	633.54
432.514	617.95
432.89	616.37
433.265	622.7
433.641	628.57
434.016	654.33
434.392	670.15
434.767	651.85
435.143	670.83
435.518	678.06
435.894	645.75
436.269	684.16
436.644	667.44
437.02	675.8
437.395	669.02
437.77	683.03
438.145	694.11
438.52	699.53
438.895	713.77
439.271	696.37
439.646	690.26
440.021	721.68
440.395	721.45
440.77	693.2
441.145	701.11
441.52	733.65
441.895	733.88
442.27	737.27
442.645	728.23
443.019	725.74
443.394	735.69
443.769	761.45
444.143	739.75
444.518	746.08
444.892	763.71
445.267	752.86
445.641	767.78
446.016	766.87
446.39	754.22
446.764	757.38
447.139	763.48
447.513	782.01
447.887	774.56
448.262	822.92
448.636	789.92
449.01	803.93
449.384	799.87
449.758	783.37
450.132	816.81
450.506	816.36
450.88	812.3
451.254	806.87
451.628	847.77
452.002	842.35
452.376	820.88
452.75	838.06
453.123	833.54
453.497	851.16
453.871	843.03
454.244	860.66
454.618	864.72
454.992	850.71
455.365	878.96
455.739	893.42
456.112	886.87
456.486	910.6
456.859	899.75
457.232	920.77
457.606	928.45
457.979	921.44
458.352	953.99
458.725	933.2
459.099	941.56
459.472	966.87
459.845	991.05
460.218	955.79
460.591	987.66
460.964	961.22
461.337	1017.71
461.71	1043.7
462.083	1030.59
462.456	1027.88
462.829	1055.45
463.201	1050.93
463.574	1040.31
463.947	1045.74
464.32	1107.88
464.692	1077.6
465.065	1065.85
465.438	1104.26
465.81	1092.74
466.183	1125.06
466.555	1136.58
466.928	1152.85
467.3	1146.52
467.672	1153.3
468.045	1184.26
468.417	1175.45
468.789	1172.51
469.161	1243.02
469.534	1239.4
469.906	1266.07
470.278	1272.62
470.65	1262.23
471.022	1302.23
471.394	1279.63
471.766	1311.49
472.138	1331.38
472.51	1356.91
472.882	1383.81
473.253	1385.61
473.625	1386.29
473.997	1410.02
474.369	1448.66
474.74	1446.63
475.112	1514.65
475.484	1504.93
475.855	1529.56
476.227	1539.73
476.598	1591.48
476.97	1607.08
477.341	1618.15
477.713	1654.08
478.084	1643.01
478.455	1692.95
478.827	1724.59
479.198	1779.05
479.569	1750.35
479.94	1822.89
480.311	1863.34
480.682	1880.74
481.053	1902.44
481.424	1928.2
481.795	1961.19
482.166	1989.21
482.537	2002.55
482.908	2071.7
483.279	2071.7
483.65	2137.23
484.021	2162.54
484.391	2169.32
484.762	2199.6
485.133	2224.01
485.503	2273.73
485.874	2329.77
486.244	2388.52
486.615	2418.81
486.985	2405.47
487.356	2476.88
487.726	2493.61
488.097	2536.32
488.467	2564.79
488.837	2608.18
489.207	2644.11
489.578	2633.04
489.948	2688.86
490.318	2746.26
490.688	2767.27
491.058	2795.75
491.428	2849.53
491.798	2868.74
492.168	2935.63
492.538	2968.62
492.908	2963.65
493.278	3007.49
493.648	3040.49
494.017	3096.08
494.387	3094.27
494.757	3134.49
495.126	3185.79
495.496	3161.39
495.866	3152.35
496.235	3240.48
496.605	3230.08
496.974	3296.07
497.344	3285.68
497.713	3304.88
498.082	3365.22
498.452	3402.51
498.821	3389.85
499.19	3383.3
499.559	3419.46
499.928	3450.19
500.298	3505.33
500.667	3519.79
501.036	3510.08
501.405	3558.44
501.774	3551.66
502.143	3599.57
502.512	3631.2
502.88	3658.77
503.249	3632.33
503.618	3629.17
503.987	3694.25
504.356	3717.53
504.724	3736.96
505.093	3750.97
505.462	3722.5
505.83	3776.96
506.199	3793.01
506.567	3834.81
506.936	3775.83
507.304	3862.16
507.672	3870.97
508.041	3871.42
508.409	3901.03
508.777	3910.07
509.145	3977.64
509.514	3977.64
509.882	3988.03
510.25	3950.74
510.618	4012.21
510.986	4011.76
511.354	4023.28
511.722	4101.02
512.09	4154.81
512.458	4099.67
512.826	4148.93
513.193	4111.87
513.561	4169.95
513.929	4158.87
514.297	4184.86
514.664	4200
515.032	4210.85
515.4	4203.84
515.767	4218.76
516.135	4239.32
516.502	4246.33
516.869	4330.62
517.237	4310.06
517.604	4307.57
517.972	4332.88
518.339	4363.16
518.706	4355.48
519.073	4366.78
519.44	4362.71
519.808	4422.37
520.175	4437.28
520.542	4475.93
520.909	4484.06
521.276	4452.43
521.643	4470.28
522.009	4492.2
522.376	4520.9
522.743	4519.54
523.11	4570.84
523.477	4648.13
523.843	4630.27
524.21	4649.03
524.577	4677.96
524.943	4681.8
525.31	4725.64
525.676	4764.06
526.043	4722.25
526.409	4769.48
526.776	4825.3
527.142	4842.02
527.508	4838.86
527.874	4853.32
528.241	4921.11
528.607	4921.79
528.973	4938.51
529.339	4995.01
529.705	4987.33
530.071	5034.1
530.437	5024.84
530.803	5058.96
531.169	5100.54
531.535	5099.87
531.901	5099.19
532.267	5110.49
532.632	5166.08
532.998	5112.29
533.364	5204.27
533.73	5225.51
534.095	5241.78
534.461	5261.44
534.826	5296.92
535.192	5374.89
535.557	5376.92
535.923	5355.45
536.288	5412.85
536.653	5408.56
537.019	5362.46
537.384	5401.78
537.749	5473.42
538.114	5501.66
538.479	5468.44
538.845	5517.03
539.21	5541.66
539.575	5583.24
539.94	5590.93
540.305	5567.42
540.67	5592.06
541.034	5614.88
541.399	5694.65
541.764	5702.34
542.129	5708.66
542.494	5715.89
542.858	5744.14
543.223	5797.25
543.587	5809.45
543.952	5823.91
544.316	5794.31
544.681	5845.38
545.045	5866.85
545.41	5923.35
545.774	5911.14
546.138	5953.4
546.503	5985.27
546.867	5997.92
547.231	6025.49
547.595	6059.61
547.959	6052.61
548.324	6067.75
548.688	6058.03
549.052	6098.48
549.416	6109.56
549.779	6168.09
550.143	6152.95
550.507	6197.01
550.871	6220.29
551.235	6236.79
551.599	6272.49
551.962	6257.35
552.326	6286.28
552.689	6303
553.053	6353.39
553.417	6348.19
553.78	6422.32
554.143	6382.54
554.507	6422.09
554.87	6458.25
555.234	6495.54
555.597	6509.09
555.96	6497.12
556.323	6550.22
556.686	6494.63
557.05	6583.67
557.413	6585.48
557.776	6576.44
558.139	6650.56
558.502	6632.93
558.865	6696.66
559.228	6675.87
559.59	6705.47
559.953	6704.57
560.316	6772.59
560.679	6749.09
561.041	6843.1
561.404	6809.88
561.767	6902.08
562.129	6899.14
562.492	6958.8
562.854	6916.32
563.217	6943.21
563.579	6928.97
563.941	6981.62
564.304	6992.92
564.666	7078.8
565.028	7014.39
565.39	7106.37
565.753	7146.59
566.115	7052.13
566.477	7183.2
566.839	7151.11
567.201	7205.35
567.563	7245.8
567.925	7265.23
568.287	7288.51
568.648	7290.09
569.01	7356.08
569.372	7356.98
569.734	7371.44
570.095	7481.5
570.457	7494.83
570.819	7450.09
571.18	7483.53
571.542	7556.98
571.903	7654.38
572.265	7655.5
572.626	7665.67
572.987	7723.53
573.349	7779.8
573.71	7819.57
574.071	7817.53
574.432	7901.37
574.794	7983.63
575.155	8001.71
575.516	8042.61
575.877	8100.46
576.238	8119.67
576.599	8235.83
576.96	8225.89
577.32	8380.23
577.681	8364.64
578.042	8432.66
578.403	8539.1
578.763	8611.41
579.124	8627.91
579.485	8816.83
579.845	8950.84
580.206	8977.73
580.566	9169.36
580.927	9162.36
581.287	9275.35
581.648	9440.54
582.008	9605.74
582.368	9738.16
582.728	9795.11
583.089	9897.93
583.449	10071.03
583.809	10293.4
584.169	10443.68
584.529	10591.25
584.889	10790.56
585.249	10845.25
585.609	11055.19
585.969	11243.89
586.329	11356.88
586.688	11721.84
587.048	11816.75
587.408	12008.61
587.768	12275.95
588.127	12453.57
588.487	12676.84
588.846	13049.26
589.206	13120.9
589.565	13363.38
589.925	13637.72
590.284	13874.55
590.643	14116.13
591.003	14395.89
591.362	14700.52
591.721	14935.54
592.08	15110.45
592.44	15474.06
592.799	15644
593.158	15918.56
593.517	16177.54
593.876	16587.7
594.235	16737.75
594.593	17131.41
594.952	17386.1
595.311	17610.5
595.67	17999.64
596.029	18396.92
596.387	18586.06
596.746	18899.5
597.104	19079.61
597.463	19320.28
597.822	19763.21
598.18	20017.89
598.538	20174.27
598.897	20590.53
599.255	20686.8
599.613	21223.06
599.972	21341.02
600.33	21762.93
600.688	21871.4
601.046	22213.31
601.404	22582.34
601.762	22863.24
602.12	23089.45
602.478	23444.69
602.836	23717.23
603.194	23984.57
603.552	24125.58
603.91	24257.78
604.268	24745
604.625	24909.29
604.983	25206.46
605.341	25348.83
605.698	25739.1
606.056	26074.91
606.413	26251.4
606.771	26564.16
607.128	26730.71
607.485	26923.02
607.843	27199.62
608.2	27469.67
608.557	27832.83
608.914	27814.52
609.272	28216.32
609.629	28453.38
609.986	28723.65
610.343	28760.03
610.7	29146.24
611.057	29369.06
611.414	29406.12
611.771	29769.73
612.127	29962.04
612.484	30007.91
612.841	30379.43
613.198	30326.1
613.554	30696.26
613.911	31015.57
614.267	31187.99
614.624	31252.85
614.98	31367.42
615.337	31786.4
615.693	31790.46
616.05	31824.81
616.406	32193.62
616.762	32245.82
617.118	32298.92
617.475	32468.86
617.831	32639.48
618.187	32777.1
618.543	32953.37
618.899	33334.38
619.255	33364.43
619.611	33457.54
619.967	33667.48
620.323	33712.9
620.678	33785.89
621.034	33745.89
621.39	33882.16
621.746	34095.26
622.101	34534.8
622.457	34249.38
622.812	34455.48
623.168	34547
623.523	34656.15
623.879	34867.9
624.234	34686.66
624.589	35091.39
624.945	35087.1
625.3	35057.27
625.655	35214.55
626.01	35359.18
626.365	35438.73
626.72	35327.32
627.075	35478.28
627.43	35439.86
627.785	35634.43
628.14	35680.08
628.495	35652.73
628.85	35757.14
629.205	35654.54
629.559	36041.88
629.914	35827.65
630.269	35927.08
630.623	35997.81
630.978	35906.51
631.332	36113.97
631.687	36255.2
632.041	36170.01
632.396	36135.21
632.75	36035.78
633.104	36251.82
633.459	36140.41
633.813	36069.22
634.167	36245.49
634.521	36107.41
634.875	36194.19
635.229	36188.31
635.583	36053.63
635.937	36186.05
636.291	36083.68
636.645	36134.08
636.999	36202.78
637.352	36314.64
637.706	36090.46
638.06	36147.41
638.413	36087.98
638.767	36125.49
639.121	36308.08
639.474	36073.51
639.828	36054.31
640.181	36191.7
640.534	36251.14
640.888	36174.53
641.241	36072.16
641.594	36100.86
641.947	36166.85
642.301	35969.34
642.654	36090.24
643.007	35951.48
643.36	36153.74
643.713	35966.62
644.066	36106.96
644.419	35958.04
644.771	35710.36
645.124	35500.2
645.477	35292.52
645.83	35173.2
646.182	35087.33
646.535	35061.11
646.888	35101.34
647.24	34836.26
647.593	35063.82
647.945	35084.61
648.298	34908.57
648.65	34736.37
649.002	34799.88
649.355	34901.12
649.707	34797.39
650.059	35054.78
650.411	35546.52
650.763	35387.43
651.115	35817.02
651.467	35721.43
651.819	35743.81
652.171	35655.22
652.523	35647.99
652.875	35595.79
653.227	35499.97
653.578	35636.46
653.93	35583.58
654.282	35602.79
654.633	35373.19
654.985	35569.12
655.337	35641.66
655.688	35443.7
656.039	35536.35
656.391	35287.09
656.742	35385.85
657.094	35419.97
657.445	35518.73
657.796	35529.12
658.147	35473.08
658.498	35320.99
658.849	35414.1
659.2	35478.05
659.551	35313.76
659.902	35389.92
660.253	35310.15
660.604	35344.95
660.955	35325.06
661.306	35359.41
661.656	35327.09
662.007	35369.35
662.358	35299.75
662.708	35272.41
663.059	35121.9
663.409	35108.34
663.76	35257.72
664.11	35180.43
664.461	35396.24
664.811	35290.26
665.161	35127.1
665.511	35232.18
665.862	35176.82
666.212	35306.98
666.562	35369.35
666.912	35173.88
667.262	35162.13
667.612	35132.97
667.962	35210.71
668.312	35035.58
668.662	35329.58
669.011	35208.23
669.361	35055.69
669.711	35108.79
670.06	35114.67
670.41	35008.46
670.76	34929.59
671.109	35168.23
671.459	35159.64
671.808	35073.77
672.157	35124.16
672.507	34953.77
672.856	34953.32
673.205	34985.41
673.554	35192.41
673.904	35000.32
674.253	35113.09
674.602	34971.17
674.951	34416.16
675.3	34278.53
675.649	35088.68
675.998	34745.41
676.346	34824.06
676.695	34907.44
677.044	34780.44
677.393	34825.19
677.741	34855.69
678.09	34825.64
678.438	34657.05
678.787	34712.65
679.135	34726.21
679.484	34448.47
679.832	34732.99
680.181	34582.48
680.529	34581.12
680.877	34490.96
681.225	34544.29
681.573	34605.3
681.922	34367.8
682.27	34162.15
682.618	34279.66
682.966	34161.25
683.314	34299.78
683.661	34342.94
684.009	34093.23
684.357	34026.34
684.705	33838.55
685.053	33953.34
685.4	33928.03
685.748	33837.42
686.095	33802.61
686.443	33726.91
686.79	33504.77
687.138	33720.13
687.485	33675.61
687.832	33461.38
688.18	33585.9
688.527	33373.02
688.874	33359.91
689.221	33265
689.568	33123.54
689.915	33116.3
690.262	33185.91
690.609	32867.95
690.956	32930.55
691.303	32728.29
691.65	32665.24
691.997	32631.12
692.344	32445.81
692.69	32504.8
693.037	32502.54
693.383	32402.65
693.73	32444.23
694.077	32162.43
694.423	32157.01
694.769	32046.5
695.116	31926.73
695.462	32034.98
695.808	31854.64
696.155	31969.22
696.501	31675.44
696.847	31607.42
697.193	31451.94
697.539	31603.8
697.885	31273.87
698.231	31302.57
698.577	31249.01
698.923	31172.85
699.269	30995.68
699.614	30868.23
699.96	30921.79
700.306	30814.22
700.651	30752.98
700.997	30847.44
701.342	30675.46
701.688	30649.02
702.033	30502.14
702.379	30463.04
702.724	30335.81
703.069	30412.42
703.415	30075.93
703.76	30237.06
704.105	30098.08
704.45	29965.88
704.795	29823.28
705.14	29902.83
705.485	29713.68
705.83	29688.6
706.175	29710.52
706.52	29580.58
706.865	29496.74
707.209	29459.9
707.554	29335.16
707.899	29473.91
708.243	29287.03
708.588	29216.29
708.932	29143.75
709.277	28889.75
709.621	29054.26
709.966	28881.61
710.31	28898.34
710.654	28650.43
710.998	28705.57
711.342	28698.34
711.687	28632.81
712.031	28478.69
712.375	28403.21
712.719	28417.9
713.063	28395.3
713.407	28343.32
713.75	28279.37
714.094	28251.35
714.438	28057.91
714.782	28169.09
715.125	28071.24
715.469	28099.04
715.812	27917.35
716.156	27787.86
716.499	27863.56
716.843	27824.47
717.186	27788.99
717.53	27816.33
717.873	27798.25
718.216	27666.05
718.559	27565.26
718.902	27431.48
719.246	27523.46
719.589	27381.09
719.932	27238.27
720.275	27284.59
720.617	27316.68
720.96	27130.47
721.303	27177.03
721.646	27143.13
721.989	27048.22
722.331	27102.68
722.674	26987.65
723.016	27034.43
723.359	26850.93
723.701	26894.32
724.044	26703.59
724.386	26742.23
724.729	26807.32
725.071	26767.54
725.413	26715.34
725.755	26624.5
726.097	26622.46
726.439	26401.45
726.782	26366.65
727.124	26484.16
727.465	26359.87
727.807	26381.11
728.149	26323.71
728.491	26314.68
728.833	26257.95
729.175	26155.36
729.516	26116.94
729.858	26067
730.199	26103.38
730.541	26080.56
730.882	25994.46
731.224	26164.62
731.565	25895.93
731.906	25938.19
732.248	25874.01
732.589	25773.22
732.93	25713.56
733.271	25756.95
733.612	25785.65
733.953	25768.7
734.294	25659.78
734.635	25591.76
734.976	25615.26
735.317	25532.1
735.658	25396.51
735.999	25406.9
736.339	25328.94
736.68	25438.31
737.021	25352.44
737.361	25306.34
737.702	25321.93
738.042	25232.67
738.383	25218.66
738.723	25299.11
739.063	25013.92
739.404	25212.78
739.744	24970.3
740.084	24908.61
740.424	25027.25
740.764	24876.3
741.104	25000.36
741.444	24858.67
741.784	24684.66
742.124	24932.79
742.464	24755.85
742.804	24639.69
743.143	24661.61
743.483	24651.67
743.823	24501.84
744.162	24487.38
744.502	24677.66
744.841	24516.53
745.181	24497.77
745.52	24394.05
745.86	24532.35
746.199	24480.15
746.538	24434.27
746.877	24434.27
747.216	24334.16
747.556	24269.76
747.895	24318.8
748.234	24220.04
748.573	24229.53
748.911	24164.9
749.25	24115.19
749.589	24127.16
749.928	24147.05
750.267	24138.01
750.605	23914.96
750.944	23948.18
751.283	23878.81
751.621	23840.62
751.96	23698.25
752.298	23804.46
752.636	23777.57
752.975	23631.81
753.313	23531.25
753.651	23717
753.989	23482.89
754.327	23556.1
754.666	23315.21
755.004	23379.84
755.342	23298.26
755.679	23392.27
756.017	23214.87
756.355	23248.09
756.693	23167.87
757.031	23234.98
757.368	22936.69
757.706	22951.6
758.044	22882
758.381	22928.32
758.719	22872.05
759.056	22807.42
759.394	22815.33
759.731	22643.36
760.068	22627.09
760.405	22606.07
760.743	22398.39
761.08	22536.92
761.417	22433.65
761.754	22319.53
762.091	22341.22
762.428	22076.82
762.765	21995.24
763.102	22124.5
763.438	21976.48
763.775	21858.52
764.112	21936.94
764.449	21916.15
764.785	21720.22
765.122	21613.33
765.458	21613.56
765.795	21618.75
766.131	21543.5
766.467	21418.31
766.804	21397.52
767.14	21369.04
767.476	21303.96
767.812	21126.79
768.148	21171.53
768.485	21077.75
768.821	20967.92
769.157	20956.62
769.492	20950.97
769.828	20712.56
770.164	20614.94
770.5	20660.13
770.836	20555.5
771.171	20504.21
771.507	20429.86
771.842	20242.52
772.178	20256.76
772.513	20281.61
772.849	20176.53
773.184	20098.79
773.519	20058.12
773.855	19844.11
774.19	19939.7
774.525	19783.55
774.86	19923.66
775.195	19656.09
775.53	19637.11
775.865	19485.93
776.2	19367.97
776.535	19313.73
776.87	19238.25
777.205	19250.68
777.539	19184.24
777.874	19105.37
778.209	19018.6
778.543	18972.72
778.878	18943.12
779.212	18793.07
779.547	18690.92
779.881	18741.32
780.215	18646.85
780.55	18576.57
780.884	18581.55
781.218	18423.36
781.552	18501.77
781.886	18355.11
782.22	18287.54
782.554	18277.82
782.888	18085.51
783.222	17979.98
783.556	17893.65
783.889	17906.76
784.223	17790.83
784.557	17728.69
784.89	17809.59
785.224	17723.04
785.557	17577.73
785.891	17468.13
786.224	17412.99
786.558	17412.08
786.891	17285.31
787.224	17190.4
787.557	17162.37
787.891	17136.84
788.224	17147.91
788.557	17182.71
788.89	17027.69
789.223	17010.74
789.556	16808.48
789.888	16788.15
790.221	16787.69
790.554	16636.74
790.887	16493.24
791.219	16589.73
791.552	16579.79
791.884	16435.39
792.217	16414.14
792.549	16346.8
792.882	16170.99
793.214	16166.69
793.546	16233.36
793.879	16078.11
794.211	15914.04
794.543	15963.76
794.875	15986.36
795.207	15916.76
795.539	15825.69
795.871	15851.9
796.203	15745.01
796.535	15668.18
796.867	15566.26
797.198	15609.65
797.53	15506.82
797.862	15409.43
798.193	15475.19
798.525	15396.77
798.856	15400.39
799.188	15302.31
799.519	15187.28
799.85	15146.16
800.182	15099.83
800.513	15068.87
800.844	15029.32
801.175	15021.41
801.506	15022.09
801.837	14880.4
802.168	14825.49
802.499	14746.84
802.83	14704.13
803.161	14679.73
803.491	14691.25
803.822	14691.03
804.153	14559.28
804.483	14500.75
804.814	14411.94
805.145	14492.39
805.475	14465.04
805.805	14381.43
806.136	14264.6
806.466	14335.33
806.796	14282.9
807.126	14102.12
807.457	14142.57
807.787	14176.01
808.117	14142.34
808.447	14074.09
808.777	14082.68
809.107	13978.28
809.436	13915.91
809.766	14008.78
810.096	13889.47
810.426	13845.4
810.755	13905.28
811.085	13785.97
811.414	13750.49
811.744	13621.22
812.073	13656.93
812.403	13722.69
812.732	13552.75
813.061	13545.75
813.39	13489.48
813.719	13404.05
814.049	13480.44
814.378	13421.46
814.707	13386.2
815.036	13323.83
815.365	13239.54
815.693	13169.71
816.022	13208.13
816.351	13302.81
816.68	13090.84
817.008	13144.4
817.337	12965.87
817.665	12926.78
817.994	13045.19
818.322	12953.44
818.651	12907.34
818.979	12953.67
819.307	12953.67
819.636	12825.76
819.964	12821.7
820.292	12860.34
820.62	12789.38
820.948	12736.5
821.276	12757.52
821.604	12786.44
821.932	12756.16
822.259	12751.19
822.587	12731.76
822.915	12679.1
823.243	12675.94
823.57	12734.24
823.898	12773.79
824.225	12736.05
824.553	12690.17
824.88	12679.55
825.207	12699.21
825.535	12712.77
825.862	12621.7
826.189	12696.05
826.516	12720.46
826.843	12739.44
827.17	12685.43
827.497	12767.01
827.824	12721.81
828.151	12727.24
828.478	12712.77
828.805	12770.62
829.131	12682.04
829.458	12665.99
829.785	12562.49
830.111	12634.58
830.438	12727.69
830.764	12696.95
831.09	12726.33
831.417	12572.89
831.743	12624.64
832.069	12651.76
832.395	12553.68
832.722	12703.96
833.048	12567.92
833.374	12585.09
833.7	12524.08
834.026	12539.22
834.351	12581.25
834.677	12474.36
835.003	12627.58
835.329	12466.45
835.654	12483.4
835.98	12455.38
836.306	12497.86
836.631	12454.25
836.956	12471.88
837.282	12489.73
837.607	12407.7
837.932	12314.14
838.258	12336.96
838.583	12320.02
838.908	12296.74
839.233	12240.7
839.558	12284.31
839.883	12154.6
840.208	12160.92
840.533	12116.18
840.858	12127.25
841.182	12167.25
841.507	12131.55
841.832	12033.24
842.156	12047.93
842.481	11961.83
842.805	11946.01
843.13	11961.83
843.454	11955.73
843.778	11847.71
844.103	11908.73
844.427	11856.98
844.751	11809.97
845.075	11791.89
845.399	11751.67
845.723	11703.31
846.047	11677.77
846.371	11723.65
846.695	11720.48
847.019	11491.56
847.343	11506.03
847.666	11435.74
847.99	11328.85
848.313	11400.94
848.637	11307.39
848.96	11262.19
849.284	11253.15
849.607	11172.47
849.931	11180.38
850.254	11064.91
850.577	11045.47
850.9	10920.73
851.223	10935.64
851.546	10840.73
851.869	10844.35
852.192	10894.06
852.515	10820.17
852.838	10697.23
853.161	10744.01
853.483	10649.78
853.806	10630.34
854.129	10616.33
854.451	10632.83
854.774	10493.85
855.096	10499.27
855.419	10447.97
855.741	10508.76
856.063	10386.96
856.385	10351.93
856.708	10278.49
857.03	10340.63
857.352	10219.28
857.674	10305.38
857.996	10180.41
858.318	10098.38
858.64	10188.32
858.961	10129.11
859.283	10069.45
859.605	10012.73
859.926	10108.1
860.248	10010.25
860.57	10061.77
860.891	9985.39
861.212	9920.53
861.534	9867.2
861.855	9870.14
862.176	9923.02
862.498	9808.22
862.819	9800.53
863.14	9828.78
863.461	9746.98
863.782	9699.07
864.103	9724.38
864.424	9698.16
864.745	9737.48
865.065	9702.23
865.386	9682.34
865.707	9652.74
866.027	9595.11
866.348	9645.96
866.668	9583.36
866.989	9598.73
867.309	9513.08
867.63	9502.46
867.95	9548.56
868.27	9472.63
868.59	9570.26
868.91	9436.25
869.23	9520.54
869.55	9391.28
869.87	9464.72
870.19	9480.32
870.51	9418.85
870.83	9444.61
871.15	9377.95
871.469	9309.25
871.789	9356.25
872.109	9358.06
872.428	9329.59
872.748	9321.68
873.067	9285.74
873.386	9356.03
873.706	9285.52
874.025	9283.03
874.344	9212.98
874.663	9272.64
874.982	9264.95
875.301	9233.54
875.62	9162.36
875.939	9118.74
876.258	9108.12
876.577	9091.85
876.896	9113.09
877.214	9123.49
877.533	9090.04
877.852	9058.18
878.17	9085.3
878.489	9014.34
878.807	9053.66
879.125	9065.64
879.444	8972.98
879.762	8942.93
880.08	8919.65
880.398	8921.69
880.716	8983.38
881.034	8878.98
881.352	8902.7
881.67	8828.58
881.988	8928.69
882.306	8843.04
882.624	8805.76
882.941	8761.24
883.259	8763.5
883.577	8756.94
883.894	8739.09
884.212	8707.23
884.529	8704.52
884.846	8686.66
885.164	8656.83
885.481	8631.98
885.798	8623.62
886.115	8584.07
886.432	8534.35
886.75	8582.49
887.067	8531.41
887.383	8494.13
887.7	8546.55
888.017	8480.79
888.334	8452.32
888.651	8431.76
888.967	8380.01
889.284	8398.54
889.6	8367.58
889.917	8316.96
890.233	8327.13
890.55	8300.46
890.866	8299.1
891.182	8240.57
891.498	8210.97
891.815	8182.5
892.131	8185.89
892.447	8157.41
892.763	8157.86
893.079	8102.95
893.395	8050.52
893.71	8043.74
894.026	8049.39
894.342	7980.92
894.657	7950.41
894.973	7919.9
895.289	7890.3
895.604	7873.35
895.92	7913.58
896.235	7791.55
896.55	7900.02
896.865	7779.12
897.181	7772.56
897.496	7783.19
897.811	7689.63
898.126	7713.58
898.441	7711.55
898.756	7598.56
899.071	7606.69
899.386	7574.83
899.7	7564.89
900.015	7491.22
900.33	7473.14
900.644	7465.91
900.959	7441.05
901.273	7438.11
901.588	7367.83
901.902	7361.5
902.216	7335.29
902.531	7334.38
902.845	7263.65
903.159	7229.53
903.473	7217.55
903.787	7190.21
904.101	7187.72
904.415	7147.72
904.729	7103.2
905.042	7082.19
905.356	7146.82
905.67	7081.28
905.984	6978.23
906.297	7019.82
906.611	6998.57
906.924	6985.47
907.237	6921.51
907.551	6949.99
907.864	6879.48
908.177	6846.71
908.491	6829.31
908.804	6805.81
909.117	6735.98
909.43	6693.27
909.743	6740.5
910.056	6710.9
910.368	6671.8
910.681	6659.15
910.994	6586.83
911.307	6550.68
911.619	6540.28
911.932	6518.13
912.244	6498.93
912.557	6501.41
912.869	6420.74
913.181	6378.7
913.494	6427.97
913.806	6400.85
914.118	6332.83
914.43	6317.91
914.742	6309.78
915.054	6260.06
915.366	6251.25
915.678	6203.34
915.99	6205.15
916.302	6150.01
916.613	6142.55
916.925	6084.25
917.236	6132.61
917.548	6049.67
917.859	6019.62
918.171	6030.24
918.482	5986.85
918.794	5989.56
919.105	5983.46
919.416	5947.53
919.727	5975.32
920.038	5841.77
920.349	5804.48
920.66	5807.87
920.971	5813.52
921.282	5774.65
921.593	5758.83
921.903	5675.9
922.214	5684.71
922.525	5719.51
922.835	5672.51
923.146	5617.59
923.456	5569.46
923.767	5535.56
924.077	5593.41
924.387	5508.89
924.697	5521.32
925.008	5467.77
925.318	5410.14
925.628	5459.63
925.938	5399.52
926.248	5391.16
926.558	5371.5
926.867	5326.75
927.177	5334.44
927.487	5316.36
927.796	5237.26
928.106	5277.26
928.416	5244.04
928.725	5220.09
929.034	5208.11
929.344	5188.68
929.653	5177.15
929.962	5132.86
930.271	5106.87
930.581	5061.67
930.89	5084.5
931.199	5062.13
931.508	5023.94
931.817	5026.87
932.125	5007.66
932.434	4998.17
932.743	4931.51
933.051	4892.64
933.36	4900.78
933.669	4876.82
933.977	4877.5
934.286	4854.67
934.594	4806.31
934.902	4804.73
935.21	4818.07
935.519	4793.66
935.827	4712.31
936.135	4719.76
936.443	4661.69
936.751	4664.17
937.059	4676.6
937.367	4637.96
937.674	4636.38
937.982	4630.95
938.29	4560.22
938.597	4574.23
938.905	4533.1
939.213	4556.83
939.52	4491.29
939.827	4483.84
940.135	4485.64
940.442	4470.5
940.749	4429.6
941.056	4437.51
941.363	4369.72
941.67	4373.78
941.977	4343.5
942.284	4318.64
942.591	4325.2
942.898	4315.71
943.205	4329.49
943.511	4261.47
943.818	4267.35
944.125	4186.44
944.431	4208.59
944.738	4192.55
945.044	4170.4
945.35	4136.73
945.657	4117.29
945.963	4122.26
946.269	4090.63
946.575	4096.73
946.881	4035.94
947.187	4053.34
947.493	4011.31
947.799	4024.19
948.105	3955.72
948.41	3953.68
948.716	3981.93
949.022	3943.96
949.327	3929.28
949.633	3916.62
949.938	3922.72
950.244	3899.67
950.549	3844.53
950.854	3845.66
951.16	3819.67
951.465	3841.14
951.77	3798.66
952.075	3784.87
952.38	3722.28
952.685	3769.28
952.99	3761.37
953.294	3715.04
953.599	3709.39
953.904	3692.45
954.209	3623.52
954.513	3655.61
954.818	3640.24
955.122	3658.1
955.426	3599.79
955.731	3595.95
956.035	3581.04
956.339	3528.38
956.643	3505.11
956.948	3521.15
957.252	3529.29
957.556	3522.96
957.86	3488.83
958.163	3464.65
958.467	3482.96
958.771	3441.83
959.075	3418.33
959.378	3393.47
959.682	3402.51
959.985	3369.06
960.289	3400.48
960.592	3342.62
960.896	3353.92
961.199	3334.71
961.502	3336.75
961.805	3302.4
962.108	3266.24
962.411	3264.21
962.714	3267.6
963.017	3221.72
963.32	3245.68
963.623	3174.04
963.926	3205.45
964.228	3173.59
964.531	3173.14
964.833	3171.1
965.136	3146.47
965.438	3102.4
965.741	3127.49
966.043	3064.44
966.345	3042.29
966.648	3058.56
966.95	3044.33
967.252	3036.64
967.554	3046.59
967.856	3003.2
968.158	2990.77
968.46	2979.47
968.761	3007.72
969.063	2954.39
969.365	2932.47
969.666	2947.15
969.968	2946.48
970.269	2944.22
970.571	2911.67
970.872	2906.03
971.174	2898.12
971.475	2878.68
971.776	2867.38
972.077	2817.89
972.378	2837.78
972.679	2823.32
972.98	2829.42
973.281	2787.16
973.582	2785.8
973.883	2746.93
974.183	2750.55
974.484	2761.17
974.785	2720.72
975.085	2718.91
975.386	2718.69
975.686	2699.93
975.986	2690.66
976.287	2701.51
976.587	2671.91
976.887	2676.65
977.187	2646.6
977.487	2605.92
977.787	2629.2
978.087	2607.5
978.387	2595.07
978.687	2607.28
978.987	2579.25
979.286	2539.93
979.586	2538.58
979.885	2483.21
980.185	2547.39
980.484	2544.45
980.784	2510.78
981.083	2478.47
981.382	2504.91
981.682	2491.8
981.981	2480.05
982.28	2438.01
982.579	2442.76
982.878	2458.81
983.177	2411.8
983.475	2406.83
983.774	2369.54
984.073	2419.48
984.372	2369.32
984.67	2366.38
984.969	2370.67
985.267	2352.82
985.566	2328.41
985.864	2337.68
986.162	2350.79
986.461	2332.93
986.759	2296.78
987.057	2309.2
987.355	2247.29
987.653	2251.13
987.951	2297.68
988.249	2297.91
988.547	2247.51
988.844	2224.69
989.142	2242.54
989.44	2218.36
989.737	2164.58
990.035	2179.72
990.332	2149.44
990.63	2162.32
990.927	2146.95
991.224	2126.16
991.521	2137.01
991.819	2145.82
992.116	2116.22
992.413	2129.32
992.71	2116.44
993.006	2085.03
993.303	2075.76
993.6	2065.6
993.897	2078.02
994.193	2061.53
994.49	2037.8
994.787	2022.66
995.083	2022.66
995.379	2012.49
995.676	2050.45
995.972	2026.05
996.268	1972.94
996.565	1963
996.861	1980.85
997.157	1992.83
997.453	1979.5
997.749	1964.58
998.044	1934.98
998.34	1924.81
998.636	1917.8
998.932	1902.89
999.227	1869.89
999.523	1851.82
999.818	1861.53
1000.114	1861.53
1000.409	1850.23
1000.704	1830.35
1001	1857.47
1001.295	1831.7
1001.59	1806.17
1001.885	1828.77
1002.18	1791.93
1002.475	1791.48
1002.77	1781.54
1003.065	1777.92
1003.359	1800.74
1003.654	1750.58
1003.949	1726.4
1004.243	1767.3
1004.538	1740.63
1004.832	1745.6
1005.127	1717.81
1005.421	1704.02
1005.715	1725.94
1006.009	1672.39
1006.304	1662.22
1006.598	1658.6
1006.892	1659.05
1007.186	1654.76
1007.48	1642.1
1007.773	1629
1008.067	1612.05
1008.361	1586.29
1008.655	1599.17
1008.948	1620.64
1009.242	1556.91
1009.535	1584.7
1009.829	1558.26
1010.122	1553.74
1010.415	1547.19
1010.708	1515.1
1011.001	1513.75
1011.295	1546.96
1011.588	1514.42
1011.881	1505.16
1012.173	1521.2
1012.466	1503.58
1012.759	1479.62
1013.052	1478.04
1013.344	1464.71
1013.637	1480.53
1013.93	1454.31
1014.222	1443.92
1014.514	1453.41
1014.807	1434.88
1015.099	1426.06
1015.391	1403.01
1015.683	1398.95
1015.976	1412.96
1016.268	1382.22
1016.56	1381.32
1016.851	1386.29
1017.143	1379.29
1017.435	1354.88
1017.727	1376.12
1018.018	1348.55
1018.31	1346.97
1018.602	1320.76
1018.893	1330.25
1019.185	1310.14
1019.476	1296.12
1019.767	1297.71
1020.058	1274.66
1020.35	1283.47
1020.641	1259.74
1020.932	1278.27
1021.223	1259.74
1021.514	1232.85
1021.804	1240.53
1022.095	1235.56
1022.386	1219.06
1022.677	1217.71
1022.967	1233.98
1023.258	1229.01
1023.548	1216.13
1023.839	1187.2
1024.129	1168.67
1024.419	1171.61
1024.709	1162.34
1025	1144.72
1025.29	1141.1
1025.58	1141.55
1025.87	1152.85
1026.16	1125.96
1026.449	1131.16
1026.739	1107.43
1027.029	1113.3
1027.319	1105.62
1027.608	1083.7
1027.898	1074.21
1028.187	1101.78
1028.477	1077.82
1028.766	1056.58
1029.055	1037.15
1029.344	1028.11
1029.634	1053.64
1029.923	1036.24
1030.212	1027.66
1030.501	1033.98
1030.79	1026.3
1031.078	994.89
1031.367	979.97
1031.656	1008.22
1031.945	984.95
1032.233	969.13
1032.522	995.12
1032.81	988.11
1033.099	976.13
1033.387	968.68
1033.675	975.68
1033.963	949.01
1034.251	932.29
1034.54	927.77
1034.828	938.85
1035.116	926.64
1035.403	906.3
1035.691	929.81
1035.979	905.63
1036.267	916.25
1036.554	900.88
1036.842	873.99
1037.129	888.23
1037.417	905.63
1037.704	905.17
1037.992	869.24
1038.279	881.45
1038.566	853.88
1038.853	853.88
1039.14	853.88
