Data from hue_40_FLMS001491_94.txt Node
Date: Mon Feb 06 15:08:51 GMT 2017
User: dcchb
Spectrometer: FLMS00149
Trigger mode: 0
Integration Time (sec): 2.000000E-2
Scans to average: 10
Electric dark correction enabled: true
Nonlinearity correction enabled: false
Boxcar width: 0
XAxis mode: Wavelengths
Number of Pixels in Spectrum: 2048
>>>>>Begin Spectral Data<<<<<
341.393	11.19
341.776	11.19
342.16	11.19
342.543	-64.29
342.927	-65.87
343.31	-74.46
343.693	-67
344.077	-72.2
344.46	-65.65
344.843	-63.84
345.226	-45.76
345.61	-24.75
345.993	-35.59
346.376	8.02
346.759	7.34
347.142	22.71
347.525	44.86
347.908	60.9
348.291	85.53
348.674	99.09
349.057	120.79
349.44	114.69
349.823	149.71
350.206	164.18
350.588	208.24
350.971	197.17
351.354	224.97
351.737	237.62
352.119	246.43
352.502	265.42
352.884	288.24
353.267	299.31
353.65	291.4
354.032	304.06
354.414	306.77
354.797	314.23
355.179	309.26
355.562	317.84
355.944	323.49
356.326	348.35
356.709	353.55
357.091	340.44
357.473	358.3
357.855	365.53
358.238	352.19
358.62	339.09
359.002	336.38
359.384	340.44
359.766	352.87
360.148	325.08
360.53	339.09
360.912	338.41
361.294	321.91
361.676	326.43
362.057	340.22
362.439	348.58
362.821	342.93
363.203	342.48
363.584	322.59
363.966	325.75
364.348	320.78
364.729	359.2
365.111	347.67
365.493	347.9
365.874	344.96
366.256	340.67
366.637	318.3
367.019	329.82
367.4	318.07
367.781	312.42
368.163	308.13
368.544	321.46
368.925	324.62
369.306	324.62
369.688	319.65
370.069	312.42
370.45	318.3
370.831	315.13
371.212	310.39
371.593	326.43
371.974	338.86
372.355	311.52
372.736	342.7
373.117	316.04
373.498	321.69
373.879	331.4
374.26	316.71
374.641	331.63
375.021	333.89
375.402	330.73
375.783	340.89
376.163	352.19
376.544	332.31
376.925	335.7
377.305	350.84
377.686	355.13
378.066	330.05
378.447	353.1
378.827	353.1
379.208	341.35
379.588	333.44
379.968	363.49
380.349	372.31
380.729	346.54
381.109	353.1
381.489	350.61
381.87	342.02
382.25	341.35
382.63	314.91
383.01	351.74
383.39	338.41
383.77	354.45
384.15	347.45
384.53	354.68
384.91	388.58
385.29	359.65
385.67	379.76
386.049	345.19
386.429	359.2
386.809	357.17
387.189	366.88
387.568	387
387.948	357.39
388.328	372.53
388.707	376.83
389.087	380.67
389.466	366.66
389.846	371.18
390.225	367.56
390.605	373.44
390.984	375.24
391.363	370.5
391.743	396.26
392.122	401.68
392.501	390.84
392.881	395.13
393.26	382.7
393.639	383.83
394.018	380.44
394.397	402.81
394.776	385.19
395.155	395.13
395.534	409.59
395.913	405.3
396.292	405.75
396.671	394.45
397.05	397.62
397.429	395.81
397.808	396.03
398.186	399.88
398.565	397.84
398.944	426.77
399.323	411.4
399.701	430.61
400.08	417.5
400.458	417.96
400.837	429.48
401.215	424.73
401.594	407.33
401.972	420.67
402.351	407.11
402.729	442.36
403.107	424.51
403.486	433.32
403.864	433.1
404.242	436.94
404.62	430.16
404.999	398.07
405.377	443.49
405.755	424.96
406.133	442.81
406.511	434.45
406.889	438.29
407.267	464.28
407.645	446.88
408.023	450.04
408.401	447.33
408.779	457.73
409.156	479.87
409.534	464.28
409.912	471.29
410.29	473.55
410.667	471.96
411.045	454.11
411.422	490.72
411.8	496.82
412.178	510.61
412.555	477.16
412.933	486.88
413.31	510.61
413.687	527.33
414.065	501.12
414.442	526.2
414.819	504.05
415.197	511.51
415.574	515.58
415.951	515.58
416.328	535.24
416.705	505.64
417.082	536.14
417.46	515.35
417.837	545.41
418.214	537.95
418.591	546.54
418.967	548.8
419.344	545.18
419.721	532.53
420.098	543.83
420.475	557.84
420.852	556.03
421.228	560.55
421.605	549.25
421.982	541.12
422.358	573.88
422.735	569.36
423.111	576.6
423.488	600.32
423.864	584.28
424.241	588.35
424.617	584.73
424.994	581.34
425.37	607.33
425.746	575.92
426.123	608.91
426.499	612.53
426.875	621.57
427.251	618.18
427.627	632.86
428.003	660.89
428.379	640.1
428.756	645.07
429.132	655.91
429.507	660.43
429.883	653.66
430.259	672.64
430.635	655.69
431.011	687.33
431.387	678.29
431.763	685.52
432.138	680.77
432.514	695.69
432.89	709.47
433.265	737.95
433.641	700.66
434.016	724.84
434.392	707.89
434.767	747.89
435.143	751.28
435.518	735.23
435.894	764.39
436.269	763.93
436.644	771.39
437.02	777.04
437.395	793.31
437.77	781.56
438.145	747.66
438.52	785.63
438.895	791.73
439.271	783.14
439.646	806.65
440.021	838.51
440.395	806.19
440.77	813.88
441.145	824.05
441.52	821.11
441.895	856.59
442.27	852.97
442.645	852.75
443.019	855.01
443.394	830.6
443.769	854.1
444.143	856.81
444.518	867.89
444.892	868.79
445.267	862.46
445.641	871.5
446.016	893.87
446.39	917.6
446.764	903.14
447.139	888.45
447.513	899.75
447.887	899.75
448.262	906.98
448.636	928
449.01	903.14
449.384	953.31
449.758	956.47
450.132	952.63
450.506	921.67
450.88	947.43
451.254	942.24
451.628	951.73
452.002	979.97
452.376	1004.38
452.75	996.47
453.123	1009.58
453.497	1008.22
453.871	1012.52
454.244	1055.68
454.618	1039.18
454.992	1042.8
455.365	1046.41
455.739	1074.66
456.112	1081.44
456.486	1101.55
456.859	1121.21
457.232	1126.19
457.606	1160.08
457.979	1132.29
458.352	1162.79
458.725	1166.64
459.099	1191.95
459.472	1182.45
459.845	1207.09
460.218	1214.54
460.591	1216.13
460.964	1205.96
461.337	1240.53
461.71	1254.09
462.083	1292.96
462.456	1288.67
462.829	1288.44
463.201	1294.09
463.574	1316.91
463.947	1327.31
464.32	1359.4
464.692	1376.35
465.065	1384.94
465.438	1415.67
465.81	1448.89
466.183	1452.05
466.555	1470.81
466.928	1494.09
467.3	1506.06
467.672	1509.45
468.045	1546.96
468.417	1546.74
468.789	1549.22
469.161	1598.49
469.534	1631.48
469.906	1665.61
470.278	1682.1
470.65	1694.31
471.022	1729.33
471.394	1795.09
471.766	1788.77
472.138	1836.45
472.51	1866.5
472.882	1897.69
473.253	1928.42
473.625	1965.94
473.997	2005.26
474.369	2023.34
474.74	2032.6
475.112	2089.55
475.484	2139.04
475.855	2181.52
476.227	2271.24
476.598	2269.88
476.97	2331.8
477.341	2388.75
477.713	2433.72
478.084	2472.59
478.455	2556.43
478.827	2570.89
479.198	2676.65
479.569	2680.72
479.94	2809.08
480.311	2843.88
480.682	2961.39
481.053	3016.08
481.424	3085
481.795	3163.87
482.166	3242.51
482.537	3286.35
482.908	3415.84
483.279	3464.2
483.65	3523.18
484.021	3656.74
484.391	3705.33
484.762	3740.81
485.133	3882.27
485.503	3967.47
485.874	4080.68
486.244	4146.67
486.615	4255.37
486.985	4338.76
487.356	4446.78
487.726	4533.78
488.097	4645.87
488.467	4745.75
488.837	4874.56
489.207	4966.31
489.578	5111.62
489.948	5203.59
490.318	5289.01
490.688	5336.7
491.058	5507.09
491.428	5597.48
491.798	5694.43
492.168	5835.44
492.538	5921.99
492.908	6063.46
493.278	6154.53
493.648	6211.93
494.017	6333.05
494.387	6439.27
494.757	6580.28
495.126	6662.54
495.496	6762.87
495.866	6851.01
496.235	6975.97
496.605	7115.63
496.974	7136.2
497.344	7268.17
497.713	7419.8
498.082	7429.07
498.452	7567.82
498.821	7615.28
499.19	7723.98
499.559	7862.28
499.928	7956.29
500.298	8013.69
500.667	8190.18
501.036	8112.67
501.405	8300.46
501.774	8275.83
502.143	8448.48
502.512	8552.2
502.88	8649.38
503.249	8691.86
503.618	8819.32
503.987	8896.6
504.356	9011.18
504.724	9021.12
505.093	9077.84
505.462	9126.43
505.83	9298.85
506.199	9315.12
506.567	9493.65
506.936	9473.99
507.304	9675.11
507.672	9651.16
508.041	9684.6
508.409	9859.29
508.777	9878.95
509.145	10010.25
509.514	10134.76
509.882	10176.34
510.25	10186.96
510.618	10345.15
510.986	10380.63
511.354	10414.98
511.722	10584.69
512.09	10653.39
512.458	10647.29
512.826	10770.68
513.193	10768.64
513.561	10849.09
513.929	11012.03
514.297	11045.25
514.664	11175.64
515.032	11183.77
515.4	11290.44
515.767	11305.8
516.135	11348.97
516.502	11327.5
516.869	11525.69
517.237	11583.31
517.604	11533.14
517.972	11673.03
518.339	11816.75
518.706	11768.62
519.073	11865.11
519.44	12007.25
519.808	12203.18
520.175	12085.9
520.542	12274.59
520.909	12330.86
521.276	12325.66
521.643	12558.2
522.009	12496.96
522.376	12588.71
522.743	12696.5
523.11	12807.91
523.477	12893.56
523.843	13047.91
524.21	13097.4
524.577	13165.42
524.943	13294.45
525.31	13350.95
525.676	13436.14
526.043	13537.84
526.409	13606.76
526.776	13634.56
527.142	13763.37
527.508	13829.58
527.874	13966.98
528.241	14037.94
528.607	14127.88
528.973	14232.73
529.339	14198.38
529.705	14355.67
530.071	14467.76
530.437	14501.88
530.803	14637.02
531.169	14632.5
531.535	14602.44
531.901	14797.24
532.267	14861.42
532.632	14988.87
532.998	14926.05
533.364	15042.43
533.73	15058.7
534.095	15220.28
534.461	15213.72
534.826	15294.63
535.192	15438.35
535.557	15497.56
535.923	15449.42
536.288	15622.53
536.653	15706.82
537.019	15658.01
537.384	15715.86
537.749	15845.57
538.114	15852.8
538.479	15860.26
538.845	15908.17
539.21	15952.46
539.575	16016.64
539.94	16215.51
540.305	16245.79
540.67	16213.92
541.034	16321.94
541.399	16398.1
541.764	16365.56
542.129	16550.19
542.494	16594.48
542.858	16598.55
543.223	16704.08
543.587	16853.46
543.952	16785.43
544.316	16884.41
544.681	16936.62
545.045	16991.98
545.41	17105.43
545.774	17193.79
546.138	17229.94
546.503	17245.54
546.867	17352.65
547.231	17372.54
547.595	17410.73
547.959	17536.38
548.324	17473.1
548.688	17560.56
549.052	17641.01
549.416	17695.01
549.779	17715.13
550.143	17819.31
550.507	17836.25
550.871	17841.23
551.235	17990.37
551.599	18167.32
551.962	18155.34
552.326	18219.75
552.689	18413.19
553.053	18283.93
553.417	18406.86
553.78	18589.45
554.143	18558.5
554.507	18660.41
554.87	18666.06
555.234	18782.22
555.597	18633.07
555.96	18868.09
556.323	18867.64
556.686	18817.92
557.05	18987.86
557.413	19121.42
557.776	19139.95
558.139	19229.21
558.502	19325.93
558.865	19365.03
559.228	19484.12
559.59	19503.1
559.953	19479.83
560.316	19805.02
560.679	19761.4
561.041	19849.76
561.404	19943.54
561.767	20010.43
562.129	20065.35
562.492	20272.57
562.854	20183.31
563.217	20216.08
563.579	20308.96
563.941	20434.83
564.304	20476.41
564.666	20658.1
565.028	20695.61
565.39	20692.68
565.753	20883.86
566.115	20835.27
566.477	21029.39
566.839	20969.96
567.201	21082.5
567.563	21153.91
567.925	21247.92
568.287	21378.99
568.648	21412.21
569.01	21413.56
569.372	21665.76
569.734	21593.22
570.095	21883.38
570.457	21935.81
570.819	21901.68
571.18	21922.02
571.542	22117.27
571.903	22223.03
572.265	22363.37
572.626	22293.99
572.987	22457.38
573.349	22510.03
573.71	22657.82
574.071	22616.02
574.432	22763.81
574.794	22892.39
575.155	22856.91
575.516	22978.72
575.877	23204.02
576.238	23383.45
576.599	23318.14
576.96	23547.29
577.32	23642.66
577.681	23919.26
578.042	23833.84
578.403	24077.9
578.763	24106.82
579.124	24290.77
579.485	24533.93
579.845	24709.52
580.206	24600.82
580.566	24838.78
580.927	24985.9
581.287	25270.63
581.648	25262.27
582.008	25537.07
582.368	25700
582.728	25685.77
583.089	25900
583.449	26125.75
583.809	26296.6
584.169	26466.31
584.529	26608.68
584.889	26975.45
585.249	26957.82
585.609	27149.68
585.969	27471.03
586.329	27535.21
586.688	27856.56
587.048	28029.21
587.408	28133.16
587.768	28376.09
588.127	28535.86
588.487	28707.83
588.846	29096.98
589.206	29115.73
589.565	29336.74
589.925	29638.43
590.284	29724.98
590.643	29998.87
591.003	30360.9
591.362	30618.97
591.721	30777.38
592.08	30863.03
592.44	31332.85
592.799	31460.98
593.158	31500.08
593.517	31799.5
593.876	32013.51
594.235	32220.51
594.593	32405.14
594.952	32512.7
595.311	32649.2
595.67	32898.01
596.029	33275.17
596.387	33420.03
596.746	33690.07
597.104	33676.97
597.463	33764.87
597.822	34137.52
598.18	34155.6
598.538	34411.86
598.897	34805.75
599.255	34596.27
599.613	35172.3
599.972	35088
600.33	35343.14
600.688	35509.01
601.046	35756.23
601.404	35915.78
601.762	35978.15
602.12	36332.27
602.478	36389.21
602.836	36686.83
603.194	36549.43
603.552	36793.95
603.91	36828.07
604.268	37112.58
604.625	37198.46
604.983	37379.47
605.341	37438.22
605.698	37679.57
606.056	37836.86
606.413	37996.18
606.771	38208.15
607.128	38446.11
607.485	38380.35
607.843	38437.75
608.2	38883.84
608.557	39027.34
608.914	38816.49
609.272	39240.21
609.629	39324.28
609.986	39433.43
610.343	39503.03
610.7	39731.95
611.057	39814.89
611.414	39889.91
611.771	39908.89
612.127	40077.25
612.484	40257.59
612.841	40432.04
613.198	40364.02
613.554	40429.56
613.911	40782.77
614.267	40894.63
614.624	40806.05
614.98	40999.26
615.337	41266.82
615.693	41147.05
616.05	41336.2
616.406	41481.28
616.762	41475.18
617.118	41545.01
617.475	41553.37
617.831	41753.59
618.187	41836.53
618.543	41873.36
618.899	42065.9
619.255	42233.13
619.611	42251.43
619.967	42401.48
620.323	42360.36
620.678	42273.13
621.034	42412.78
621.39	42387.47
621.746	42452.33
622.101	42908.36
622.457	42574.81
622.812	42801.25
623.168	42803.28
623.523	42820
623.879	43023.39
624.234	42742.27
624.589	43002.82
624.945	43062.94
625.3	43020.68
625.655	43103.16
626.01	43259.09
626.365	43132.09
626.72	43237.39
627.075	43103.39
627.43	43297.28
627.785	43101.13
628.14	43371.4
628.495	43311.97
628.85	43341.35
629.205	43119.43
629.559	43555.35
629.914	43243.5
630.269	43322.14
630.623	43303.38
630.978	43220.9
631.332	43373.21
631.687	43508.35
632.041	43545.18
632.396	43435.13
632.75	43391.29
633.104	43479.65
633.459	43211.18
633.813	43366.66
634.167	43266.09
634.521	43392.42
634.875	43528.69
635.229	43251.18
635.583	43310.39
635.937	43205.3
636.291	43152.2
636.645	43266.55
636.999	43147.68
637.352	43245.3
637.706	43041.92
638.06	43246.66
638.413	43124.18
638.767	43014.12
639.121	43176.38
639.474	42853
639.828	43009.38
640.181	43035.82
640.534	42985.65
640.888	42679.22
641.241	42784.75
641.594	42843.05
641.947	42883.28
642.301	42746.11
642.654	42885.54
643.007	42925.09
643.36	42880.12
643.713	42680.8
644.066	42818.87
644.419	42545.89
644.771	42330.98
645.124	42084.88
645.477	41971.44
645.83	41763.08
646.182	41543.88
646.535	41422.53
646.888	41571.68
647.24	41224.34
647.593	41469.08
647.945	41429.98
648.298	41272.93
648.65	41178.47
649.002	41182.08
649.355	41264.34
649.707	41215.98
650.059	41343.88
650.411	41969.18
650.763	41892.57
651.115	42329.62
651.467	42287.36
651.819	42219.57
652.171	42171.43
652.523	42029.74
652.875	41979.57
653.227	41973.7
653.578	42080.59
653.93	41952
654.282	41763.76
654.633	41732.12
654.985	41806.02
655.337	41926.69
655.688	42039.91
656.039	42037.65
656.391	41561.51
656.742	41738
657.094	41723.76
657.445	41818.22
657.796	41748.62
658.147	41703.2
658.498	41663.2
658.849	41723.31
659.2	41682.18
659.551	41723.08
659.902	41771.22
660.253	41634.27
660.604	41713.37
660.955	41557.21
661.306	41815.74
661.656	41640.15
662.007	41513.37
662.358	41528.96
662.708	41476.08
663.059	41489.87
663.409	41166.49
663.76	41507.95
664.11	41730.54
664.461	41558.79
664.811	41557.66
665.161	41621.17
665.511	41444.22
665.862	41459.14
666.212	41482.86
666.562	41579.13
666.912	41526.03
667.262	41407.61
667.612	41371.68
667.962	41526.7
668.312	41337.56
668.662	41702.75
669.011	41515.18
669.361	41409.19
669.711	41324.22
670.06	41225.47
670.41	41236.09
670.76	41201.29
671.109	41347.27
671.459	41393.15
671.808	41271.12
672.157	41229.76
672.507	41010.56
672.856	41146.15
673.205	41112.93
673.554	41299.82
673.904	41093.72
674.253	41189.31
674.602	41184.57
674.951	40584.13
675.3	40609.21
675.649	41079.94
675.998	41062.54
676.346	40939.38
676.695	41129.2
677.044	40877
677.393	40972.37
677.741	41040.39
678.09	40789.55
678.438	40788.19
678.787	40807.85
679.135	40900.05
679.484	40594.53
679.832	40844.69
680.181	40403.34
680.529	40724.24
680.877	40584.13
681.225	40440.18
681.573	40672.49
681.922	40348.43
682.27	40383.23
682.618	40298.04
682.966	40062.11
683.314	40241.54
683.661	40060.75
684.009	39992.51
684.357	39996.8
684.705	39864.6
685.053	39943.92
685.4	39977.14
685.748	39591.16
686.095	39585.29
686.443	39555.46
686.79	39473.2
687.138	39602.01
687.485	39620.54
687.832	39300.32
688.18	39435.91
688.527	39211.06
688.874	39186.2
689.221	38991.4
689.568	38943.95
689.915	38977.17
690.262	38973.33
690.609	38822.37
690.956	38566.1
691.303	38716.84
691.65	38504.86
691.997	38447.69
692.344	38319.11
692.69	38278.65
693.037	38335.15
693.383	38064.2
693.73	38157.98
694.077	37958.89
694.423	37971.54
694.769	37780.36
695.116	37618.11
695.462	37613.36
695.808	37550.09
696.155	37678.22
696.501	37270.32
696.847	37434.83
697.193	37065.81
697.539	37210.66
697.885	36913.94
698.231	36811.35
698.577	36794.4
698.923	36691.35
699.269	36638.47
699.614	36400.06
699.96	36300.63
700.306	36264.7
700.651	36019.5
700.997	36142.44
701.342	35980.18
701.688	35976.34
702.033	35852.73
702.379	35704.71
702.724	35710.81
703.069	35749.91
703.415	35264.95
703.76	35413.87
704.105	35336.58
704.45	35242.58
704.795	35083.94
705.14	35003.94
705.485	35088.23
705.83	34756.71
706.175	34857.95
706.52	34783.61
706.865	34612.76
707.209	34701.35
707.554	34476.27
707.899	34579.99
708.243	34343.62
708.588	34270.85
708.932	34067.69
709.277	34021.14
709.621	34213
709.966	33896.4
710.31	34003.51
710.654	33835.83
710.998	33893.01
711.342	33830.18
711.687	33708.38
712.031	33431.78
712.375	33502.06
712.719	33513.81
713.063	33307.03
713.407	33551.32
713.75	33316.3
714.094	33181.16
714.438	33105.46
714.782	33155.17
715.125	33003.99
715.469	33058.9
715.812	32851
716.156	32732.59
716.499	32740.72
716.843	32666.15
717.186	32609.43
717.53	32691.68
717.873	32686.26
718.216	32610.55
718.559	32353.39
718.902	32188.87
719.246	32327.85
719.589	32145.03
719.932	32116.78
720.275	32088.99
720.617	32009.67
720.96	31940.52
721.303	31939.61
721.646	31848.54
721.989	31702.56
722.331	31835.89
722.674	31771.48
723.016	31788.66
723.359	31669.34
723.701	31694.42
724.044	31465.95
724.386	31379.63
724.729	31389.8
725.071	31416.46
725.413	31320.65
725.755	31270.48
726.097	31072.97
726.439	30987.09
726.782	31076.58
727.124	31145.06
727.465	30953.2
727.807	31042.69
728.149	30892.63
728.491	30872.97
728.833	30890.37
729.175	30784.61
729.516	30657.16
729.858	30645.86
730.199	30645.86
730.541	30642.7
730.882	30560.44
731.224	30600.66
731.565	30373.55
731.906	30493.32
732.248	30468.92
732.589	30146.89
732.93	30276.61
733.271	30094.69
733.612	30218.53
733.953	30205.87
734.294	30164.29
734.635	30011.75
734.976	30061.7
735.317	29870.06
735.658	30008.59
735.999	29950.74
736.339	29776.51
736.68	29862.38
737.021	29846.33
737.361	29583.06
737.702	29738.99
738.042	29649.95
738.383	29585.78
738.723	29693.8
739.063	29543.97
739.404	29481.15
739.744	29502.84
740.084	29477.08
740.424	29418.77
740.764	29283.41
741.104	29364.09
741.444	29221.27
741.784	29189.85
742.124	29142.17
742.464	29126.13
742.804	29117.99
743.143	29009.52
743.483	28950.54
743.823	28788.06
744.162	28848.39
744.502	28914.61
744.841	28815.63
745.181	28848.62
745.52	28744.44
745.86	28738.79
746.199	28724.78
746.538	28638.23
746.877	28748.51
747.216	28609.76
747.556	28561.62
747.895	28673.26
748.234	28548.29
748.573	28404.79
748.911	28276.43
749.25	28388.52
749.589	28084.8
749.928	28107.17
750.267	28124.57
750.605	27984.24
750.944	28050.67
751.283	28053.61
751.621	28016.33
751.96	27918.7
752.298	27790.57
752.636	27842.77
752.975	27804.35
753.313	27583.57
753.651	27707.86
753.989	27617.47
754.327	27560.74
754.666	27467.19
755.004	27432.39
755.342	27487.07
755.679	27498.15
756.017	27315.1
756.355	27276.68
756.693	27174.77
757.031	27297.02
757.368	27108.33
757.706	26852.74
758.044	26846.64
758.381	26883.93
758.719	26801.67
759.056	26863.14
759.394	26804.38
759.731	26569.36
760.068	26614.55
760.405	26432.86
760.743	26417.05
761.08	26376.14
761.417	26273.55
761.754	26159.2
762.091	26194
762.428	25940.45
762.765	25881.01
763.102	26068.81
763.438	25837.85
763.775	25638.99
764.112	25612.77
764.449	25597.63
764.785	25503.4
765.122	25376.39
765.458	25300.01
765.795	25253.46
766.131	25253.69
766.467	25140.02
766.804	25102.28
767.14	25026.35
767.476	24933.24
767.812	24820.25
768.148	24834.26
768.485	24595.4
768.821	24700.71
769.157	24506.81
769.492	24419.36
769.828	24378.23
770.164	24248.74
770.5	24174.84
770.836	24202.41
771.171	24086.03
771.507	23909.09
771.842	23770.56
772.178	23826.83
772.513	23780.28
772.849	23716.33
773.184	23499.61
773.519	23503
773.855	23458.03
774.19	23312.72
774.525	23220.29
774.86	23183.46
775.195	23073.4
775.53	23007.87
775.865	22958.38
776.2	22749.12
776.535	22616.24
776.87	22615.34
777.205	22483.36
777.539	22319.53
777.874	22488.11
778.209	22247.21
778.543	22123.37
778.878	22100.77
779.212	22119.08
779.547	21951.85
779.881	21976.94
780.215	21891.06
780.55	21769.94
780.884	21708.24
781.218	21641.8
781.552	21544.63
781.886	21475.03
782.22	21458.76
782.554	21265.77
782.888	21063.51
783.222	21054.93
783.556	20911.88
783.889	20994.14
784.223	20733.58
784.557	20778.32
784.89	20822.39
785.224	20708.95
785.557	20524.09
785.891	20564.54
786.224	20530.19
786.558	20442.74
786.891	20253.37
787.224	20159.13
787.557	20080.26
787.891	20101.05
788.224	20059.02
788.557	19965.46
788.89	19943.77
789.223	19923.2
789.556	19720.72
789.888	19673.72
790.221	19604.34
790.554	19469.66
790.887	19480.28
791.219	19454.74
791.552	19278.7
791.884	19235.54
792.217	19046.39
792.549	19127.97
792.882	19004.13
793.214	18930.91
793.546	18947.19
793.879	18909.45
794.211	18711.26
794.543	18786.06
794.875	18653.63
795.207	18753.97
795.539	18610.02
795.871	18560.53
796.203	18460.19
796.535	18416.58
796.867	18293.19
797.198	18343.81
797.53	18259.29
797.862	18144.04
798.193	18216.58
798.525	18072.86
798.856	18053.65
799.188	17797.39
799.519	17794.67
799.85	17742.7
800.182	17760.55
800.513	17727.33
800.844	17572.53
801.175	17695.69
801.506	17620.44
801.837	17536.15
802.168	17422.03
802.499	17376.61
802.83	17232.88
803.161	17258.42
803.491	17269.26
803.822	17237.63
804.153	17130.28
804.483	16989.72
804.814	16962.38
805.145	16935.71
805.475	16902.49
805.805	16876.28
806.136	16773.46
806.466	16905.66
806.796	16754.25
807.126	16620.24
807.457	16512.9
807.787	16611.65
808.117	16514.26
808.447	16417.08
808.777	16385.9
809.107	16386.8
809.436	16356.97
809.766	16295.05
810.096	16283.07
810.426	16259.12
810.755	16124.21
811.085	16183.42
811.414	16104.32
811.744	16019.35
812.073	15991.56
812.403	16020.26
812.732	15833.37
813.061	15897.77
813.39	15739.36
813.719	15755.63
814.049	15833.37
814.378	15690.55
814.707	15675.18
815.036	15682.64
815.365	15625.69
815.693	15389.99
816.022	15552.92
816.351	15354.74
816.68	15336.21
817.008	15418.46
817.337	15186.38
817.665	15142.09
817.994	15262.08
818.322	15213.95
818.651	15183.67
818.979	14925.82
819.307	15164.23
819.636	15085.37
819.964	14968.53
820.292	14991.58
820.62	14926.95
820.948	14902.32
821.276	14945.93
821.604	14898.7
821.932	14935.31
822.259	14932.83
822.587	14924.24
822.915	14833.62
823.243	14948.87
823.57	14832.94
823.898	14833.62
824.225	14851.02
824.553	14797.69
824.88	14814.86
825.207	14866.16
825.535	14732.83
825.862	14871.13
826.189	14768.54
826.516	14864.81
826.843	14880.4
827.17	14932.38
827.497	14941.64
827.824	14902.55
828.151	14900.74
828.478	14844.92
828.805	14894.41
829.131	14850.8
829.458	14804.7
829.785	14784.58
830.111	14815.54
830.438	14879.5
830.764	14810.12
831.09	14851.7
831.417	14722.66
831.743	14796.56
832.069	14804.47
832.395	14730.8
832.722	14750.69
833.048	14666.62
833.374	14776.67
833.7	14587.3
834.026	14634.08
834.351	14682.89
834.677	14752.72
835.003	14654.19
835.329	14658.26
835.654	14593.63
835.98	14601.76
836.306	14483.12
836.631	14519.05
836.956	14554.76
837.282	14613.51
837.607	14521.99
837.932	14426.17
838.258	14432.28
838.583	14451.71
838.908	14362.22
839.233	14385.5
839.558	14299.85
839.883	14258.5
840.208	14277.7
840.533	14178.95
840.858	14231.83
841.182	14265.5
841.507	14234.09
841.832	14124.49
842.156	14099.4
842.481	14063.25
842.805	14043.59
843.13	13990.25
843.454	14012.63
843.778	13906.19
844.103	13996.58
844.427	13887.88
844.751	13869.8
845.075	13837.72
845.399	13790.48
845.723	13681.34
846.047	13752.29
846.371	13603.6
846.695	13654.44
847.019	13487.44
847.343	13438.63
847.666	13404.28
847.99	13301.46
848.313	13260.33
848.637	13283.83
848.96	13204.96
849.284	13133.1
849.607	13032.54
849.931	12998.64
850.254	12907.12
850.577	12820.11
850.9	12826.89
851.223	12820.11
851.546	12777.63
851.869	12583.06
852.192	12726.33
852.515	12617.86
852.838	12494.25
853.161	12601.36
853.483	12517.98
853.806	12387.81
854.129	12369.96
854.451	12354.59
854.774	12321.37
855.096	12316.85
855.419	12287.93
855.741	12188.04
856.063	12147.36
856.385	12136.07
856.708	11997.99
857.03	12037.08
857.352	12008.84
857.674	11918.9
857.996	11943.3
858.318	11868.05
858.64	11798.67
858.961	11800.25
859.283	11787.6
859.605	11764.55
859.926	11729.75
860.248	11713.03
860.57	11616.53
860.891	11680.03
861.212	11564.1
861.534	11522.75
861.855	11589.86
862.176	11526.82
862.498	11520.04
862.819	11435.29
863.14	11426.71
863.461	11451.11
863.782	11358.68
864.103	11358.01
864.424	11405.24
864.745	11360.72
865.065	11315.3
865.386	11346.48
865.707	11307.39
866.027	11261.51
866.348	11239.14
866.668	11256.54
866.989	11165.02
867.309	11087.28
867.63	11210.89
867.95	11140.16
868.27	11117.33
868.59	11121.85
868.91	11129.99
869.23	11069.88
869.55	11020.39
869.87	11025.81
870.19	10984
870.51	11046.38
870.83	11017.9
871.15	10989.65
871.469	10962.76
871.789	11022.42
872.109	10987.17
872.428	10851.35
872.748	10893.84
873.067	10849.09
873.386	10837.57
873.706	10862.88
874.025	10760.73
874.344	10778.59
874.663	10764.12
874.982	10753.73
875.301	10795.08
875.62	10667.4
875.939	10662.66
876.258	10653.39
876.577	10647.74
876.896	10660.85
877.214	10619.04
877.533	10607.52
877.852	10500.85
878.17	10541.98
878.489	10572.49
878.807	10506.5
879.125	10524.36
879.444	10509.44
879.762	10440.29
880.08	10470.57
880.398	10298.37
880.716	10464.24
881.034	10363
881.352	10361.65
881.67	10300.18
881.988	10372.95
882.306	10412.27
882.624	10276.9
882.941	10252.72
883.259	10222.9
883.577	10160.98
883.894	10077.59
884.212	10177.92
884.529	10143.12
884.846	10063.13
885.164	10120.75
885.481	10092.73
885.798	10035.78
886.115	10040.07
886.432	10031.26
886.75	10009.57
887.067	9941.09
887.383	9953.75
887.7	9938.83
888.017	9892.73
888.334	9875.56
888.651	9855.22
888.967	9796.47
889.284	9748.56
889.6	9748.78
889.917	9715.56
890.233	9652.29
890.55	9660.2
890.866	9710.37
891.182	9629.46
891.498	9653.87
891.815	9579.07
892.131	9551.27
892.447	9462.69
892.763	9517.38
893.079	9418.4
893.395	9442.12
893.71	9410.49
894.026	9364.39
894.342	9361.9
894.657	9295.46
894.973	9270.38
895.289	9250.94
895.604	9223.37
895.92	9173.21
896.235	9147.44
896.55	9109.7
896.865	9098.18
897.181	9054.79
897.496	9037.16
897.811	8934.34
898.126	8955.58
898.441	8859.09
898.756	8947.9
899.071	8912.87
899.386	8895.25
899.7	8824.97
900.015	8745.65
900.33	8762.14
900.644	8720.11
900.959	8682.14
901.273	8710.62
901.588	8679.43
901.902	8588.81
902.216	8562.83
902.531	8555.59
902.845	8499.78
903.159	8412.55
903.473	8452.09
903.787	8387.69
904.101	8349.72
904.415	8343.17
904.729	8288.48
905.042	8299.78
905.356	8258.43
905.67	8240.35
905.984	8199.9
906.297	8206
906.611	8148.6
906.924	8126
907.237	8107.24
907.551	8064.08
907.864	7987.93
908.177	8028.83
908.491	8004.87
908.804	7968.49
909.117	7890.98
909.43	7866.57
909.743	7824.54
910.056	7840.58
910.368	7764.43
910.681	7733.24
910.994	7680.36
911.307	7684.43
911.619	7592.46
911.932	7663.87
912.244	7521.05
912.557	7577.09
912.869	7500.48
913.181	7486.02
913.494	7480.59
913.806	7402.63
914.118	7399.01
914.43	7310.66
914.742	7306.36
915.054	7284.67
915.366	7313.37
915.678	7245.57
915.99	7170.09
916.302	7183.65
916.613	7152.24
916.925	7161.28
917.236	7078.8
917.548	7094.62
917.859	7021.17
918.171	6980.72
918.482	6931.68
918.794	6909.54
919.105	6933.94
919.416	6888.52
919.727	6914.51
920.038	6835.41
920.349	6772.59
920.66	6696.21
920.971	6746.38
921.282	6712.7
921.593	6633.61
921.903	6619.6
922.214	6566.72
922.525	6563.33
922.835	6537.57
923.146	6524.24
923.456	6533.5
923.767	6500.06
924.077	6503.44
924.387	6417.35
924.697	6476.78
925.008	6367.86
925.318	6386.61
925.628	6364.69
925.938	6305.71
926.248	6309.33
926.558	6253.06
926.867	6182.55
927.177	6198.14
927.487	6216.45
927.796	6061.87
928.106	6123.57
928.416	6091.93
928.725	6116.79
929.034	6028.88
929.344	6042.67
929.653	5961.76
929.962	5930.35
930.271	5912.73
930.581	5870.24
930.89	5849
931.199	5832.28
931.508	5813.97
931.817	5748.21
932.125	5779.85
932.434	5813.29
932.743	5672.05
933.051	5688.1
933.36	5700.3
933.669	5653.98
933.977	5588.67
934.286	5627.54
934.594	5585.05
934.902	5518.16
935.21	5508.44
935.519	5532.85
935.827	5530.59
936.135	5445.85
936.443	5404.72
936.751	5439.07
937.059	5395.9
937.367	5405.85
937.674	5383.93
937.982	5317.94
938.29	5282.01
938.597	5331.05
938.905	5246.08
939.213	5194.78
939.52	5235.46
939.827	5188.68
940.135	5171.5
940.442	5154.33
940.749	5137.15
941.056	5107.32
941.363	5051.05
941.67	5070.26
941.977	5032.07
942.284	5012.64
942.591	4974.22
942.898	4983.71
943.205	4957.04
943.511	4911.4
943.818	4902.36
944.125	4865.75
944.431	4856.03
944.738	4866.65
945.044	4843.83
945.35	4784.17
945.657	4835.24
945.963	4749.37
946.269	4691.29
946.575	4719.99
946.881	4706.2
947.187	4718.41
947.493	4714.57
947.799	4645.87
948.105	4611.29
948.41	4578.07
948.716	4593.66
949.022	4555.93
949.327	4516.38
949.633	4556.38
949.938	4489.49
950.244	4463.27
950.549	4450.17
950.854	4402.71
951.16	4434.57
951.465	4393.67
951.77	4384.86
952.075	4357.51
952.38	4376.72
952.685	4378.75
952.99	4289.49
953.294	4308.25
953.599	4252.43
953.904	4278.42
954.209	4239.1
954.513	4256.5
954.818	4182.6
955.122	4218.31
955.426	4166.11
955.731	4148.03
956.035	4100.57
956.339	4141.7
956.643	4078.2
956.948	4062.61
957.252	4025.32
957.556	4080.01
957.86	4025.54
958.163	4020.8
958.467	3969.95
958.771	3994.36
959.075	3940.12
959.378	3886.34
959.682	3928.82
959.985	3888.15
960.289	3842.05
960.592	3882.27
960.896	3846.34
961.199	3854.02
961.502	3831.88
961.805	3794.82
962.108	3784.42
962.411	3800.92
962.714	3769.73
963.017	3738.32
963.32	3745.33
963.623	3713.01
963.926	3701.94
964.228	3671.43
964.531	3634.37
964.833	3645.21
965.136	3642.28
965.438	3627.14
965.741	3607.02
966.043	3547.59
966.345	3566.12
966.648	3539
966.95	3554.37
967.252	3487.93
967.554	3493.58
967.856	3471.89
968.158	3459.68
968.46	3451.32
968.761	3444.54
969.063	3434.82
969.365	3402.74
969.666	3376.3
969.968	3407.93
970.269	3361.61
970.571	3361.61
970.872	3359.8
971.174	3331.55
971.475	3293.81
971.776	3310.99
972.077	3271.44
972.378	3259.01
972.679	3234.6
972.98	3244.32
973.281	3213.81
973.582	3199.12
973.883	3187.37
974.183	3174.94
974.484	3148.73
974.785	3160.03
975.085	3139.69
975.386	3115.29
975.686	3128.62
975.986	3075.51
976.287	3096.53
976.587	3070.09
976.887	3058.56
977.187	3028.96
977.487	3058.34
977.787	2987.38
978.087	3008.85
978.387	2965.91
978.687	2968.62
978.987	2948.28
979.286	2927.95
979.586	2925.23
979.885	2908.06
980.185	2907.83
980.484	2870.55
980.784	2898.12
981.083	2872.13
981.382	2844.56
981.682	2827.16
981.981	2837.55
982.28	2801.17
982.579	2783.32
982.878	2792.13
983.177	2752.81
983.475	2777.22
983.774	2751.91
984.073	2718.69
984.372	2719.82
984.67	2745.13
984.969	2723.88
985.267	2723.88
985.566	2705.58
985.864	2657.67
986.162	2645.47
986.461	2669.42
986.759	2632.13
987.057	2616.54
987.355	2627.39
987.653	2598.46
987.951	2558.92
988.249	2555.98
988.547	2595.07
988.844	2547.39
989.142	2560.5
989.44	2537.67
989.737	2553.72
990.035	2527.28
990.332	2476.88
990.63	2515.98
990.927	2485.02
991.224	2464.23
991.521	2450.44
991.819	2457.45
992.116	2423.33
992.413	2402.54
992.71	2397.11
993.006	2398.69
993.303	2416.55
993.6	2382.88
993.897	2357.11
994.193	2343.78
994.49	2336.55
994.787	2344.46
995.083	2317.11
995.379	2304.01
995.676	2330.45
995.972	2273.05
996.268	2274.86
996.565	2286.38
996.861	2254.74
997.157	2239.83
997.453	2225.37
997.749	2230.56
998.044	2190.34
998.34	2174.07
998.636	2202.77
998.932	2185.82
999.227	2153.95
999.523	2162.99
999.818	2104.92
1000.114	2133.16
1000.409	2128.42
1000.704	2115.31
1001	2097.91
1001.295	2078.25
1001.59	2113.96
1001.885	2067.4
1002.18	2074.18
1002.475	2035.54
1002.77	2037.35
1003.065	2003
1003.359	2004.35
1003.654	2008.87
1003.949	1978.82
1004.243	1980.4
1004.538	1957.35
1004.832	1937.46
1005.127	1959.61
1005.421	1933.17
1005.715	1927.07
1006.009	1927.75
1006.304	1906.05
1006.598	1911.02
1006.892	1872.83
1007.186	1874.87
1007.48	1850.01
1007.773	1845.49
1008.067	1852.72
1008.361	1824.02
1008.655	1799.84
1008.948	1804.13
1009.242	1821.31
1009.535	1769.33
1009.829	1791.7
1010.122	1756.45
1010.415	1748.54
1010.708	1758.71
1011.001	1764.13
1011.295	1744.02
1011.588	1725.72
1011.881	1734.98
1012.173	1666.06
1012.466	1716
1012.759	1669.22
1013.052	1690.24
1013.344	1675.78
1013.637	1655.21
1013.93	1658.37
1014.222	1618.38
1014.514	1651.59
1014.807	1613.86
1015.099	1617.7
1015.391	1594.87
1015.683	1564.37
1015.976	1570.47
1016.268	1579.96
1016.56	1547.42
1016.851	1548.55
1017.143	1516.01
1017.435	1559.39
1017.727	1506.51
1018.018	1523.24
1018.31	1496.8
1018.602	1491.37
1018.893	1462
1019.185	1499.96
1019.476	1471.94
1019.767	1448.21
1020.058	1435.56
1020.35	1432.17
1020.641	1446.4
1020.932	1437.36
1021.223	1430.36
1021.514	1393.75
1021.804	1410.92
1022.095	1398.27
1022.386	1386.97
1022.677	1379.06
1022.967	1353.52
1023.258	1356.69
1023.548	1326.86
1023.839	1334.09
1024.129	1305.84
1024.419	1294.54
1024.709	1295.67
1025	1288.89
1025.29	1281.21
1025.58	1270.59
1025.87	1257.48
1026.16	1261.32
1026.449	1246.86
1026.739	1229.01
1027.029	1233.07
1027.319	1243.47
1027.608	1225.39
1027.898	1217.48
1028.187	1217.48
1028.477	1200.53
1028.766	1174.77
1029.055	1195.79
1029.344	1171.61
1029.634	1175.68
1029.923	1173.19
1030.212	1131.83
1030.501	1146.07
1030.79	1110.82
1031.078	1131.38
1031.367	1125.28
1031.656	1110.82
1031.945	1109.01
1032.233	1082.34
1032.522	1114.66
1032.81	1079.63
1033.099	1081.21
1033.387	1062.01
1033.675	1066.98
1033.963	1062.68
1034.251	1054.77
1034.54	1046.19
1034.828	1032.85
1035.116	1031.27
1035.403	1034.66
1035.691	1016.13
1035.979	1021.1
1036.267	1017.04
1036.554	1015.68
1036.842	1021.78
1037.129	980.43
1037.417	974.1
1037.704	984.95
1037.992	956.02
1038.279	966.64
1038.566	978.17
1038.853	978.17
1039.14	978.17
