Data from hue_330_FLMS001491_15.txt Node
Date: Mon Feb 06 15:44:59 GMT 2017
User: dcchb
Spectrometer: FLMS00149
Trigger mode: 0
Integration Time (sec): 2.000000E-2
Scans to average: 10
Electric dark correction enabled: true
Nonlinearity correction enabled: false
Boxcar width: 0
XAxis mode: Wavelengths
Number of Pixels in Spectrum: 2048
>>>>>Begin Spectral Data<<<<<
341.393	-3.05
341.776	-3.05
342.16	-3.05
342.543	-58.19
342.927	-71.52
343.31	-64.74
343.693	-63.84
344.077	-68.13
344.46	-72.65
344.843	-51.19
345.226	-62.71
345.61	-28.81
345.993	0.34
346.376	1.69
346.759	-7.8
347.142	15.25
347.525	43.73
347.908	63.61
348.291	91.64
348.674	84.4
349.057	119.21
349.44	125.53
349.823	137.06
350.206	155.82
350.588	184.51
350.971	203.05
351.354	216.6
351.737	224.51
352.119	239.43
352.502	246.21
352.884	257.06
353.267	274.91
353.65	292.99
354.032	283.95
354.414	307.9
354.797	322.59
355.179	312.65
355.562	321.01
355.944	316.94
356.326	303.83
356.709	335.92
357.091	340.44
357.473	333.66
357.855	346.32
358.238	341.57
358.62	349.93
359.002	346.54
359.384	338.64
359.766	321.69
360.148	337.05
360.53	332.99
360.912	312.2
361.294	330.5
361.676	343.83
362.057	327.11
362.439	340.67
362.821	302.93
363.203	311.29
363.584	306.77
363.966	326.88
364.348	328.01
364.729	311.74
365.111	307.9
365.493	325.08
365.874	311.07
366.256	313.78
366.637	327.11
367.019	300.67
367.4	319.88
367.781	292.31
368.163	285.98
368.544	301.57
368.925	291.86
369.306	309.26
369.688	312.65
370.069	314.68
370.45	312.42
370.831	290.95
371.212	287.34
371.593	308.81
371.974	320.56
372.355	332.76
372.736	321.91
373.117	320.56
373.498	318.3
373.879	319.43
374.26	305.87
374.641	303.83
375.021	323.04
375.402	335.92
375.783	333.89
376.163	335.47
376.544	323.04
376.925	307.68
377.305	316.49
377.686	306.32
378.066	328.92
378.447	321.23
378.827	320.56
379.208	318.3
379.588	328.01
379.968	332.31
380.349	328.47
380.729	335.25
381.109	329.6
381.489	336.38
381.87	338.18
382.25	325.3
382.63	360.56
383.01	329.14
383.39	350.84
383.77	327.11
384.15	335.7
384.53	326.66
384.91	335.7
385.29	360.78
385.67	341.35
386.049	332.76
386.429	344.96
386.809	334.79
387.189	354.23
387.568	342.93
387.948	333.21
388.328	350.39
388.707	337.96
389.087	362.14
389.466	353.55
389.846	340.22
390.225	362.82
390.605	347
390.984	364.62
391.363	361.23
391.743	363.27
392.122	358.97
392.501	361.01
392.881	356.49
393.26	352.65
393.639	374.11
394.018	356.04
394.397	379.54
394.776	350.84
395.155	400.78
395.534	362.36
395.913	379.09
396.292	372.31
396.671	381.35
397.05	371.18
397.429	394.68
397.808	377.5
398.186	396.49
398.565	387.67
398.944	372.76
399.323	371.63
399.701	402.59
400.08	382.93
400.458	396.71
400.837	389.03
401.215	392.42
401.594	382.48
401.972	390.61
402.351	384.74
402.729	396.26
403.107	389.03
403.486	411.85
403.864	398.75
404.242	417.05
404.62	422.25
404.999	410.05
405.377	394.45
405.755	400.78
406.133	416.15
406.511	441.23
406.889	438.29
407.267	414.34
407.645	448.46
408.023	438.52
408.401	443.72
408.779	445.98
409.156	466.99
409.534	458.41
409.912	473.55
410.29	466.32
410.667	476.48
411.045	480.33
411.422	486.2
411.8	471.96
412.178	496.15
412.555	504.05
412.933	511.29
413.31	489.14
413.687	512.64
414.065	500.21
414.442	533.21
414.819	523.72
415.197	532.08
415.574	535.24
415.951	527.56
416.328	549.03
416.705	551.06
417.082	563.04
417.46	559.19
417.837	589.7
418.214	592.19
418.591	582.92
418.967	596.71
419.344	585.86
419.721	607.1
420.098	594.9
420.475	622.02
420.852	603.71
421.228	587.22
421.605	617.27
421.982	613.43
422.358	628.57
422.735	649.81
423.111	645.29
423.488	645.29
423.864	656.59
424.241	675.12
424.617	671.96
424.994	666.31
425.37	699.98
425.746	685.97
426.123	694.11
426.499	687.33
426.875	702.69
427.251	704.05
427.627	718.29
428.003	726.65
428.379	739.53
428.756	738.17
429.132	757.83
429.507	762.13
429.883	780.43
430.259	778.17
430.635	767.78
431.011	786.53
431.387	804.39
431.763	820.43
432.138	818.17
432.514	838.51
432.89	824.05
433.265	857.27
433.641	872.41
434.016	847.1
434.392	863.59
434.767	860.2
435.143	890.94
435.518	894.55
435.894	894.78
436.269	908.56
436.644	914.21
437.02	926.19
437.395	922.57
437.77	921.67
438.145	930.03
438.52	961.9
438.895	969.35
439.271	923.25
439.646	992.63
440.021	987.43
440.395	980.43
440.77	986.98
441.145	981.33
441.52	1029.92
441.895	1021.1
442.27	1026.98
442.645	1009.8
443.019	1031.5
443.394	1030.59
443.769	1032.63
444.143	1025.4
444.518	1045.51
444.892	1062.46
445.267	1052.51
445.641	1078.5
446.016	1045.28
446.39	1051.61
446.764	1081.67
447.139	1045.74
447.513	1075.34
447.887	1077.15
448.262	1081.21
448.636	1057.03
449.01	1096.81
449.384	1116.24
449.758	1105.85
450.132	1108.11
450.506	1118.28
450.88	1125.28
451.254	1127.31
451.628	1153.53
452.002	1141.1
452.376	1141.55
452.75	1182
453.123	1149.91
453.497	1167.09
453.871	1172.51
454.244	1187.43
454.618	1201.89
454.992	1203.25
455.365	1238.95
455.739	1233.75
456.112	1232.62
456.486	1234.66
456.859	1257.26
457.232	1266.75
457.606	1249.12
457.979	1254.32
458.352	1262
458.725	1278.95
459.099	1287.76
459.472	1322.79
459.845	1291.83
460.218	1313.07
460.591	1349.91
460.964	1335.67
461.337	1342.68
461.71	1394.65
462.083	1380.42
462.456	1396.23
462.829	1389.45
463.201	1425.61
463.574	1426.06
463.947	1410.02
464.32	1451.83
464.692	1458.38
465.065	1472.16
465.438	1471.94
465.81	1472.16
466.183	1517.14
466.555	1526.63
466.928	1536.34
467.3	1502.45
467.672	1536.12
468.045	1614.76
468.417	1554.42
468.789	1557.13
469.161	1618.6
469.534	1650.01
469.906	1640.3
470.278	1670.58
470.65	1669.9
471.022	1673.97
471.394	1713.51
471.766	1704.93
472.138	1749.45
472.51	1738.37
472.882	1800.52
473.253	1797.81
473.625	1811.82
473.997	1847.07
474.369	1847.07
474.74	1883.91
475.112	1918.71
475.484	1938.37
475.855	1929.55
476.227	1988.99
476.598	1977.01
476.97	1981.76
477.341	2048.65
477.713	2072.15
478.084	2080.96
478.455	2138.81
478.827	2151.47
479.198	2202.31
479.569	2226.04
479.94	2239.38
480.311	2259.94
480.682	2274.4
481.053	2327.96
481.424	2351.69
481.795	2369.09
482.166	2428.52
482.537	2412.7
482.908	2475.3
483.279	2457.68
483.65	2523.44
484.021	2516.66
484.391	2555.75
484.762	2583.77
485.133	2624.45
485.503	2661.74
485.874	2665.13
486.244	2672.81
486.615	2763.66
486.985	2792.58
487.356	2825.58
487.726	2814.95
488.097	2859.47
488.467	2880.26
488.837	2930.66
489.207	2970.43
489.578	2983.09
489.948	3005.01
490.318	3048.39
490.688	3023.76
491.058	3086.59
491.428	3130.65
491.798	3139.01
492.168	3213.36
492.538	3235.73
492.908	3231.44
493.278	3261.27
493.648	3317.77
494.017	3348.27
494.387	3344.21
494.757	3360.7
495.126	3410.64
495.496	3436.86
495.866	3407.26
496.235	3472.56
496.605	3456.75
496.974	3453.58
497.344	3521.6
497.713	3521.15
498.082	3563.64
498.452	3563.18
498.821	3576.97
499.19	3557.31
499.559	3654.25
499.928	3646.57
500.298	3671.65
500.667	3726.34
501.036	3684.76
501.405	3717.53
501.774	3732.22
502.143	3750.75
502.512	3766.12
502.88	3746.91
503.249	3788.94
503.618	3806.57
503.987	3816.51
504.356	3795.72
504.724	3873.91
505.093	3822.16
505.462	3886.34
505.83	3884.53
506.199	3916.17
506.567	3955.72
506.936	3969.95
507.304	3947.13
507.672	3990.74
508.041	4064.19
508.409	4038.88
508.777	4042.27
509.145	4073.9
509.514	4094.24
509.882	4094.92
510.25	4092.21
510.618	4118.2
510.986	4127.69
511.354	4133.56
511.722	4175.6
512.09	4219.66
512.458	4195.26
512.826	4195.26
513.193	4167.91
513.561	4219.89
513.929	4228.93
514.297	4238.65
514.664	4241.58
515.032	4293.79
515.4	4274.12
515.767	4341.47
516.135	4342.82
516.502	4281.13
516.869	4377.85
517.237	4330.62
517.604	4335.59
517.972	4409.71
518.339	4396.16
518.706	4371.52
519.073	4389.83
519.44	4431.86
519.808	4455.59
520.175	4459.43
520.542	4424.18
520.909	4480.67
521.276	4465.76
521.643	4496.04
522.009	4536.72
522.376	4555.7
522.743	4543.27
523.11	4605.87
523.477	4667.79
523.843	4658.97
524.21	4701.23
524.577	4704.4
524.943	4721.12
525.31	4733.55
525.676	4774
526.043	4746.43
526.409	4823.94
526.776	4785.75
527.142	4816.71
527.508	4831.62
527.874	4869.14
528.241	4889.93
528.607	4879.98
528.973	4966.08
529.339	4908.91
529.705	5038.62
530.071	4996.14
530.437	5020.55
530.803	5056.93
531.169	5098.74
531.535	5104.16
531.901	5102.8
532.267	5095.12
532.632	5168.79
532.998	5162.69
533.364	5177.6
533.73	5178.28
534.095	5208.56
534.461	5265.51
534.826	5243.36
535.192	5305.96
535.557	5333.76
535.923	5350.25
536.288	5354.55
536.653	5404.72
537.019	5380.54
537.384	5455.79
537.749	5456.69
538.114	5480.42
538.479	5504.15
538.845	5465.51
539.21	5502.34
539.575	5510.02
539.94	5601.55
540.305	5552.96
540.67	5610.36
541.034	5605.16
541.399	5628.67
541.764	5652.85
542.129	5714.09
542.494	5752.5
542.858	5740.08
543.223	5746.18
543.587	5773.52
543.952	5777.81
544.316	5831.15
544.681	5808.77
545.045	5845.83
545.41	5947.98
545.774	5905.04
546.138	5928.09
546.503	5930.35
546.867	5992.95
547.231	6022.78
547.595	6041.08
547.959	6070.91
548.324	6052.84
548.688	6146.39
549.052	6167.18
549.416	6127.18
549.779	6132.38
550.143	6143.68
550.507	6212.83
550.871	6230.46
551.235	6242.21
551.599	6270.91
551.962	6256.9
552.326	6304.58
552.689	6294.18
553.053	6287.63
553.417	6335.09
553.78	6408.98
554.143	6364.69
554.507	6362.43
554.87	6438.14
555.234	6441.75
555.597	6428.87
555.96	6408.31
556.323	6500.96
556.686	6505.25
557.05	6533.27
557.413	6571.47
557.776	6587.96
558.139	6574.86
558.502	6610.33
558.865	6630.9
559.228	6685.59
559.59	6713.83
559.953	6694.4
560.316	6761.97
560.679	6785.25
561.041	6766.94
561.404	6850.78
561.767	6785.02
562.129	6848.52
562.492	6921.29
562.854	6858.46
563.217	6871.57
563.579	6897.56
563.941	6932.36
564.304	6965.81
564.666	6982.98
565.028	6961.06
565.39	7005.13
565.753	7025.92
566.115	7060.72
566.477	7084.22
566.839	7071.11
567.201	7147.5
567.563	7146.59
567.925	7205.57
568.287	7304.33
568.648	7305.68
569.01	7291.9
569.372	7344.78
569.734	7369.18
570.095	7410.31
570.457	7415.06
570.819	7456.87
571.18	7482.85
571.542	7516.07
571.903	7587.03
572.265	7624.09
572.626	7605.79
572.987	7617.77
573.349	7736.41
573.71	7759.46
574.071	7740.7
574.432	7845.78
574.794	7925.78
575.155	8013.46
575.516	8001.26
575.877	8110.41
576.238	8162.61
576.599	8185.66
576.96	8225.43
577.32	8319.67
577.681	8358.09
578.042	8413
578.403	8518.08
578.763	8619.55
579.124	8740.9
579.485	8848.92
579.845	8918.3
580.206	9010.27
580.566	9129.59
580.927	9243.26
581.287	9375.46
581.648	9453.88
582.008	9637.37
582.368	9782.91
582.728	9909.46
583.089	10027.19
583.449	10220.41
583.809	10355.77
584.169	10576.56
584.529	10587.86
584.889	10934.29
585.249	11051.35
585.609	11226.26
585.969	11453.82
586.329	11632.8
586.688	11878.44
587.048	12076.86
587.408	12322.5
587.768	12489.73
588.127	12689.5
588.487	12889.27
588.846	13235.02
589.206	13352.98
589.565	13736.47
589.925	13954.1
590.284	14265.27
590.643	14466.17
591.003	14757.47
591.362	15090.79
591.721	15302.54
592.08	15568.29
592.44	15805.35
592.799	16116.3
593.158	16396.74
593.517	16765.55
593.876	16972.1
594.235	17374.35
594.593	17559.43
594.952	17923.03
595.311	18193.98
595.67	18441.44
596.029	18839.17
596.387	19254.3
596.746	19525.93
597.104	19766.37
597.463	20059.92
597.822	20417.2
598.18	20496.98
598.538	20909.17
598.897	21311.87
599.255	21449.72
599.613	21993.88
599.972	22157.72
600.33	22448.79
600.688	22733.3
601.046	23096
601.404	23355.66
601.762	23648.08
602.12	23981.86
602.478	24259.14
602.836	24504.78
603.194	24632.46
603.552	24985.9
603.91	25118.55
604.268	25588.59
604.625	25804.86
604.983	26005.53
605.341	26222.02
605.698	26443.26
606.056	26857.94
606.413	27066.52
606.771	27377.7
607.128	27625.15
607.485	27680.74
607.843	27953.05
608.2	28486.82
608.557	28615.41
608.914	28725.69
609.272	28965
609.629	29395.5
609.986	29632.78
610.343	29662.61
610.7	30089.94
611.057	30216.95
611.414	30428.24
611.771	30688.12
612.127	30903.48
612.484	31084.04
612.841	31364.03
613.198	31450.36
613.554	31621.2
613.911	31919.73
614.267	31991.36
614.624	32075.88
614.98	32293.28
615.337	32658.24
615.693	32666.82
616.05	32867.72
616.406	33127.83
616.762	33202.63
617.118	33353.81
617.475	33401.72
617.831	33533.69
618.187	33666.35
618.543	33941.14
618.899	34229.04
619.255	34481.01
619.611	34317.18
619.967	34481.92
620.323	34692.08
620.678	34753.32
621.034	34825.86
621.39	34965.3
621.746	35110.83
622.101	35431.95
622.457	35360.99
622.812	35472.4
623.168	35567.77
623.523	35744.03
623.879	35757.36
624.234	35701.77
624.589	35939.28
624.945	35996.68
625.3	36237.35
625.655	36245.71
626.01	36314.86
626.365	36323.45
626.72	36412.04
627.075	36521.41
627.43	36492.26
627.785	36587.4
628.14	36623.78
628.495	36776.1
628.85	36654.06
629.205	36702.65
629.559	37020.61
629.914	36937.9
630.269	36892.02
630.623	36901.29
630.978	36853.61
631.332	37206.59
631.687	37309.64
632.041	37060.16
632.396	37088.4
632.75	37136.09
633.104	37272.81
633.459	37208.17
633.813	37088.86
634.167	37320.04
634.521	37250.21
634.875	37316.19
635.229	37267.16
635.583	37195.07
635.937	37165.92
636.291	37160.27
636.645	37117.56
636.999	37101.28
637.352	37360.03
637.706	37072.13
638.06	37453.59
638.413	37242.07
638.767	37141.96
639.121	37311.22
639.474	37143.77
639.828	37188.74
640.181	37173.15
640.534	37228.96
640.888	37202.07
641.241	37196.88
641.594	37182.64
641.947	37275.29
642.301	37191.45
642.654	37245.24
643.007	37266.03
643.36	37182.41
643.713	37280.26
644.066	37464.21
644.419	37055.18
644.771	36940.16
645.124	36481.41
645.477	36440.06
645.83	36362.77
646.182	36222.89
646.535	36081.65
646.888	36135.66
647.24	35946.06
647.593	36201.42
647.945	36188.31
648.298	36052.27
648.65	35980.41
649.002	35954.2
649.355	35989.9
649.707	36000.97
650.059	36090.46
650.411	36403.45
650.763	36633.05
651.115	37023.32
651.467	36903.78
651.819	36877.56
652.171	36732.48
652.523	36800.73
652.875	36690.9
653.227	36614.74
653.578	36790.78
653.93	36760.73
654.282	36603.44
654.633	36506.5
654.985	36700.39
655.337	36689.32
655.688	36674.18
656.039	36789.65
656.391	36372.04
656.742	36554.18
657.094	36631.01
657.445	36604.57
657.796	36556.67
658.147	36701.52
658.498	36465.37
658.849	36643.22
659.2	36466.5
659.551	36404.13
659.902	36571.13
660.253	36434.41
660.604	36514.86
660.955	36344.24
661.306	36453.39
661.656	36314.41
662.007	36498.59
662.358	36404.13
662.708	36472.15
663.059	36314.64
663.409	36257.69
663.76	36415.65
664.11	36410.91
664.461	36483.9
664.811	36464.24
665.161	36360.06
665.511	36426.5
665.862	36461.98
666.212	36487.29
666.562	36541.75
666.912	36437.12
667.262	36462.21
667.612	36384.02
667.962	36414.07
668.312	36421.3
668.662	36549.66
669.011	36410
669.361	36416.56
669.711	36423.34
670.06	36229.67
670.41	36207.52
670.76	36156.9
671.109	36249.1
671.459	36228.31
671.808	36239.16
672.157	36473.96
672.507	35930.69
672.856	36149.44
673.205	36153.74
673.554	36219.73
673.904	36118.26
674.253	36410
674.602	36218.37
674.951	35631.49
675.3	35400.76
675.649	36079.16
675.998	36053.18
676.346	36114.19
676.695	36197.58
677.044	35849.79
677.393	35981.31
677.741	35923.69
678.09	35925.72
678.438	35822.22
678.787	35892.05
679.135	35960.3
679.484	35732.05
679.832	35726.86
680.181	35639.63
680.529	35786.97
680.877	35596.69
681.225	35541.1
681.573	35780.87
681.922	35531.83
682.27	35422.46
682.618	35491.16
682.966	35287.32
683.314	35346.53
683.661	35363.7
684.009	35175.46
684.357	35098.85
684.705	35026.99
685.053	35128.68
685.4	35024.28
685.748	34863.38
686.095	34815.02
686.443	34812.3
686.79	34767.79
687.138	34852.76
687.485	34751.97
687.832	34630.39
688.18	34673.33
688.527	34443.95
688.874	34509.94
689.221	34431.52
689.568	34323.05
689.915	34315.82
690.262	34305.65
690.609	34216.61
690.956	34157.41
691.303	34102.72
691.65	33886.91
691.997	33907.02
692.344	33672.45
692.69	33703.41
693.037	33739.79
693.383	33330.31
693.73	33550.87
694.077	33272.01
694.423	33241.95
694.769	33174.16
695.116	33127.15
695.462	33095.74
695.808	33008.06
696.155	33020.04
696.501	32718.57
696.847	32867.95
697.193	32650.78
697.539	32702.76
697.885	32511.57
698.231	32272.48
698.577	32449.2
698.923	32312.48
699.269	32161.75
699.614	32069.33
699.96	31965.83
700.306	32000.18
700.651	32051.25
700.997	31869.56
701.342	31729.22
701.688	31800.86
702.033	31626.63
702.379	31653.29
702.724	31508.66
703.069	31627.53
703.415	31207.2
703.76	31271.61
704.105	31143.47
704.45	31193.87
704.795	30977.83
705.14	31036.13
705.485	30973.54
705.83	30761.34
706.175	30652.87
706.52	30698.74
706.865	30568.8
707.209	30676.14
707.554	30384.4
707.899	30523.83
708.243	30299.88
708.588	30283.16
708.932	30169.94
709.277	30114.58
709.621	30018.53
709.966	29880.91
710.31	29997.74
710.654	29682.04
710.998	29787.8
711.342	29745.55
711.687	29628.26
712.031	29716.17
712.375	29498.09
712.719	29603.63
713.063	29575.61
713.407	29437.53
713.75	29430.3
714.094	29325.9
714.438	29181.72
714.782	29167.48
715.125	29156.18
715.469	29144.43
715.812	28941.5
716.156	28906.02
716.499	28898.79
716.843	28947.15
717.186	28809.52
717.53	28865.57
717.873	28843.42
718.216	28633.71
718.559	28648.4
718.902	28392.59
719.246	28462.64
719.589	28436.2
719.932	28256.32
720.275	28306.04
720.617	28243.89
720.96	28261.52
721.303	28179.49
721.646	28146.94
721.989	28021.07
722.331	28124.35
722.674	28003.22
723.016	28010
723.359	27930.23
723.701	27926.38
724.044	27809.33
724.386	27667.41
724.729	27779.04
725.071	27718.03
725.413	27638.48
725.755	27707.41
726.097	27591.93
726.439	27394.42
726.782	27331.15
727.124	27384.48
727.465	27326.17
727.807	27352.39
728.149	27215.89
728.491	27257.93
728.833	27325.04
729.175	27049.12
729.516	27112.62
729.858	27006.41
730.199	27084.6
730.541	26995.79
730.882	27019.29
731.224	26964.38
731.565	26864.04
731.906	26829.46
732.248	26823.36
732.589	26643.48
732.93	26694.1
733.271	26691.16
733.612	26600.54
733.953	26725.74
734.294	26592.18
734.635	26546.31
734.976	26633.99
735.317	26480.32
735.658	26346.09
735.999	26374.56
736.339	26421.34
736.68	26325.3
737.021	26369.82
737.361	26216.37
737.702	26409.59
738.042	26283.94
738.383	26106.32
738.723	26257.95
739.063	26034
739.404	26095.25
739.744	26112.87
740.084	26067.22
740.424	26000.56
740.764	25966.21
741.104	26040.11
741.444	25809.6
741.784	25688.48
742.124	25754.01
742.464	25704.3
742.804	25708.59
743.143	25659.1
743.483	25506.33
743.823	25466.79
744.162	25515.83
744.502	25551.31
744.841	25358.77
745.181	25470.4
745.52	25339.11
745.86	25448.71
746.199	25349.73
746.538	25246
746.877	25349.73
747.216	25217.98
747.556	25267.02
747.895	25187.47
748.234	25114.71
748.573	24982.96
748.911	24988.16
749.25	25045.1
749.589	24870.87
749.928	24789.97
750.267	24919.01
750.605	24756.07
750.944	24772.34
751.283	24703.64
751.621	24705.9
751.96	24589.07
752.298	24578.45
752.636	24574.61
752.975	24441.73
753.313	24317.67
753.651	24455.52
753.989	24336.2
754.327	24307.72
754.666	24239.7
755.004	24261.85
755.342	24151.34
755.679	24227.05
756.017	24044.9
756.355	24093.04
756.693	23880.16
757.031	23989.54
757.368	23736.21
757.706	23752.26
758.044	23684.91
758.381	23692.6
758.719	23586.61
759.056	23588.65
759.394	23487.18
759.731	23345.49
760.068	23337.13
760.405	23240.18
760.743	23230.24
761.08	23300.52
761.417	23137.36
761.754	23048.09
762.091	22975.1
762.428	22978.27
762.765	22820.76
763.102	22911.15
763.438	22743.02
763.775	22666.64
764.112	22625.73
764.449	22635.22
764.785	22511.84
765.122	22359.3
765.458	22315.46
765.795	22306.19
766.131	22184.61
766.467	22236.82
766.804	22082.92
767.14	21983.04
767.476	21867.33
767.812	21749.37
768.148	21764.06
768.485	21685.42
768.821	21584.4
769.157	21589.15
769.492	21508.25
769.828	21511.86
770.164	21308.93
770.5	21220.57
770.836	21281.14
771.171	21199.56
771.507	21123.85
771.842	20946.23
772.178	20912.33
772.513	20804.31
772.849	20823.29
773.184	20681.15
773.519	20726.57
773.855	20612.9
774.19	20506.24
774.525	20476.86
774.86	20411.1
775.195	20344.44
775.53	20310.77
775.865	20195.51
776.2	20046.14
776.535	19934.05
776.87	19844.56
777.205	19888.63
777.539	19752.36
777.874	19810.89
778.209	19525.25
778.543	19550.33
778.878	19393.5
779.212	19492.48
779.547	19273.05
779.881	19393.95
780.215	19258.36
780.55	19200.74
780.884	19032.38
781.218	19115.32
781.552	19054.53
781.886	18982.89
782.22	18823.8
782.554	18691.15
782.888	18624.93
783.222	18493.64
783.556	18420.42
783.889	18398.05
784.223	18360.99
784.557	18287.77
784.89	18330.93
785.224	18208.67
785.557	18168.22
785.891	18068.34
786.224	18080.32
786.558	17971.39
786.891	17718.29
787.224	17802.13
787.557	17761.91
787.891	17752.41
788.224	17638.52
788.557	17672.19
788.89	17476.04
789.223	17528.01
789.556	17427.9
789.888	17445.08
790.221	17295.93
790.554	17220.23
790.887	17193.33
791.219	17104.3
791.552	17052.55
791.884	16950.85
792.217	16916.5
792.549	16917.18
792.882	16711.76
793.214	16774.36
793.546	16644.2
793.879	16596.06
794.211	16560.36
794.543	16496.63
794.875	16475.84
795.207	16459.57
795.539	16398.33
795.871	16309.51
796.203	16216.41
796.535	16207.82
796.867	16126.92
797.198	16060.93
797.53	16086.7
797.862	15954.72
798.193	15947.26
798.525	15820.71
798.856	15916.08
799.188	15716.08
799.519	15650.1
799.85	15600.38
800.182	15655.29
800.513	15639.25
800.844	15496.65
801.175	15526.94
801.506	15531.23
801.837	15394.74
802.168	15348.86
802.499	15306.83
802.83	15240.62
803.161	15165.36
803.491	15268.86
803.822	15133.05
804.153	15041.98
804.483	14945.26
804.814	14947.97
805.145	15018.93
805.475	14942.32
805.805	14807.18
806.136	14823.45
806.466	14766.96
806.796	14740.74
807.126	14650.35
807.457	14612.38
807.787	14605.38
808.117	14613.29
808.447	14589.56
808.777	14523.57
809.107	14423.01
809.436	14389.34
809.766	14391.82
810.096	14346.4
810.426	14365.38
810.755	14318.83
811.085	14350.47
811.414	14166.97
811.744	14099.18
812.073	14132.85
812.403	14108.22
812.732	13988.67
813.061	13985.06
813.39	13911.39
813.719	13884.04
814.049	13972.17
814.378	13871.84
814.707	13838.39
815.036	13856.25
815.365	13631.39
815.693	13670.49
816.022	13634.56
816.351	13666.65
816.68	13532.41
817.008	13541.23
817.337	13409.7
817.665	13396.82
817.994	13398.86
818.322	13383.26
818.651	13378.29
818.979	13357.5
819.307	13341.01
819.636	13249.03
819.964	13182.82
820.292	13304.17
820.62	13232.99
820.948	13194.57
821.276	13193.66
821.604	13125.87
821.932	13186.66
822.259	13166.09
822.587	13112.99
822.915	13182.37
823.243	13221.69
823.57	13162.7
823.898	13116.83
824.225	13187.79
824.553	13171.52
824.88	13169.94
825.207	13112.99
825.535	13019.21
825.862	13166.32
826.189	13033.67
826.516	13145.76
826.843	13198.41
827.17	13189.6
827.497	13190.5
827.824	13109.15
828.151	13138.75
828.478	13122.71
828.805	13075.02
829.131	13095.59
829.458	13086.32
829.785	13000.68
830.111	13038.64
830.438	13113.89
830.764	13054.23
831.09	13089.94
831.417	13060.56
831.743	13059.88
832.069	12992.09
832.395	12950.51
832.722	13058.3
833.048	12985.53
833.374	12987.12
833.7	12930.85
834.026	12923.61
834.351	12991.86
834.677	12958.87
835.003	12993.44
835.329	12861.02
835.654	12893.33
835.98	12892.66
836.306	12891.75
836.631	12813.56
836.956	12840.23
837.282	12796.16
837.607	12831.87
837.932	12718.65
838.258	12778.76
838.583	12739.67
838.908	12627.35
839.233	12634.13
839.558	12697.86
839.883	12550.97
840.208	12540.57
840.533	12571.53
840.858	12578.77
841.182	12539.44
841.507	12519.78
841.832	12460.8
842.156	12434.81
842.481	12435.72
842.805	12350.97
843.13	12314.37
843.454	12336.51
843.778	12264.42
844.103	12299
844.427	12214.71
844.751	12240.92
845.075	12155.73
845.399	12158.21
845.723	12040.93
846.047	12100.59
846.371	12070.76
846.695	12018.55
847.019	11914.83
847.343	11892.68
847.666	11805.68
847.99	11790.76
848.313	11794.83
848.637	11734.27
848.96	11637.32
849.284	11595.97
849.607	11538.34
849.931	11576.31
850.254	11443.65
850.577	11371.34
850.9	11325.24
851.223	11305.13
851.546	11225.81
851.869	11215.64
852.192	11235.52
852.515	11074.62
852.838	11046.83
853.161	11064.68
853.483	11017.9
853.806	10977.68
854.129	10916.44
854.451	10901.07
854.774	10853.61
855.096	10898.13
855.419	10809.09
855.741	10726.61
856.063	10671.7
856.385	10704.92
856.708	10668.99
857.03	10593.28
857.352	10609.1
857.674	10611.13
857.996	10550.57
858.318	10443.45
858.64	10523.68
858.961	10434.41
859.283	10418.82
859.605	10287.07
859.926	10400.07
860.248	10261.54
860.57	10321.42
860.891	10352.38
861.212	10292.72
861.534	10198.04
861.855	10151.03
862.176	10204.82
862.498	10172.73
862.819	10221.31
863.14	10125.5
863.461	10099.96
863.782	10094.54
864.103	10095.44
864.424	10040.53
864.745	10070.36
865.065	9999.17
865.386	9956.69
865.707	10040.75
866.027	10013.86
866.348	9981.55
866.668	9931.38
866.989	9880.98
867.309	9843.47
867.63	9867.42
867.95	9851.83
868.27	9781.55
868.59	9825.84
868.91	9798.95
869.23	9736.58
869.55	9703.81
869.87	9775.9
870.19	9748.33
870.51	9690.71
870.83	9721.21
871.15	9707.2
871.469	9664.27
871.789	9689.58
872.109	9647.32
872.428	9620.88
872.748	9706.3
873.067	9615.45
873.386	9624.72
873.706	9582.69
874.025	9559.18
874.344	9558.51
874.663	9516.02
874.982	9502.01
875.301	9499.98
875.62	9507.66
875.939	9438.96
876.258	9419.3
876.577	9429.92
876.896	9434.44
877.214	9361.22
877.533	9323.26
877.852	9403.71
878.17	9381.11
878.489	9364.61
878.807	9283.03
879.125	9283.26
879.444	9336.36
879.762	9249.14
880.08	9269.7
880.398	9151.74
880.716	9215.01
881.034	9233.54
881.352	9138.18
881.67	9173.88
881.988	9176.59
882.306	9137.27
882.624	9039.65
882.941	9047.33
883.259	9037.39
883.577	8972.08
883.894	8985.19
884.212	8944.74
884.529	8975.24
884.846	8970.72
885.164	8907
885.481	8857.06
885.798	8873.1
886.115	8810.05
886.432	8840.33
886.75	8864.96
887.067	8850.5
887.383	8818.64
887.7	8858.41
888.017	8752.88
888.334	8719.43
888.651	8707.23
888.967	8649.38
889.284	8629.04
889.6	8638.08
889.917	8582.49
890.233	8540.45
890.55	8550.62
890.866	8547.46
891.182	8501.58
891.498	8502.04
891.815	8486.22
892.131	8442.15
892.447	8372.1
892.763	8355.6
893.079	8334.58
893.395	8343.4
893.71	8328.48
894.026	8367.58
894.342	8300.46
894.657	8217.98
894.973	8257.97
895.289	8188.15
895.604	8175.04
895.92	8167.13
896.235	8119.67
896.55	8036.96
896.865	8054.14
897.181	8087.13
897.496	8004.65
897.811	8029.51
898.126	7938.89
898.441	7962.62
898.756	7914.26
899.071	7872.67
899.386	7881.71
899.7	7832.22
900.015	7749.51
900.33	7738.44
900.644	7721.49
900.959	7728.27
901.273	7663.19
901.588	7671.55
901.902	7658.44
902.216	7608.27
902.531	7558.33
902.845	7556.52
903.159	7448.73
903.473	7432.01
903.787	7443.08
904.101	7360.37
904.415	7348.39
904.729	7404.44
905.042	7334.61
905.356	7309.3
905.67	7258.68
905.984	7215.97
906.297	7245.12
906.611	7226.36
906.924	7156.31
907.237	7147.95
907.551	7106.37
907.864	7100.04
908.177	7037.44
908.491	7084.45
908.804	6991.34
909.117	6964.68
909.43	6911.8
909.743	6921.29
910.056	6956.77
910.368	6921.74
910.681	6813.49
910.994	6840.84
911.307	6757.9
911.619	6760.39
911.932	6731.69
912.244	6674.97
912.557	6712.93
912.869	6599.94
913.181	6610.56
913.494	6556.1
913.806	6571.69
914.118	6528.3
914.43	6508.64
914.742	6534.86
915.054	6477.91
915.366	6412.83
915.678	6401.98
915.99	6395.43
916.302	6372.37
916.613	6382.77
916.925	6285.37
917.236	6311.36
917.548	6257.8
917.859	6278.14
918.171	6176.45
918.482	6192.72
918.794	6167.41
919.105	6222.1
919.416	6093.06
919.727	6105.49
920.038	6119.05
920.349	6018.94
920.66	5985.72
920.971	5963.35
921.282	5957.47
921.593	5898.04
921.903	5889.45
922.214	5851.71
922.525	5852.61
922.835	5865.04
923.146	5775.55
923.456	5786.4
923.767	5785.05
924.077	5789.34
924.387	5796.8
924.697	5696.23
925.008	5732.62
925.318	5670.47
925.628	5651.04
925.938	5649.68
926.248	5556.8
926.558	5563.81
926.867	5489.69
927.177	5488.33
927.487	5489.69
927.796	5394.1
928.106	5425.06
928.416	5431.83
928.725	5420.31
929.034	5359.52
929.344	5367.43
929.653	5326.98
929.962	5281.56
930.271	5300.09
930.581	5235.23
930.89	5235
931.199	5217.15
931.508	5174.89
931.817	5191.16
932.125	5149.58
932.434	5195.91
932.743	5080.43
933.051	5116.14
933.36	5010.15
933.669	5049.02
933.977	4996.82
934.286	4957.72
934.594	4979.19
934.902	4963.15
935.21	4931.96
935.519	4911.62
935.827	4880.89
936.135	4850.38
936.443	4865.3
936.751	4772.19
937.059	4797.27
937.367	4803.15
937.674	4764.28
937.982	4694.45
938.29	4714.34
938.597	4715.47
938.905	4671.85
939.213	4665.98
939.52	4658.07
939.827	4622.36
940.135	4608.35
940.442	4589.6
940.749	4561.35
941.056	4574
941.363	4489.26
941.67	4479.32
941.977	4488.13
942.284	4413.33
942.591	4468.7
942.898	4413.33
943.205	4432.76
943.511	4424.63
943.818	4366.33
944.125	4321.58
944.431	4333.78
944.738	4334.24
945.044	4311.19
945.35	4291.98
945.657	4235.93
945.963	4232.32
946.269	4222.83
946.575	4171.98
946.881	4209.95
947.187	4205.88
947.493	4179.89
947.799	4138.76
948.105	4110.74
948.41	4137.18
948.716	4098.08
949.022	4035.71
949.327	4069.84
949.633	3997.07
949.938	4014.02
950.244	4013.79
950.549	3986
950.854	3938.54
951.16	3925.43
951.465	3948.03
951.77	3913.23
952.075	3906.22
952.38	3880.01
952.685	3889.95
952.99	3836.4
953.294	3819.9
953.599	3819.45
953.904	3822.61
954.209	3755.72
954.513	3816.28
954.818	3740.35
955.122	3749.84
955.426	3724.76
955.731	3688.6
956.035	3675.5
956.339	3691.54
956.643	3683.63
956.948	3651.09
957.252	3623.75
957.556	3619.45
957.86	3596.63
958.163	3567.48
958.467	3557.99
958.771	3518.44
959.075	3515.73
959.378	3531.55
959.682	3490.87
959.985	3496.07
960.289	3435.5
960.592	3461.04
960.896	3425.11
961.199	3389.85
961.502	3361.38
961.805	3397.09
962.108	3401.83
962.411	3361.61
962.714	3338.56
963.017	3362.06
963.32	3341.95
963.623	3304.43
963.926	3296.3
964.228	3249.75
964.531	3253.59
964.833	3304.66
965.136	3270.99
965.438	3246.13
965.741	3215.17
966.043	3218.79
966.345	3170.65
966.648	3188.5
966.95	3196.64
967.252	3106.47
967.554	3129.52
967.856	3109.18
968.158	3097.21
968.46	3108.73
968.761	3078.22
969.063	3083.2
969.365	3034.38
969.666	3047.26
969.968	3017.21
970.269	2984.22
970.571	3002.29
970.872	3021.95
971.174	2972.92
971.475	2984.22
971.776	2941.5
972.077	2894.27
972.378	2924.78
972.679	2915.97
972.98	2870.09
973.281	2908.96
973.582	2856.08
973.883	2842.98
974.183	2815.18
974.484	2826.03
974.785	2842.3
975.085	2798.23
975.386	2798.01
975.686	2789.64
975.986	2732.47
976.287	2784.9
976.587	2729.98
976.887	2732.7
977.187	2727.5
977.487	2706.26
977.787	2673.49
978.087	2677.1
978.387	2640.95
978.687	2686.6
978.987	2647.5
979.286	2635.3
979.586	2617.67
979.885	2593.49
980.185	2611.34
980.484	2626.03
980.784	2593.27
981.083	2558.01
981.382	2570.67
981.682	2582.87
981.981	2530.67
982.28	2512.36
982.579	2505.58
982.878	2511.69
983.177	2508.52
983.475	2515.08
983.774	2459.71
984.073	2482.08
984.372	2405.93
984.67	2426.04
984.969	2440.05
985.267	2421.29
985.566	2402.08
985.864	2395.3
986.162	2362.76
986.461	2360.05
986.759	2375.64
987.057	2352.82
987.355	2323.44
987.653	2344.91
987.951	2307.62
988.249	2294.74
988.547	2306.27
988.844	2309.66
989.142	2266.27
989.44	2279.38
989.737	2215.42
990.035	2254.97
990.332	2241.86
990.63	2237.57
990.927	2242.99
991.224	2189.66
991.521	2212.48
991.819	2158.25
992.116	2154.18
992.413	2192.15
992.71	2172.49
993.006	2162.32
993.303	2146.72
993.6	2148.31
993.897	2152.37
994.193	2139.72
994.49	2125.25
994.787	2104.24
995.083	2097.46
995.379	2079.83
995.676	2057.91
995.972	2045.48
996.268	2060.4
996.565	2032.6
996.861	2002.32
997.157	2016.33
997.453	1987.18
997.749	2013.85
998.044	1998.03
998.34	1973.62
998.636	1968.65
998.932	1977.46
999.227	1931.14
999.523	1950.34
999.818	1914.41
1000.114	1885.49
1000.409	1929.55
1000.704	1911.25
1001	1900.18
1001.295	1885.94
1001.59	1860.18
1001.885	1844.81
1002.18	1841.65
1002.475	1848.2
1002.77	1836.9
1003.065	1831.48
1003.359	1819.05
1003.654	1786.51
1003.949	1788.31
1004.243	1754.42
1004.538	1748.54
1004.832	1780.41
1005.127	1764.13
1005.421	1753.06
1005.715	1720.75
1006.009	1727.3
1006.304	1723.68
1006.598	1713.51
1006.892	1695.44
1007.186	1657.02
1007.48	1682.55
1007.773	1666.74
1008.067	1682.33
1008.361	1651.82
1008.655	1665.61
1008.948	1640.97
1009.242	1651.37
1009.535	1639.17
1009.829	1578.6
1010.122	1606.62
1010.415	1589
1010.708	1627.64
1011.001	1599.62
1011.295	1564.59
1011.588	1551.03
1011.881	1566.17
1012.173	1541.32
1012.466	1523.91
1012.759	1560.75
1013.052	1511.03
1013.344	1496.34
1013.637	1536.12
1013.93	1488.66
1014.222	1492.28
1014.514	1487.98
1014.807	1461.77
1015.099	1478.27
1015.391	1432.17
1015.683	1443.24
1015.976	1443.46
1016.268	1421.09
1016.56	1428.32
1016.851	1389.45
1017.143	1411.38
1017.435	1379.29
1017.727	1381.77
1018.018	1358.5
1018.31	1392.62
1018.602	1349
1018.893	1359.17
1019.185	1344.71
1019.476	1341.09
1019.767	1325.28
1020.058	1315.56
1020.35	1314.2
1020.641	1276.92
1020.932	1299.74
1021.223	1287.54
1021.514	1242.11
1021.804	1282.57
1022.095	1246.18
1022.386	1250.7
1022.677	1213.41
1022.967	1263.36
1023.258	1236.01
1023.548	1231.04
1023.839	1220.65
1024.129	1202.79
1024.419	1181.55
1024.709	1191.72
1025	1193.53
1025.29	1163.25
1025.58	1168.44
1025.87	1155.56
1026.16	1178.84
1026.449	1142
1026.739	1142
1027.029	1139.97
1027.319	1144.04
1027.608	1129.12
1027.898	1096.13
1028.187	1104.26
1028.477	1105.39
1028.766	1093.87
1029.055	1070.37
1029.344	1093.42
1029.634	1058.39
1029.923	1023.36
1030.212	1048.9
1030.501	1059.75
1030.79	1037.15
1031.078	1048.67
1031.367	1007.32
1031.656	1020.43
1031.945	1016.81
1032.233	995.34
1032.522	992.86
1032.81	986.08
1033.099	993.08
1033.387	1017.04
1033.675	966.19
1033.963	991.95
1034.251	955.12
1034.54	951.95
1034.828	999.18
1035.116	954.66
1035.403	956.47
1035.691	933.2
1035.979	932.29
1036.267	913.54
1036.554	919.64
1036.842	904.95
1037.129	882.58
1037.417	911.5
1037.704	876.93
1037.992	913.99
1038.279	886.64
1038.566	857.27
1038.853	857.27
1039.14	857.27
