Data from hue_340_FLMS001491_74.txt Node
Date: Mon Feb 06 15:43:34 GMT 2017
User: dcchb
Spectrometer: FLMS00149
Trigger mode: 0
Integration Time (sec): 2.000000E-2
Scans to average: 10
Electric dark correction enabled: true
Nonlinearity correction enabled: false
Boxcar width: 0
XAxis mode: Wavelengths
Number of Pixels in Spectrum: 2048
>>>>>Begin Spectral Data<<<<<
341.393	-34.52
341.776	-34.52
342.16	-34.52
342.543	-66.83
342.927	-57.8
343.31	-74.74
343.693	-65.03
344.077	-70.45
344.46	-44.01
344.843	-67.29
345.226	-41.07
345.61	-32.49
345.993	-9.89
346.376	-7.17
346.759	10.45
347.142	28.08
347.525	36.89
347.908	73.05
348.291	73.95
348.674	83.22
349.057	106.49
349.44	106.04
349.823	140.62
350.206	174.74
350.588	205.25
350.971	218.13
351.354	241.86
351.737	216.77
352.119	233.72
352.502	263.1
352.884	259.48
353.267	273.04
353.65	289.31
354.032	289.09
354.414	289.31
354.797	293.38
355.179	323.66
355.562	334.06
355.944	304
356.326	345.13
356.709	322.99
357.091	331.12
357.473	331.35
357.855	344.45
358.238	334.96
358.62	342.65
359.002	332.03
359.384	349.2
359.766	346.94
360.148	352.36
360.53	337
360.912	337.67
361.294	314.4
361.676	323.66
362.057	315.08
362.439	331.57
362.821	352.59
363.203	334.96
363.584	341.97
363.966	320.95
364.348	341.52
364.729	317.11
365.111	316.21
365.493	316.88
365.874	324.79
366.256	320.73
366.637	312.59
367.019	327.28
367.4	308.52
367.781	302.2
368.163	310.78
368.544	301.97
368.925	303.33
369.306	324.34
369.688	302.42
370.069	325.25
370.45	303.33
370.831	294.29
371.212	306.04
371.593	329.09
371.974	311.91
372.355	325.02
372.736	300.84
373.117	316.43
373.498	318.47
373.879	307.62
374.26	286.6
374.641	315.98
375.021	314.4
375.402	327.51
375.783	313.72
376.163	325.02
376.544	336.09
376.925	312.14
377.305	325.7
377.686	346.71
378.066	318.24
378.447	332.48
378.827	303.55
379.208	305.13
379.588	311.69
379.968	317.34
380.349	331.35
380.729	334.96
381.109	334.28
381.489	336.77
381.87	371.35
382.25	316.43
382.63	334.51
383.01	331.57
383.39	342.19
383.77	347.84
384.15	348.97
384.53	351.46
384.91	347.62
385.29	350.56
385.67	346.94
386.049	350.56
386.429	356.88
386.809	348.07
387.189	351.91
387.568	366.15
387.948	344
388.328	367.28
388.707	362.08
389.087	355.08
389.466	353.27
389.846	345.81
390.225	350.1
390.605	372.7
390.984	351.69
391.363	342.19
391.743	372.93
392.122	378.58
392.501	383.55
392.881	351.91
393.26	362.76
393.639	365.92
394.018	361.63
394.397	378.13
394.776	362.08
395.155	374.06
395.534	394.62
395.913	373.61
396.292	388.29
396.671	390.55
397.05	387.39
397.429	407.05
397.808	400.95
398.186	377.9
398.565	390.1
398.944	386.49
399.323	377.9
399.701	396.2
400.08	410.22
400.458	403.89
400.837	408.41
401.215	397.56
401.594	378.8
401.972	404.57
402.351	411.57
402.729	383.32
403.107	409.76
403.486	413.83
403.864	406.15
404.242	426.49
404.62	388.07
404.999	417.22
405.377	421.06
405.755	420.16
406.133	428.97
406.511	438.46
406.889	455.86
407.267	467.84
407.645	435.75
408.023	433.27
408.401	438.69
408.779	449.08
409.156	457.45
409.534	462.42
409.912	454.96
410.29	472.13
410.667	439.82
411.045	465.58
411.422	456.32
411.8	466.03
412.178	468.07
412.555	493.6
412.933	496.31
413.31	499.7
413.687	504
414.065	493.15
414.442	523.43
414.819	506.48
415.197	506.71
415.574	531.57
415.951	543.32
416.328	531.12
416.705	520.49
417.082	538.57
417.46	555.75
417.837	541.74
418.214	551.45
418.591	569.76
418.967	548.74
419.344	553.04
419.721	554.17
420.098	561.85
420.475	568.4
420.852	554.84
421.228	585.35
421.605	586.26
421.982	596.2
422.358	580.83
422.735	614.5
423.111	612.7
423.488	605.24
423.864	620.15
424.241	618.12
424.617	648.18
424.994	632.13
425.37	629.87
425.746	619.02
426.123	653.15
426.499	639.36
426.875	659.93
427.251	662.41
427.627	678.23
428.003	652.02
428.379	700.6
428.756	689.76
429.132	714.84
429.507	691.56
429.883	691.79
430.259	714.84
430.635	715.52
431.011	730.21
431.387	724.33
431.763	743.09
432.138	755.06
432.514	780.15
432.89	768.85
433.265	785.35
433.641	787.83
434.016	783.09
434.392	798
434.767	826.25
435.143	822.41
435.518	821.5
435.894	815.85
436.269	831
436.644	826.48
437.02	831.45
437.395	834.38
437.77	872.8
438.145	865.8
438.52	860.15
438.895	887.26
439.271	870.99
439.646	897.21
440.021	892.69
440.395	904.89
440.77	910.09
441.145	895.85
441.52	884.55
441.895	917.55
442.27	893.82
442.645	913.03
443.019	941.5
443.394	929.75
443.769	954.16
444.143	945.57
444.518	964.55
444.892	964.1
445.267	976.98
445.641	981.95
446.016	985.57
446.39	980.37
446.764	968.62
447.139	987.6
447.513	1005
447.887	1018.79
448.262	991.22
448.636	1011.1
449.01	1038
449.384	1049.52
449.758	1046.36
450.132	1052.91
450.506	1064.21
450.88	1044.1
451.254	1055.4
451.628	1020.82
452.002	1081.16
452.376	1068.05
452.75	1056.75
453.123	1074.83
453.497	1111.21
453.871	1098.56
454.244	1084.55
454.618	1147.82
454.992	1122.51
455.365	1143.76
455.739	1138.78
456.112	1136.3
456.486	1138.56
456.859	1173.58
457.232	1188.95
457.606	1183.3
457.979	1198.22
458.352	1206.8
458.725	1226.46
459.099	1229.85
459.472	1237.31
459.845	1239.8
460.218	1281.38
460.591	1290.42
460.964	1263.98
461.337	1289.97
461.71	1310.53
462.083	1331.77
462.456	1327.25
462.829	1351.89
463.201	1343.75
463.574	1355.5
463.947	1345.56
464.32	1396.4
464.692	1408.61
465.065	1397.99
465.438	1445.67
465.81	1436.85
466.183	1478.66
466.555	1484.09
466.928	1487.7
467.3	1461.71
467.672	1498.1
468.045	1544.65
468.417	1559.34
468.789	1532.9
469.161	1550.98
469.534	1581.48
469.906	1604.76
470.278	1607.25
470.65	1664.87
471.022	1658.09
471.394	1684.31
471.766	1703.74
472.138	1721.14
472.51	1755.72
472.882	1792.33
473.253	1771.31
473.625	1836.84
473.997	1823.06
474.369	1821.7
474.74	1855.37
475.112	1895.83
475.484	1930.18
475.855	1937.63
476.227	1981.47
476.598	1995.48
476.97	2044.3
477.341	2054.24
477.713	2060.57
478.084	2113
478.455	2164.29
478.827	2202.26
479.198	2224.63
479.569	2247
479.94	2325.42
480.311	2345.08
480.682	2371.52
481.053	2418.98
481.424	2452.87
481.795	2449.94
482.166	2494.45
482.537	2524.51
482.908	2563.15
483.279	2602.47
483.65	2611.97
484.021	2672.08
484.391	2703.94
484.762	2743.26
485.133	2744.84
485.503	2812.64
485.874	2844.73
486.244	2907.1
486.615	2923.14
486.985	2939.87
487.356	3001.56
487.726	3047.21
488.097	3113.87
488.467	3104.38
488.837	3161.33
489.207	3192.29
489.578	3202.91
489.948	3233.64
490.318	3295.34
490.688	3293.76
491.058	3356.13
491.428	3369.46
491.798	3465.5
492.168	3452.62
492.538	3516.57
492.908	3528.78
493.278	3634.76
493.648	3592.5
494.017	3648.1
494.387	3657.36
494.757	3694.2
495.126	3753.86
495.496	3747.75
495.866	3756.12
496.235	3812.39
496.605	3820.75
496.974	3845.61
497.344	3895.32
497.713	3928.99
498.082	3945.26
498.452	3959.27
498.821	4019.84
499.19	3989.56
499.559	4064.13
499.928	4048.31
500.298	4079.27
500.667	4127.18
501.036	4114.75
501.405	4135.09
501.774	4164.01
502.143	4202.43
502.512	4228.65
502.88	4251.7
503.249	4259.83
503.618	4263.9
503.987	4277.91
504.356	4307.06
504.724	4280.4
505.093	4324.46
505.462	4342.77
505.83	4312.03
506.199	4378.02
506.567	4419.6
506.936	4445.14
507.304	4493.5
507.672	4495.31
508.041	4525.59
508.409	4568.3
508.777	4568.3
509.145	4571.69
509.514	4547.51
509.882	4637
510.25	4655.3
510.618	4614.62
510.986	4692.36
511.354	4673.83
511.722	4714.06
512.09	4744.34
512.458	4716.99
512.826	4745.92
513.193	4781.85
513.561	4754.28
513.929	4855.07
514.297	4906.82
514.664	4855.52
515.032	4878.35
515.4	4898.68
515.767	4917.22
516.135	4926.93
516.502	4901.85
516.869	4989.98
517.237	4978.46
517.604	4982.52
517.972	5008.29
518.339	5047.61
518.706	5096.19
519.073	5112.92
519.44	5066.14
519.808	5117.21
520.175	5067.95
520.542	5155.85
520.909	5219.13
521.276	5196.3
521.643	5182.07
522.009	5235.85
522.376	5290.09
522.743	5292.57
523.11	5323.53
523.477	5389.29
523.843	5357.43
524.21	5407.6
524.577	5434.04
524.943	5452.12
525.31	5465.22
525.676	5502.51
526.043	5547.71
526.409	5537.54
526.776	5618.67
527.142	5639
527.508	5668.61
527.874	5709.06
528.241	5681.04
528.607	5736.18
528.973	5747.48
529.339	5817.76
529.705	5794.25
530.071	5855.72
530.437	5882.61
530.803	5879
531.169	5913.12
531.535	5936.4
531.901	5968.49
532.267	6028.37
532.632	6016.17
532.998	6052.55
533.364	6089.16
533.73	6087.35
534.095	6150.18
534.461	6163.96
534.826	6153.12
535.192	6228.14
535.557	6284.19
535.923	6262.04
536.288	6253.45
536.653	6349.04
537.019	6331.64
537.384	6327.8
537.749	6424.52
538.114	6387.91
538.479	6424.97
538.845	6461.58
539.21	6427.01
539.575	6521.47
539.94	6538.64
540.305	6586.1
540.67	6583.16
541.034	6638.98
541.399	6623.39
541.764	6607.57
542.129	6713.55
542.494	6725.53
542.858	6714.68
543.223	6766.66
543.587	6802.59
543.952	6845.53
544.316	6878.97
544.681	6867.45
545.045	6875.81
545.41	6903.15
545.774	7009.14
546.138	6961
546.503	6933.66
546.867	6977.95
547.231	7059.98
547.595	7076.25
547.959	7153.54
548.324	7164.61
548.688	7145.86
549.052	7158.74
549.416	7167.1
549.779	7233.31
550.143	7245.97
550.507	7230.6
550.871	7315.57
551.235	7263.37
551.599	7373.2
551.962	7384.04
552.326	7395.34
552.689	7398.96
553.053	7392.4
553.417	7458.62
553.78	7495.23
554.143	7476.7
554.507	7532.74
554.87	7551.04
555.234	7617.94
555.597	7563.47
555.96	7563.47
556.323	7653.87
556.686	7626.07
557.05	7651.61
557.413	7694.54
557.776	7717.14
558.139	7786.07
558.502	7822.9
558.865	7877.36
559.228	7832.39
559.59	7892.05
559.953	7918.72
560.316	8009.34
560.679	7954.65
561.041	7981.09
561.404	8056.34
561.767	8090.24
562.129	8021.77
562.492	8108.77
562.854	8116.68
563.217	8137.02
563.579	8158.49
563.941	8268.54
564.304	8272.61
564.666	8271.25
565.028	8341.53
565.39	8327.52
565.753	8355.77
566.115	8377.46
566.477	8427.41
566.839	8415.43
567.201	8533.39
567.563	8495.65
567.925	8553.28
568.287	8569.55
568.648	8565.03
569.01	8652.94
569.372	8684.12
569.734	8718.47
570.095	8799.37
570.457	8777.68
570.819	8840.73
571.18	8815.64
571.542	8914.17
571.903	8940.39
572.265	8999.14
572.626	9059.93
572.987	9078.91
573.349	9119.59
573.71	9211.57
574.071	9154.84
574.432	9218.35
574.794	9374.27
575.155	9416.76
575.516	9429.41
575.877	9459.69
576.238	9586.7
576.599	9643.87
576.96	9700.37
577.32	9786.69
577.681	9861.27
578.042	9934.71
578.403	10035.5
578.763	10093.58
579.124	10085.67
579.485	10261.48
579.845	10429.84
580.206	10439.1
580.566	10518.42
580.927	10633.68
581.287	10844.74
581.648	10907.11
582.008	11028.02
582.368	11196.37
582.728	11330.83
583.089	11462.13
583.449	11664.83
583.809	11838.84
584.169	11963.58
584.529	12126.07
584.889	12347.53
585.249	12476.34
585.609	12602.66
585.969	12865.48
586.329	13030
586.688	13244.91
587.048	13538.23
587.408	13680.6
587.768	13842.4
588.127	14027.26
588.487	14295.5
588.846	14598.09
589.206	14762.83
589.565	14970.51
589.925	15258.64
590.284	15482.14
590.643	15762.58
591.003	16083.02
591.362	16308.1
591.721	16578.6
592.08	16920.52
592.44	17190.79
592.799	17414.51
593.158	17634.62
593.517	17959.58
593.876	18277.99
594.235	18524.77
594.593	18709.17
594.952	19058.31
595.311	19281.58
595.67	19632.53
596.029	19984.62
596.387	20294.44
596.746	20535.11
597.104	20756.8
597.463	21083.12
597.822	21437.46
598.18	21613.27
598.538	21940.04
598.897	22315.85
599.255	22442.18
599.613	23014.82
599.972	23145.66
600.33	23423.62
600.688	23541.36
601.046	23925.3
601.404	24300.89
601.762	24556.47
602.12	24916.24
602.478	25069.91
602.836	25375.89
603.194	25575.66
603.552	25767.06
603.91	25970.67
604.268	26376.31
604.625	26561.62
604.983	26893.59
605.341	26996.86
605.698	27447.7
606.056	27655.37
606.413	27829.83
606.771	28120.22
607.128	28402.47
607.485	28442.25
607.843	28745.06
608.2	28981.67
608.557	29323.13
608.914	29387.31
609.272	29777.8
609.629	29973.51
609.986	30328.52
610.343	30345.7
610.7	30755.41
611.057	30878.79
611.414	30982.07
611.771	31209.63
612.127	31519
612.484	31599.68
612.841	31805.77
613.198	31831.08
613.554	31920.8
613.911	32416.15
614.267	32537.51
614.624	32642.81
614.98	32748.12
615.337	33202.8
615.693	33150.15
616.05	33143.37
616.406	33588.78
616.762	33639.85
617.118	33644.6
617.475	33956.23
617.831	34080.29
618.187	34229.44
618.543	34369.77
618.899	34693.16
619.255	34660.84
619.611	34759.82
619.967	35093.15
620.323	35122.52
620.678	35147.15
621.034	35197.1
621.39	35375.17
621.746	35386.92
622.101	35788.95
622.457	35649.51
622.812	35759.79
623.168	35954.37
623.523	36091.08
623.879	36161.59
624.234	36112.55
624.589	36250.18
624.945	36326.78
625.3	36608.81
625.655	36548.47
626.01	36656.27
626.365	36729.49
626.72	36832.08
627.075	36822.82
627.43	36816.72
627.785	36960.44
628.14	37037.05
628.495	36974
628.85	37083.83
629.205	37161.11
629.559	37359.75
629.914	37258.06
630.269	37273.2
630.623	37190.49
630.978	37162.92
631.332	37390.71
631.687	37497.83
632.041	37422.35
632.396	37504.61
632.75	37390.03
633.104	37504.16
633.459	37472.52
633.813	37425.51
634.167	37454.44
634.521	37441.11
634.875	37586.19
635.229	37399.75
635.583	37279.53
635.937	37354.1
636.291	37384.38
636.645	37359.98
636.999	37349.81
637.352	37611.5
637.706	37393.65
638.06	37611.27
638.413	37473.2
638.767	37331.73
639.121	37465.74
639.474	37240.21
639.828	37265.07
640.181	37262.35
640.534	37363.37
640.888	37291.73
641.241	37232.07
641.594	37294.22
641.947	37369.92
642.301	37380.09
642.654	37391.39
643.007	37483.36
643.36	37309.58
643.713	37326.31
644.066	37440.88
644.419	37325.18
644.771	37151.4
645.124	36684.97
645.477	36649.26
645.83	36385.31
646.182	36343.96
646.535	36336.73
646.888	36307.8
647.24	36161.59
647.593	36375.37
647.945	36347.12
648.298	36112.78
648.65	36083.63
649.002	36046.57
649.355	36184.87
649.707	36050.63
650.059	36195.04
650.411	36724.06
650.763	36738.07
651.115	37131.74
651.467	37064.39
651.819	36929.25
652.171	36863.95
652.523	36818.98
652.875	36932.64
653.227	36825.08
653.578	36997.05
653.93	37018.52
654.282	36724.74
654.633	36605.87
654.985	36825.08
655.337	36759.99
655.688	36666.66
656.039	36835.7
656.391	36617.17
656.742	36574.91
657.094	36623.95
657.445	36713.22
657.796	36700.33
658.147	36654.46
658.498	36654.46
658.849	36738.75
659.2	36678.41
659.551	36643.16
659.902	36556.16
660.253	36658.98
660.604	36793.44
660.955	36457.4
661.306	36619.66
661.656	36476.84
662.007	36512.09
662.358	36598.19
662.708	36559.55
663.059	36631.86
663.409	36393
663.76	36659.66
664.11	36454.69
664.461	36635.03
664.811	36637.51
665.161	36508.7
665.511	36294.02
665.862	36458.08
666.212	36506.67
666.562	36658.98
666.912	36486.33
667.262	36431.64
667.612	36526.1
667.962	36523.84
668.312	36256.96
668.662	36691.75
669.011	36464.18
669.361	36423.73
669.711	36315.94
670.06	36324.3
670.41	36334.47
670.76	36413.11
671.109	36366.56
671.459	36383.51
671.808	36296.05
672.157	36393.9
672.507	36211.53
672.856	36147.58
673.205	36262.83
673.554	36368.82
673.904	36141.25
674.253	36267.35
674.602	36299.89
674.951	35693.13
675.3	35470.76
675.649	36084.53
675.998	36013.35
676.346	35993.01
676.695	36223.74
677.044	35998.21
677.393	36016.96
677.741	35979.9
678.09	35972.67
678.438	35937.64
678.787	35922.95
679.135	36005.21
679.484	35740.13
679.832	35858.77
680.181	35657.2
680.529	35870.07
680.877	35783.52
681.225	35727.03
681.573	35826.46
681.922	35624.88
682.27	35552.79
682.618	35466.02
682.966	35475.96
683.314	35430.76
683.661	35439.8
684.009	35340.37
684.357	35200.49
684.705	35135.63
685.053	35187.38
685.4	35021.28
685.748	34994.62
686.095	34968.4
686.443	34640.05
686.79	34772.93
687.138	34909.42
687.485	34819.03
687.832	34760.72
688.18	34788.07
688.527	34553.05
688.874	34367.29
689.221	34505.59
689.568	34414.97
689.915	34348.31
690.262	34210.46
690.609	34186.95
690.956	33922.78
691.303	34076.9
691.65	33817.47
691.997	33854.31
692.344	33741.54
692.69	33795.1
693.037	33796.46
693.383	33414.32
693.73	33518.95
694.077	33380.2
694.423	33408.22
694.769	33326.86
695.116	33090.26
695.462	33185.17
695.808	33067.44
696.155	33092.29
696.501	32791.74
696.847	32838.97
697.193	32596.04
697.539	32797.84
697.885	32574.57
698.231	32480.78
698.577	32449.15
698.923	32397.62
699.269	32239.43
699.614	32088.48
699.96	32102.26
700.306	32055.48
700.651	31905.21
700.997	31758.77
701.342	31817.98
701.688	31784.98
702.033	31627.02
702.379	31648.94
702.724	31502.28
703.069	31433.13
703.415	31209.63
703.76	31263.19
704.105	31167.82
704.45	31276.75
704.795	31101.61
705.14	30866.36
705.485	30834.5
705.83	30776.2
706.175	30790.43
706.52	30635.86
706.865	30682.19
707.209	30589.08
707.554	30453.72
707.899	30638.35
708.243	30390.9
708.588	30324.68
708.932	30161.75
709.277	30184.12
709.621	30073.16
709.966	29973.51
710.31	30092.15
710.654	29696.9
710.998	29754.75
711.342	29802.66
711.687	29700.97
712.031	29591.37
712.375	29405.16
712.719	29582.1
713.063	29515.44
713.407	29551.37
713.75	29346.63
714.094	29427.31
714.438	29232.28
714.782	29212.62
715.125	29138.27
715.469	29104.38
715.812	28898.96
716.156	28837.94
716.499	28920.2
716.843	28968.56
717.186	28707.32
717.53	28878.62
717.873	28790.03
718.216	28654.44
718.559	28568.34
718.902	28471.4
719.246	28470.72
719.589	28260.78
719.932	28234.12
720.275	28323.83
720.617	28239.31
720.96	28215.13
721.303	28199.99
721.646	28222.59
721.989	27908.93
722.331	28089.94
722.674	27992.31
723.016	28071.63
723.359	27847.01
723.701	27969.26
724.044	27698.99
724.386	27763.39
724.729	27677.52
725.071	27706.9
725.413	27755.71
725.755	27563.63
726.097	27429.17
726.439	27417.19
726.782	27415.15
727.124	27565.21
727.465	27362.95
727.807	27404.53
728.149	27294.03
728.491	27247.7
728.833	27301.49
729.175	27162.73
729.516	27163.86
729.858	27032.34
730.199	27215.39
730.541	27254.48
730.882	26964.55
731.224	27167.25
731.565	26885.9
731.906	26813.36
732.248	26908.95
732.589	26837.09
732.93	26692.24
733.271	26600.04
733.612	26646.81
733.953	26717.55
734.294	26591.67
734.635	26425.12
734.976	26539.02
735.317	26400.94
735.658	26312.58
735.999	26457.21
736.339	26404.79
736.68	26360.72
737.021	26327.27
737.361	26105.36
737.702	26348.52
738.042	26198.01
738.383	26139.93
738.723	26288.86
739.063	26149.65
739.404	26042.99
739.744	26123.89
740.084	25970.45
740.424	25991.69
740.764	25915.99
741.104	26035.53
741.444	25764.35
741.784	25829.66
742.124	25797.57
742.464	25852.94
742.804	25835.76
743.143	25648.65
743.483	25654.98
743.823	25528.65
744.162	25555.32
744.502	25581.53
744.841	25412.5
745.181	25523.91
745.52	25370.24
745.86	25502.89
746.199	25394.64
746.538	25409.11
746.877	25384.93
747.216	25319.16
747.556	25259.28
747.895	25217.7
748.234	25119.85
748.573	25059.74
748.911	25043.01
749.25	25106.74
749.589	24912.17
749.928	24951.72
750.267	24938.38
750.605	24959.17
750.944	24760.99
751.283	24692.06
751.621	24828.1
751.96	24657.26
752.298	24655.68
752.636	24625.17
752.975	24597.15
753.313	24468.57
753.651	24562.57
753.989	24329.81
754.327	24349.7
754.666	24283.71
755.004	24315.12
755.342	24338.4
755.679	24208.69
756.017	24031.29
756.355	24085.98
756.693	23931.18
757.031	24029.48
757.368	23877.85
757.706	23879.88
758.044	23747.23
758.381	23881.46
758.719	23710.17
759.056	23788.36
759.394	23653.9
759.731	23633.56
760.068	23477.41
760.405	23326
760.743	23332.78
761.08	23327.13
761.417	23196.06
761.754	23140.69
762.091	23136.17
762.428	23075.83
762.765	22930.98
763.102	22931.43
763.438	22816.63
763.775	22761.27
764.112	22703.19
764.449	22789.51
764.785	22636.07
765.122	22500.48
765.458	22434.49
765.795	22450.54
766.131	22391.11
766.467	22343.88
766.804	22144.33
767.14	22076.09
767.476	22044.22
767.812	21945.92
768.148	21918.35
768.485	21882.19
768.821	21723.1
769.157	21568.3
769.492	21656.21
769.828	21657.34
770.164	21471.13
770.5	21361.3
770.836	21404.01
771.171	21199.27
771.507	21232.49
771.842	20992.05
772.178	20922.9
772.513	20961.09
772.849	20920.41
773.184	20811.49
773.519	20740.75
773.855	20744.14
774.19	20648.78
774.525	20474.09
774.86	20520.65
775.195	20450.14
775.53	20324.49
775.865	20267.32
776.2	20121.11
776.535	20017.38
776.87	20104.39
777.205	20097.83
777.539	19884.73
777.874	19888.12
778.209	19737.62
778.543	19695.58
778.878	19582.37
779.212	19562.25
779.547	19423.95
779.881	19390.06
780.215	19300.57
780.55	19252.66
780.884	19229.16
781.218	19120.91
781.552	19145.32
781.886	19062.15
782.22	18994.13
782.554	18929.5
782.888	18767.47
783.222	18659.23
783.556	18599.79
783.889	18427.82
784.223	18315.73
784.557	18283.64
784.89	18396.18
785.224	18262.85
785.557	18209.3
785.891	18221.72
786.224	18027.83
786.558	18055.63
786.891	17931.79
787.224	17828.51
787.557	17793.49
787.891	17784.9
788.224	17773.15
788.557	17748.06
788.89	17622.87
789.223	17576.32
789.556	17440.73
789.888	17416.32
790.221	17366.83
790.554	17224.46
790.887	17234.18
791.219	17273.95
791.552	17081.64
791.884	17017.69
792.217	17052.26
792.549	16999.38
792.882	16813.85
793.214	16798.71
793.546	16767.98
793.879	16664.03
794.211	16594.65
794.543	16678.94
794.875	16603.46
795.207	16657.25
795.539	16497.48
795.871	16440.08
796.203	16296.35
796.535	16257.03
796.867	16207.99
797.198	16203.47
797.53	16107.88
797.862	16003.48
798.193	16077.83
798.525	15957.83
798.856	15997.38
799.188	15901.11
799.519	15744.95
799.85	15704.05
800.182	15722.58
800.513	15711.28
800.844	15563.94
801.175	15615.24
801.506	15538.86
801.837	15435.58
802.168	15519.65
802.499	15287.11
802.83	15284.85
803.161	15217.06
803.491	15310.16
803.822	15247.57
804.153	15147.91
804.483	15031.75
804.814	14947.01
805.145	14986.56
805.475	14988.59
805.805	14917.18
806.136	14907.91
806.466	14953.34
806.796	14907.69
807.126	14712.89
807.457	14686.68
807.787	14636.73
808.117	14595.38
808.447	14543.18
808.777	14544.08
809.107	14481.94
809.436	14426.57
809.766	14477.42
810.096	14451.88
810.426	14383.18
810.755	14358.55
811.085	14321.71
811.414	14246.01
811.744	14135.73
812.073	14202.62
812.403	14076.52
812.732	14040.14
813.061	14025.9
813.39	13990.2
813.719	13914.72
814.049	13964.44
814.378	13902.29
814.707	13917.43
815.036	13820.48
815.365	13779.13
815.693	13602.18
816.022	13730.32
816.351	13613.26
816.68	13557.67
817.008	13632.47
817.337	13478.35
817.665	13468.18
817.994	13484.9
818.322	13489.87
818.651	13466.14
818.979	13377.33
819.307	13480.15
819.636	13348.86
819.964	13291.68
820.292	13262.53
820.62	13267.05
820.948	13170.56
821.276	13282.87
821.604	13195.87
821.932	13287.84
822.259	13259.14
822.587	13316.99
822.915	13164.68
823.243	13213.95
823.57	13285.58
823.898	13199.03
824.225	13124.91
824.553	13165.13
824.88	13170.33
825.207	13216.66
825.535	13216.66
825.862	13197.68
826.189	13166.72
826.516	13142.08
826.843	13230.67
827.17	13227.05
827.497	13229.31
827.824	13196.55
828.151	13169.88
828.478	13239.48
828.805	13193.61
829.131	13161.52
829.458	13131.24
829.785	13095.76
830.111	13147.96
830.438	13139.6
830.764	13062.09
831.09	13084.01
831.417	13036.55
831.743	13124.46
832.069	13157.45
832.395	13051.92
832.722	13005.36
833.048	12991.58
833.374	12988.87
833.7	12933.5
834.026	12952.48
834.351	13010.56
834.677	12996.32
835.003	12954.97
835.329	13024.12
835.654	12874.07
835.98	12860.51
836.306	12908.87
836.631	12853.73
836.956	12910.68
837.282	12895.99
837.607	12825.26
837.932	12776.9
838.258	12823.9
838.583	12755.88
838.908	12702.1
839.233	12708.2
839.558	12692.15
839.883	12616.45
840.208	12615.32
840.533	12575.32
840.858	12658.71
841.182	12590.23
841.507	12587.75
841.832	12546.17
842.156	12564.92
842.481	12493.29
842.805	12453.29
843.13	12416
843.454	12432.27
843.778	12341.43
844.103	12269.56
844.427	12214.65
844.751	12277.25
845.075	12345.04
845.399	12253.52
845.723	12068.67
846.047	12127.42
846.371	12041.77
846.695	12049.91
847.019	12027.99
847.343	11956.13
847.666	11905.51
847.99	11840.42
848.313	11806.07
848.637	11767.2
848.96	11692.86
849.284	11636.81
849.607	11606.98
849.931	11589.58
850.254	11425.52
850.577	11459.19
850.9	11334.22
851.223	11404.5
851.546	11327.89
851.869	11213.77
852.192	11283.38
852.515	11118.41
852.838	11162.47
853.161	11037.73
853.483	11056.26
853.806	11045.42
854.129	10990.5
854.451	10928.81
854.774	10869.6
855.096	10838.19
855.419	10882.48
855.741	10875.7
856.063	10807.68
856.385	10807.68
856.708	10697.85
857.03	10698.76
857.352	10695.59
857.674	10621.7
857.996	10619.89
858.318	10525.66
858.64	10596.61
858.961	10494.02
859.283	10420.57
859.605	10437.97
859.926	10420.8
860.248	10326.79
860.57	10369.28
860.891	10447.24
861.212	10248.6
861.534	10261.48
861.855	10286.79
862.176	10253.35
862.498	10294.7
862.819	10286.57
863.14	10160.92
863.461	10171.77
863.782	10052
864.103	10119.11
864.424	10090.64
864.745	10122.05
865.065	9985.1
865.386	9965.44
865.707	9986.46
866.027	9976.97
866.348	10052.45
866.668	9981.26
866.989	9927.93
867.309	9879.8
867.63	9849.74
867.95	9885.67
868.27	9831.66
868.59	9795.28
868.91	9839.8
869.23	9862.17
869.55	9849.52
869.87	9852.23
870.19	9753.7
870.51	9799.57
870.83	9805.9
871.15	9657.88
871.469	9713.93
871.789	9800.48
872.109	9664.66
872.428	9677.09
872.748	9666.69
873.067	9654.94
873.386	9647.03
873.706	9661.05
874.025	9574.27
874.344	9507.15
874.663	9632.35
874.982	9558
875.301	9528.17
875.62	9507.83
875.939	9465.34
876.258	9520.48
876.577	9446.59
876.896	9390.32
877.214	9405.91
877.533	9413.37
877.852	9405.23
878.17	9462.86
878.489	9392.13
878.807	9400.94
879.125	9351.68
879.444	9355.97
879.762	9304.22
880.08	9282.75
880.398	9244.79
880.716	9289.08
881.034	9226.25
881.352	9192.36
881.67	9186.93
881.988	9210.21
882.306	9137.22
882.624	9131.34
882.941	9129.76
883.259	9045.69
883.577	9021.06
883.894	9076.43
884.212	9050.89
884.529	9013.83
884.846	8992.81
885.164	9045.69
885.481	8976.09
885.798	8971.8
886.115	8906.94
886.432	8923.66
886.75	8892.03
887.067	8876.43
887.383	8828.3
887.7	8814.51
888.017	8779.03
888.334	8770
888.651	8781.29
888.967	8770.67
889.284	8705.82
889.6	8666.5
889.917	8595.08
890.233	8649.09
890.55	8568.87
890.866	8614.97
891.182	8519.83
891.498	8572.49
891.815	8544.01
892.131	8524.8
892.447	8498.59
892.763	8415.88
893.079	8382.21
893.395	8346.05
893.71	8378.82
894.026	8325.94
894.342	8312.61
894.657	8242.33
894.973	8299.73
895.289	8291.82
895.604	8198.94
895.92	8167.75
896.235	8120.07
896.55	8125.94
896.865	8116.23
897.181	8088.66
897.496	8078.04
897.811	8029.68
898.126	8041.88
898.441	7950.13
898.756	7900.41
899.071	7887.31
899.386	7908.32
899.7	7764.15
900.015	7796.69
900.33	7745.16
900.644	7802.34
900.959	7736.12
901.273	7726.41
901.588	7634.21
901.902	7622
902.216	7623.36
902.531	7612.96
902.845	7593.98
903.159	7523.93
903.473	7475.34
903.787	7463.36
904.101	7416.58
904.415	7409.13
904.729	7435.12
905.042	7331.62
905.356	7336.36
905.67	7325.06
905.984	7316.02
906.297	7294.1
906.611	7207.32
906.924	7179.3
907.237	7187.21
907.551	7156.7
907.864	7125.29
908.177	7043.26
908.491	7087.78
908.804	7095.24
909.117	7015.47
909.43	7007.33
909.743	6953.09
910.056	6943.6
910.368	6921.68
910.681	6879.88
910.994	6806.88
911.307	6835.81
911.619	6763.49
911.932	6750.16
912.244	6742.03
912.557	6731.4
912.869	6696.15
913.181	6630.16
913.494	6637.85
913.806	6553.78
914.118	6613.44
914.43	6502.03
914.742	6543.84
915.054	6450.28
915.366	6464.29
915.678	6434.46
915.99	6420
916.302	6404.41
916.613	6344.97
916.925	6365.99
917.236	6376.16
917.548	6322.15
917.859	6316.05
918.171	6252.1
918.482	6242.83
918.794	6160.12
919.105	6133.91
919.416	6114.25
919.727	6105.88
920.038	6104.53
920.349	6055.94
920.66	6005.77
920.971	6000.8
921.282	5990.18
921.593	5934.36
921.903	5943.86
922.214	5902.95
922.525	5920.35
922.835	5830.86
923.146	5801.71
923.456	5815.5
923.767	5785.89
924.077	5798.1
924.387	5751.09
924.697	5699.57
925.008	5702.73
925.318	5725.33
925.628	5673.13
925.938	5655.73
926.248	5600.14
926.558	5574.15
926.867	5547.48
927.177	5530.31
927.487	5524.66
927.796	5465
928.106	5444.66
928.416	5450.76
928.725	5438.11
929.034	5364.89
929.344	5374.83
929.653	5341.38
929.962	5315.62
930.271	5282.18
930.581	5269.75
930.89	5218.9
931.199	5225.91
931.508	5195.4
931.817	5194.95
932.125	5203.99
932.434	5185.23
932.743	5119.92
933.051	5083.76
933.36	5112.69
933.669	5039.7
933.977	5052.35
934.286	4975.07
934.594	5008.51
934.902	4913.6
935.21	4934.84
935.519	4956.08
935.827	4924.45
936.135	4927.84
936.443	4832.92
936.751	4789.54
937.059	4828.4
937.367	4816.43
937.674	4814.85
937.982	4784.34
938.29	4761.74
938.597	4784.56
938.905	4745.47
939.213	4666.37
939.52	4712.7
939.827	4718.12
940.135	4679.48
940.442	4560.61
940.749	4627.05
941.056	4554.29
941.363	4506.15
941.67	4544.57
941.977	4516.1
942.284	4537.34
942.591	4504.8
942.898	4462.99
943.205	4439.04
943.511	4399.71
943.818	4398.58
944.125	4367.17
944.431	4320.85
944.738	4353.16
945.044	4357.91
945.35	4336.21
945.657	4289.66
945.963	4243.56
946.269	4225.93
946.575	4204.01
946.881	4203.34
947.187	4211.25
947.493	4166.95
947.799	4143.68
948.105	4138.48
948.41	4093.73
948.716	4100.51
949.022	4126.95
949.327	4067.75
949.633	4041.76
949.938	4041.31
950.244	4044.47
950.549	3956.34
950.854	3961.99
951.16	3978.48
951.465	4007.41
951.77	3921.08
952.075	3953.85
952.38	3841.54
952.685	3881.54
952.99	3848.09
953.294	3857.36
953.599	3832.27
953.904	3813.06
954.209	3821.42
954.513	3777.13
954.818	3736
955.122	3746.85
955.426	3771.03
955.731	3722.67
956.035	3718.6
956.339	3677.7
956.643	3694.2
956.948	3620.98
957.252	3594.99
957.556	3633.18
957.86	3636.57
958.163	3617.14
958.467	3606.06
958.771	3585.72
959.075	3526.29
959.378	3540.98
959.682	3559.74
959.985	3532.17
960.289	3476.12
960.592	3453.75
960.896	3481.32
961.199	3441.77
961.502	3437.93
961.805	3392.96
962.108	3429.8
962.411	3375.56
962.714	3366.97
963.017	3341.21
963.32	3351.83
963.623	3372.17
963.926	3346.41
964.228	3279.07
964.531	3299.18
964.833	3289.01
965.136	3236.58
965.438	3258.5
965.741	3251.04
966.043	3213.53
966.345	3218.73
966.648	3199.52
966.95	3202.91
967.252	3183.02
967.554	3164.04
967.856	3116.81
968.158	3125.85
968.46	3110.26
968.761	3096.25
969.063	3074.78
969.365	3095.79
969.666	3071.16
969.968	3024.38
970.269	2969.7
970.571	3030.26
970.872	3000.66
971.174	2962.92
971.475	2971.73
971.776	2989.36
972.077	2953.65
972.378	2912.07
972.679	2936.48
972.98	2914.78
973.281	2899.87
973.582	2878.4
973.883	2851.96
974.183	2856.7
974.484	2865.74
974.785	2830.49
975.085	2832.98
975.386	2823.71
975.686	2775.58
975.986	2784.16
976.287	2787.55
976.587	2753.66
976.887	2755.69
977.187	2784.39
977.487	2758.63
977.787	2710.95
978.087	2711.17
978.387	2678.86
978.687	2686.31
978.987	2641.34
979.286	2668.91
979.586	2610.16
979.885	2632.3
980.185	2595.92
980.484	2584.85
980.784	2569.25
981.083	2576.26
981.382	2580.1
981.682	2575.13
981.981	2580.78
982.28	2566.54
982.579	2523.38
982.878	2523.83
983.177	2505.53
983.475	2541.91
983.774	2444.74
984.073	2454.68
984.372	2424.85
984.67	2446.09
984.969	2447.22
985.267	2408.81
985.566	2442.25
985.864	2427.56
986.162	2411.07
986.461	2408.58
986.759	2361.8
987.057	2343.95
987.355	2359.09
987.653	2404.74
987.951	2361.35
988.249	2338.53
988.547	2312.76
988.844	2292.88
989.142	2316.61
989.44	2276.15
989.737	2283.39
990.035	2295.59
990.332	2259.88
990.63	2240.68
990.927	2244.07
991.224	2223.27
991.521	2221.69
991.819	2194.12
992.116	2192.32
992.413	2183.28
992.71	2173.56
993.006	2145.31
993.303	2158.87
993.6	2182.82
993.897	2125.88
994.193	2139.21
994.49	2146.21
994.787	2124.07
995.083	2110.51
995.379	2115.48
995.676	2095.14
995.972	2085.43
996.268	2059.66
996.565	2040
996.861	2015.37
997.157	2049.04
997.453	2007.24
997.749	1985.09
998.044	2000
998.34	1976.73
998.636	1997.07
998.932	1974.69
999.227	1965.43
999.523	1985.09
999.818	1948.93
1000.114	1947.35
1000.409	1923.62
1000.704	1907.12
1001	1915.03
1001.295	1877.07
1001.59	1884.98
1001.885	1868.03
1002.18	1872.55
1002.475	1854.25
1002.77	1841.14
1003.065	1848.14
1003.359	1841.36
1003.654	1850.18
1003.949	1806.79
1004.243	1782.61
1004.538	1800.01
1004.832	1777.86
1005.127	1769.73
1005.421	1774.93
1005.715	1730.18
1006.009	1719.11
1006.304	1731.54
1006.598	1731.54
1006.892	1727.02
1007.186	1685.21
1007.48	1710.97
1007.773	1671.88
1008.067	1680.92
1008.361	1659.22
1008.655	1627.58
1008.948	1643.4
1009.242	1639.56
1009.535	1624.87
1009.829	1603.4
1010.122	1603.18
1010.415	1608.83
1010.708	1578.77
1011.001	1569.73
1011.295	1578.77
1011.588	1574.03
1011.881	1534.71
1012.173	1539.23
1012.466	1539.9
1012.759	1520.47
1013.052	1529.96
1013.344	1477.76
1013.637	1491.32
1013.93	1489.06
1014.222	1501.03
1014.514	1475.5
1014.807	1468.72
1015.099	1442.28
1015.391	1463.52
1015.683	1412.67
1015.976	1433.24
1016.268	1440.7
1016.56	1407.7
1016.851	1407.25
1017.143	1394.6
1017.435	1391.66
1017.727	1384.2
1018.018	1392.34
1018.31	1370.64
1018.602	1367.48
1018.893	1340.81
1019.185	1348.5
1019.476	1339.91
1019.767	1348.5
1020.058	1317.31
1020.35	1310.08
1020.641	1325.45
1020.932	1325.22
1021.223	1276.86
1021.514	1307.14
1021.804	1285.22
1022.095	1226.24
1022.386	1265.56
1022.677	1259.46
1022.967	1206.8
1023.258	1227.37
1023.548	1231.21
1023.839	1217.88
1024.129	1225.79
1024.419	1219.46
1024.709	1209.29
1025	1196.86
1025.29	1189.63
1025.58	1171.1
1025.87	1137.2
1026.16	1154.38
1026.449	1174.71
1026.739	1168.39
1027.029	1136.75
1027.319	1112.57
1027.608	1128.84
1027.898	1113.47
1028.187	1128.84
1028.477	1107.82
1028.766	1091.1
1029.055	1086.58
1029.344	1085.23
1029.634	1067.37
1029.923	1104.89
1030.212	1050.65
1030.501	1047.03
1030.79	1039.13
1031.078	1048.16
1031.367	1027.37
1031.656	1013.82
1031.945	1021.72
1032.233	1015.62
1032.522	968.62
1032.81	1004.32
1033.099	1002.52
1033.387	1012.01
1033.675	991.89
1033.963	959.81
1034.251	983.31
1034.54	957.32
1034.828	960.26
1035.116	963.87
1035.403	953.93
1035.691	950.09
1035.979	945.79
1036.267	943.99
1036.554	927.72
1036.842	912.57
1037.129	928.17
1037.417	913.25
1037.704	909.19
1037.992	905.34
1038.279	900.15
1038.566	893.59
1038.853	893.59
1039.14	893.59
