Data from hue_80_FLMS001491_85.txt Node
Date: Mon Feb 06 15:23:53 GMT 2017
User: dcchb
Spectrometer: FLMS00149
Trigger mode: 0
Integration Time (sec): 2.000000E-2
Scans to average: 10
Electric dark correction enabled: true
Nonlinearity correction enabled: false
Boxcar width: 0
XAxis mode: Wavelengths
Number of Pixels in Spectrum: 2048
>>>>>Begin Spectral Data<<<<<
341.393	-8.88
341.776	-8.88
342.16	-8.88
342.543	-61.99
342.927	-65.38
343.31	-74.64
343.693	-69.67
344.077	-60.86
344.46	-47.3
344.843	-57.47
345.226	-47.08
345.61	-21.99
345.993	-27.19
346.376	-16.12
346.759	12.36
347.142	13.94
347.525	21.85
347.908	59.14
348.291	89.64
348.674	100.94
349.057	124.45
349.44	136.42
349.823	131.23
350.206	173.48
350.588	185.24
350.971	211
351.354	223.65
351.737	213.26
352.119	249.19
352.502	261.39
352.884	270.66
353.267	279.02
353.65	273.37
354.032	278.11
354.414	266.36
354.797	288.74
355.179	306.59
355.562	320.15
355.944	315.63
356.326	304.1
356.709	316.31
357.091	337.77
357.473	336.64
357.855	313.14
358.238	327.38
358.62	332.12
359.002	346.81
359.384	324.44
359.766	320.6
360.148	313.82
360.53	336.64
360.912	339.81
361.294	326.47
361.676	329.64
362.057	307.27
362.439	333.48
362.821	323.76
363.203	331.9
363.584	329.64
363.966	306.59
364.348	326.25
364.729	323.08
365.111	315.85
365.493	328.28
365.874	335.97
366.256	293.03
366.637	301.62
367.019	295.29
367.4	310.43
367.781	306.81
368.163	295.06
368.544	302.52
368.925	302.97
369.306	313.59
369.688	312.92
370.069	309.53
370.45	307.04
370.831	313.59
371.212	293.48
371.593	292.35
371.974	304.1
372.355	295.29
372.736	320.82
373.117	313.59
373.498	309.53
373.879	315.85
374.26	308.62
374.641	305.46
375.021	306.59
375.402	326.47
375.783	323.99
376.163	301.39
376.544	312.69
376.925	322.63
377.305	307.27
377.686	312.92
378.066	325.12
378.447	331.67
378.827	329.41
379.208	312.69
379.588	330.77
379.968	329.41
380.349	315.18
380.729	337.77
381.109	321.05
381.489	318.34
381.87	328.06
382.25	302.07
382.63	333.25
383.01	332.35
383.39	332.58
383.77	359.69
384.15	346.81
384.53	330.32
384.91	325.34
385.29	340.03
385.67	340.94
386.049	343.42
386.429	356.53
386.809	349.98
387.189	351.56
387.568	369.64
387.948	347.72
388.328	334.61
388.707	346.59
389.087	345.68
389.466	352.91
389.846	349.52
390.225	345.23
390.605	338.68
390.984	341.84
391.363	345.23
391.743	356.08
392.122	347.04
392.501	363.08
392.881	365.34
393.26	352.24
393.639	367.6
394.018	377.77
394.397	375.74
394.776	379.13
395.155	387.49
395.534	363.99
395.913	353.59
396.292	378.9
396.671	377.77
397.05	358.11
397.429	377.77
397.808	371.9
398.186	357.43
398.565	384.78
398.944	370.99
399.323	352.69
399.701	364.44
400.08	387.26
400.458	394.5
400.837	391.78
401.215	379.58
401.594	375.96
401.972	391.11
402.351	400.82
402.729	391.11
403.107	374.61
403.486	389.98
403.864	398.34
404.242	393.59
404.62	403.31
404.999	399.47
405.377	392.46
405.755	382.29
406.133	400.14
406.511	397.21
406.889	405.34
407.267	409.18
407.645	399.92
408.023	406.47
408.401	422.74
408.779	412.12
409.156	387.72
409.534	411.9
409.912	403.31
410.29	426.13
410.667	415.06
411.045	425.23
411.422	433.82
411.8	412.8
412.178	419.13
412.555	439.01
412.933	422.52
413.31	438.34
413.687	472.23
414.065	462.29
414.442	462.29
414.819	457.77
415.197	444.44
415.574	459.35
415.951	494.61
416.328	455.96
416.705	465.23
417.082	451.22
417.46	454.15
417.837	475.17
418.214	484.44
418.591	480.14
418.967	465.23
419.344	470.43
419.721	495.51
420.098	495.96
420.475	494.38
420.852	474.95
421.228	498
421.605	506.13
421.982	522.85
422.358	501.84
422.735	513.59
423.111	506.36
423.488	508.84
423.864	513.36
424.241	533.7
424.617	534.15
424.994	518.56
425.37	537.54
425.746	529.41
426.123	533.93
426.499	533.7
426.875	540.03
427.251	533.02
427.627	551.55
428.003	545.23
428.379	565.56
428.756	555.62
429.132	541.38
429.507	579.8
429.883	574.15
430.259	563.3
430.635	571.21
431.011	581.16
431.387	586.13
431.763	601.95
432.138	607.37
432.514	591.55
432.89	613.02
433.265	606.47
433.641	610.08
434.016	596.98
434.392	646.47
434.767	624.55
435.143	654.38
435.518	661.83
435.894	662.06
436.269	653.92
436.644	664.09
437.02	646.01
437.395	660.7
437.77	655.73
438.145	681.72
438.52	686.47
438.895	689.4
439.271	693.24
439.646	678.78
440.021	715.62
440.395	714.26
440.77	703.41
441.145	724.43
441.52	715.16
441.895	717.42
442.27	714.03
442.645	744.32
443.019	754.94
443.394	723.3
443.769	740.93
444.143	755.84
444.518	751.77
444.892	748.61
445.267	763.3
445.641	752.68
446.016	761.49
446.39	762.62
446.764	769.85
447.139	772.79
447.513	790.42
447.887	813.69
448.262	791.1
448.636	803.52
449.01	810.3
449.384	808.5
449.758	816.86
450.132	828.61
450.506	826.8
450.88	823.41
451.254	836.74
451.628	827.93
452.002	823.41
452.376	856.63
452.75	859.79
453.123	847.59
453.497	882.62
453.871	898.66
454.244	876.74
454.618	900.24
454.992	889.17
455.365	914.03
455.739	923.29
456.112	941.6
456.486	950.41
456.859	948.38
457.232	986.12
457.606	938.66
457.979	967.59
458.352	1015.95
458.725	1013.24
459.099	983.41
459.472	1035.16
459.845	1038.55
460.218	1069.96
460.591	1049.62
460.964	1046.23
461.337	1081.03
461.71	1101.82
462.083	1115.15
462.456	1115.38
462.829	1108.83
463.201	1137.75
463.574	1135.72
463.947	1135.49
464.32	1181.14
464.692	1196.28
465.065	1199.9
465.438	1238.77
465.81	1268.82
466.183	1296.62
466.555	1286
466.928	1304.98
467.3	1298.65
467.672	1317.86
468.045	1343.4
468.417	1365.77
468.789	1418.42
469.161	1417.07
469.534	1422.72
469.906	1452.55
470.278	1483.73
470.65	1528.7
471.022	1549.27
471.394	1559.44
471.766	1599.21
472.138	1619.1
472.51	1652.09
472.882	1704.52
473.253	1717.4
473.625	1767.11
473.997	1817.73
474.369	1803.5
474.74	1855.7
475.112	1923.72
475.484	1951.06
475.855	2015.7
476.227	2036.26
476.598	2105.18
476.97	2121.46
477.341	2214.33
477.713	2239.19
478.084	2305.86
478.455	2383.6
478.827	2455.91
479.198	2552.4
479.569	2543.14
479.94	2658.62
480.311	2714.43
480.682	2773.87
481.053	2867.88
481.424	2984.71
481.795	3029
482.166	3093.63
482.537	3206.17
482.908	3305.38
483.279	3371.14
483.65	3473.74
484.021	3588.76
484.391	3676.89
484.762	3758.7
485.133	3849.55
485.503	3973.38
485.874	4103.32
486.244	4196.66
486.615	4293.15
486.985	4410.66
487.356	4539.47
487.726	4669.41
488.097	4782.63
488.467	4853.14
488.837	5045.67
489.207	5167.48
489.578	5289.96
489.948	5383.74
490.318	5536.51
490.688	5660.57
491.058	5797.29
491.428	5882.03
491.798	6050.62
492.168	6213.78
492.538	6285.41
492.908	6479.31
493.278	6620.09
493.648	6697.38
494.017	6805.63
494.387	6956.81
494.757	7113.87
495.126	7307.53
495.496	7413.97
495.866	7523.35
496.235	7671.37
496.605	7864.36
496.974	7857.8
497.344	8048.08
497.713	8125.37
498.082	8228.64
498.452	8433.15
498.821	8521.06
499.19	8558.12
499.559	8716.99
499.928	8883.09
500.298	8977.32
500.667	9121.05
501.036	9211.44
501.405	9381.6
501.774	9378.21
502.143	9551.54
502.512	9643.74
502.88	9822.95
503.249	9891.19
503.618	9964.87
503.987	10045.54
504.356	10214.12
504.724	10298.42
505.093	10313.1
505.462	10450.73
505.83	10521.23
506.199	10696.6
506.567	10845.52
506.936	10900.43
507.304	11066.98
507.672	11093.65
508.041	11155.57
508.409	11257.94
508.777	11320.99
509.145	11432.85
509.514	11519.17
509.882	11542
510.25	11667.42
510.618	11732.73
510.986	11805.49
511.354	11925.94
511.722	12039.84
512.09	12122.55
512.458	12146.05
512.826	12261.08
513.193	12263.34
513.561	12405.93
513.929	12479.38
514.297	12564.12
514.664	12658.13
515.032	12691.8
515.4	12758.46
515.767	12864
516.135	12912.58
516.502	12853.38
516.869	13122.52
517.237	13136.31
517.604	13132.92
517.972	13273.03
518.339	13348.96
518.706	13347.38
519.073	13383.76
519.44	13542.4
519.808	13548.05
520.175	13567.93
520.542	13627.82
520.909	13731.09
521.276	13745.1
521.643	13877.3
522.009	13901.71
522.376	13999.56
522.743	14022.39
523.11	14131.31
523.477	14298.08
523.843	14390.51
524.21	14412.66
524.577	14540.79
524.943	14510.06
525.31	14534.46
525.676	14719.99
526.043	14754.57
526.409	14778.3
526.776	14903.04
527.142	14871.63
527.508	14941.68
527.874	15003.6
528.241	15104.17
528.607	15121.57
528.973	15235.46
529.339	15108.46
529.705	15272.97
530.071	15407.89
530.437	15390.49
530.803	15404.04
531.169	15479.97
531.535	15337.83
531.901	15482.91
532.267	15447.66
532.632	15587.54
532.998	15589.12
533.364	15620.31
533.73	15655.56
534.095	15752.51
534.461	15734.66
534.826	15750.7
535.192	15787.31
535.557	15803.81
535.923	15614.43
536.288	15712.51
536.653	15818.04
537.019	15746.63
537.384	15754.09
537.749	15815.78
538.114	15730.14
538.479	15786.41
538.845	15864.6
539.21	15750.93
539.575	15804.71
539.94	15719.29
540.305	15907.76
540.67	15837.25
541.034	15794.09
541.399	15771.04
541.764	15767.2
542.129	15852.17
542.494	15789.57
542.858	15751.83
543.223	15799.51
543.587	15836.12
543.952	15817.82
544.316	15772.62
544.681	15782.11
545.045	15799.74
545.41	15850.59
545.774	15758.84
546.138	15721.1
546.503	15774.43
546.867	15648.11
547.231	15800.42
547.595	15824.15
547.959	15742.79
548.324	15765.62
548.688	15710.02
549.052	15825.95
549.416	15702.57
549.779	15658.05
550.143	15673.19
550.507	15658.5
550.871	15811.27
551.235	15693.98
551.599	15770.59
551.962	15770.14
552.326	15762.23
552.689	15820.08
553.053	15710.48
553.417	15639.74
553.78	15817.82
554.143	15779.63
554.507	15809.68
554.87	15847.87
555.234	15904.14
555.597	15733.08
555.96	15830.02
556.323	15812.17
556.686	15701.66
557.05	15923.8
557.413	15918.15
557.776	15846.52
558.139	15862.79
558.502	15944.37
558.865	15832.51
559.228	15981.66
559.59	15994.31
559.953	16033.18
560.316	16055.33
560.679	16001.32
561.041	16072.05
561.404	16129.9
561.767	16165.15
562.129	16152.95
562.492	16214.87
562.854	16234.08
563.217	16139.17
563.579	16225.04
563.941	16284.25
564.304	16368.31
564.666	16455.54
565.028	16437.46
565.39	16508.87
565.753	16437.01
566.115	16437.69
566.477	16604.92
566.839	16458.03
567.201	16596.33
567.563	16587.52
567.925	16648.31
568.287	16672.26
568.648	16637.68
569.01	16759.94
569.372	16797.45
569.734	16729.43
570.095	16811.46
570.457	16784.8
570.819	16813.95
571.18	16790.9
571.542	16964.91
571.903	16993.15
572.265	16942.99
572.626	16983.21
572.987	17028.86
573.349	17087.62
573.71	16999.48
574.071	17078.8
574.432	17104.56
574.794	17321.51
575.155	17172.13
575.516	17146.15
575.877	17202.41
576.238	17197.44
576.599	17293.26
576.96	17281.06
577.32	17225.01
577.681	17256.2
578.042	17364.22
578.403	17362.86
578.763	17317.21
579.124	17406.03
579.485	17352.69
579.845	17460.26
580.206	17316.99
580.566	17307.04
580.927	17399.92
581.287	17361.96
581.648	17404.9
582.008	17425.91
582.368	17428.17
582.728	17368.51
583.089	17444.44
583.449	17350.21
583.809	17410.55
584.169	17421.62
584.529	17374.39
584.889	17487.61
585.249	17284.22
585.609	17371
585.969	17446.48
586.329	17307.27
586.688	17371
587.048	17340.49
587.408	17371.68
587.768	17304.33
588.127	17369.64
588.487	17202.41
588.846	17398.34
589.206	17258.68
589.565	17275.86
589.925	17309.3
590.284	17267.27
590.643	17326.48
591.003	17303.2
591.362	17500.94
591.721	17401.73
592.08	17349.53
592.44	17392.01
592.799	17294.39
593.158	17349.76
593.517	17298.46
593.876	17411.22
594.235	17271.57
594.593	17260.27
594.952	17373.48
595.311	17236.99
595.67	17367.16
596.029	17272.24
596.387	17331.9
596.746	17339.81
597.104	17237.44
597.463	17301.62
597.822	17364.22
598.18	17250.32
598.538	17249.42
598.897	17354.05
599.255	17209.65
599.613	17416.42
599.972	17306.59
600.33	17290.55
600.688	17201.74
601.046	17281.28
601.404	17476.76
601.762	17345.46
602.12	17351.56
602.478	17388.85
602.836	17378.91
603.194	17359.47
603.552	17333.71
603.91	17286.93
604.268	17401.28
604.625	17382.07
604.983	17415.74
605.341	17291.9
605.698	17444.22
606.056	17459.81
606.413	17280.38
606.771	17340.04
607.128	17519.69
607.485	17382.98
607.843	17483.99
608.2	17448.28
608.557	17509.3
608.914	17455.06
609.272	17582.07
609.629	17531.9
609.986	17568.73
610.343	17481.5
610.7	17744.32
611.057	17544.33
611.414	17639.01
611.771	17618.45
612.127	17655.51
612.484	17648.96
612.841	17735.73
613.198	17560.82
613.554	17772.12
613.911	17768.05
614.267	17846.24
614.624	17719.24
614.98	17801.04
615.337	17841.95
615.693	17755.85
616.05	17861.83
616.406	17922.17
616.762	17792.23
617.118	17825.22
617.475	17825.22
617.831	17891.44
618.187	17981.38
618.543	17930.98
618.899	18040.36
619.255	17927.59
619.611	17986.35
619.967	18012.34
620.323	18049.4
620.678	17971.89
621.034	18018.44
621.39	18052.34
621.746	18008.5
622.101	18182.05
622.457	18008.27
622.812	18062.05
623.168	18090.75
623.523	18069.74
623.879	18116.06
624.234	17976.41
624.589	17979.12
624.945	18040.36
625.3	18089.4
625.655	18079
626.01	18060.92
626.365	18163.75
626.72	18183.41
627.075	18156.51
627.43	18182.5
627.785	18039
628.14	18047.36
628.495	18089.62
628.85	18100.24
629.205	17999.91
629.559	18057.08
629.914	17981.15
630.269	18041.04
630.623	17972.34
630.978	17978.89
631.332	18024.99
631.687	18053.69
632.041	17914.71
632.396	18000.81
632.75	17885.11
633.104	17937.76
633.459	17865.45
633.813	17923.07
634.167	17881.49
634.521	17869.06
634.875	17930.31
635.229	17837.65
635.583	17827.26
635.937	17788.39
636.291	17783.42
636.645	17708.39
636.999	17619.13
637.352	17803.53
637.706	17626.58
638.06	17757.88
638.413	17623.87
638.767	17685.11
639.121	17647.83
639.474	17625.91
639.828	17511.56
640.181	17566.47
640.534	17585.68
640.888	17526.02
641.241	17439.47
641.594	17430.66
641.947	17538.45
642.301	17453.71
642.654	17498.45
643.007	17369.19
643.36	17437.21
643.713	17394.5
644.066	17474.5
644.419	17333.48
644.771	17305.24
645.124	17072.93
645.477	17010.78
645.83	16928.98
646.182	16906.6
646.535	16830.67
646.888	16916.09
647.24	16780.96
647.593	16873.84
647.945	16831.35
648.298	16809.66
648.65	16748.19
649.002	16793.39
649.355	16817.34
649.707	16797.68
650.059	16901.18
650.411	17045.58
650.763	17097.78
651.115	17281.73
651.467	17262.98
651.819	17293.26
652.171	17183.66
652.523	17204.45
652.875	17112.25
653.227	17167.16
653.578	17267.72
653.93	17265.69
654.282	17121.29
654.633	17156.54
654.985	17107.5
655.337	17139.37
655.688	17136.2
656.039	17176.43
656.391	17102.98
656.742	17086.71
657.094	17164.45
657.445	17190.44
657.796	17108.18
658.147	17105.24
658.498	17119.25
658.849	17118.8
659.2	17124.22
659.551	17106.82
659.902	17169.42
660.253	17128.97
660.604	17149.31
660.955	17094.62
661.306	17202.87
661.656	17121.74
662.007	17182.75
662.358	17130.55
662.708	17117.45
663.059	17164.45
663.409	17074.96
663.76	17180.95
664.11	17181.85
664.461	17217.1
664.811	17244.22
665.161	17244.67
665.511	17156.99
665.862	17227.72
666.212	17299.36
666.562	17299.36
666.912	17246.26
667.262	17165.13
667.612	17216.88
667.962	17210.78
668.312	17209.19
668.662	17188.18
669.011	17149.76
669.361	17242.19
669.711	17113.38
670.06	17174.39
670.41	17104.11
670.76	17117.67
671.109	17208.74
671.459	17131.68
671.808	17124.9
672.157	17155.64
672.507	17004.45
672.856	16898.69
673.205	17103.89
673.554	17043.55
673.904	16975.98
674.253	17028.86
674.602	17025.7
674.951	16734.18
675.3	16753.39
675.649	16915.64
675.998	16933.27
676.346	16951.35
676.695	16982.76
677.044	16813.27
677.393	16851.01
677.741	16910.67
678.09	16892.14
678.438	16846.94
678.787	16767.17
679.135	16801.07
679.484	16703.9
679.832	16771.92
680.181	16689.66
680.529	16738.47
680.877	16691.47
681.225	16697.34
681.573	16800.62
681.922	16590
682.27	16521.53
682.618	16632.94
682.966	16507.52
683.314	16511.59
683.661	16431.59
684.009	16459.84
684.357	16430.23
684.705	16345.26
685.053	16298.94
685.4	16326.73
685.748	16220.07
686.095	16269.56
686.443	16121.99
686.79	16140.97
687.138	16127.87
687.485	16091.26
687.832	15961.54
688.18	16079.05
688.527	15973.52
688.874	15911.15
689.221	16001.32
689.568	15860.76
689.915	15792.73
690.262	15789.12
690.609	15806.52
690.956	15688.33
691.303	15670.03
691.65	15654.66
691.997	15682.45
692.344	15539.18
692.69	15530.14
693.037	15470.94
693.383	15335.8
693.73	15383.25
694.077	15278.4
694.423	15230.04
694.769	15222.58
695.116	15193.43
695.462	15146.42
695.808	15005.86
696.155	15115.01
696.501	14995.69
696.847	14958.41
697.193	14835.7
697.539	14803.83
697.885	14734.46
698.231	14654.23
698.577	14649.71
698.923	14665.76
699.269	14564.74
699.614	14431.87
699.96	14407.23
700.306	14493.11
700.651	14270.97
700.997	14313.45
701.342	14320.68
701.688	14252.89
702.033	14220.35
702.379	14160.46
702.724	14087.47
703.069	14044.08
703.415	13899.68
703.76	13989.17
704.105	14051.09
704.45	13956.4
704.795	13849.28
705.14	13741.49
705.485	13797.98
705.83	13648.84
706.175	13776.06
706.52	13640.47
706.865	13593.47
707.209	13604.77
707.554	13608.39
707.899	13570.65
708.243	13555.05
708.588	13421.95
708.932	13419.69
709.277	13238.68
709.621	13296.98
709.966	13175.18
710.31	13305.57
710.654	13165.46
710.998	13225.57
711.342	13142.63
711.687	13123.2
712.031	13078.91
712.375	12995.75
712.719	13102.64
713.063	12954.62
713.407	13050.43
713.75	12958.23
714.094	12890.44
714.438	12828.07
714.782	12817.45
715.125	12853.6
715.469	12860.61
715.812	12735.19
716.156	12745.36
716.499	12845.92
716.843	12713.49
717.186	12663.55
717.53	12710.78
717.873	12685.02
718.216	12548.98
718.559	12604.8
718.902	12523.89
719.246	12510.79
719.589	12562.76
719.932	12453.16
720.275	12378.36
720.617	12437.79
720.96	12448.19
721.303	12448.42
721.646	12440.96
721.989	12327.97
722.331	12433.05
722.674	12351.24
723.016	12321.19
723.359	12294.52
723.701	12397.8
724.044	12296.1
724.386	12280.51
724.729	12280.06
725.071	12256.1
725.413	12205.03
725.755	12224.24
726.097	12202.55
726.439	12169.55
726.782	12110.35
727.124	12211.81
727.465	12235.09
727.807	12141.76
728.149	12092.72
728.491	12123.68
728.833	12057.69
729.175	12134.98
729.516	12089.78
729.858	12032.38
730.199	12113.51
730.541	12023.34
730.882	12100.85
731.224	12112.38
731.565	11953.97
731.906	11972.72
732.248	12032.16
732.589	11969.33
732.93	11956.45
733.271	11958.03
733.612	11977.02
733.953	11966.17
734.294	11979.05
734.635	11945.38
734.976	12007.07
735.317	11914.64
735.658	11929.56
735.999	11939.95
736.339	11945.15
736.68	11999.16
737.021	11900.41
737.361	11855.21
737.702	12021.31
738.042	11986.73
738.383	12028.09
738.723	12012.72
739.063	11891.59
739.404	12028.54
739.744	12063.79
740.084	11957.36
740.424	12052.27
740.764	11929.79
741.104	12019.73
741.444	11962.1
741.784	12030.35
742.124	12017.47
742.464	12105.37
742.804	12052.95
743.143	12070.35
743.483	11997.35
743.823	12081.87
744.162	12065.83
744.502	12174.98
744.841	12063.57
745.181	12171.13
745.52	12232.15
745.86	12223.34
746.199	12216.78
746.538	12344.92
746.877	12382.2
747.216	12496.1
747.556	12405.93
747.895	12513.05
748.234	12487.28
748.573	12556.21
748.911	12652.25
749.25	12703.78
749.589	12744.23
749.928	12773.15
750.267	12915.07
750.605	12893.83
750.944	12957.55
751.283	13000.94
751.621	13129.3
751.96	13134.27
752.298	13186.48
752.636	13329.07
752.975	13360.93
753.313	13440.03
753.651	13547.37
753.989	13547.6
754.327	13716.18
754.666	13686.12
755.004	13820.36
755.342	13932.22
755.679	14034.36
756.017	14098.09
756.355	14352.32
756.693	14348.7
757.031	14482.49
757.368	14544.63
757.706	14652.65
758.044	14704.85
758.381	14866.21
758.719	14956.6
759.056	15052.87
759.394	15164.05
759.731	15200.89
760.068	15378.28
760.405	15460.77
760.743	15494.44
761.08	15619.63
761.417	15740.31
761.754	15935.56
762.091	15902.56
762.428	15953.86
762.765	16055.33
763.102	16176.23
763.438	16219.62
763.775	16357.92
764.112	16491.7
764.449	16578.93
764.785	16579.83
765.122	16673.39
765.458	16695.76
765.795	16834.74
766.131	16867.28
766.467	16954.74
766.804	17000.39
767.14	16983.44
767.476	17133.26
767.812	17171.46
768.148	17214.84
768.485	17253.49
768.821	17268.18
769.157	17413.93
769.492	17396.76
769.828	17467.04
770.164	17384.11
770.5	17481.96
770.836	17618.22
771.171	17565.12
771.507	17584.78
771.842	17536.42
772.178	17597.88
772.513	17607.38
772.849	17669.52
773.184	17643.53
773.519	17728.95
773.855	17752
774.19	17659.58
774.525	17680.59
774.86	17735.73
775.195	17669.52
775.53	17665.68
775.865	17682.85
776.2	17650.31
776.535	17598.11
776.87	17667.49
777.205	17685.57
777.539	17656.19
777.874	17594.04
778.209	17536.19
778.543	17596.3
778.878	17517.21
779.212	17483.09
779.547	17372.13
779.881	17461.84
780.215	17456.19
780.55	17413.93
780.884	17337.1
781.218	17343.65
781.552	17456.65
781.886	17347.04
782.22	17267.05
782.554	17214.17
782.888	17110.21
783.222	17085.36
783.556	17035.41
783.889	17052.59
784.223	16882.88
784.557	16933.95
784.89	16951.35
785.224	16849.66
785.557	16769.21
785.891	16780.51
786.224	16835.87
786.558	16716.33
786.891	16571.47
787.224	16631.36
787.557	16581.19
787.891	16564.92
788.224	16483.79
788.557	16411.48
788.89	16447.86
789.223	16481.98
789.556	16352.95
789.888	16277.92
790.221	16325.6
790.554	16182.78
790.887	16205.6
791.219	16114.76
791.552	16180.52
791.884	16032.95
792.217	16062.11
792.549	16002.22
792.882	15853.98
793.214	15772.4
793.546	15862.56
793.879	15765.62
794.211	15699.86
794.543	15710.25
794.875	15623.7
795.207	15664.6
795.539	15590.93
795.871	15666.86
796.203	15436.59
796.535	15374.67
796.867	15424.61
797.198	15346.64
797.53	15366.08
797.862	15235.24
798.193	15295.57
798.525	15211.73
798.856	15171.73
799.188	15073.66
799.519	14994.79
799.85	14989.82
800.182	14890.61
800.513	15032.98
800.844	14904.62
801.175	14912.98
801.506	14931.06
801.837	14721.58
802.168	14716.6
802.499	14700.79
802.83	14652.88
803.161	14587.57
803.491	14545.54
803.822	14572.65
804.153	14521.81
804.483	14389.83
804.814	14316.62
805.145	14388.03
805.475	14325.2
805.805	14245.43
806.136	14263.96
806.466	14289.95
806.796	14256.05
807.126	14091.31
807.457	14113.23
807.787	14151.87
808.117	14054.25
808.447	14023.06
808.777	13943.52
809.107	14032.33
809.436	13880.69
809.766	13874.37
810.096	13825.78
810.426	13842.73
810.755	13891.09
811.085	13794.37
811.414	13684.54
811.744	13733.35
812.073	13676.86
812.403	13624.66
812.732	13530.2
813.061	13589.63
813.39	13473.02
813.719	13454.26
814.049	13445.9
814.378	13451.1
814.707	13430.31
815.036	13399.8
815.365	13344.89
815.693	13236.19
816.022	13266.7
816.351	13134.05
816.68	13131.56
817.008	13168.62
817.337	13064.67
817.665	13000.94
817.994	13002.3
818.322	13015.18
818.651	13027.61
818.979	12995.07
819.307	12985.12
819.636	12915.75
819.964	12896.31
820.292	12920.95
820.62	12883.21
820.948	12785.36
821.276	12923.21
821.604	12733.15
821.932	12802.53
822.259	12906.03
822.587	12820.16
822.915	12779.71
823.243	12814.51
823.57	12800.5
823.898	12818.12
824.225	12733.83
824.553	12757.56
824.88	12777.67
825.207	12827.84
825.535	12780.16
825.862	12855.86
826.189	12801.63
826.516	12839.82
826.843	12867.84
827.17	12826.71
827.497	12831
827.824	12844.56
828.151	12828.97
828.478	12878.01
828.805	12927.73
829.131	12854.05
829.458	12824.22
829.785	12753.04
830.111	12820.38
830.438	12799.59
830.764	12768.41
831.09	12735.64
831.417	12755.3
831.743	12831
832.069	12748.52
832.395	12696.32
832.722	12727.05
833.048	12680.95
833.374	12755.98
833.7	12667.84
834.026	12691.12
834.351	12640.05
834.677	12701.97
835.003	12641.86
835.329	12726.15
835.654	12601.86
835.98	12603.21
836.306	12572.25
836.631	12538.58
836.956	12602.54
837.282	12563.67
837.607	12469.66
837.932	12430.56
838.258	12429.43
838.583	12475.76
838.908	12393.28
839.233	12454.29
839.558	12351.24
839.883	12270.12
840.208	12307.4
840.533	12286.39
840.858	12347.85
841.182	12279.83
841.507	12299.27
841.832	12190.8
842.156	12164.36
842.481	12254.52
842.805	12185.82
843.13	12145.15
843.454	12156.45
843.778	12117.8
844.103	12059.27
844.427	12002.1
844.751	12029.44
845.075	12056.56
845.399	11939.73
845.723	11844.14
846.047	11887.07
846.371	11805.04
846.695	11805.27
847.019	11762.78
847.343	11661.77
847.666	11615.44
847.99	11504.49
848.313	11576.35
848.637	11485.28
848.96	11436.01
849.284	11417.03
849.607	11405.05
849.931	11356.24
850.254	11231.27
850.577	11252.29
850.9	11122.8
851.223	11145.63
851.546	11032.41
851.869	11009.36
852.192	10933.2
852.515	10975.23
852.838	10921.9
853.161	10883.03
853.483	10834.67
853.806	10757.39
854.129	10842.36
854.451	10767.33
854.774	10656.15
855.096	10617.05
855.419	10653.89
855.741	10595.58
856.063	10523.04
856.385	10470.61
856.708	10382.03
857.03	10398.75
857.352	10412.08
857.674	10397.17
857.996	10373.89
858.318	10272.2
858.64	10327.79
858.961	10239.43
859.283	10184.29
859.605	10211.19
859.926	10227.46
860.248	10143.17
860.57	10127.8
860.891	10092.55
861.212	10085.77
861.534	10031.98
861.855	10020.68
862.176	10053.45
862.498	10027.91
862.819	10063.62
863.14	10009.84
863.461	9954.02
863.782	9911.99
864.103	9856.17
864.424	9862.72
864.745	9858.65
865.065	9837.64
865.386	9825.21
865.707	9743.4
866.027	9765.1
866.348	9786.34
866.668	9752.67
866.989	9763.29
867.309	9662.73
867.63	9713.12
867.95	9676.06
868.27	9627.02
868.59	9613.46
868.91	9650.98
869.23	9651.2
869.55	9532.56
869.87	9619.34
870.19	9602.39
870.51	9599.68
870.83	9523.29
871.15	9524.42
871.469	9445.78
871.789	9538.44
872.109	9478.32
872.428	9418.66
872.748	9476.52
873.067	9516.52
873.386	9499.57
873.706	9432.9
874.025	9330.53
874.344	9338.44
874.663	9370.53
874.982	9349.51
875.301	9288.95
875.62	9308.61
875.939	9269.29
876.258	9338.44
876.577	9296.63
876.896	9168.73
877.214	9217.99
877.533	9199.24
877.852	9137.77
878.17	9207.37
878.489	9222.29
878.807	9247.6
879.125	9161.5
879.444	9180.48
879.762	9113.59
880.08	9066.81
880.398	9107.71
880.716	9084.89
881.034	9039.24
881.352	9058.22
881.67	9018.22
881.988	8972.12
882.306	9011.67
882.624	8984.78
882.941	8890.09
883.259	8810.09
883.577	8848.51
883.894	8840.83
884.212	8790.21
884.529	8796.08
884.846	8771.22
885.164	8727.84
885.481	8701.85
885.798	8787.27
886.115	8684.45
886.432	8718.34
886.75	8660.04
887.067	8673.6
887.383	8675.18
887.7	8670.89
888.017	8590.66
888.334	8595.86
888.651	8583.66
888.967	8565.58
889.284	8493.94
889.6	8514.73
889.917	8384.79
890.233	8436.54
890.55	8376.66
890.866	8408.07
891.182	8394.96
891.498	8339.37
891.815	8314.96
892.131	8265.25
892.447	8295.3
892.763	8228.87
893.079	8169.88
893.395	8208.53
893.71	8144.35
894.026	8098.02
894.342	8097.34
894.657	8056.44
894.973	8073.84
895.289	8053.95
895.604	8035.65
895.92	7972.15
896.235	7961.3
896.55	7940.06
896.865	7919.95
897.181	7901.42
897.496	7880.85
897.811	7867.29
898.126	7791.14
898.441	7791.36
898.756	7686.28
899.071	7713.4
899.386	7733.06
899.7	7677.92
900.015	7622.1
900.33	7539.39
900.644	7535.78
900.959	7521.77
901.273	7557.02
901.588	7521.09
901.902	7410.81
902.216	7446.29
902.531	7439.96
902.845	7429.11
903.159	7316.12
903.473	7251.72
903.787	7254.88
904.101	7243.13
904.415	7238.84
904.729	7190.25
905.042	7188.67
905.356	7194.09
905.67	7181.66
905.984	7171.04
906.297	7116.35
906.611	7010.82
906.924	7058.5
907.237	6991.84
907.551	7007.65
907.864	6903.48
908.177	6940.09
908.491	6927.2
908.804	6824.61
909.117	6857.83
909.43	6819.19
909.743	6792.07
910.056	6755.68
910.368	6820.09
910.681	6645.18
910.994	6676.82
911.307	6620.77
911.619	6595.24
911.932	6586.87
912.244	6526.54
912.557	6523.37
912.869	6473.21
913.181	6454.67
913.494	6492.64
913.806	6409.48
914.118	6432.75
914.43	6404.51
914.742	6376.48
915.054	6383.49
915.366	6296.94
915.678	6259.2
915.99	6245.87
916.302	6236.83
916.613	6197.96
916.925	6192.08
917.236	6112.09
917.548	6152.76
917.859	6154.34
918.171	6059.66
918.482	6056.27
918.794	6007.68
919.105	6054.01
919.416	5970.17
919.727	5945.54
920.038	5960.68
920.349	5888.81
920.66	5895.14
920.971	5893.11
921.282	5836.39
921.593	5805.2
921.903	5755.03
922.214	5718.88
922.525	5762.94
922.835	5748.48
923.146	5662.83
923.456	5634.13
923.767	5663.28
924.077	5628.03
924.387	5587.35
924.697	5590.29
925.008	5555.26
925.318	5583.06
925.628	5517.52
925.938	5521.14
926.248	5433.91
926.558	5461.03
926.867	5404.53
927.177	5379
927.487	5343.07
927.796	5340.81
928.106	5318.43
928.416	5277.3
928.725	5310.98
929.034	5265.55
929.344	5286.57
929.653	5268.49
929.962	5199.57
930.271	5104.2
930.581	5162.73
930.89	5146.23
931.199	5089.51
931.508	5106.69
931.817	5074.37
932.125	5073.24
932.434	5054.94
932.743	5012.23
933.051	5014.71
933.36	4965
933.669	4948.73
933.977	4939.46
934.286	4940.59
934.594	4880.48
934.902	4860.14
935.21	4807.94
935.519	4824.89
935.827	4835.28
936.135	4797.09
936.443	4745.79
936.751	4702.86
937.059	4739.69
937.367	4711.44
937.674	4678
937.982	4717.55
938.29	4633.71
938.597	4639.13
938.905	4609.3
939.213	4597.32
939.52	4582.86
939.827	4571.56
940.135	4503.54
940.442	4470.32
940.749	4454.95
941.056	4486.37
941.363	4428.06
941.67	4467.61
941.977	4398.46
942.284	4363.43
942.591	4367.5
942.898	4335.41
943.205	4335.41
943.511	4329.08
943.818	4342.64
944.125	4288.4
944.431	4277.56
944.738	4259.03
945.044	4227.84
945.35	4204.79
945.657	4200.95
945.963	4199.14
946.269	4115.08
946.575	4133.61
946.881	4130.44
947.187	4119.37
947.493	4107.17
947.799	4099.03
948.105	4042.31
948.41	4025.36
948.716	4031.46
949.022	4007.28
949.327	4007.96
949.633	3960.5
949.938	3948.98
950.244	3933.61
950.549	3903.33
950.854	3895.19
951.16	3866.72
951.465	3851.35
951.77	3841.86
952.075	3838.25
952.38	3834.4
952.685	3824.91
952.99	3828.98
953.294	3806.16
953.599	3776.78
953.904	3764.35
954.209	3707.4
954.513	3712.83
954.818	3656.78
955.122	3683.22
955.426	3665.82
955.731	3625.6
956.035	3640.51
956.339	3594.19
956.643	3577.46
956.948	3549.21
957.252	3523
957.556	3568.88
957.86	3530.46
958.163	3545.82
958.467	3501.53
958.771	3489.78
959.075	3522.1
959.378	3475.09
959.682	3447.52
959.985	3428.54
960.289	3431.7
960.592	3391.7
960.896	3373.4
961.199	3400.52
961.502	3372.72
961.805	3320.97
962.108	3302.67
962.411	3326.17
962.714	3313.74
963.017	3296.57
963.32	3301.99
963.623	3259.73
963.926	3241.88
964.228	3221.77
964.531	3235.55
964.833	3188.09
965.136	3227.64
965.438	3172.05
965.741	3152.84
966.043	3169.11
966.345	3145.61
966.648	3095.22
966.95	3114.65
967.252	3087.31
967.554	3133.18
967.856	3094.31
968.158	3066.74
968.46	3023.35
968.761	3017.7
969.063	3009.34
969.365	3033.75
969.666	2991.94
969.968	2985.61
970.269	2936.35
970.571	2920.76
970.872	2942.68
971.174	2934.09
971.475	2919.85
971.776	2923.47
972.077	2902.45
972.378	2908.1
972.679	2889.34
972.98	2845.5
973.281	2866.29
973.582	2843.7
973.883	2836.69
974.183	2795.56
974.484	2794.66
974.785	2795.79
975.085	2796.92
975.386	2779.97
975.686	2740.87
975.986	2754.43
976.287	2756.69
976.587	2698.16
976.887	2706.3
977.187	2701.33
977.487	2681.67
977.787	2635.11
978.087	2643.7
978.387	2615.91
978.687	2619.3
978.987	2633.31
979.286	2604.61
979.586	2604.83
979.885	2617.71
980.185	2579.07
980.484	2542.24
980.784	2554.89
981.083	2557.6
981.382	2507.89
981.682	2550.6
981.981	2508.34
982.28	2501.56
982.579	2485.06
982.878	2464.95
983.177	2459.07
983.475	2470.37
983.774	2436.93
984.073	2433.76
984.372	2437.38
984.67	2424.27
984.969	2451.84
985.267	2371.17
985.566	2374.78
985.864	2351.73
986.162	2357.16
986.461	2356.03
986.759	2386.76
987.057	2355.57
987.355	2285.29
987.653	2277.84
987.951	2263.6
988.249	2284.16
988.547	2274.9
988.844	2236.48
989.142	2244.16
989.44	2246.42
989.737	2212.07
990.035	2239.42
990.332	2226.09
990.63	2215.69
990.927	2165.97
991.224	2160.1
991.521	2171.4
991.819	2151.29
992.116	2152.64
992.413	2160.78
992.71	2152.87
993.006	2111.06
993.303	2105.18
993.6	2071.29
993.897	2080.78
994.193	2090.95
994.49	2086.2
994.787	2070.84
995.083	2068.58
995.379	2057.5
995.676	2045.07
995.972	2020.89
996.268	2005.98
996.565	2033.32
996.861	2012.76
997.157	2000.1
997.453	1984.51
997.749	1982.93
998.044	1988.35
998.34	1953.78
998.636	1917.62
998.932	1930.73
999.227	1943.38
999.523	1921.46
999.818	1897.05
1000.114	1908.58
1000.409	1847.79
1000.704	1856.6
1001	1883.5
1001.295	1853.21
1001.59	1863.38
1001.885	1839.88
1002.18	1816.15
1002.475	1854.8
1002.77	1825.64
1003.065	1767.79
1003.359	1797.17
1003.654	1774.12
1003.949	1785.87
1004.243	1746.1
1004.538	1762.82
1004.832	1732.99
1005.127	1720.56
1005.421	1711.97
1005.715	1706.78
1006.009	1707.46
1006.304	1687.57
1006.598	1687.34
1006.892	1693.67
1007.186	1664.07
1007.48	1641.02
1007.773	1681.92
1008.067	1637.63
1008.361	1640.11
1008.655	1631.3
1008.948	1638.08
1009.242	1593.11
1009.535	1614.12
1009.829	1580.9
1010.122	1587.46
1010.415	1568.48
1010.708	1575.26
1011.001	1586.1
1011.295	1545.88
1011.588	1534.35
1011.881	1562.83
1012.173	1502.49
1012.466	1502.94
1012.759	1466.78
1013.052	1501.58
1013.344	1495.03
1013.637	1485.77
1013.93	1454.35
1014.222	1466.33
1014.514	1447.57
1014.807	1443.28
1015.099	1422.49
1015.391	1433.34
1015.683	1405.32
1015.976	1412.55
1016.268	1430.85
1016.56	1391.08
1016.851	1401.25
1017.143	1358.54
1017.435	1366
1017.727	1359.22
1018.018	1361.7
1018.31	1355.83
1018.602	1323.51
1018.893	1343.17
1019.185	1295.26
1019.476	1306.79
1019.767	1330.52
1020.058	1276.96
1020.35	1302.49
1020.641	1265.88
1020.932	1233.34
1021.223	1264.08
1021.514	1248.94
1021.804	1283.06
1022.095	1227.24
1022.386	1241.7
1022.677	1231.08
1022.967	1198.09
1023.258	1209.62
1023.548	1170.75
1023.839	1173.68
1024.129	1201.48
1024.419	1195.6
1024.709	1171.88
1025	1164.42
1025.29	1154.93
1025.58	1168.03
1025.87	1134.14
1026.16	1115.15
1026.449	1133.46
1026.739	1110.41
1027.029	1130.07
1027.319	1095.04
1027.608	1111.99
1027.898	1128.04
1028.187	1102.95
1028.477	1072.9
1028.766	1067.25
1029.055	1060.47
1029.344	1073.35
1029.634	1072.22
1029.923	1073.35
1030.212	1011.2
1030.501	1030.64
1030.79	1038.77
1031.078	1004.87
1031.367	1016.63
1031.656	1012.56
1031.945	998.77
1032.233	973.69
1032.522	953.35
1032.81	949.51
1033.099	983.41
1033.387	1002.61
1033.675	963.75
1033.963	948.15
1034.251	939.11
1034.54	961.26
1034.828	931.43
1035.116	931.88
1035.403	915.84
1035.691	934.82
1035.979	939.34
1036.267	912
1036.554	910.64
1036.842	878.32
1037.129	894.37
1037.417	904.09
1037.704	895.05
1037.992	884.2
1038.279	884.88
1038.566	894.6
1038.853	894.6
1039.14	894.6
