Data from hue_28_FLMS001491_00069.txt Node
Date: Tue Feb 07 17:17:37 GMT 2017
User: dcchb
Spectrometer: FLMS00149
Trigger mode: 0
Integration Time (sec): 2.000000E-2
Scans to average: 10
Electric dark correction enabled: true
Nonlinearity correction enabled: false
Boxcar width: 0
XAxis mode: Wavelengths
Number of Pixels in Spectrum: 2048
>>>>>Begin Spectral Data<<<<<
341.393	-8.69
341.776	-8.69
342.16	-8.69
342.543	-66.54
342.927	-76.93
343.31	-61.11
343.693	-81
344.077	-59.31
344.46	-45.3
344.843	-63.15
345.226	-52.75
345.61	-26.31
345.993	-22.02
346.376	-9.59
346.759	4.87
347.142	27.25
347.525	51.65
347.908	55.94
348.291	71.99
348.674	99.11
349.057	109.73
349.44	141.37
349.823	140.24
350.206	177.98
350.588	192.66
350.971	203.74
351.354	236.73
351.737	254.81
352.119	241.7
352.502	264.75
352.884	278.76
353.267	292.1
353.65	296.62
354.032	316.28
354.414	320.8
354.797	334.58
355.179	327.58
355.562	319.44
355.944	330.97
356.326	349.72
356.709	349.27
357.091	328.48
357.473	338.42
357.855	359.89
358.238	341.59
358.62	335.71
359.002	346.33
359.384	354.92
359.766	356.05
360.148	334.13
360.53	342.04
360.912	336.16
361.294	348.37
361.676	350.85
362.057	331.42
362.439	333.9
362.821	331.87
363.203	316.73
363.584	333.9
363.966	310.4
364.348	350.17
364.729	349.72
365.111	328.03
365.493	338.65
365.874	317.18
366.256	317.86
366.637	302.27
367.019	315.83
367.4	319.89
367.781	339.55
368.163	321.25
368.544	290.97
368.925	307.46
369.306	348.37
369.688	325.09
370.069	315.6
370.45	335.03
370.831	337.07
371.212	315.83
371.593	317.41
371.974	312.21
372.355	318.76
372.736	314.92
373.117	309.05
373.498	328.93
373.879	326.9
374.26	345.65
374.641	339.1
375.021	318.76
375.402	331.19
375.783	335.94
376.163	338.65
376.544	324.41
376.925	320.8
377.305	321.25
377.686	325.77
378.066	342.72
378.447	328.03
378.827	328.71
379.208	346.78
379.588	332.32
379.968	351.08
380.349	328.03
380.729	349.5
381.109	345.88
381.489	314.47
381.87	333.23
382.25	333.68
382.63	351.53
383.01	340.91
383.39	331.64
383.77	351.53
384.15	346.56
384.53	346.11
384.91	334.81
385.29	345.43
385.67	346.33
386.049	365.99
386.429	355.82
386.809	366.9
387.189	366.67
387.568	346.56
387.948	354.47
388.328	355.37
388.707	345.43
389.087	352.43
389.466	374.35
389.846	357.86
390.225	337.52
390.605	351.98
390.984	381.36
391.363	382.26
391.743	386.11
392.122	362.83
392.501	368.93
392.881	366.45
393.26	386.78
393.639	382.49
394.018	353.11
394.397	365.09
394.776	395.37
395.155	381.13
395.534	385.2
395.913	391.53
396.292	384.3
396.671	392.21
397.05	405.54
397.429	398.31
397.808	402.6
398.186	373
398.565	389.04
398.944	403.73
399.323	401.7
399.701	416.61
400.08	391.08
400.458	373.68
400.837	402.83
401.215	394.69
401.594	397.18
401.972	393.56
402.351	410.51
402.729	402.15
403.107	396.95
403.486	423.84
403.864	413.68
404.242	403.28
404.62	417.52
404.999	397.86
405.377	408.48
405.755	410.74
406.133	424.3
406.511	427.01
406.889	435.82
407.267	431.75
407.645	429.49
408.023	434.24
408.401	444.18
408.779	437.86
409.156	418.2
409.534	431.98
409.912	441.02
410.29	445.77
410.667	433.34
411.045	456.84
411.422	451.64
411.8	452.54
412.178	445.77
412.555	452.77
412.933	464.52
413.31	457.74
413.687	472.88
414.065	464.52
414.442	486.44
414.819	487.12
415.197	506.33
415.574	482.37
415.951	479.21
416.328	488.7
416.705	481.92
417.082	503.62
417.46	487.8
417.837	497.06
418.214	505.2
418.591	491.19
418.967	498.87
419.344	505.65
419.721	507.91
420.098	500
420.475	509.94
420.852	524.41
421.228	509.49
421.605	508.59
421.982	527.57
422.358	516.5
422.735	524.86
423.111	528.02
423.488	536.16
423.864	543.62
424.241	550.17
424.617	564.86
424.994	534.58
425.37	544.52
425.746	564.86
426.123	550.62
426.499	551.07
426.875	550.17
427.251	573.9
427.627	585.65
428.003	562.15
428.379	570.06
428.756	575.03
429.132	594.46
429.507	588.36
429.883	574.35
430.259	621.35
430.635	589.94
431.011	600.11
431.387	631.3
431.763	607.57
432.138	607.57
432.514	615.93
432.89	634.69
433.265	621.35
433.641	654.57
434.016	674.69
434.392	659.54
434.767	660
435.143	659.54
435.518	656.38
435.894	672.65
436.269	653.67
436.644	676.27
437.02	673.56
437.395	686.66
437.77	655.03
438.145	706.55
438.52	698.87
438.895	706.1
439.271	724.85
439.646	741.58
440.021	732.09
440.395	737.28
440.77	727.11
441.145	724.4
441.52	740.45
441.895	744.06
442.27	760.33
442.645	748.58
443.019	740.22
443.394	729.15
443.769	745.19
444.143	782.71
444.518	732.09
444.892	775.02
445.267	786.32
445.641	759.2
446.016	779.99
446.39	780.9
446.764	787.68
447.139	785.42
447.513	806.89
447.887	811.41
448.262	817.28
448.636	817.28
449.01	815.7
449.384	809.37
449.758	812.08
450.132	838.98
450.506	829.94
450.88	821.57
451.254	820.9
451.628	870.39
452.002	865.19
452.376	875.36
452.75	842.59
453.123	859.09
453.497	873.1
453.871	878.97
454.244	897.05
454.618	916.04
454.992	900.22
455.365	888.01
455.739	913.1
456.112	928.46
456.486	929.37
456.859	949.93
457.232	959.65
457.606	965.53
457.979	974.11
458.352	995.81
458.725	991.29
459.099	1014.11
459.472	1033.55
459.845	1039.2
460.218	1040.55
460.591	1029.7
460.964	1050.49
461.337	1055.47
461.71	1076.93
462.083	1092.08
462.456	1096.37
462.829	1112.19
463.201	1115.8
463.574	1127.1
463.947	1135.46
464.32	1135.92
464.692	1187.44
465.065	1159.87
465.438	1199.42
465.81	1185.86
466.183	1228.12
466.555	1250.94
466.928	1236.03
467.3	1226.31
467.672	1249.81
468.045	1273.99
468.417	1281
468.789	1299.08
469.161	1328.23
469.534	1340.43
469.906	1346.08
470.278	1381.11
470.65	1387.21
471.022	1423.14
471.394	1457.72
471.766	1464.72
472.138	1465.85
472.51	1527.77
472.882	1527.77
473.253	1570.93
473.625	1555.34
473.997	1583.36
474.369	1602.12
474.74	1624.27
475.112	1650.93
475.484	1692.96
475.855	1693.19
476.227	1732.28
476.598	1817.71
476.97	1829.91
477.341	1892.28
477.713	1898.38
478.084	1900.42
478.455	1939.29
478.827	1963.01
479.198	2049.34
479.569	2037.59
479.94	2110.81
480.311	2139.28
480.682	2166.17
481.053	2260.86
481.424	2286.62
481.795	2322.55
482.166	2341.53
482.537	2388.09
482.908	2462.89
483.279	2511.7
483.65	2522.77
484.021	2628.76
484.391	2649.32
484.762	2686.84
485.133	2691.13
485.503	2792.6
485.874	2838.02
486.244	2883.44
486.615	2935.87
486.985	2987.85
487.356	3083.44
487.726	3081.18
488.097	3141.51
488.467	3206.14
488.837	3273.26
489.207	3312.81
489.578	3390.55
489.948	3404.11
490.318	3461.73
490.688	3543.54
491.058	3549.41
491.428	3656.53
491.798	3680.71
492.168	3723.19
492.538	3726.13
492.908	3864.66
493.278	3915.28
493.648	3900.82
494.017	3973.81
494.387	4071.43
494.757	4077.08
495.126	4135.61
495.496	4155.5
495.866	4225.55
496.235	4248.38
496.605	4363.85
496.974	4354.14
497.344	4385.77
497.713	4423.29
498.082	4503.06
498.452	4497.64
498.821	4561.82
499.19	4601.14
499.559	4661.02
499.928	4641.81
500.298	4735.82
500.667	4750.06
501.036	4718.87
501.405	4857.17
501.774	4840.23
502.143	4859.66
502.512	4915.25
502.88	4957.51
503.249	4999.54
503.618	5054.23
503.987	5062.14
504.356	5078.86
504.724	5095.81
505.093	5107.79
505.462	5201.12
505.83	5181.91
506.199	5206.77
506.567	5327.9
506.936	5281.8
507.304	5395.01
507.672	5362.25
508.041	5355.24
508.409	5423.49
508.777	5517.5
509.145	5554.78
509.514	5528.57
509.882	5547.1
510.25	5624.39
510.618	5570.15
510.986	5615.8
511.354	5696.7
511.722	5692.18
512.09	5775.34
512.458	5726.53
512.826	5770.14
513.193	5823.93
513.561	5819.18
513.929	5935.79
514.297	5903.02
514.664	5922.23
515.032	5924.72
515.4	5988.22
515.767	6012.4
516.135	6002.68
516.502	5969.01
516.869	6118.38
517.237	6075
517.604	6083.58
517.972	6136.91
518.339	6172.39
518.706	6238.38
519.073	6192.73
519.44	6284.48
519.808	6288.55
520.175	6362.22
520.542	6369.9
520.909	6353.86
521.276	6431.6
521.643	6486.51
522.009	6450.58
522.376	6486.96
522.743	6544.81
523.11	6589.33
523.477	6632.27
523.843	6655.77
524.21	6709.56
524.577	6739.38
524.943	6785.03
525.31	6807.86
525.676	6807.63
526.043	6878.82
526.409	6892.15
526.776	6954.97
527.142	6952.26
527.508	7037
527.874	7062.77
528.241	7094.86
528.607	7144.57
528.973	7141.63
529.339	7156.55
529.705	7198.36
530.071	7304.57
530.437	7300.73
530.803	7369.65
531.169	7391.8
531.535	7396.54
531.901	7391.57
532.267	7404
532.632	7544.56
532.998	7542.75
533.364	7576.88
533.73	7563.54
534.095	7696.65
534.461	7682.64
534.826	7705.91
535.192	7739.13
535.557	7855.29
535.923	7842.63
536.288	7779.36
536.653	7892.12
537.019	7862.07
537.384	7917.21
537.749	7983.42
538.114	7938.45
538.479	8036.3
538.845	7986.13
539.21	7986.13
539.575	8028.16
539.94	8087.15
540.305	8141.61
540.67	8101.61
541.034	8224.09
541.399	8263.86
541.764	8290.3
542.129	8290.53
542.494	8308.38
542.858	8408.72
543.223	8417.31
543.587	8489.62
543.952	8469.06
544.316	8484.65
544.681	8496.63
545.045	8531.2
545.41	8602.61
545.774	8629.73
546.138	8660.46
546.503	8723.97
546.867	8640.13
547.231	8782.72
547.595	8742.27
547.959	8822.95
548.324	8833.57
548.688	8908.82
549.052	8887.35
549.416	8921.02
549.779	8985.65
550.143	8931.64
550.507	9068.36
550.871	9004.41
551.235	9093.22
551.599	9164.41
551.962	9175.48
552.326	9188.81
552.689	9185.87
553.053	9257.74
553.417	9257.06
553.78	9354.46
554.143	9314.01
554.507	9385.19
554.87	9394
555.234	9484.62
555.597	9394.23
555.96	9502.25
556.323	9534.79
556.686	9452.08
557.05	9586.77
557.413	9626.54
557.776	9622.7
558.139	9622.7
558.502	9694.56
558.865	9696.6
559.228	9831.28
559.59	9797.84
559.953	9865.63
560.316	9928
560.679	9928
561.041	9963.03
561.404	10058.39
561.767	9936.81
562.129	10043.25
562.492	10116.47
562.854	10086.64
563.217	10054.55
563.579	10104.04
563.941	10252.51
564.304	10272.17
564.666	10322.79
565.028	10295.22
565.39	10288.44
565.753	10421.1
566.115	10470.36
566.477	10500.64
566.839	10544.48
567.201	10568.44
567.563	10551.71
567.925	10647.3
568.287	10621.09
568.648	10657.7
569.01	10744.7
569.372	10816.11
569.734	10714.87
570.095	10828.77
570.457	10850.92
570.819	10922.78
571.18	10966.39
571.542	10989.67
571.903	11128.65
572.265	11160.06
572.626	11154.86
572.987	11196.67
573.349	11277.8
573.71	11364.35
574.071	11414.97
574.432	11479.6
574.794	11569.31
575.155	11621.74
575.516	11573.83
575.877	11757.56
576.238	11833.04
576.599	11904.9
576.96	12033.71
577.32	12035.97
577.681	12166.13
578.042	12216.98
578.403	12378.33
578.763	12502.17
579.124	12519.57
579.485	12708.72
579.845	12885.21
580.206	12917.75
580.566	13004.98
580.927	13117.97
581.287	13331.75
581.648	13434.35
582.008	13596.38
582.368	13744.4
582.728	13868.69
583.089	14077.05
583.449	14238.4
583.809	14398.84
584.169	14553.42
584.529	14697.59
584.889	14988.43
585.249	15062.56
585.609	15162.44
585.969	15542.77
586.329	15724.91
586.688	15874.96
587.048	16147.05
587.408	16361.5
587.768	16688.5
588.127	16886.24
588.487	17049.62
588.846	17437.63
589.206	17461.14
589.565	17891.86
589.925	18127.11
590.284	18411.62
590.643	18730.26
591.003	18988.55
591.362	19287.53
591.721	19576.79
592.08	19886.84
592.44	20155.76
592.799	20406.37
593.158	20603.88
593.517	20863.31
593.876	21221.72
594.235	21466.23
594.593	21792.55
594.952	22140.34
595.311	22328.13
595.67	22677.27
596.029	23042.69
596.387	23417.82
596.746	23659.17
597.104	23886.73
597.463	24162.2
597.822	24528.3
598.18	24845.35
598.538	25067.72
598.897	25469.06
599.255	25623.18
599.613	26109.95
599.972	26249.38
600.33	26554.68
600.688	26850.04
601.046	27212.07
601.404	27482.79
601.762	27734.77
602.12	28223.79
602.478	28321.87
602.836	28626.27
603.194	28787.39
603.552	29067.39
603.91	29179.47
604.268	29737.88
604.625	29767.93
604.983	30148.03
605.341	30243.63
605.698	30575.37
606.056	30914.79
606.413	31153.66
606.771	31352.98
607.128	31519.98
607.485	31696.24
607.843	31943.24
608.2	32378.26
608.557	32604.92
608.914	32804.91
609.272	32982.76
609.629	33157.22
609.986	33457.78
610.343	33601.5
610.7	33960.82
611.057	34078.1
611.414	34148.38
611.771	34497.53
612.127	34882.6
612.484	34883.5
612.841	35206.21
613.198	35281.23
613.554	35528.68
613.911	35726.65
614.267	35787.66
614.624	36078.27
614.98	36180.19
615.337	36420.41
615.693	36522.33
616.05	36605.94
616.406	37045.48
616.762	36974.52
617.118	37186.04
617.475	37315.08
617.831	37542.64
618.187	37631.91
618.543	37692.02
618.899	37954.38
619.255	38021.05
619.611	38207.03
619.967	38341.04
620.323	38430.76
620.678	38422.39
621.034	38527.7
621.39	38662.16
621.746	38644.08
622.101	39207.68
622.457	38893.79
622.812	39007.01
623.168	39263.5
623.523	39364.97
623.879	39522.03
624.234	39304.63
624.589	39630.72
624.945	39610.84
625.3	39739.65
625.655	39875.91
626.01	39994.1
626.365	39919.3
626.72	40012.41
627.075	40062.58
627.43	40063.25
627.785	40045.18
628.14	40366.07
628.495	40253.08
628.85	40436.8
629.205	40277.26
629.559	40542.34
629.914	40513.41
630.269	40665.27
630.623	40662.33
630.978	40461.89
631.332	40643.58
631.687	40815.33
632.041	40557.48
632.396	40755.89
632.75	40628.66
633.104	40879.96
633.459	40564.94
633.813	40632.96
634.167	40598.38
634.521	40616.23
634.875	40749.34
635.229	40772.84
635.583	40550.93
635.937	40550.93
636.291	40658.27
636.645	40697.36
636.999	40693.29
637.352	40807.42
637.706	40686.51
638.06	40747.08
638.413	40703.24
638.767	40717.02
639.121	40672.28
639.474	40487.2
639.828	40550.47
640.181	40582.11
640.534	40528.1
640.888	40562.68
641.241	40359.29
641.594	40505.28
641.947	40654.2
642.301	40460.98
642.654	40493.98
643.007	40577.82
643.36	40534.65
643.713	40559.29
644.066	40791.37
644.419	40435.9
644.771	40087.43
645.124	39841.11
645.477	39832.53
645.83	39610.16
646.182	39467.56
646.535	39334.23
646.888	39527.22
647.24	39235.03
647.593	39528.13
647.945	39446.32
648.298	39256.95
648.65	39216.95
649.002	39267.57
649.355	39428.69
649.707	39302.14
650.059	39475.93
650.411	39836.14
650.763	39786.88
651.115	40231.16
651.467	40116.59
651.819	40162.69
652.171	40084.95
652.523	40090.15
652.875	40032.97
653.227	39830.27
653.578	40142.12
653.93	39971.96
654.282	39899.64
654.633	39825.97
654.985	40027.55
655.337	39996.14
655.688	40024.16
656.039	40126.08
656.391	39834.56
656.742	39884.28
657.094	39862.81
657.445	40069.58
657.796	40003.37
658.147	39759.53
658.498	39897.84
658.849	39969.02
659.2	39909.13
659.551	39702.59
659.902	39956.59
660.253	39890.15
660.604	39945.52
660.955	39690.38
661.306	39890.38
661.656	39784.17
662.007	39811.06
662.358	39915.01
662.708	39632.31
663.059	39669.14
663.409	39518.18
663.76	39941
664.11	39870.27
664.461	39767.67
664.811	39769.48
665.161	39821.23
665.511	39659.2
665.862	39740.1
666.212	39844.28
666.562	39845.63
666.912	39620.1
667.262	39517.96
667.612	39558.86
667.962	39717.27
668.312	39657.39
668.662	39744.84
669.011	39559.76
669.361	39615.58
669.711	39682.47
670.06	39457.17
670.41	39502.14
670.76	39555.47
671.109	39614.23
671.459	39564.51
671.808	39485.42
672.157	39602.93
672.507	39263.28
672.856	39314.35
673.205	39380.56
673.554	39617.39
673.904	39424.4
674.253	39657.84
674.602	39559.31
674.951	38880.69
675.3	38817.19
675.649	39402.25
675.998	39361.8
676.346	39318.87
676.695	39477.51
677.044	39061.25
677.393	39270.73
677.741	39424.85
678.09	39264.41
678.438	39139.66
678.787	39132.66
679.135	39218.76
679.484	38936.73
679.832	39081.81
680.181	38822.16
680.529	39035.48
680.877	38871.65
681.225	38797.3
681.573	39001.14
681.922	38775.6
682.27	38609.28
682.618	38602.28
682.966	38476.18
683.314	38659.9
683.661	38585.33
684.009	38420.59
684.357	38308.27
684.705	38243.87
685.053	38367.03
685.4	38219.69
685.748	38120.25
686.095	38052.69
686.443	38121.16
686.79	37999.81
687.138	38083.42
687.485	38040.26
687.832	37884.33
688.18	38005
688.527	37814.95
688.874	37738.12
689.221	37746.25
689.568	37602.3
689.915	37468.75
690.262	37507.39
690.609	37348.75
690.956	37256.77
691.303	37225.81
691.65	36934.07
691.997	37001.87
692.344	36809.55
692.69	36713.29
693.037	36778.6
693.383	36429.45
693.73	36653.63
694.077	36347.42
694.423	36328.21
694.769	36234.88
695.116	36150.81
695.462	36127.54
695.808	36041.21
696.155	36021.33
696.501	35690.49
696.847	35805.74
697.193	35565.29
697.539	35670.83
697.885	35440.55
698.231	35457.5
698.577	35481.91
698.923	35469.7
699.269	35223.61
699.614	35032.2
699.96	34919.21
700.306	34970.96
700.651	34827.01
700.997	34723.96
701.342	34677.41
701.688	34703.17
702.033	34486.68
702.379	34562.83
702.724	34414.36
703.069	34488.03
703.415	34194.93
703.76	34223.86
704.105	34144.99
704.45	33980.02
704.795	33858.45
705.14	33772.8
705.485	33658.68
705.83	33592.46
706.175	33544.78
706.52	33434.28
706.865	33402.19
707.209	33399.25
707.554	33299.36
707.899	33365.8
708.243	33129.88
708.588	33132.14
708.932	32944.8
709.277	32958.13
709.621	32966.27
709.966	32711.58
710.31	32766.5
710.654	32402.21
710.998	32540.06
711.342	32607.63
711.687	32488.99
712.031	32400.18
712.375	32252.84
712.719	32190.92
713.063	32222.33
713.407	32243.8
713.75	32114.54
714.094	32098.72
714.438	31880.19
714.782	31928.55
715.125	31792.29
715.469	31863.7
715.812	31650.14
716.156	31520.43
716.499	31548.68
716.843	31564.27
717.186	31352.3
717.53	31549.35
717.873	31421.9
718.216	31422.35
718.559	31296.03
718.902	31089.48
719.246	31204.96
719.589	31005.41
719.932	30834.8
720.275	31012.19
720.617	30943.04
720.96	30816.27
721.303	30836.6
721.646	30727.91
721.989	30676.83
722.331	30698.98
722.674	30594.35
723.016	30534.47
723.359	30552.77
723.701	30635.71
724.044	30301.93
724.386	30269.39
724.729	30334.47
725.071	30369.05
725.413	30219.22
725.755	30217.41
726.097	30002.95
726.439	30019.22
726.782	29884.77
727.124	30070.07
727.465	30033.69
727.807	30003.86
728.149	29758.67
728.491	29934.48
728.833	29847.93
729.175	29753.7
729.516	29637.77
729.858	29630.08
730.199	29699.69
730.541	29629.86
730.882	29520.25
731.224	29595.73
731.565	29343.99
731.906	29507.37
732.248	29513.93
732.589	29339.02
732.93	29241.62
733.271	29169.3
733.612	29219.47
733.953	29205.23
734.294	29088.85
734.635	29011.34
734.976	29060.38
735.317	28948.97
735.658	28885.47
735.999	28934.96
736.339	28951
736.68	29022.87
737.021	28804.79
737.361	28589.43
737.702	28865.81
738.042	28654.74
738.383	28624.23
738.723	28696.55
739.063	28498.36
739.404	28562.09
739.744	28478.7
740.084	28287.07
740.424	28508.08
740.764	28328.87
741.104	28483.45
741.444	28225.83
741.784	28143.34
742.124	28301.76
742.464	28221.76
742.804	28130.01
743.143	28087.07
743.483	28087.98
743.823	27985.38
744.162	28050.69
744.502	27951.26
744.841	27936.79
745.181	27909
745.52	27832.39
745.86	27861.77
746.199	27866.97
746.538	27713.07
746.877	27789.23
747.216	27792.62
747.556	27763.92
747.895	27709.68
748.234	27576.8
748.573	27589.01
748.911	27558.72
749.25	27543.36
749.589	27497.03
749.928	27411.61
750.267	27432.17
750.605	27295.91
750.944	27241.67
751.283	27169.81
751.621	27294.32
751.96	27148.79
752.298	27193.54
752.636	27066.08
752.975	26971.4
753.313	26952.41
753.651	27108.34
753.989	26920.78
754.327	26768.69
754.666	26701.35
755.004	26672.42
755.342	26720.1
755.679	26651.63
756.017	26524.4
756.355	26579.09
756.693	26466.55
757.031	26400.34
757.368	26292.77
757.706	26261.81
758.044	26197.63
758.381	26279.89
758.719	26083.96
759.056	26077.18
759.394	25930.29
759.731	25846.68
760.068	25863.18
760.405	25749.51
760.743	25418.67
761.08	25831.31
761.417	25501.6
761.754	25379.35
762.091	25484.2
762.428	25329.63
762.765	25275.85
763.102	25339.8
763.438	25203.08
763.775	25026.59
764.112	25089.18
764.449	25072.91
764.785	24902.07
765.122	24808.74
765.458	24824.33
765.795	24660.72
766.131	24610.1
766.467	24594.73
766.804	24517.9
767.14	24375.31
767.476	24281.07
767.812	24234.29
768.148	24277.23
768.485	24078.59
768.821	24067.74
769.157	24006.95
769.492	23867.3
769.828	23825.94
770.164	23570.35
770.5	23489.68
770.836	23600.18
771.171	23469.79
771.507	23346.41
771.842	23217.37
772.178	23156.13
772.513	23121.78
772.849	23107.99
773.184	22902.35
773.519	22913.87
773.855	22841.33
774.19	22776.7
774.525	22636.37
774.86	22639.76
775.195	22597.95
775.53	22432.31
775.865	22371.29
776.2	22315.92
776.535	22118.64
776.87	22161.35
777.205	22013.79
777.539	21976.27
777.874	21945.31
778.209	21796.62
778.543	21731.99
778.878	21516.17
779.212	21538.77
779.547	21519.34
779.881	21454.25
780.215	21317.31
780.55	21349.17
780.884	21158.67
781.218	21183.52
781.552	21174.94
781.886	21065.56
782.22	20924.1
782.554	20837.09
782.888	20723.2
783.222	20649.75
783.556	20617.66
783.889	20487.95
784.223	20362.08
784.557	20349.87
784.89	20366.37
785.224	20294.51
785.557	20228.75
785.891	20117.11
786.224	20063.33
786.558	20023.56
786.891	19813.39
787.224	19678.93
787.557	19704.69
787.891	19701.76
788.224	19605.26
788.557	19620.63
788.89	19522.33
789.223	19547.86
789.556	19365.72
789.888	19201.88
790.221	19227.19
790.554	19128.89
790.887	19069.46
791.219	19007.08
791.552	18935.67
791.884	18818.16
792.217	18789.01
792.549	18736.36
792.882	18581.56
793.214	18580.43
793.546	18625.17
793.879	18540.43
794.211	18361.45
794.543	18458.4
794.875	18352.19
795.207	18360.55
795.539	18299.08
795.871	18202.36
796.203	18167.56
796.535	17985.87
796.867	17990.39
797.198	17996.26
797.53	17890.28
797.862	17839.43
798.193	17876.95
798.525	17688.02
798.856	17660.68
799.188	17525.32
799.519	17438.31
799.85	17336.39
800.182	17394.02
800.513	17349.73
800.844	17236.96
801.175	17345.89
801.506	17304.53
801.837	17164.2
802.168	17111.09
802.499	17125.78
802.83	17059.11
803.161	16988.61
803.491	17026.8
803.822	16778.22
804.153	16789.06
804.483	16681.04
804.814	16622.51
805.145	16644.44
805.475	16486.7
805.805	16496.87
806.136	16474.27
806.466	16560.37
806.796	16435.85
807.126	16282.64
807.457	16288.51
807.787	16218.23
808.117	16229.08
808.447	16192.7
808.777	16149.98
809.107	16044.68
809.436	15965.81
809.766	15951.8
810.096	15838.81
810.426	15831.8
810.755	15895.53
811.085	15771.46
811.414	15811.24
811.744	15735.08
812.073	15566.72
812.403	15573.73
812.732	15623.9
813.061	15543
813.39	15422.09
813.719	15410.57
814.049	15502.32
814.378	15470.23
814.707	15350.23
815.036	15265.71
815.365	15173.06
815.693	15146.17
816.022	15128.54
816.351	15101.42
816.68	15027.3
817.008	15037.47
817.337	14949.79
817.665	14926.29
817.994	15004.03
818.322	14919.28
818.651	14803.81
818.979	14769.68
819.307	14925.61
819.636	14764.48
819.964	14703.24
820.292	14740.98
820.62	14723.81
820.948	14701.89
821.276	14710.47
821.604	14698.95
821.932	14616.24
822.259	14656.46
822.587	14619.86
822.915	14599.52
823.243	14608.56
823.57	14618.95
823.898	14566.3
824.225	14484.27
824.553	14556.58
824.88	14471.61
825.207	14535.56
825.535	14524.04
825.862	14535.11
826.189	14476.58
826.516	14589.35
826.843	14622.34
827.17	14623.7
827.497	14641.55
827.824	14559.97
828.151	14593.42
828.478	14563.81
828.805	14671.15
829.131	14548.45
829.458	14606.3
829.785	14411.73
830.111	14489.92
830.438	14566.75
830.764	14556.35
831.09	14529.91
831.417	14488.56
831.743	14598.84
832.069	14466.64
832.395	14404.27
832.722	14545.96
833.048	14442.23
833.374	14431.39
833.7	14373.53
834.026	14427.09
834.351	14436.81
834.677	14399.75
835.003	14362.01
835.329	14354.78
835.654	14403.59
835.98	14239.07
836.306	14272.29
836.631	14181.22
836.956	14241.33
837.282	14272.75
837.607	14262.35
837.932	14165.86
838.258	14115.01
838.583	14079.53
838.908	14007.22
839.233	14039.31
839.558	14072.98
839.883	13968.35
840.208	13996.82
840.533	13935.81
840.858	13865.07
841.182	13888.12
841.507	13889.25
841.832	13822.81
842.156	13780.78
842.481	13806.32
842.805	13773.32
843.13	13781.23
843.454	13746.66
843.778	13647.9
844.103	13600.45
844.427	13623.5
844.751	13630.05
845.075	13502.37
845.399	13560.22
845.723	13437.97
846.047	13500.56
846.371	13330.85
846.695	13342.6
847.019	13280
847.343	13195.94
847.666	13071.42
847.99	13028.49
848.313	13083.17
848.637	13027.81
848.96	12934.48
849.284	12916.4
849.607	12868.04
849.931	12840.47
850.254	12769.28
850.577	12580.81
850.9	12609.06
851.223	12578.55
851.546	12539.01
851.869	12423.76
852.192	12521.15
852.515	12368.39
852.838	12273.02
853.161	12323.19
853.483	12242.97
853.806	12175.85
854.129	12200.26
854.451	12038.23
854.774	12103.54
855.096	11965.01
855.419	11970.43
855.741	12015.18
856.063	11947.16
856.385	11837.78
856.708	11858.35
857.03	11756.43
857.352	11791
857.674	11795.07
857.996	11683.66
858.318	11703.1
858.64	11708.75
858.961	11616.77
859.283	11567.51
859.605	11531.12
859.926	11532.93
860.248	11477.11
860.57	11403.22
860.891	11459.03
861.212	11405.7
861.534	11304.46
861.855	11386.72
862.176	11342.2
862.498	11312.15
862.819	11306.04
863.14	11269.44
863.461	11212.49
863.782	11256.1
864.103	11239.83
864.424	11215.2
864.745	11215.43
865.065	11098.37
865.386	11120.74
865.707	11067.63
866.027	11076.67
866.348	11055.88
866.668	11064.92
866.989	11039.38
867.309	10956
867.63	10964.13
867.95	10942.21
868.27	10872.38
868.59	10884.36
868.91	10899.5
869.23	10903.8
869.55	10850.69
869.87	10919.61
870.19	10812.27
870.51	10793.97
870.83	10828.77
871.15	10693.63
871.469	10696.12
871.789	10754.42
872.109	10755.32
872.428	10612.05
872.748	10629.23
873.067	10555.1
873.386	10649.34
873.706	10658.15
874.025	10556.69
874.344	10513.07
874.663	10554.2
874.982	10495.44
875.301	10525.73
875.62	10464.03
875.939	10470.81
876.258	10448.67
876.577	10443.24
876.896	10445.5
877.214	10366.41
877.533	10431.04
877.852	10406.86
878.17	10398.05
878.489	10393.07
878.807	10327.54
879.125	10306.3
879.444	10281.66
879.762	10210.25
880.08	10291.16
880.398	10301.78
880.716	10266.3
881.034	10266.98
881.352	10196.47
881.67	10116.7
881.988	10116.92
882.306	10164.15
882.624	10137.71
882.941	10012.07
883.259	10016.59
883.577	10092.29
883.894	9971.16
884.212	10016.81
884.529	9948.11
884.846	9977.27
885.164	9966.19
885.481	9958.06
885.798	9913.99
886.115	9794.9
886.432	9884.16
886.75	9810.94
887.067	9781.56
887.383	9707.89
887.7	9714.9
888.017	9684.39
888.334	9686.43
888.651	9652.53
888.967	9551.74
889.284	9620.21
889.6	9630.61
889.917	9523.72
890.233	9550.16
890.55	9464.74
890.866	9433.1
891.182	9435.81
891.498	9436.49
891.815	9385.19
892.131	9345.64
892.447	9297.28
892.763	9262.48
893.079	9244.86
893.395	9176.83
893.71	9154.01
894.026	9213.9
894.342	9231.75
894.657	9111.75
894.973	9068.59
895.289	9088.25
895.604	9038.76
895.92	8993.34
896.235	8969.83
896.55	8963.06
896.865	9001.25
897.181	8944.3
897.496	8948.37
897.811	8844.64
898.126	8824.98
898.441	8748.37
898.756	8778.43
899.071	8652.1
899.386	8757.18
899.7	8619.11
900.015	8602.16
900.33	8566.68
900.644	8570.07
900.959	8555.38
901.273	8543.63
901.588	8478.55
901.902	8447.81
902.216	8445.1
902.531	8343.86
902.845	8350.19
903.159	8293.02
903.473	8270.64
903.787	8192
904.101	8154.49
904.415	8164.43
904.729	8165.34
905.042	8113.13
905.356	8127.37
905.67	8050.99
905.984	8060.48
906.297	8000.82
906.611	7994.95
906.924	7985
907.237	7940.26
907.551	7905.91
907.864	7846.25
908.177	7819.36
908.491	7793.37
908.804	7794.95
909.117	7695.52
909.43	7690.09
909.743	7665.69
910.056	7623.88
910.368	7653.03
910.681	7618.23
910.994	7547.95
911.307	7550.89
911.619	7493.49
911.932	7539.36
912.244	7429.76
912.557	7427.05
912.869	7371.23
913.181	7347.05
913.494	7346.6
913.806	7249.43
914.118	7235.42
914.43	7188.41
914.742	7224.12
915.054	7166.04
915.366	7160.39
915.678	7103.67
915.99	7082.2
916.302	6996.1
916.613	7079.94
916.925	7037.23
917.236	6972.37
917.548	6970.57
917.859	6900.51
918.171	6859.83
918.482	6817.8
918.794	6791.13
919.105	6823.22
919.416	6723.34
919.727	6688.54
920.038	6748.65
920.349	6647.86
920.66	6681.99
920.971	6620.74
921.282	6629.78
921.593	6578.26
921.903	6518.37
922.214	6500.07
922.525	6468.66
922.835	6432.95
923.146	6399.96
923.456	6386.4
923.767	6398.15
924.077	6338.49
924.387	6294.88
924.697	6243.58
925.008	6230.25
925.318	6219.85
925.628	6225.73
925.938	6142.56
926.248	6134.43
926.558	6134.88
926.867	6086.52
927.177	6059.85
927.487	6041.1
927.796	5996.13
928.106	6011.95
928.416	5933.53
928.725	5919.07
929.034	5913.87
929.344	5958.84
929.653	5912.51
929.962	5835.91
930.271	5859.18
930.581	5786.42
930.89	5785.51
931.199	5740.99
931.508	5738.06
931.817	5759.52
932.125	5696.93
932.434	5679.53
932.743	5633.65
933.051	5573.54
933.36	5586.65
933.669	5574.9
933.977	5507.55
934.286	5519.08
934.594	5532.41
934.902	5443.83
935.21	5481.34
935.519	5404.28
935.827	5419.87
936.135	5353.88
936.443	5361.34
936.751	5313.43
937.059	5294
937.367	5304.62
937.674	5231.18
937.982	5210.39
938.29	5215.13
938.597	5209.03
938.905	5149.37
939.213	5167
939.52	5090.61
939.827	5132.87
940.135	5063.04
940.442	5088.58
940.749	5028.92
941.056	5027.79
941.363	4968.36
941.67	4968.81
941.977	4898.08
942.284	4911.64
942.591	4932.2
942.898	4859.43
943.205	4900.11
943.511	4861.92
943.818	4830.73
944.125	4801.36
944.431	4833.67
944.738	4800.23
945.044	4748.7
945.35	4727.91
945.657	4703.05
945.963	4634.13
946.269	4654.24
946.575	4674.81
946.881	4654.24
947.187	4601.14
947.493	4567.92
947.799	4566.56
948.105	4546.22
948.41	4490.63
948.716	4530.86
949.022	4530.63
949.327	4467.13
949.633	4419.9
949.938	4418.09
950.244	4431.2
950.549	4361.59
950.854	4381.48
951.16	4385.55
951.465	4320.47
951.77	4310.52
952.075	4322.95
952.38	4266
952.685	4246.34
952.99	4256.06
953.294	4189.4
953.599	4184.42
953.904	4184.42
954.209	4142.84
954.513	4175.16
954.818	4110.75
955.122	4144.88
955.426	4095.16
955.731	4114.37
956.035	4032.34
956.339	4007.25
956.643	3996.63
956.948	3987.37
957.252	4016.97
957.556	3950.08
957.86	3988.04
958.163	3958.67
958.467	3925.22
958.771	3869.86
959.075	3927.26
959.378	3846.13
959.682	3823.98
959.985	3839.57
960.289	3819.91
960.592	3806.58
960.896	3799.58
961.199	3767.71
961.502	3706.02
961.805	3735.62
962.108	3701.95
962.411	3688.39
962.714	3693.82
963.017	3679.58
963.32	3642.52
963.623	3661.5
963.926	3614.04
964.228	3611.11
964.531	3614.04
964.833	3601.16
965.136	3555.97
965.438	3537.21
965.741	3487.95
966.043	3490.43
966.345	3534.95
966.648	3464.67
966.95	3480.49
967.252	3465.35
967.554	3476.19
967.856	3454.05
968.158	3401.62
968.46	3373.15
968.761	3364.56
969.063	3399.13
969.365	3352.81
969.666	3345.58
969.968	3256.99
970.269	3308.51
970.571	3269.87
970.872	3266.48
971.174	3238.69
971.475	3238.46
971.776	3268.52
972.077	3216.09
972.378	3224
972.679	3222.87
972.98	3224.22
973.281	3184.68
973.582	3165.47
973.883	3143.77
974.183	3150.78
974.484	3098.8
974.785	3088.18
975.085	3098.12
975.386	3062.42
975.686	3072.14
975.986	3050.67
976.287	3082.76
976.587	2994.85
976.887	2991.46
977.187	2998.01
977.487	3001.4
977.787	2939.71
978.087	2976.77
978.387	2969.99
978.687	2964.34
978.987	2929.99
979.286	2897.45
979.586	2866.72
979.885	2831.01
980.185	2856.78
980.484	2845.93
980.784	2837.34
981.083	2842.54
981.382	2814.74
981.682	2795.08
981.981	2795.08
982.28	2777.46
982.579	2757.79
982.878	2806.16
983.177	2729.77
983.475	2710.79
983.774	2728.64
984.073	2709.66
984.372	2681.64
984.67	2680.06
984.969	2678.47
985.267	2640.96
985.566	2649.55
985.864	2623.79
986.162	2636.22
986.461	2560.29
986.759	2612.26
987.057	2575.65
987.355	2572.04
987.653	2581.3
987.951	2553.51
988.249	2568.2
988.547	2548.53
988.844	2508.08
989.142	2532.49
989.44	2496.78
989.737	2480.97
990.035	2468.54
990.332	2462.44
990.63	2453.4
990.927	2440.74
991.224	2434.87
991.521	2417.01
991.819	2420.63
992.116	2394.19
992.413	2373.62
992.71	2356.68
993.006	2378.82
993.303	2324.59
993.6	2326.62
993.897	2338.37
994.193	2319.61
994.49	2315.32
994.787	2302.44
995.083	2277.13
995.379	2261.76
995.676	2239.84
995.972	2275.77
996.268	2228.09
996.565	2243.68
996.861	2263.34
997.157	2212.72
997.453	2230.58
997.749	2198.26
998.044	2162.33
998.34	2163.69
998.636	2186.06
998.932	2093.41
999.227	2094.08
999.523	2154.42
999.818	2137.92
1000.114	2107.19
1000.409	2103.12
1000.704	2077.59
1001	2053.63
1001.295	2063.35
1001.59	2047.76
1001.885	2034.88
1002.18	2043.01
1002.475	2054.08
1002.77	2045.72
1003.065	1981.09
1003.359	1993.3
1003.654	1973.63
1003.949	1982.67
1004.243	1947.42
1004.538	1938.61
1004.832	1915.78
1005.127	1918.95
1005.421	1916.01
1005.715	1881.43
1006.009	1902.22
1006.304	1868.55
1006.598	1827.65
1006.892	1854.54
1007.186	1828.78
1007.48	1846.86
1007.773	1829.91
1008.067	1825.39
1008.361	1826.07
1008.655	1758.95
1008.948	1782
1009.242	1777.03
1009.535	1750.82
1009.829	1758.72
1010.122	1747.43
1010.415	1737.03
1010.708	1729.8
1011.001	1723.02
1011.295	1727.31
1011.588	1731.83
1011.881	1697.48
1012.173	1706.07
1012.466	1659.07
1012.759	1648.67
1013.052	1669.01
1013.344	1668.33
1013.637	1594.89
1013.93	1623.14
1014.222	1632.63
1014.514	1601.89
1014.807	1602.57
1015.099	1580.88
1015.391	1575.9
1015.683	1574.32
1015.976	1547.88
1016.268	1550.82
1016.56	1530.93
1016.851	1568.45
1017.143	1521.67
1017.435	1509.47
1017.727	1507.43
1018.018	1493.87
1018.31	1481.22
1018.602	1461.11
1018.893	1460.65
1019.185	1470.14
1019.476	1440.77
1019.767	1472.18
1020.058	1437.6
1020.35	1414.33
1020.641	1413.65
1020.932	1403.93
1021.223	1393.54
1021.514	1362.35
1021.804	1361.9
1022.095	1356.48
1022.386	1332.3
1022.677	1362.8
1022.967	1339.98
1023.258	1337.04
1023.548	1306.31
1023.839	1307.66
1024.129	1299.3
1024.419	1271.05
1024.709	1269.25
1025	1270.6
1025.29	1287.32
1025.58	1264.27
1025.87	1264.5
1026.16	1242.58
1026.449	1224.73
1026.739	1255.24
1027.029	1247.1
1027.319	1198.29
1027.608	1217.04
1027.898	1196.03
1028.187	1185.41
1028.477	1170.94
1028.766	1175.69
1029.055	1175.92
1029.344	1166.2
1029.634	1159.42
1029.923	1160.1
1030.212	1124.62
1030.501	1128.23
1030.79	1105.41
1031.078	1136.14
1031.367	1106.99
1031.656	1119.42
1031.945	1086.43
1032.233	1094.34
1032.522	1077.39
1032.81	1059.53
1033.099	1090.72
1033.387	1059.76
1033.675	1049.14
1033.963	1027.44
1034.251	1048.91
1034.54	1054.56
1034.828	1042.13
1035.116	1040.78
1035.403	1012.76
1035.691	991.29
1035.979	1013.66
1036.267	1004.62
1036.554	996.94
1036.842	984.73
1037.129	978.86
1037.417	977.28
1037.704	985.64
1037.992	961.23
1038.279	947.22
1038.566	930.5
1038.853	930.5
1039.14	930.5
